2022-12-01 15:29:45.040780, 1.66178
2022-12-01 15:29:45.049252, 1.64712
2022-12-01 15:29:45.057425, 1.65200
2022-12-01 15:29:45.069941, 1.65200
2022-12-01 15:29:45.077950, 1.65689
2022-12-01 15:29:45.086322, 1.66667
2022-12-01 15:29:45.098783, 1.67644
2022-12-01 15:29:45.106540, 1.72043
2022-12-01 15:29:45.114336, 1.70088
2022-12-01 15:29:45.122919, 1.71065
2022-12-01 15:29:45.134937, 1.72532
2022-12-01 15:29:45.143181, 1.74487
2022-12-01 15:29:45.151886, 1.73998
2022-12-01 15:29:45.164159, 1.74487
2022-12-01 15:29:45.172054, 1.74487
2022-12-01 15:29:45.180542, 1.74487
2022-12-01 15:29:45.188813, 1.75464
2022-12-01 15:29:45.201328, 1.74487
2022-12-01 15:29:45.209247, 1.73998
2022-12-01 15:29:45.217366, 1.73998
2022-12-01 15:29:45.229696, 1.73998
2022-12-01 15:29:45.237701, 1.73509
2022-12-01 15:29:45.246096, 1.73509
2022-12-01 15:29:45.254287, 1.73998
2022-12-01 15:29:45.266293, 1.74976
2022-12-01 15:29:45.274515, 1.73998
2022-12-01 15:29:45.283452, 1.73021
2022-12-01 15:29:45.294386, 1.72532
2022-12-01 15:29:45.303928, 1.72532
2022-12-01 15:29:45.311344, 1.72043
2022-12-01 15:29:45.320311, 1.71554
2022-12-01 15:29:45.331880, 1.71065
2022-12-01 15:29:45.339500, 1.71065
2022-12-01 15:29:45.349010, 1.70577
2022-12-01 15:29:45.356640, 1.70088
2022-12-01 15:29:45.369495, 1.70088
2022-12-01 15:29:45.377677, 1.70088
2022-12-01 15:29:45.385850, 1.73509
2022-12-01 15:29:45.397668, 1.70577
2022-12-01 15:29:45.405971, 1.70577
2022-12-01 15:29:45.413576, 1.71065
2022-12-01 15:29:45.421729, 1.73998
2022-12-01 15:29:45.434333, 1.71065
2022-12-01 15:29:45.443207, 1.71065
2022-12-01 15:29:45.451067, 1.71065
2022-12-01 15:29:45.463457, 1.72532
2022-12-01 15:29:45.471893, 1.70577
2022-12-01 15:29:45.479844, 1.70088
2022-12-01 15:29:45.488282, 1.70088
2022-12-01 15:29:45.500539, 1.70088
2022-12-01 15:29:45.508810, 1.72532
2022-12-01 15:29:45.516927, 1.69110
2022-12-01 15:29:45.528310, 1.68622
2022-12-01 15:29:45.536364, 1.68622
2022-12-01 15:29:45.544857, 1.68622
2022-12-01 15:29:45.553817, 1.67644
2022-12-01 15:29:45.564544, 1.67644
2022-12-01 15:29:45.573805, 1.67155
2022-12-01 15:29:45.581958, 1.68133
2022-12-01 15:29:45.594049, 1.67155
2022-12-01 15:29:45.602451, 1.66667
2022-12-01 15:29:45.610624, 1.66667
2022-12-01 15:29:45.619698, 1.67644
2022-12-01 15:29:45.631060, 1.66667
2022-12-01 15:29:45.639290, 1.66178
2022-12-01 15:29:45.648022, 1.66178
2022-12-01 15:29:45.660285, 1.65689
2022-12-01 15:29:45.667995, 1.65689
2022-12-01 15:29:45.676669, 1.66667
2022-12-01 15:29:45.683833, 1.65200
2022-12-01 15:29:45.696671, 1.65200
2022-12-01 15:29:45.705133, 1.64712
2022-12-01 15:29:45.712801, 1.64712
2022-12-01 15:29:45.725083, 1.64712
2022-12-01 15:29:45.733637, 1.64223
2022-12-01 15:29:45.741795, 1.63734
2022-12-01 15:29:45.749914, 1.65689
2022-12-01 15:29:45.762042, 1.63734
2022-12-01 15:29:45.770186, 1.63245
2022-12-01 15:29:45.778560, 1.63734
2022-12-01 15:29:45.790254, 1.63245
2022-12-01 15:29:45.798422, 1.63245
2022-12-01 15:29:45.807280, 1.65689
2022-12-01 15:29:45.815091, 1.64223
2022-12-01 15:29:45.826692, 1.65200
2022-12-01 15:29:45.835676, 1.66178
2022-12-01 15:29:45.843753, 1.67644
2022-12-01 15:29:45.855777, 1.69110
2022-12-01 15:29:45.863827, 1.73998
2022-12-01 15:29:45.872185, 1.72043
2022-12-01 15:29:45.880704, 1.73021
2022-12-01 15:29:45.893032, 1.73998
2022-12-01 15:29:45.901308, 1.74976
2022-12-01 15:29:45.909526, 1.75464
2022-12-01 15:29:45.921157, 1.78397
2022-12-01 15:29:45.929647, 1.76442
2022-12-01 15:29:45.937981, 1.77419
2022-12-01 15:29:45.946092, 1.78397
2022-12-01 15:29:45.958406, 1.79863
2022-12-01 15:29:45.966795, 1.81329
2022-12-01 15:29:45.974358, 1.85239
2022-12-01 15:29:45.986623, 1.84751
2022-12-01 15:29:45.994929, 1.87683
2022-12-01 15:29:46.003102, 1.91105
2022-12-01 15:29:46.011273, 1.95503
2022-12-01 15:29:46.024836, 2.00391
2022-12-01 15:29:46.033025, 2.06256
2022-12-01 15:29:46.040867, 2.07234
2022-12-01 15:29:46.053500, 2.09189
2022-12-01 15:29:46.060508, 2.09677
2022-12-01 15:29:46.069016, 2.10166
2022-12-01 15:29:46.077316, 2.09677
2022-12-01 15:29:46.089530, 2.08700
2022-12-01 15:29:46.098087, 2.06745
2022-12-01 15:29:46.106028, 2.04790
2022-12-01 15:29:46.118400, 2.02346
2022-12-01 15:29:46.126475, 1.99902
2022-12-01 15:29:46.134580, 1.97947
2022-12-01 15:29:46.143019, 1.94037
2022-12-01 15:29:46.154959, 1.92571
2022-12-01 15:29:46.162987, 1.93548
2022-12-01 15:29:46.171796, 1.88172
2022-12-01 15:29:46.180289, 1.86706
2022-12-01 15:29:46.192271, 1.85239
2022-12-01 15:29:46.200190, 1.83284
2022-12-01 15:29:46.208609, 1.82796
2022-12-01 15:29:46.220968, 1.81818
2022-12-01 15:29:46.229066, 1.80841
2022-12-01 15:29:46.236723, 1.79863
2022-12-01 15:29:46.244746, 1.79374
2022-12-01 15:29:46.258308, 1.78397
2022-12-01 15:29:46.266029, 1.77419
2022-12-01 15:29:46.274352, 1.76442
2022-12-01 15:29:46.286402, 1.75464
2022-12-01 15:29:46.294332, 1.73998
2022-12-01 15:29:46.302639, 1.73021
2022-12-01 15:29:46.310858, 1.72532
2022-12-01 15:29:46.323222, 1.70577
2022-12-01 15:29:46.331241, 1.69599
2022-12-01 15:29:46.339208, 1.68622
2022-12-01 15:29:46.350913, 1.67644
2022-12-01 15:29:46.359221, 1.67155
2022-12-01 15:29:46.367849, 1.66178
2022-12-01 15:29:46.375879, 1.65689
2022-12-01 15:29:46.387962, 1.65200
2022-12-01 15:29:46.396931, 1.65689
2022-12-01 15:29:46.404730, 1.65200
2022-12-01 15:29:46.417253, 1.64712
2022-12-01 15:29:46.425198, 1.64712
2022-12-01 15:29:46.433452, 1.65200
2022-12-01 15:29:46.441479, 1.63734
2022-12-01 15:29:46.454138, 1.62757
2022-12-01 15:29:46.462455, 1.61290
2022-12-01 15:29:46.470607, 1.60313
2022-12-01 15:29:46.482292, 1.58847
2022-12-01 15:29:46.491196, 1.57869
2022-12-01 15:29:46.498997, 1.56891
2022-12-01 15:29:46.507019, 1.55914
2022-12-01 15:29:46.519592, 1.55425
2022-12-01 15:29:46.527983, 1.56891
2022-12-01 15:29:46.535708, 1.54448
2022-12-01 15:29:46.548296, 1.57869
2022-12-01 15:29:46.556145, 1.54448
2022-12-01 15:29:46.564090, 1.54448
2022-12-01 15:29:46.572440, 1.54936
2022-12-01 15:29:46.585174, 1.55914
2022-12-01 15:29:46.592541, 1.57380
2022-12-01 15:29:46.601200, 1.57869
2022-12-01 15:29:46.613759, 1.59335
2022-12-01 15:29:46.621132, 1.60802
2022-12-01 15:29:46.630336, 1.61779
2022-12-01 15:29:46.638706, 1.62757
2022-12-01 15:29:46.650422, 1.63734
2022-12-01 15:29:46.658953, 1.64223
2022-12-01 15:29:46.666815, 1.66178
2022-12-01 15:29:46.679279, 1.64712
2022-12-01 15:29:46.686979, 1.65200
2022-12-01 15:29:46.695746, 1.65200
2022-12-01 15:29:46.703860, 1.67155
2022-12-01 15:29:46.715682, 1.64712
2022-12-01 15:29:46.724226, 1.64712
2022-12-01 15:29:46.732411, 1.64712
2022-12-01 15:29:46.744572, 1.65200
2022-12-01 15:29:46.753005, 1.65200
2022-12-01 15:29:46.761515, 1.65200
2022-12-01 15:29:46.769549, 1.65200
2022-12-01 15:29:46.781179, 1.66667
2022-12-01 15:29:46.789642, 1.65689
2022-12-01 15:29:46.798016, 1.65689
2022-12-01 15:29:46.811303, 1.65689
2022-12-01 15:29:46.819247, 1.65689
2022-12-01 15:29:46.827697, 1.67155
2022-12-01 15:29:46.835455, 1.66178
2022-12-01 15:29:46.848146, 1.65689
2022-12-01 15:29:46.855344, 1.65689
2022-12-01 15:29:46.864560, 1.65689
2022-12-01 15:29:46.876682, 1.65689
2022-12-01 15:29:46.883755, 1.66178
2022-12-01 15:29:46.893210, 1.66178
2022-12-01 15:29:46.901392, 1.68133
2022-12-01 15:29:46.912967, 1.66667
2022-12-01 15:29:46.921312, 1.66667
2022-12-01 15:29:46.929248, 1.66667
2022-12-01 15:29:46.941855, 1.67644
2022-12-01 15:29:46.950070, 1.66178
2022-12-01 15:29:46.958160, 1.65200
2022-12-01 15:29:46.966411, 1.64223
2022-12-01 15:29:46.978423, 1.63734
2022-12-01 15:29:46.987427, 1.62757
2022-12-01 15:29:46.995598, 1.61779
2022-12-01 15:29:47.007198, 1.64223
2022-12-01 15:29:47.016075, 1.59824
2022-12-01 15:29:47.022860, 1.61290
2022-12-01 15:29:47.031927, 1.61290
2022-12-01 15:29:47.043590, 1.60802
2022-12-01 15:29:47.052424, 1.57380
2022-12-01 15:29:47.060331, 1.56891
2022-12-01 15:29:47.068947, 1.56891
2022-12-01 15:29:47.080941, 1.55914
2022-12-01 15:29:47.088922, 1.55425
2022-12-01 15:29:47.097189, 1.54936
2022-12-01 15:29:47.108846, 1.54448
2022-12-01 15:29:47.117686, 1.54448
2022-12-01 15:29:47.126111, 1.53959
2022-12-01 15:29:47.133853, 1.53470
2022-12-01 15:29:47.146112, 1.53470
2022-12-01 15:29:47.154487, 1.52981
2022-12-01 15:29:47.162949, 1.52981
2022-12-01 15:29:47.175316, 1.52981
2022-12-01 15:29:47.183132, 1.52493
2022-12-01 15:29:47.191125, 1.53959
2022-12-01 15:29:47.199501, 1.52493
2022-12-01 15:29:47.211899, 1.52981
2022-12-01 15:29:47.219841, 1.52981
2022-12-01 15:29:47.227963, 1.52493
2022-12-01 15:29:47.239961, 1.52493
2022-12-01 15:29:47.247933, 1.52493
2022-12-01 15:29:47.256333, 1.52493
2022-12-01 15:29:47.264314, 1.52493
2022-12-01 15:29:47.276669, 1.52981
2022-12-01 15:29:47.285570, 1.53470
2022-12-01 15:29:47.293846, 1.56891
2022-12-01 15:29:47.306162, 1.55425
2022-12-01 15:29:47.314700, 1.55425
2022-12-01 15:29:47.322020, 1.55425
2022-12-01 15:29:47.330848, 1.56403
2022-12-01 15:29:47.343317, 1.57380
2022-12-01 15:29:47.351399, 1.58847
2022-12-01 15:29:47.359618, 1.59824
2022-12-01 15:29:47.371135, 1.61290
2022-12-01 15:29:47.379837, 1.62757
2022-12-01 15:29:47.387786, 1.64223
2022-12-01 15:29:47.397013, 1.65689
2022-12-01 15:29:47.408717, 1.66178
2022-12-01 15:29:47.417515, 1.67155
2022-12-01 15:29:47.425210, 1.67155
2022-12-01 15:29:47.437646, 1.67155
2022-12-01 15:29:47.445675, 1.67155
2022-12-01 15:29:47.453254, 1.66178
2022-12-01 15:29:47.462082, 1.65689
2022-12-01 15:29:47.474056, 1.68133
2022-12-01 15:29:47.483022, 1.63734
2022-12-01 15:29:47.490698, 1.63245
2022-12-01 15:29:47.501779, 1.62757
2022-12-01 15:29:47.510642, 1.61779
2022-12-01 15:29:47.519025, 1.62268
2022-12-01 15:29:47.527408, 1.61779
2022-12-01 15:29:47.539859, 1.61779
2022-12-01 15:29:47.548011, 1.61290
2022-12-01 15:29:47.556202, 1.60802
2022-12-01 15:29:47.568971, 1.64223
2022-12-01 15:29:47.577051, 1.60313
2022-12-01 15:29:47.585442, 1.60313
2022-12-01 15:29:47.593648, 1.60313
2022-12-01 15:29:47.604361, 1.60313
2022-12-01 15:29:47.612755, 1.60313
2022-12-01 15:29:47.621046, 1.60802
2022-12-01 15:29:47.634148, 1.61779
2022-12-01 15:29:47.641902, 1.61779
2022-12-01 15:29:47.651004, 1.62268
2022-12-01 15:29:47.658089, 1.62757
2022-12-01 15:29:47.670414, 1.62757
2022-12-01 15:29:47.679058, 1.63734
2022-12-01 15:29:47.687360, 1.63734
2022-12-01 15:29:47.700132, 1.63734
2022-12-01 15:29:47.708317, 1.64223
2022-12-01 15:29:47.716509, 1.64223
2022-12-01 15:29:47.724706, 1.63734
2022-12-01 15:29:47.735738, 1.63734
2022-12-01 15:29:47.744815, 1.63734
2022-12-01 15:29:47.753363, 1.64223
2022-12-01 15:29:47.764981, 1.63245
2022-12-01 15:29:47.773109, 1.62757
2022-12-01 15:29:47.780682, 1.63245
2022-12-01 15:29:47.789759, 1.64223
2022-12-01 15:29:47.801874, 1.62268
2022-12-01 15:29:47.810756, 1.62268
2022-12-01 15:29:47.817780, 1.62268
2022-12-01 15:29:47.830393, 1.61779
2022-12-01 15:29:47.838616, 1.61779
2022-12-01 15:29:47.846809, 1.62268
2022-12-01 15:29:47.855125, 1.61290
2022-12-01 15:29:47.867235, 1.61290
2022-12-01 15:29:47.875332, 1.63734
2022-12-01 15:29:47.883090, 1.60802
2022-12-01 15:29:47.895392, 1.60313
2022-12-01 15:29:47.904122, 1.60313
2022-12-01 15:29:47.912601, 1.60313
2022-12-01 15:29:47.921090, 1.61290
2022-12-01 15:29:47.933055, 1.59824
2022-12-01 15:29:47.941054, 1.60313
2022-12-01 15:29:47.949443, 1.63245
2022-12-01 15:29:47.957575, 1.59824
2022-12-01 15:29:47.969467, 1.60313
2022-12-01 15:29:47.978154, 1.59824
2022-12-01 15:29:47.986243, 1.59824
2022-12-01 15:29:47.998436, 1.60802
2022-12-01 15:29:48.006613, 1.59824
2022-12-01 15:29:48.014568, 1.61290
2022-12-01 15:29:48.023435, 1.59335
2022-12-01 15:29:48.036016, 1.59824
2022-12-01 15:29:48.044656, 1.60313
2022-12-01 15:29:48.052026, 1.60313
2022-12-01 15:29:48.063873, 1.62268
2022-12-01 15:29:48.072347, 1.62757
2022-12-01 15:29:48.081058, 1.65200
2022-12-01 15:29:48.088278, 1.66667
2022-12-01 15:29:48.101534, 1.68622
2022-12-01 15:29:48.109194, 1.70088
2022-12-01 15:29:48.117657, 1.71065
2022-12-01 15:29:48.129929, 1.71554
2022-12-01 15:29:48.137486, 1.72043
2022-12-01 15:29:48.146123, 1.72043
2022-12-01 15:29:48.154905, 1.74976
2022-12-01 15:29:48.166415, 1.71065
2022-12-01 15:29:48.173963, 1.70577
2022-12-01 15:29:48.182682, 1.70088
2022-12-01 15:29:48.195342, 1.70088
2022-12-01 15:29:48.202782, 1.71065
2022-12-01 15:29:48.212137, 1.69110
2022-12-01 15:29:48.219138, 1.68622
2022-12-01 15:29:48.233079, 1.68622
2022-12-01 15:29:48.240218, 1.68622
2022-12-01 15:29:48.248488, 1.71554
2022-12-01 15:29:48.261257, 1.67644
2022-12-01 15:29:48.269491, 1.67644
2022-12-01 15:29:48.277661, 1.67155
2022-12-01 15:29:48.285463, 1.66667
2022-12-01 15:29:48.297376, 1.66667
2022-12-01 15:29:48.305085, 1.67644
2022-12-01 15:29:48.313772, 1.69599
2022-12-01 15:29:48.325603, 1.66178
2022-12-01 15:29:48.334427, 1.66667
2022-12-01 15:29:48.342052, 1.68622
2022-12-01 15:29:48.350341, 1.67644
2022-12-01 15:29:48.363706, 1.68133
2022-12-01 15:29:48.371291, 1.69110
2022-12-01 15:29:48.380050, 1.68622
2022-12-01 15:29:48.392367, 1.70088
2022-12-01 15:29:48.400528, 1.72532
2022-12-01 15:29:48.408759, 1.71065
2022-12-01 15:29:48.416963, 1.72043
2022-12-01 15:29:48.427831, 1.73509
2022-12-01 15:29:48.436652, 1.74487
2022-12-01 15:29:48.445229, 1.74976
2022-12-01 15:29:48.457914, 1.76442
2022-12-01 15:29:48.465509, 1.74976
2022-12-01 15:29:48.473906, 1.74487
2022-12-01 15:29:48.481702, 1.74487
2022-12-01 15:29:48.493940, 1.73998
2022-12-01 15:29:48.502458, 1.75464
2022-12-01 15:29:48.510617, 1.73021
2022-12-01 15:29:48.522672, 1.72532
2022-12-01 15:29:48.531624, 1.72043
2022-12-01 15:29:48.540209, 1.72043
2022-12-01 15:29:48.548015, 1.73021
2022-12-01 15:29:48.559534, 1.73021
2022-12-01 15:29:48.568484, 1.69110
2022-12-01 15:29:48.575726, 1.68133
2022-12-01 15:29:48.587996, 1.66667
2022-12-01 15:29:48.597130, 1.66178
2022-12-01 15:29:48.605229, 1.65689
2022-12-01 15:29:48.612778, 1.64712
2022-12-01 15:29:48.625300, 1.64712
2022-12-01 15:29:48.633346, 1.64712
2022-12-01 15:29:48.641640, 1.63734
2022-12-01 15:29:48.653787, 1.64223
2022-12-01 15:29:48.662123, 1.63245
2022-12-01 15:29:48.670300, 1.63734
2022-12-01 15:29:48.678119, 1.62757
2022-12-01 15:29:48.691354, 1.62757
2022-12-01 15:29:48.699578, 1.61779
2022-12-01 15:29:48.707751, 1.61779
2022-12-01 15:29:48.720015, 1.61779
2022-12-01 15:29:48.727404, 1.62268
2022-12-01 15:29:48.736439, 1.63245
2022-12-01 15:29:48.743713, 1.65689
2022-12-01 15:29:48.756208, 1.70088
2022-12-01 15:29:48.765110, 1.69110
2022-12-01 15:29:48.772755, 1.71065
2022-12-01 15:29:48.785576, 1.73509
2022-12-01 15:29:48.793764, 1.75953
2022-12-01 15:29:48.802133, 1.76442
2022-12-01 15:29:48.809890, 1.79374
2022-12-01 15:29:48.821566, 1.77908
2022-12-01 15:29:48.830104, 1.78397
2022-12-01 15:29:48.837353, 1.77908
2022-12-01 15:29:48.846395, 1.77908
2022-12-01 15:29:48.859327, 1.79374
2022-12-01 15:29:48.866710, 1.76442
2022-12-01 15:29:48.875719, 1.75953
2022-12-01 15:29:48.886973, 1.75953
2022-12-01 15:29:48.895486, 1.76442
2022-12-01 15:29:48.903844, 1.75464
2022-12-01 15:29:48.911978, 1.74976
2022-12-01 15:29:48.924551, 1.74976
2022-12-01 15:29:48.932567, 1.74976
2022-12-01 15:29:48.940368, 1.74487
2022-12-01 15:29:48.953525, 1.74487
2022-12-01 15:29:48.960993, 1.76442
2022-12-01 15:29:48.969336, 1.76442
2022-12-01 15:29:48.977585, 1.73998
2022-12-01 15:29:48.988731, 1.73998
2022-12-01 15:29:48.998007, 1.73998
2022-12-01 15:29:49.006262, 1.74487
2022-12-01 15:29:49.017911, 1.74976
2022-12-01 15:29:49.026691, 1.76442
2022-12-01 15:29:49.035000, 1.73509
2022-12-01 15:29:49.043030, 1.73021
2022-12-01 15:29:49.054983, 1.73021
2022-12-01 15:29:49.062955, 1.73509
2022-12-01 15:29:49.071431, 1.73509
2022-12-01 15:29:49.083204, 1.73509
2022-12-01 15:29:49.092119, 1.73021
2022-12-01 15:29:49.099604, 1.73021
2022-12-01 15:29:49.108574, 1.73021
2022-12-01 15:29:49.120047, 1.72532
2022-12-01 15:29:49.128495, 1.73021
2022-12-01 15:29:49.137009, 1.72532
2022-12-01 15:29:49.149396, 1.72532
2022-12-01 15:29:49.157244, 1.72043
2022-12-01 15:29:49.165823, 1.72043
2022-12-01 15:29:49.173907, 1.71554
2022-12-01 15:29:49.185552, 1.71065
2022-12-01 15:29:49.193893, 1.72043
2022-12-01 15:29:49.201892, 1.68622
2022-12-01 15:29:49.214495, 1.68133
2022-12-01 15:29:49.222412, 1.66667
2022-12-01 15:29:49.231436, 1.66178
2022-12-01 15:29:49.239627, 1.65689
2022-12-01 15:29:49.252045, 1.65200
2022-12-01 15:29:49.260068, 1.64712
2022-12-01 15:29:49.268055, 1.64712
2022-12-01 15:29:49.280195, 1.64223
2022-12-01 15:29:49.288842, 1.63734
2022-12-01 15:29:49.297314, 1.63734
2022-12-01 15:29:49.304889, 1.63245
2022-12-01 15:29:49.317155, 1.62757
2022-12-01 15:29:49.325136, 1.62757
2022-12-01 15:29:49.333977, 1.62757
2022-12-01 15:29:49.345846, 1.64223
2022-12-01 15:29:49.353667, 1.65200
2022-12-01 15:29:49.362331, 1.61290
2022-12-01 15:29:49.370219, 1.61290
2022-12-01 15:29:49.383062, 1.61779
2022-12-01 15:29:49.391277, 1.63245
2022-12-01 15:29:49.399961, 1.65200
2022-12-01 15:29:49.412289, 1.67155
2022-12-01 15:29:49.420312, 1.70088
2022-12-01 15:29:49.428165, 1.72532
2022-12-01 15:29:49.436834, 1.74976
2022-12-01 15:29:49.449147, 1.79374
2022-12-01 15:29:49.457335, 1.77419
2022-12-01 15:29:49.464316, 1.78886
2022-12-01 15:29:49.477667, 1.79374
2022-12-01 15:29:49.485562, 1.79374
2022-12-01 15:29:49.492792, 1.78397
2022-12-01 15:29:49.501650, 1.77419
2022-12-01 15:29:49.514211, 1.76931
2022-12-01 15:29:49.522099, 1.76442
2022-12-01 15:29:49.530573, 1.77419
2022-12-01 15:29:49.542341, 1.74976
2022-12-01 15:29:49.550774, 1.74487
2022-12-01 15:29:49.559171, 1.73998
2022-12-01 15:29:49.567932, 1.75464
2022-12-01 15:29:49.579381, 1.73021
2022-12-01 15:29:49.587911, 1.72532
2022-12-01 15:29:49.596586, 1.72043
2022-12-01 15:29:49.607741, 1.71554
2022-12-01 15:29:49.617059, 1.73998
2022-12-01 15:29:49.624047, 1.69599
2022-12-01 15:29:49.633474, 1.69110
2022-12-01 15:29:49.645295, 1.69110
2022-12-01 15:29:49.653525, 1.68622
2022-12-01 15:29:49.661687, 1.69110
2022-12-01 15:29:49.669591, 1.69599
2022-12-01 15:29:49.682153, 1.71065
2022-12-01 15:29:49.690279, 1.72532
2022-12-01 15:29:49.698493, 1.73021
2022-12-01 15:29:49.710439, 1.73509
2022-12-01 15:29:49.718742, 1.73998
2022-12-01 15:29:49.727166, 1.75953
2022-12-01 15:29:49.735100, 1.73998
2022-12-01 15:29:49.747825, 1.73998
2022-12-01 15:29:49.755511, 1.73509
2022-12-01 15:29:49.763354, 1.75953
2022-12-01 15:29:49.776860, 1.75953
2022-12-01 15:29:49.784927, 1.72532
2022-12-01 15:29:49.792853, 1.72043
2022-12-01 15:29:49.801410, 1.72043
2022-12-01 15:29:49.812380, 1.72532
2022-12-01 15:29:49.821507, 1.71554
2022-12-01 15:29:49.829688, 1.71065
2022-12-01 15:29:49.841115, 1.72043
2022-12-01 15:29:49.850077, 1.70088
2022-12-01 15:29:49.857166, 1.69599
2022-12-01 15:29:49.865757, 1.71065
2022-12-01 15:29:49.878479, 1.68622
2022-12-01 15:29:49.886582, 1.68622
2022-12-01 15:29:49.894998, 1.68133
2022-12-01 15:29:49.907327, 1.67644
2022-12-01 15:29:49.916075, 1.68133
2022-12-01 15:29:49.924299, 1.67155
2022-12-01 15:29:49.932777, 1.66667
2022-12-01 15:29:49.944000, 1.70577
2022-12-01 15:29:49.952117, 1.66667
2022-12-01 15:29:49.960113, 1.67644
2022-12-01 15:29:49.972036, 1.66178
2022-12-01 15:29:49.980157, 1.66178
2022-12-01 15:29:49.988889, 1.65689
2022-12-01 15:29:49.997422, 1.65689
2022-12-01 15:29:50.009928, 1.65689
2022-12-01 15:29:50.017985, 1.66667
2022-12-01 15:29:50.026944, 1.67644
2022-12-01 15:29:50.038182, 1.69110
2022-12-01 15:29:50.046292, 1.71554
2022-12-01 15:29:50.054388, 1.73998
2022-12-01 15:29:50.062802, 1.75464
2022-12-01 15:29:50.074999, 1.77908
2022-12-01 15:29:50.084028, 1.79863
2022-12-01 15:29:50.091438, 1.81329
2022-12-01 15:29:50.103448, 1.83284
2022-12-01 15:29:50.112677, 1.84262
2022-12-01 15:29:50.119830, 1.85239
2022-12-01 15:29:50.129069, 1.86217
2022-12-01 15:29:50.140496, 1.87195
2022-12-01 15:29:50.149954, 1.90127
2022-12-01 15:29:50.157682, 1.86706
2022-12-01 15:29:50.169932, 1.85728
2022-12-01 15:29:50.177894, 1.84751
2022-12-01 15:29:50.185935, 1.83284
2022-12-01 15:29:50.194156, 1.83284
2022-12-01 15:29:50.206317, 1.80352
2022-12-01 15:29:50.213744, 1.78886
2022-12-01 15:29:50.222495, 1.77908
2022-12-01 15:29:50.235592, 1.76931
2022-12-01 15:29:50.243521, 1.76442
2022-12-01 15:29:50.251969, 1.75953
2022-12-01 15:29:50.259694, 1.75464
2022-12-01 15:29:50.271850, 1.78397
2022-12-01 15:29:50.280048, 1.74976
2022-12-01 15:29:50.288368, 1.74487
2022-12-01 15:29:50.301124, 1.77419
2022-12-01 15:29:50.308716, 1.73998
2022-12-01 15:29:50.317502, 1.73021
2022-12-01 15:29:50.324900, 1.72043
2022-12-01 15:29:50.337344, 1.71065
2022-12-01 15:29:50.345402, 1.70088
2022-12-01 15:29:50.353907, 1.69599
2022-12-01 15:29:50.366127, 1.72532
2022-12-01 15:29:50.374336, 1.68622
2022-12-01 15:29:50.383027, 1.69110
2022-12-01 15:29:50.390379, 1.68622
2022-12-01 15:29:50.403253, 1.68622
2022-12-01 15:29:50.411232, 1.69110
2022-12-01 15:29:50.419891, 1.70577
2022-12-01 15:29:50.431232, 1.69110
2022-12-01 15:29:50.439814, 1.68622
2022-12-01 15:29:50.448564, 1.69599
2022-12-01 15:29:50.456191, 1.70088
2022-12-01 15:29:50.469063, 1.66178
2022-12-01 15:29:50.476264, 1.65200
2022-12-01 15:29:50.485417, 1.64712
2022-12-01 15:29:50.497723, 1.63734
2022-12-01 15:29:50.506216, 1.62757
2022-12-01 15:29:50.513945, 1.62268
2022-12-01 15:29:50.521867, 1.61290
2022-12-01 15:29:50.533997, 1.60313
2022-12-01 15:29:50.542161, 1.59824
2022-12-01 15:29:50.550389, 1.58847
2022-12-01 15:29:50.558270, 1.57869
2022-12-01 15:29:50.570580, 1.57380
2022-12-01 15:29:50.579113, 1.57380
2022-12-01 15:29:50.587364, 1.56891
2022-12-01 15:29:50.599484, 1.56891
2022-12-01 15:29:50.607839, 1.56891
2022-12-01 15:29:50.616284, 1.56403
2022-12-01 15:29:50.624172, 1.56403
2022-12-01 15:29:50.636436, 1.55914
2022-12-01 15:29:50.644450, 1.56891
2022-12-01 15:29:50.652086, 1.57869
2022-12-01 15:29:50.665165, 1.58358
2022-12-01 15:29:50.673125, 1.56403
2022-12-01 15:29:50.681059, 1.57869
2022-12-01 15:29:50.689071, 1.54936
2022-12-01 15:29:50.701524, 1.54936
2022-12-01 15:29:50.709266, 1.56403
2022-12-01 15:29:50.718454, 1.56403
2022-12-01 15:29:50.730337, 1.55914
2022-12-01 15:29:50.738618, 1.53470
2022-12-01 15:29:50.746965, 1.54448
2022-12-01 15:29:50.755178, 1.54448
2022-12-01 15:29:50.767249, 1.55914
2022-12-01 15:29:50.775558, 1.58358
2022-12-01 15:29:50.784432, 1.60313
2022-12-01 15:29:50.796371, 1.63245
2022-12-01 15:29:50.803363, 1.65689
2022-12-01 15:29:50.813114, 1.68133
2022-12-01 15:29:50.820821, 1.70088
2022-12-01 15:29:50.832720, 1.72043
2022-12-01 15:29:50.841340, 1.73021
2022-12-01 15:29:50.849643, 1.73509
2022-12-01 15:29:50.861747, 1.73998
2022-12-01 15:29:50.869578, 1.73509
2022-12-01 15:29:50.878138, 1.73509
2022-12-01 15:29:50.885843, 1.73021
2022-12-01 15:29:50.898355, 1.73509
2022-12-01 15:29:50.906764, 1.74976
2022-12-01 15:29:50.915502, 1.71065
2022-12-01 15:29:50.926562, 1.70577
2022-12-01 15:29:50.935475, 1.69110
2022-12-01 15:29:50.943319, 1.68622
2022-12-01 15:29:50.952387, 1.68622
2022-12-01 15:29:50.964399, 1.67155
2022-12-01 15:29:50.971716, 1.65689
2022-12-01 15:29:50.981033, 1.65200
2022-12-01 15:29:50.992611, 1.67644
2022-12-01 15:29:51.000581, 1.63245
2022-12-01 15:29:51.009758, 1.64223
2022-12-01 15:29:51.017931, 1.60802
2022-12-01 15:29:51.029678, 1.61290
2022-12-01 15:29:51.037630, 1.59335
2022-12-01 15:29:51.046397, 1.58847
2022-12-01 15:29:51.058379, 1.58847
2022-12-01 15:29:51.066115, 1.58358
2022-12-01 15:29:51.075252, 1.61290
2022-12-01 15:29:51.083288, 1.58358
2022-12-01 15:29:51.095181, 1.58358
2022-12-01 15:29:51.102481, 1.58358
2022-12-01 15:29:51.111409, 1.58358
2022-12-01 15:29:51.123844, 1.57869
2022-12-01 15:29:51.131889, 1.58358
2022-12-01 15:29:51.140311, 1.57869
2022-12-01 15:29:51.148445, 1.59335
2022-12-01 15:29:51.160183, 1.56403
2022-12-01 15:29:51.169466, 1.55914
2022-12-01 15:29:51.177279, 1.54936
2022-12-01 15:29:51.188766, 1.54448
2022-12-01 15:29:51.197700, 1.54448
2022-12-01 15:29:51.206733, 1.53959
2022-12-01 15:29:51.214030, 1.52493
2022-12-01 15:29:51.226346, 1.51515
2022-12-01 15:29:51.234493, 1.50538
2022-12-01 15:29:51.242651, 1.50049
2022-12-01 15:29:51.254969, 1.49560
2022-12-01 15:29:51.262390, 1.49071
2022-12-01 15:29:51.270517, 1.48583
2022-12-01 15:29:51.278732, 1.48583
2022-12-01 15:29:51.291509, 1.48094
2022-12-01 15:29:51.299711, 1.48094
2022-12-01 15:29:51.307964, 1.48094
2022-12-01 15:29:51.319410, 1.46628
2022-12-01 15:29:51.328874, 1.48094
2022-12-01 15:29:51.336209, 1.46628
2022-12-01 15:29:51.346124, 1.47116
2022-12-01 15:29:51.357022, 1.47605
2022-12-01 15:29:51.365569, 1.48583
2022-12-01 15:29:51.373792, 1.49560
2022-12-01 15:29:51.381966, 1.50538
2022-12-01 15:29:51.393363, 1.51026
2022-12-01 15:29:51.402430, 1.53470
2022-12-01 15:29:51.410392, 1.52004
2022-12-01 15:29:51.422685, 1.52004
2022-12-01 15:29:51.431035, 1.52004
2022-12-01 15:29:51.439441, 1.52004
2022-12-01 15:29:51.447661, 1.52004
2022-12-01 15:29:51.459190, 1.52004
2022-12-01 15:29:51.467984, 1.51515
2022-12-01 15:29:51.476696, 1.51515
2022-12-01 15:29:51.488337, 1.52004
2022-12-01 15:29:51.497166, 1.51515
2022-12-01 15:29:51.504577, 1.51515
2022-12-01 15:29:51.513557, 1.52493
2022-12-01 15:29:51.525706, 1.54448
2022-12-01 15:29:51.532449, 1.56891
2022-12-01 15:29:51.541763, 1.58847
2022-12-01 15:29:51.553465, 1.62268
2022-12-01 15:29:51.562133, 1.69110
2022-12-01 15:29:51.570458, 1.69110
2022-12-01 15:29:51.578698, 1.72532
2022-12-01 15:29:51.590631, 1.74976
2022-12-01 15:29:51.598806, 1.76442
2022-12-01 15:29:51.607729, 1.77908
2022-12-01 15:29:51.619425, 1.78397
2022-12-01 15:29:51.627090, 1.78397
2022-12-01 15:29:51.635498, 1.78397
2022-12-01 15:29:51.643526, 1.77908
2022-12-01 15:29:51.656006, 1.79863
2022-12-01 15:29:51.664332, 1.75464
2022-12-01 15:29:51.672513, 1.74976
2022-12-01 15:29:51.684656, 1.73998
2022-12-01 15:29:51.692664, 1.73509
2022-12-01 15:29:51.700623, 1.72532
2022-12-01 15:29:51.708676, 1.72532
2022-12-01 15:29:51.721364, 1.72532
2022-12-01 15:29:51.730195, 1.73021
2022-12-01 15:29:51.738430, 1.75464
2022-12-01 15:29:51.750062, 1.73021
2022-12-01 15:29:51.758461, 1.73021
2022-12-01 15:29:51.766555, 1.73021
2022-12-01 15:29:51.775215, 1.73509
2022-12-01 15:29:51.786970, 1.73021
2022-12-01 15:29:51.795466, 1.73021
2022-12-01 15:29:51.803699, 1.73021
2022-12-01 15:29:51.816671, 1.73021
2022-12-01 15:29:51.824624, 1.74487
2022-12-01 15:29:51.833063, 1.72532
2022-12-01 15:29:51.841399, 1.72532
2022-12-01 15:29:51.852669, 1.72532
2022-12-01 15:29:51.861699, 1.72532
2022-12-01 15:29:51.869325, 1.73998
2022-12-01 15:29:51.881946, 1.73021
2022-12-01 15:29:51.889631, 1.73021
2022-12-01 15:29:51.898094, 1.73021
2022-12-01 15:29:51.906254, 1.73021
2022-12-01 15:29:51.919630, 1.73509
2022-12-01 15:29:51.926466, 1.71554
2022-12-01 15:29:51.935061, 1.71065
2022-12-01 15:29:51.946563, 1.70577
2022-12-01 15:29:51.954988, 1.70088
2022-12-01 15:29:51.964101, 1.69110
2022-12-01 15:29:51.971495, 1.69110
2022-12-01 15:29:51.984583, 1.68133
2022-12-01 15:29:51.992780, 1.68133
2022-12-01 15:29:52.000979, 1.68133
2022-12-01 15:29:52.012261, 1.67155
2022-12-01 15:29:52.020861, 1.70088
2022-12-01 15:29:52.028077, 1.65689
2022-12-01 15:29:52.037509, 1.65689
2022-12-01 15:29:52.048607, 1.65689
2022-12-01 15:29:52.057570, 1.64712
2022-12-01 15:29:52.065166, 1.65200
2022-12-01 15:29:52.077381, 1.64712
2022-12-01 15:29:52.085815, 1.64712
2022-12-01 15:29:52.094236, 1.64223
2022-12-01 15:29:52.102370, 1.63245
2022-12-01 15:29:52.115159, 1.62757
2022-12-01 15:29:52.123090, 1.63734
2022-12-01 15:29:52.131520, 1.64712
2022-12-01 15:29:52.143770, 1.61290
2022-12-01 15:29:52.150711, 1.60802
2022-12-01 15:29:52.160411, 1.60802
2022-12-01 15:29:52.168471, 1.60802
2022-12-01 15:29:52.180706, 1.60802
2022-12-01 15:29:52.188799, 1.60802
2022-12-01 15:29:52.197126, 1.61779
2022-12-01 15:29:52.209897, 1.61779
2022-12-01 15:29:52.217969, 1.61290
2022-12-01 15:29:52.225952, 1.61290
2022-12-01 15:29:52.233979, 1.60802
2022-12-01 15:29:52.246162, 1.60802
2022-12-01 15:29:52.254390, 1.60313
2022-12-01 15:29:52.262403, 1.60802
2022-12-01 15:29:52.270166, 1.60802
2022-12-01 15:29:52.283614, 1.60313
2022-12-01 15:29:52.290617, 1.60313
2022-12-01 15:29:52.299292, 1.59824
2022-12-01 15:29:52.311552, 1.59335
2022-12-01 15:29:52.319079, 1.58358
2022-12-01 15:29:52.328014, 1.59335
2022-12-01 15:29:52.335993, 1.58358
2022-12-01 15:29:52.347762, 1.58847
2022-12-01 15:29:52.356534, 1.60802
2022-12-01 15:29:52.364854, 1.62757
2022-12-01 15:29:52.376700, 1.66178
2022-12-01 15:29:52.386138, 1.68622
2022-12-01 15:29:52.393177, 1.71554
2022-12-01 15:29:52.401764, 1.74487
2022-12-01 15:29:52.413507, 1.75464
2022-12-01 15:29:52.422106, 1.76931
2022-12-01 15:29:52.430122, 1.77419
2022-12-01 15:29:52.442324, 1.79374
2022-12-01 15:29:52.450896, 1.76931
2022-12-01 15:29:52.459020, 1.76442
2022-12-01 15:29:52.466966, 1.75953
2022-12-01 15:29:52.479442, 1.76931
2022-12-01 15:29:52.487420, 1.73998
2022-12-01 15:29:52.495582, 1.73509
2022-12-01 15:29:52.508226, 1.72532
2022-12-01 15:29:52.517059, 1.72532
2022-12-01 15:29:52.524805, 1.71554
2022-12-01 15:29:52.533453, 1.71065
2022-12-01 15:29:52.545743, 1.71065
2022-12-01 15:29:52.553398, 1.71554
2022-12-01 15:29:52.561954, 1.71065
2022-12-01 15:29:52.573613, 1.70577
2022-12-01 15:29:52.582095, 1.69599
2022-12-01 15:29:52.590024, 1.69110
2022-12-01 15:29:52.598473, 1.68622
2022-12-01 15:29:52.611277, 1.68133
2022-12-01 15:29:52.618352, 1.71065
2022-12-01 15:29:52.626394, 1.67155
2022-12-01 15:29:52.639369, 1.67644
2022-12-01 15:29:52.647720, 1.67644
2022-12-01 15:29:52.655579, 1.67644
2022-12-01 15:29:52.663885, 1.69599
2022-12-01 15:29:52.676498, 1.68622
2022-12-01 15:29:52.684531, 1.69110
2022-12-01 15:29:52.693210, 1.72532
2022-12-01 15:29:52.704476, 1.69599
2022-12-01 15:29:52.713673, 1.69599
2022-12-01 15:29:52.721890, 1.69599
2022-12-01 15:29:52.729771, 1.71065
2022-12-01 15:29:52.741479, 1.69110
2022-12-01 15:29:52.750110, 1.69599
2022-12-01 15:29:52.758373, 1.69110
2022-12-01 15:29:52.769986, 1.69110
2022-12-01 15:29:52.779219, 1.68622
2022-12-01 15:29:52.787076, 1.67644
2022-12-01 15:29:52.795636, 1.67644
2022-12-01 15:29:52.807563, 1.66667
2022-12-01 15:29:52.816092, 1.66178
2022-12-01 15:29:52.823670, 1.68622
2022-12-01 15:29:52.835572, 1.64712
2022-12-01 15:29:52.844749, 1.64712
2022-12-01 15:29:52.852249, 1.64223
2022-12-01 15:29:52.860302, 1.63734
2022-12-01 15:29:52.872671, 1.63245
2022-12-01 15:29:52.880892, 1.62757
2022-12-01 15:29:52.888495, 1.62268
2022-12-01 15:29:52.901345, 1.61779
2022-12-01 15:29:52.909528, 1.61290
2022-12-01 15:29:52.917856, 1.60313
2022-12-01 15:29:52.926346, 1.59824
2022-12-01 15:29:52.937671, 1.59335
2022-12-01 15:29:52.946624, 1.58847
2022-12-01 15:29:52.954802, 1.58847
2022-12-01 15:29:52.967077, 1.58847
2022-12-01 15:29:52.974954, 1.58847
2022-12-01 15:29:52.982942, 1.58847
2022-12-01 15:29:52.991445, 1.58358
2022-12-01 15:29:53.003143, 1.58847
2022-12-01 15:29:53.012721, 1.60313
2022-12-01 15:29:53.020291, 1.58358
2022-12-01 15:29:53.033182, 1.58358
2022-12-01 15:29:53.041072, 1.58358
2022-12-01 15:29:53.048633, 1.58358
2022-12-01 15:29:53.057764, 1.58358
2022-12-01 15:29:53.068969, 1.58847
2022-12-01 15:29:53.077758, 1.58358
2022-12-01 15:29:53.085886, 1.57869
2022-12-01 15:29:53.097813, 1.57380
2022-12-01 15:29:53.106296, 1.56891
2022-12-01 15:29:53.114241, 1.56403
2022-12-01 15:29:53.123276, 1.55914
2022-12-01 15:29:53.134819, 1.58358
2022-12-01 15:29:53.143223, 1.55914
2022-12-01 15:29:53.151956, 1.57380
2022-12-01 15:29:53.160140, 1.59335
2022-12-01 15:29:53.171708, 1.62268
2022-12-01 15:29:53.180628, 1.67644
2022-12-01 15:29:53.188880, 1.68133
2022-12-01 15:29:53.201123, 1.69599
2022-12-01 15:29:53.208442, 1.74976
2022-12-01 15:29:53.216741, 1.73509
2022-12-01 15:29:53.225058, 1.75464
2022-12-01 15:29:53.237340, 1.75464
2022-12-01 15:29:53.245660, 1.75953
2022-12-01 15:29:53.253877, 1.76442
2022-12-01 15:29:53.266083, 1.75464
2022-12-01 15:29:53.274290, 1.74976
2022-12-01 15:29:53.282531, 1.75464
2022-12-01 15:29:53.291260, 1.78397
2022-12-01 15:29:53.302104, 1.74976
2022-12-01 15:29:53.311169, 1.74976
2022-12-01 15:29:53.318996, 1.74976
2022-12-01 15:29:53.331759, 1.78397
2022-12-01 15:29:53.339050, 1.74976
2022-12-01 15:29:53.347980, 1.74487
2022-12-01 15:29:53.356298, 1.74487
2022-12-01 15:29:53.368737, 1.75953
2022-12-01 15:29:53.376770, 1.73021
2022-12-01 15:29:53.385388, 1.72043
2022-12-01 15:29:53.396935, 1.71554
2022-12-01 15:29:53.405138, 1.70577
2022-12-01 15:29:53.413722, 1.69599
2022-12-01 15:29:53.421793, 1.72043
2022-12-01 15:29:53.434069, 1.67644
2022-12-01 15:29:53.442279, 1.67155
2022-12-01 15:29:53.450246, 1.66667
2022-12-01 15:29:53.462404, 1.66178
2022-12-01 15:29:53.470683, 1.68622
2022-12-01 15:29:53.479067, 1.65689
2022-12-01 15:29:53.487484, 1.65689
2022-12-01 15:29:53.500097, 1.65200
2022-12-01 15:29:53.508331, 1.65689
2022-12-01 15:29:53.516490, 1.67644
2022-12-01 15:29:53.528038, 1.65200
2022-12-01 15:29:53.536100, 1.65200
2022-12-01 15:29:53.545183, 1.65200
2022-12-01 15:29:53.552494, 1.65200
2022-12-01 15:29:53.565937, 1.65200
2022-12-01 15:29:53.573718, 1.64712
2022-12-01 15:29:53.581736, 1.64712
2022-12-01 15:29:53.593973, 1.64223
2022-12-01 15:29:53.601845, 1.67155
2022-12-01 15:29:53.610201, 1.63734
2022-12-01 15:29:53.618382, 1.63245
2022-12-01 15:29:53.630098, 1.62757
2022-12-01 15:29:53.638600, 1.62268
2022-12-01 15:29:53.646327, 1.62268
2022-12-01 15:29:53.659750, 1.63734
2022-12-01 15:29:53.668058, 1.61290
2022-12-01 15:29:53.674863, 1.61290
2022-12-01 15:29:53.684463, 1.61290
2022-12-01 15:29:53.696712, 1.60802
2022-12-01 15:29:53.703674, 1.60802
2022-12-01 15:29:53.713121, 1.60313
2022-12-01 15:29:53.724560, 1.59824
2022-12-01 15:29:53.733575, 1.59335
2022-12-01 15:29:53.741725, 1.59335
2022-12-01 15:29:53.748914, 1.58358
2022-12-01 15:29:53.761970, 1.57869
2022-12-01 15:29:53.769819, 1.57869
2022-12-01 15:29:53.778157, 1.58358
2022-12-01 15:29:53.790426, 1.58847
2022-12-01 15:29:53.798740, 1.62268
2022-12-01 15:29:53.806476, 1.59335
2022-12-01 15:29:53.814759, 1.59335
2022-12-01 15:29:53.827817, 1.59335
2022-12-01 15:29:53.834913, 1.58847
2022-12-01 15:29:53.844194, 1.58358
2022-12-01 15:29:53.856498, 1.59335
2022-12-01 15:29:53.864258, 1.57380
2022-12-01 15:29:53.872198, 1.56891
2022-12-01 15:29:53.880271, 1.56891
2022-12-01 15:29:53.891833, 1.56891
2022-12-01 15:29:53.901034, 1.56403
2022-12-01 15:29:53.909150, 1.56891
2022-12-01 15:29:53.920719, 1.56891
2022-12-01 15:29:53.929526, 1.56403
2022-12-01 15:29:53.937842, 1.56891
2022-12-01 15:29:53.945759, 1.57869
2022-12-01 15:29:53.957824, 1.59335
2022-12-01 15:29:53.966426, 1.61779
2022-12-01 15:29:53.974403, 1.64223
2022-12-01 15:29:53.982698, 1.66667
2022-12-01 15:29:53.994349, 1.69599
2022-12-01 15:29:54.003052, 1.72043
2022-12-01 15:29:54.011656, 1.73509
2022-12-01 15:29:54.024404, 1.74976
2022-12-01 15:29:54.031795, 1.74976
2022-12-01 15:29:54.040814, 1.76442
2022-12-01 15:29:54.048283, 1.75464
2022-12-01 15:29:54.061283, 1.74487
2022-12-01 15:29:54.068453, 1.73509
2022-12-01 15:29:54.078255, 1.73509
2022-12-01 15:29:54.089470, 1.75953
2022-12-01 15:29:54.097140, 1.71554
2022-12-01 15:29:54.105188, 1.71065
2022-12-01 15:29:54.114053, 1.70577
2022-12-01 15:29:54.125471, 1.71065
2022-12-01 15:29:54.134253, 1.69110
2022-12-01 15:29:54.142189, 1.68622
2022-12-01 15:29:54.154290, 1.68133
2022-12-01 15:29:54.163130, 1.67644
2022-12-01 15:29:54.171848, 1.70088
2022-12-01 15:29:54.179558, 1.68622
2022-12-01 15:29:54.191810, 1.66178
2022-12-01 15:29:54.200000, 1.66178
2022-12-01 15:29:54.208172, 1.65689
2022-12-01 15:29:54.219160, 1.65689
2022-12-01 15:29:54.229203, 1.65689
2022-12-01 15:29:54.236052, 1.65689
2022-12-01 15:29:54.245165, 1.65689
2022-12-01 15:29:54.257911, 1.65689
2022-12-01 15:29:54.266362, 1.66667
2022-12-01 15:29:54.273795, 1.65689
2022-12-01 15:29:54.284888, 1.66178
2022-12-01 15:29:54.294162, 1.66667
2022-12-01 15:29:54.301567, 1.67155
2022-12-01 15:29:54.310430, 1.66667
2022-12-01 15:29:54.322865, 1.67155
2022-12-01 15:29:54.330835, 1.67155
2022-12-01 15:29:54.339802, 1.67155
2022-12-01 15:29:54.350519, 1.70088
2022-12-01 15:29:54.359358, 1.66667
2022-12-01 15:29:54.367772, 1.67155
2022-12-01 15:29:54.375386, 1.66178
2022-12-01 15:29:54.387955, 1.65200
2022-12-01 15:29:54.397167, 1.68133
2022-12-01 15:29:54.405247, 1.64223
2022-12-01 15:29:54.417648, 1.63734
2022-12-01 15:29:54.425810, 1.62757
2022-12-01 15:29:54.433975, 1.62757
2022-12-01 15:29:54.441989, 1.61779
2022-12-01 15:29:54.453351, 1.62757
2022-12-01 15:29:54.462185, 1.61290
2022-12-01 15:29:54.469624, 1.61290
2022-12-01 15:29:54.482020, 1.61290
2022-12-01 15:29:54.490620, 1.63245
2022-12-01 15:29:54.498477, 1.60313
2022-12-01 15:29:54.507729, 1.60313
2022-12-01 15:29:54.519142, 1.60313
2022-12-01 15:29:54.528862, 1.59824
2022-12-01 15:29:54.535541, 1.59824
2022-12-01 15:29:54.548008, 1.59335
2022-12-01 15:29:54.556436, 1.58847
2022-12-01 15:29:54.564526, 1.58847
2022-12-01 15:29:54.573304, 1.58358
2022-12-01 15:29:54.584917, 1.61290
2022-12-01 15:29:54.592740, 1.57380
2022-12-01 15:29:54.601566, 1.57380
2022-12-01 15:29:54.613757, 1.57380
2022-12-01 15:29:54.622278, 1.58358
2022-12-01 15:29:54.630133, 1.57380
2022-12-01 15:29:54.638202, 1.57380
2022-12-01 15:29:54.650070, 1.56891
2022-12-01 15:29:54.659307, 1.57380
2022-12-01 15:29:54.667520, 1.56891
2022-12-01 15:29:54.679281, 1.56891
2022-12-01 15:29:54.687178, 1.56891
2022-12-01 15:29:54.696156, 1.56891
2022-12-01 15:29:54.703643, 1.56891
2022-12-01 15:29:54.715877, 1.57380
2022-12-01 15:29:54.724489, 1.58847
2022-12-01 15:29:54.732004, 1.63734
2022-12-01 15:29:54.745690, 1.64223
2022-12-01 15:29:54.752890, 1.65200
2022-12-01 15:29:54.762020, 1.67644
2022-12-01 15:29:54.769188, 1.70088
2022-12-01 15:29:54.781655, 1.72043
2022-12-01 15:29:54.789886, 1.73509
2022-12-01 15:29:54.798045, 1.74487
2022-12-01 15:29:54.809561, 1.75464
2022-12-01 15:29:54.818061, 1.75953
2022-12-01 15:29:54.826456, 1.74976
2022-12-01 15:29:54.834793, 1.74487
2022-12-01 15:29:54.847133, 1.73998
2022-12-01 15:29:54.855056, 1.73509
2022-12-01 15:29:54.864090, 1.75464
2022-12-01 15:29:54.871118, 1.72043
2022-12-01 15:29:54.883640, 1.71554
2022-12-01 15:29:54.892583, 1.70577
2022-12-01 15:29:54.900356, 1.71065
2022-12-01 15:29:54.913258, 1.70088
2022-12-01 15:29:54.920478, 1.69599
2022-12-01 15:29:54.929842, 1.69599
2022-12-01 15:29:54.937200, 1.69110
2022-12-01 15:29:54.949732, 1.71554
2022-12-01 15:29:54.957806, 1.67644
2022-12-01 15:29:54.965688, 1.67155
2022-12-01 15:29:54.977911, 1.67155
2022-12-01 15:29:54.986231, 1.68622
2022-12-01 15:29:54.994246, 1.66667
2022-12-01 15:29:55.002410, 1.66667
2022-12-01 15:29:55.015058, 1.66667
2022-12-01 15:29:55.023198, 1.66667
2022-12-01 15:29:55.032049, 1.66667
2022-12-01 15:29:55.044316, 1.67155
2022-12-01 15:29:55.051740, 1.69599
2022-12-01 15:29:55.060706, 1.67644
2022-12-01 15:29:55.068054, 1.68133
2022-12-01 15:29:55.080590, 1.68133
2022-12-01 15:29:55.087791, 1.68622
2022-12-01 15:29:55.097557, 1.69599
2022-12-01 15:29:55.109415, 1.68133
2022-12-01 15:29:55.117357, 1.68133
2022-12-01 15:29:55.125714, 1.67644
2022-12-01 15:29:55.133749, 1.68133
2022-12-01 15:29:55.145694, 1.66667
2022-12-01 15:29:55.153934, 1.69110
2022-12-01 15:29:55.162132, 1.65200
2022-12-01 15:29:55.174297, 1.64712
2022-12-01 15:29:55.182491, 1.63734
2022-12-01 15:29:55.191392, 1.63734
2022-12-01 15:29:55.199405, 1.63245
2022-12-01 15:29:55.211707, 1.62757
2022-12-01 15:29:55.220095, 1.65200
2022-12-01 15:29:55.228350, 1.62757
2022-12-01 15:29:55.240160, 1.62757
2022-12-01 15:29:55.249139, 1.62268
2022-12-01 15:29:55.257302, 1.62268
2022-12-01 15:29:55.265535, 1.61779
2022-12-01 15:29:55.277738, 1.61779
2022-12-01 15:29:55.285370, 1.61290
2022-12-01 15:29:55.293614, 1.63734
2022-12-01 15:29:55.305973, 1.60802
2022-12-01 15:29:55.314157, 1.60313
2022-12-01 15:29:55.322318, 1.63734
2022-12-01 15:29:55.330235, 1.59824
2022-12-01 15:29:55.342441, 1.61290
2022-12-01 15:29:55.350439, 1.59335
2022-12-01 15:29:55.359100, 1.58847
2022-12-01 15:29:55.371995, 1.58358
2022-12-01 15:29:55.378946, 1.59335
2022-12-01 15:29:55.387892, 1.58358
2022-12-01 15:29:55.395584, 1.57869
2022-12-01 15:29:55.407910, 1.60802
2022-12-01 15:29:55.417075, 1.57869
2022-12-01 15:29:55.423931, 1.57380
2022-12-01 15:29:55.437556, 1.57380
2022-12-01 15:29:55.445731, 1.57380
2022-12-01 15:29:55.453955, 1.57380
2022-12-01 15:29:55.461743, 1.58847
2022-12-01 15:29:55.473664, 1.63734
2022-12-01 15:29:55.482137, 1.63734
2022-12-01 15:29:55.490270, 1.66667
2022-12-01 15:29:55.502244, 1.68622
2022-12-01 15:29:55.510493, 1.71065
2022-12-01 15:29:55.518823, 1.73509
2022-12-01 15:29:55.526589, 1.77419
2022-12-01 15:29:55.539312, 1.79374
2022-12-01 15:29:55.546992, 1.77908
2022-12-01 15:29:55.555357, 1.78397
2022-12-01 15:29:55.567467, 1.78397
2022-12-01 15:29:55.575659, 1.78397
2022-12-01 15:29:55.584262, 1.77419
2022-12-01 15:29:55.592926, 1.76931
2022-12-01 15:29:55.604207, 1.76442
2022-12-01 15:29:55.612566, 1.75953
2022-12-01 15:29:55.620461, 1.77908
2022-12-01 15:29:55.633009, 1.74487
2022-12-01 15:29:55.641133, 1.73998
2022-12-01 15:29:55.649106, 1.73998
2022-12-01 15:29:55.657568, 1.74976
2022-12-01 15:29:55.670375, 1.73021
2022-12-01 15:29:55.678465, 1.72532
2022-12-01 15:29:55.686386, 1.72043
2022-12-01 15:29:55.698674, 1.72043
2022-12-01 15:29:55.706884, 1.72532
2022-12-01 15:29:55.714861, 1.70577
2022-12-01 15:29:55.723548, 1.71065
2022-12-01 15:29:55.735612, 1.70577
2022-12-01 15:29:55.744734, 1.70577
2022-12-01 15:29:55.751729, 1.71554
2022-12-01 15:29:55.761440, 1.71065
2022-12-01 15:29:55.773124, 1.71554
2022-12-01 15:29:55.781241, 1.72532
2022-12-01 15:29:55.789283, 1.71554
2022-12-01 15:29:55.800926, 1.70577
2022-12-01 15:29:55.809226, 1.71554
2022-12-01 15:29:55.817597, 1.69110
2022-12-01 15:29:55.825882, 1.68133
2022-12-01 15:29:55.838060, 1.67644
2022-12-01 15:29:55.846461, 1.67644
2022-12-01 15:29:55.854854, 1.68622
2022-12-01 15:29:55.867614, 1.67644
2022-12-01 15:29:55.875826, 1.68622
2022-12-01 15:29:55.884734, 1.67155
2022-12-01 15:29:55.892231, 1.67155
2022-12-01 15:29:55.903023, 1.67644
2022-12-01 15:29:55.912106, 1.66178
2022-12-01 15:29:55.919364, 1.66178
2022-12-01 15:29:55.932164, 1.65689
2022-12-01 15:29:55.940509, 1.66178
2022-12-01 15:29:55.948809, 1.65200
2022-12-01 15:29:55.957652, 1.65200
2022-12-01 15:29:55.968476, 1.64223
2022-12-01 15:29:55.977864, 1.63245
2022-12-01 15:29:55.985669, 1.62268
2022-12-01 15:29:55.997645, 1.61779
2022-12-01 15:29:56.006393, 1.61779
2022-12-01 15:29:56.014508, 1.60802
2022-12-01 15:29:56.022681, 1.60802
2022-12-01 15:29:56.034216, 1.60313
2022-12-01 15:29:56.043740, 1.60313
2022-12-01 15:29:56.050998, 1.58358
2022-12-01 15:29:56.064226, 1.57869
2022-12-01 15:29:56.071617, 1.57869
2022-12-01 15:29:56.080612, 1.57869
2022-12-01 15:29:56.087953, 1.57869
2022-12-01 15:29:56.099859, 1.58358
2022-12-01 15:29:56.108123, 1.58847
2022-12-01 15:29:56.116638, 1.57380
2022-12-01 15:29:56.129759, 1.57380
2022-12-01 15:29:56.137977, 1.56891
2022-12-01 15:29:56.146408, 1.56891
2022-12-01 15:29:56.153830, 1.56403
2022-12-01 15:29:56.165735, 1.57869
2022-12-01 15:29:56.173747, 1.60802
2022-12-01 15:29:56.182419, 1.58847
2022-12-01 15:29:56.194439, 1.60802
2022-12-01 15:29:56.202366, 1.63245
2022-12-01 15:29:56.210620, 1.66178
2022-12-01 15:29:56.219203, 1.69599
2022-12-01 15:29:56.231289, 1.72532
2022-12-01 15:29:56.239596, 1.74976
2022-12-01 15:29:56.248587, 1.80352
2022-12-01 15:29:56.260927, 1.78397
2022-12-01 15:29:56.267564, 1.79863
2022-12-01 15:29:56.277222, 1.82307
2022-12-01 15:29:56.284225, 1.79863
2022-12-01 15:29:56.297700, 1.79374
2022-12-01 15:29:56.305175, 1.78886
2022-12-01 15:29:56.313990, 1.78397
2022-12-01 15:29:56.325889, 1.76931
2022-12-01 15:29:56.334018, 1.76442
2022-12-01 15:29:56.342201, 1.74976
2022-12-01 15:29:56.351021, 1.74976
2022-12-01 15:29:56.362714, 1.73509
2022-12-01 15:29:56.370889, 1.73021
2022-12-01 15:29:56.378864, 1.72532
2022-12-01 15:29:56.391407, 1.72532
2022-12-01 15:29:56.399549, 1.73998
2022-12-01 15:29:56.408306, 1.71554
2022-12-01 15:29:56.415774, 1.71065
2022-12-01 15:29:56.427542, 1.72043
2022-12-01 15:29:56.436957, 1.68622
2022-12-01 15:29:56.444561, 1.71065
2022-12-01 15:29:56.457122, 1.66667
2022-12-01 15:29:56.465651, 1.66178
2022-12-01 15:29:56.473294, 1.66667
2022-12-01 15:29:56.482001, 1.66667
2022-12-01 15:29:56.493825, 1.67155
2022-12-01 15:29:56.501809, 1.67644
2022-12-01 15:29:56.510190, 1.68133
2022-12-01 15:29:56.522272, 1.69110
2022-12-01 15:29:56.530752, 1.69599
2022-12-01 15:29:56.538591, 1.70577
2022-12-01 15:29:56.547585, 1.70088
2022-12-01 15:29:56.559406, 1.70577
2022-12-01 15:29:56.567162, 1.70088
2022-12-01 15:29:56.575492, 1.70088
2022-12-01 15:29:56.583988, 1.69599
2022-12-01 15:29:56.596199, 1.69110
2022-12-01 15:29:56.604389, 1.69110
2022-12-01 15:29:56.613122, 1.68622
2022-12-01 15:29:56.624865, 1.69599
2022-12-01 15:29:56.633040, 1.68133
2022-12-01 15:29:56.641800, 1.67644
2022-12-01 15:29:56.648781, 1.66178
2022-12-01 15:29:56.661622, 1.65200
2022-12-01 15:29:56.669874, 1.64712
2022-12-01 15:29:56.677531, 1.64223
2022-12-01 15:29:56.689548, 1.63734
2022-12-01 15:29:56.697687, 1.63245
2022-12-01 15:29:56.706538, 1.63245
2022-12-01 15:29:56.714413, 1.62268
2022-12-01 15:29:56.726909, 1.62268
2022-12-01 15:29:56.734962, 1.62268
2022-12-01 15:29:56.743178, 1.61290
2022-12-01 15:29:56.755852, 1.60802
2022-12-01 15:29:56.763368, 1.59824
2022-12-01 15:29:56.772340, 1.59335
2022-12-01 15:29:56.779674, 1.59824
2022-12-01 15:29:56.793352, 1.57869
2022-12-01 15:29:56.800533, 1.57380
2022-12-01 15:29:56.809708, 1.56891
2022-12-01 15:29:56.820458, 1.56891
2022-12-01 15:29:56.829752, 1.56891
2022-12-01 15:29:56.837642, 1.56891
2022-12-01 15:29:56.846057, 1.58358
2022-12-01 15:29:56.857972, 1.58358
2022-12-01 15:29:56.866488, 1.59335
2022-12-01 15:29:56.874616, 1.60802
2022-12-01 15:29:56.886800, 1.63245
2022-12-01 15:29:56.894773, 1.65689
2022-12-01 15:29:56.903342, 1.69599
2022-12-01 15:29:56.911293, 1.72532
2022-12-01 15:29:56.923447, 1.75464
2022-12-01 15:29:56.931183, 1.78397
2022-12-01 15:29:56.940109, 1.79863
2022-12-01 15:29:56.952084, 1.80841
2022-12-01 15:29:56.959751, 1.81818
2022-12-01 15:29:56.968710, 1.82307
2022-12-01 15:29:56.976296, 1.81818
2022-12-01 15:29:56.988863, 1.80841
2022-12-01 15:29:56.997586, 1.79863
2022-12-01 15:29:57.004868, 1.79374
2022-12-01 15:29:57.017396, 1.79863
2022-12-01 15:29:57.026063, 1.77419
2022-12-01 15:29:57.035833, 1.76442
2022-12-01 15:29:57.042085, 1.75953
2022-12-01 15:29:57.054137, 1.76442
2022-12-01 15:29:57.063048, 1.74976
2022-12-01 15:29:57.071370, 1.74487
2022-12-01 15:29:57.083015, 1.73998
2022-12-01 15:29:57.091251, 1.73998
2022-12-01 15:29:57.100555, 1.72043
2022-12-01 15:29:57.108429, 1.71554
2022-12-01 15:29:57.121031, 1.72532
2022-12-01 15:29:57.128304, 1.69599
2022-12-01 15:29:57.136811, 1.69599
2022-12-01 15:29:57.149672, 1.69110
2022-12-01 15:29:57.157298, 1.68622
2022-12-01 15:29:57.165753, 1.68622
2022-12-01 15:29:57.173015, 1.69110
2022-12-01 15:29:57.185969, 1.69599
2022-12-01 15:29:57.194280, 1.69599
2022-12-01 15:29:57.201531, 1.70088
2022-12-01 15:29:57.214522, 1.70577
2022-12-01 15:29:57.222580, 1.71065
2022-12-01 15:29:57.230861, 1.71554
2022-12-01 15:29:57.239032, 1.71554
2022-12-01 15:29:57.251232, 1.71554
2022-12-01 15:29:57.260292, 1.72043
2022-12-01 15:29:57.267868, 1.71554
2022-12-01 15:29:57.280749, 1.71554
2022-12-01 15:29:57.288984, 1.71065
2022-12-01 15:29:57.297465, 1.71065
2022-12-01 15:29:57.305321, 1.70577
2022-12-01 15:29:57.317157, 1.70088
2022-12-01 15:29:57.325755, 1.69599
2022-12-01 15:29:57.333438, 1.68622
2022-12-01 15:29:57.345755, 1.68133
2022-12-01 15:29:57.353935, 1.67644
2022-12-01 15:29:57.361962, 1.67155
2022-12-01 15:29:57.370364, 1.66178
2022-12-01 15:29:57.382463, 1.65689
2022-12-01 15:29:57.390597, 1.64712
2022-12-01 15:29:57.398760, 1.64712
2022-12-01 15:29:57.411294, 1.63734
2022-12-01 15:29:57.418944, 1.64223
2022-12-01 15:29:57.426954, 1.63734
2022-12-01 15:29:57.435879, 1.62757
2022-12-01 15:29:57.447772, 1.62268
2022-12-01 15:29:57.455841, 1.61779
2022-12-01 15:29:57.464521, 1.61290
2022-12-01 15:29:57.472737, 1.60802
2022-12-01 15:29:57.484773, 1.60313
2022-12-01 15:29:57.493755, 1.59824
2022-12-01 15:29:57.501390, 1.60802
2022-12-01 15:29:57.514289, 1.59335
2022-12-01 15:29:57.521560, 1.59824
2022-12-01 15:29:57.530145, 1.60802
2022-12-01 15:29:57.538298, 1.62268
2022-12-01 15:29:57.550176, 1.64223
2022-12-01 15:29:57.557867, 1.66667
2022-12-01 15:29:57.566528, 1.70577
2022-12-01 15:29:57.579016, 1.73021
2022-12-01 15:29:57.587980, 1.76442
2022-12-01 15:29:57.595376, 1.79374
2022-12-01 15:29:57.603754, 1.81329
2022-12-01 15:29:57.616622, 1.83284
2022-12-01 15:29:57.623927, 1.84262
2022-12-01 15:29:57.631843, 1.84751
2022-12-01 15:29:57.645331, 1.87683
2022-12-01 15:29:57.654016, 1.84262
2022-12-01 15:29:57.661680, 1.83284
2022-12-01 15:29:57.669819, 1.82307
2022-12-01 15:29:57.681411, 1.83284
2022-12-01 15:29:57.689848, 1.80841
2022-12-01 15:29:57.698029, 1.79863
2022-12-01 15:29:57.710239, 1.79374
2022-12-01 15:29:57.718171, 1.78886
2022-12-01 15:29:57.726467, 1.81329
2022-12-01 15:29:57.734862, 1.78397
2022-12-01 15:29:57.746799, 1.77908
2022-12-01 15:29:57.754945, 1.77419
2022-12-01 15:29:57.762425, 1.76931
2022-12-01 15:29:57.775814, 1.77419
2022-12-01 15:29:57.783495, 1.75464
2022-12-01 15:29:57.792604, 1.74487
2022-12-01 15:29:57.800289, 1.73509
2022-12-01 15:29:57.811814, 1.73998
2022-12-01 15:29:57.820900, 1.73021
2022-12-01 15:29:57.829635, 1.74976
2022-12-01 15:29:57.840364, 1.72532
2022-12-01 15:29:57.850012, 1.72532
2022-12-01 15:29:57.857732, 1.72043
2022-12-01 15:29:57.865996, 1.72043
2022-12-01 15:29:57.877973, 1.72043
2022-12-01 15:29:57.886365, 1.72043
2022-12-01 15:29:57.894530, 1.72043
2022-12-01 15:29:57.907465, 1.72043
2022-12-01 15:29:57.915800, 1.72043
2022-12-01 15:29:57.923858, 1.72043
2022-12-01 15:29:57.931109, 1.71554
2022-12-01 15:29:57.943785, 1.72043
2022-12-01 15:29:57.951725, 1.70577
2022-12-01 15:29:57.960160, 1.70577
2022-12-01 15:29:57.972492, 1.69110
2022-12-01 15:29:57.980169, 1.72043
2022-12-01 15:29:57.988831, 1.68133
2022-12-01 15:29:57.997000, 1.67644
2022-12-01 15:29:58.009104, 1.67155
2022-12-01 15:29:58.016993, 1.66667
2022-12-01 15:29:58.025565, 1.66178
2022-12-01 15:29:58.038074, 1.66178
2022-12-01 15:29:58.046201, 1.65689
2022-12-01 15:29:58.055242, 1.67644
2022-12-01 15:29:58.062577, 1.64223
2022-12-01 15:29:58.075426, 1.63734
2022-12-01 15:29:58.083516, 1.63734
2022-12-01 15:29:58.091384, 1.63245
2022-12-01 15:29:58.103007, 1.62757
2022-12-01 15:29:58.112241, 1.62757
2022-12-01 15:29:58.119420, 1.62268
2022-12-01 15:29:58.128635, 1.61779
2022-12-01 15:29:58.140961, 1.61779
2022-12-01 15:29:58.148565, 1.61290
2022-12-01 15:29:58.156845, 1.62268
2022-12-01 15:29:58.168842, 1.60313
2022-12-01 15:29:58.178364, 1.59824
2022-12-01 15:29:58.185478, 1.59335
2022-12-01 15:29:58.193387, 1.59335
2022-12-01 15:29:58.206000, 1.59824
2022-12-01 15:29:58.214382, 1.61779
2022-12-01 15:29:58.222257, 1.64223
2022-12-01 15:29:58.234305, 1.67155
2022-12-01 15:29:58.241910, 1.70088
2022-12-01 15:29:58.250899, 1.73509
2022-12-01 15:29:58.259045, 1.76931
2022-12-01 15:29:58.270919, 1.79374
2022-12-01 15:29:58.279511, 1.83284
2022-12-01 15:29:58.287453, 1.83284
2022-12-01 15:29:58.299069, 1.84262
2022-12-01 15:29:58.308840, 1.85728
2022-12-01 15:29:58.316453, 1.84751
2022-12-01 15:29:58.324768, 1.84262
2022-12-01 15:29:58.336956, 1.83773
2022-12-01 15:29:58.345723, 1.83284
2022-12-01 15:29:58.353956, 1.83284
2022-12-01 15:29:58.362021, 1.81818
2022-12-01 15:29:58.373937, 1.81329
2022-12-01 15:29:58.381595, 1.80841
2022-12-01 15:29:58.390179, 1.82307
2022-12-01 15:29:58.402290, 1.80352
2022-12-01 15:29:58.410471, 1.79863
2022-12-01 15:29:58.419103, 1.79863
2022-12-01 15:29:58.426886, 1.79374
2022-12-01 15:29:58.439394, 1.79374
2022-12-01 15:29:58.448148, 1.78397
2022-12-01 15:29:58.456551, 1.77908
2022-12-01 15:29:58.467633, 1.77419
2022-12-01 15:29:58.476229, 1.76931
2022-12-01 15:29:58.484353, 1.76442
2022-12-01 15:29:58.493206, 1.77908
2022-12-01 15:29:58.504964, 1.74976
2022-12-01 15:29:58.513680, 1.74487
2022-12-01 15:29:58.521097, 1.73998
2022-12-01 15:29:58.533188, 1.73998
2022-12-01 15:29:58.541666, 1.73509
2022-12-01 15:29:58.549360, 1.73021
2022-12-01 15:29:58.558541, 1.73021
2022-12-01 15:29:58.570520, 1.72043
2022-12-01 15:29:58.579225, 1.72043
2022-12-01 15:29:58.587401, 1.71554
2022-12-01 15:29:58.599112, 1.71065
2022-12-01 15:29:58.607300, 1.71065
2022-12-01 15:29:58.616070, 1.71065
2022-12-01 15:29:58.624258, 1.70577
2022-12-01 15:29:58.635800, 1.71065
2022-12-01 15:29:58.643180, 1.70088
2022-12-01 15:29:58.652126, 1.69599
2022-12-01 15:29:58.665216, 1.71554
2022-12-01 15:29:58.673419, 1.68622
2022-12-01 15:29:58.680319, 1.68133
2022-12-01 15:29:58.690437, 1.67644
2022-12-01 15:29:58.701495, 1.69110
2022-12-01 15:29:58.709495, 1.66667
2022-12-01 15:29:58.717433, 1.66178
2022-12-01 15:29:58.730217, 1.65689
2022-12-01 15:29:58.737831, 1.64712
2022-12-01 15:29:58.746676, 1.64223
2022-12-01 15:29:58.754032, 1.63734
2022-12-01 15:29:58.766430, 1.62757
2022-12-01 15:29:58.774551, 1.62757
2022-12-01 15:29:58.782995, 1.62757
2022-12-01 15:29:58.794711, 1.63245
2022-12-01 15:29:58.803183, 1.61290
2022-12-01 15:29:58.811696, 1.61290
2022-12-01 15:29:58.819873, 1.62757
2022-12-01 15:29:58.832594, 1.60313
2022-12-01 15:29:58.840084, 1.60313
2022-12-01 15:29:58.848826, 1.59824
2022-12-01 15:29:58.861115, 1.59335
2022-12-01 15:29:58.868816, 1.58847
2022-12-01 15:29:58.877538, 1.58847
2022-12-01 15:29:58.885319, 1.58847
2022-12-01 15:29:58.897715, 1.59335
2022-12-01 15:29:58.905697, 1.59335
2022-12-01 15:29:58.913499, 1.61779
2022-12-01 15:29:58.926568, 1.61290
2022-12-01 15:29:58.934354, 1.66178
2022-12-01 15:29:58.943315, 1.69110
2022-12-01 15:29:58.950998, 1.72532
2022-12-01 15:29:58.963300, 1.73998
2022-12-01 15:29:58.971546, 1.77419
2022-12-01 15:29:58.979418, 1.80352
2022-12-01 15:29:58.991718, 1.82796
2022-12-01 15:29:58.999628, 1.84751
2022-12-01 15:29:59.008766, 1.85239
2022-12-01 15:29:59.016325, 1.85239
2022-12-01 15:29:59.028437, 1.84751
2022-12-01 15:29:59.036762, 1.83773
2022-12-01 15:29:59.045400, 1.83773
2022-12-01 15:29:59.057187, 1.81818
2022-12-01 15:29:59.065458, 1.80841
2022-12-01 15:29:59.073488, 1.79863
2022-12-01 15:29:59.081697, 1.79863
2022-12-01 15:29:59.093667, 1.78886
2022-12-01 15:29:59.101881, 1.78397
2022-12-01 15:29:59.110596, 1.78397
2022-12-01 15:29:59.123988, 1.78886
2022-12-01 15:29:59.132177, 1.81818
2022-12-01 15:29:59.140376, 1.78397
2022-12-01 15:29:59.148547, 1.77908
2022-12-01 15:29:59.160091, 1.77419
2022-12-01 15:29:59.168178, 1.76442
2022-12-01 15:29:59.176627, 1.75464
2022-12-01 15:29:59.188618, 1.73998
2022-12-01 15:29:59.197690, 1.73021
2022-12-01 15:29:59.204982, 1.71554
2022-12-01 15:29:59.213779, 1.71065
2022-12-01 15:29:59.226038, 1.70577
2022-12-01 15:29:59.233052, 1.70577
2022-12-01 15:29:59.242308, 1.73021
2022-12-01 15:29:59.251436, 1.70577
2022-12-01 15:29:59.262543, 1.71065
2022-12-01 15:29:59.270709, 1.71065
2022-12-01 15:29:59.278844, 1.71065
2022-12-01 15:29:59.291965, 1.71065
2022-12-01 15:29:59.299571, 1.70577
2022-12-01 15:29:59.308291, 1.71065
2022-12-01 15:29:59.316356, 1.70577
2022-12-01 15:29:59.328332, 1.71554
2022-12-01 15:29:59.336193, 1.69599
2022-12-01 15:29:59.344572, 1.72532
2022-12-01 15:29:59.357276, 1.69599
2022-12-01 15:29:59.365651, 1.69110
2022-12-01 15:29:59.373780, 1.68622
2022-12-01 15:29:59.381781, 1.68133
2022-12-01 15:29:59.393531, 1.68133
2022-12-01 15:29:59.402041, 1.67155
2022-12-01 15:29:59.410029, 1.66178
2022-12-01 15:29:59.422524, 1.65689
2022-12-01 15:29:59.429943, 1.64712
2022-12-01 15:29:59.438829, 1.64223
2022-12-01 15:29:59.446922, 1.63734
2022-12-01 15:29:59.458822, 1.63245
2022-12-01 15:29:59.467182, 1.62757
2022-12-01 15:29:59.474957, 1.62268
2022-12-01 15:29:59.487765, 1.62268
2022-12-01 15:29:59.495773, 1.60802
2022-12-01 15:29:59.503714, 1.59824
2022-12-01 15:29:59.513091, 1.59335
2022-12-01 15:29:59.525400, 1.58847
2022-12-01 15:29:59.532651, 1.58847
2022-12-01 15:29:59.541095, 1.58847
2022-12-01 15:29:59.553004, 1.58358
2022-12-01 15:29:59.560966, 1.58847
2022-12-01 15:29:59.569252, 1.59335
2022-12-01 15:29:59.577824, 1.62268
2022-12-01 15:29:59.590437, 1.61779
2022-12-01 15:29:59.598548, 1.58358
2022-12-01 15:29:59.606539, 1.58358
2022-12-01 15:29:59.619591, 1.58358
2022-12-01 15:29:59.627005, 1.57869
2022-12-01 15:29:59.635208, 1.57869
2022-12-01 15:29:59.644173, 1.57869
2022-12-01 15:29:59.655532, 1.56891
2022-12-01 15:29:59.664657, 1.56403
2022-12-01 15:29:59.671506, 1.55914
2022-12-01 15:29:59.684380, 1.55914
2022-12-01 15:29:59.692992, 1.56891
2022-12-01 15:29:59.700817, 1.58847
2022-12-01 15:29:59.709688, 1.61779
2022-12-01 15:29:59.721222, 1.65689
2022-12-01 15:29:59.730034, 1.69110
2022-12-01 15:29:59.736876, 1.73021
2022-12-01 15:29:59.749777, 1.76442
2022-12-01 15:29:59.758642, 1.78886
2022-12-01 15:29:59.766224, 1.80841
2022-12-01 15:29:59.774544, 1.81329
2022-12-01 15:29:59.787526, 1.82307
2022-12-01 15:29:59.794889, 1.81818
2022-12-01 15:29:59.803967, 1.81329
2022-12-01 15:29:59.815493, 1.80352
2022-12-01 15:29:59.824012, 1.79863
2022-12-01 15:29:59.832079, 1.79374
2022-12-01 15:29:59.840671, 1.78397
2022-12-01 15:29:59.853037, 1.77419
2022-12-01 15:29:59.860481, 1.76931
2022-12-01 15:29:59.868164, 1.76931
2022-12-01 15:29:59.881733, 1.76442
2022-12-01 15:29:59.889355, 1.76442
2022-12-01 15:29:59.898040, 1.75953
2022-12-01 15:29:59.905505, 1.75953
2022-12-01 15:29:59.918022, 1.75953
2022-12-01 15:29:59.926198, 1.75953
2022-12-01 15:29:59.933771, 1.74487
2022-12-01 15:29:59.947272, 1.73998
2022-12-01 15:29:59.954498, 1.73509
2022-12-01 15:29:59.963667, 1.73021
2022-12-01 15:29:59.971876, 1.72532
2022-12-01 15:29:59.982942, 1.72043
2022-12-01 15:29:59.991938, 1.71554
2022-12-01 15:29:59.999915, 1.72043
2022-12-01 15:30:00.012756, 1.72532
2022-12-01 15:30:00.019775, 1.71554
2022-12-01 15:30:00.028643, 1.72043
2022-12-01 15:30:00.036744, 1.71554
2022-12-01 15:30:00.048195, 1.72043
2022-12-01 15:30:00.056322, 1.71554
2022-12-01 15:30:00.064739, 1.71554
2022-12-01 15:30:00.074261, 1.73998
2022-12-01 15:30:00.085995, 1.71065
2022-12-01 15:30:00.094128, 1.71065
2022-12-01 15:30:00.101854, 1.70088
2022-12-01 15:30:00.113634, 1.71554
2022-12-01 15:30:00.122707, 1.69110
2022-12-01 15:30:00.130210, 1.70088
2022-12-01 15:30:00.138942, 1.68133
2022-12-01 15:30:00.151217, 1.68133
2022-12-01 15:30:00.159613, 1.67155
2022-12-01 15:30:00.167976, 1.66667
2022-12-01 15:30:00.179587, 1.66178
2022-12-01 15:30:00.188914, 1.65689
2022-12-01 15:30:00.196499, 1.65200
2022-12-01 15:30:00.205352, 1.64712
2022-12-01 15:30:00.216787, 1.64223
2022-12-01 15:30:00.225795, 1.64223
2022-12-01 15:30:00.232662, 1.64223
2022-12-01 15:30:00.245802, 1.63734
2022-12-01 15:30:00.254013, 1.63734
2022-12-01 15:30:00.261683, 1.62757
2022-12-01 15:30:00.270273, 1.62268
2022-12-01 15:30:00.282492, 1.61779
2022-12-01 15:30:00.290460, 1.60802
2022-12-01 15:30:00.299289, 1.60313
2022-12-01 15:30:00.311260, 1.59824
2022-12-01 15:30:00.319363, 1.58847
2022-12-01 15:30:00.327744, 1.58358
2022-12-01 15:30:00.335173, 1.57869
2022-12-01 15:30:00.347476, 1.58847
2022-12-01 15:30:00.355736, 1.57380
2022-12-01 15:30:00.364308, 1.57380
2022-12-01 15:30:00.376366, 1.57380
2022-12-01 15:30:00.384897, 1.57380
2022-12-01 15:30:00.393015, 1.57869
2022-12-01 15:30:00.400345, 1.57869
2022-12-01 15:30:00.413788, 1.57380
2022-12-01 15:30:00.421868, 1.57869
2022-12-01 15:30:00.430533, 1.60802
2022-12-01 15:30:00.442406, 1.59335
2022-12-01 15:30:00.449560, 1.56891
2022-12-01 15:30:00.458767, 1.55914
2022-12-01 15:30:00.466722, 1.55425
2022-12-01 15:30:00.478349, 1.55914
2022-12-01 15:30:00.487227, 1.56891
2022-12-01 15:30:00.494934, 1.58847
2022-12-01 15:30:00.507120, 1.62268
2022-12-01 15:30:00.515871, 1.66178
2022-12-01 15:30:00.523709, 1.73021
2022-12-01 15:30:00.532525, 1.73021
2022-12-01 15:30:00.544162, 1.77419
2022-12-01 15:30:00.552715, 1.79863
2022-12-01 15:30:00.560943, 1.82307
2022-12-01 15:30:00.573724, 1.83284
2022-12-01 15:30:00.581787, 1.85728
2022-12-01 15:30:00.589897, 1.83284
2022-12-01 15:30:00.598103, 1.82307
2022-12-01 15:30:00.610325, 1.80841
2022-12-01 15:30:00.618256, 1.80841
2022-12-01 15:30:00.627234, 1.78397
2022-12-01 15:30:00.638810, 1.77419
2022-12-01 15:30:00.647143, 1.76931
2022-12-01 15:30:00.655980, 1.77419
2022-12-01 15:30:00.662834, 1.75953
2022-12-01 15:30:00.676374, 1.75464
2022-12-01 15:30:00.683390, 1.75464
2022-12-01 15:30:00.692297, 1.75464
2022-12-01 15:30:00.704069, 1.74487
2022-12-01 15:30:00.713227, 1.73509
2022-12-01 15:30:00.721449, 1.73021
2022-12-01 15:30:00.729030, 1.72532
2022-12-01 15:30:00.741150, 1.72043
2022-12-01 15:30:00.749103, 1.72043
2022-12-01 15:30:00.757533, 1.71065
2022-12-01 15:30:00.769524, 1.71065
2022-12-01 15:30:00.778289, 1.72043
2022-12-01 15:30:00.786406, 1.71065
2022-12-01 15:30:00.794686, 1.70577
2022-12-01 15:30:00.806563, 1.70577
2022-12-01 15:30:00.814902, 1.71065
2022-12-01 15:30:00.823258, 1.70088
2022-12-01 15:30:00.835315, 1.70088
2022-12-01 15:30:00.844319, 1.70088
2022-12-01 15:30:00.851632, 1.70088
2022-12-01 15:30:00.860815, 1.70088
2022-12-01 15:30:00.872966, 1.70088
2022-12-01 15:30:00.879310, 1.69599
2022-12-01 15:30:00.889358, 1.69599
2022-12-01 15:30:00.900064, 1.69599
2022-12-01 15:30:00.908927, 1.69599
2022-12-01 15:30:00.916711, 1.68622
2022-12-01 15:30:00.925199, 1.68622
2022-12-01 15:30:00.938048, 1.67644
2022-12-01 15:30:00.946203, 1.67155
2022-12-01 15:30:00.954378, 1.66667
2022-12-01 15:30:00.962528, 1.66178
2022-12-01 15:30:00.974617, 1.67644
2022-12-01 15:30:00.982211, 1.65200
2022-12-01 15:30:00.991446, 1.64712
2022-12-01 15:30:01.002450, 1.64712
2022-12-01 15:30:01.012270, 1.64223
2022-12-01 15:30:01.019359, 1.63245
2022-12-01 15:30:01.028618, 1.62757
2022-12-01 15:30:01.039985, 1.65689
2022-12-01 15:30:01.048692, 1.64223
2022-12-01 15:30:01.056850, 1.62757
2022-12-01 15:30:01.068582, 1.61290
2022-12-01 15:30:01.077795, 1.61290
2022-12-01 15:30:01.085304, 1.60802
2022-12-01 15:30:01.093738, 1.60802
2022-12-01 15:30:01.106068, 1.60802
2022-12-01 15:30:01.113855, 1.60313
2022-12-01 15:30:01.122315, 1.59824
2022-12-01 15:30:01.134237, 1.59335
2022-12-01 15:30:01.142419, 1.59335
2022-12-01 15:30:01.150946, 1.59335
2022-12-01 15:30:01.159763, 1.59335
2022-12-01 15:30:01.171991, 1.58358
2022-12-01 15:30:01.180170, 1.57869
2022-12-01 15:30:01.188917, 1.57380
2022-12-01 15:30:01.199910, 1.57380
2022-12-01 15:30:01.208496, 1.56891
2022-12-01 15:30:01.215471, 1.56891
2022-12-01 15:30:01.225244, 1.56403
2022-12-01 15:30:01.236476, 1.55914
2022-12-01 15:30:01.245715, 1.56891
2022-12-01 15:30:01.253063, 1.55914
2022-12-01 15:30:01.265568, 1.54448
2022-12-01 15:30:01.273921, 1.54936
2022-12-01 15:30:01.282154, 1.55914
2022-12-01 15:30:01.290317, 1.57869
2022-12-01 15:30:01.302470, 1.61290
2022-12-01 15:30:01.310568, 1.65200
2022-12-01 15:30:01.318699, 1.69110
2022-12-01 15:30:01.330970, 1.74487
2022-12-01 15:30:01.339976, 1.76931
2022-12-01 15:30:01.348151, 1.79863
2022-12-01 15:30:01.356321, 1.82307
2022-12-01 15:30:01.367871, 1.83773
2022-12-01 15:30:01.375830, 1.84262
2022-12-01 15:30:01.384982, 1.84262
2022-12-01 15:30:01.397274, 1.83773
2022-12-01 15:30:01.404708, 1.82796
2022-12-01 15:30:01.413675, 1.82307
2022-12-01 15:30:01.421344, 1.84751
2022-12-01 15:30:01.432948, 1.80352
2022-12-01 15:30:01.441691, 1.80352
2022-12-01 15:30:01.449651, 1.79863
2022-12-01 15:30:01.462344, 1.80352
2022-12-01 15:30:01.470195, 1.78886
2022-12-01 15:30:01.478509, 1.77908
2022-12-01 15:30:01.486544, 1.75953
2022-12-01 15:30:01.498690, 1.73998
2022-12-01 15:30:01.507889, 1.73021
2022-12-01 15:30:01.515164, 1.70577
2022-12-01 15:30:01.527341, 1.71065
2022-12-01 15:30:01.535616, 1.70088
2022-12-01 15:30:01.543599, 1.69599
2022-12-01 15:30:01.552135, 1.72043
2022-12-01 15:30:01.564837, 1.69599
2022-12-01 15:30:01.572864, 1.73021
2022-12-01 15:30:01.581067, 1.69599
2022-12-01 15:30:01.592161, 1.70088
2022-12-01 15:30:01.601563, 1.69599
2022-12-01 15:30:01.609728, 1.72532
2022-12-01 15:30:01.617688, 1.69599
2022-12-01 15:30:01.630218, 1.69599
2022-12-01 15:30:01.638224, 1.69599
2022-12-01 15:30:01.646604, 1.70088
2022-12-01 15:30:01.659416, 1.69599
2022-12-01 15:30:01.667097, 1.69599
2022-12-01 15:30:01.675211, 1.69599
2022-12-01 15:30:01.683548, 1.69110
2022-12-01 15:30:01.696569, 1.69110
2022-12-01 15:30:01.703148, 1.68622
2022-12-01 15:30:01.712052, 1.68133
2022-12-01 15:30:01.723495, 1.67644
2022-12-01 15:30:01.731649, 1.67644
2022-12-01 15:30:01.740607, 1.66667
2022-12-01 15:30:01.748872, 1.66667
2022-12-01 15:30:01.760440, 1.65689
2022-12-01 15:30:01.768691, 1.64223
2022-12-01 15:30:01.777411, 1.63245
2022-12-01 15:30:01.789400, 1.61779
2022-12-01 15:30:01.798002, 1.60313
2022-12-01 15:30:01.805611, 1.59824
2022-12-01 15:30:01.814490, 1.59335
2022-12-01 15:30:01.826896, 1.59335
2022-12-01 15:30:01.835546, 1.61290
2022-12-01 15:30:01.843773, 1.58847
2022-12-01 15:30:01.851579, 1.58847
2022-12-01 15:30:01.863828, 1.58847
2022-12-01 15:30:01.871124, 1.58847
2022-12-01 15:30:01.880094, 1.58358
2022-12-01 15:30:01.892295, 1.58358
2022-12-01 15:30:01.899869, 1.58358
2022-12-01 15:30:01.909284, 1.57380
2022-12-01 15:30:01.916834, 1.57380
2022-12-01 15:30:01.929094, 1.57380
2022-12-01 15:30:01.938003, 1.57380
2022-12-01 15:30:01.945379, 1.57380
2022-12-01 15:30:01.957942, 1.56891
2022-12-01 15:30:01.965291, 1.56891
2022-12-01 15:30:01.974294, 1.56403
2022-12-01 15:30:01.981849, 1.56403
2022-12-01 15:30:01.993678, 1.55914
2022-12-01 15:30:02.003495, 1.55914
2022-12-01 15:30:02.010942, 1.57380
2022-12-01 15:30:02.023074, 1.58358
2022-12-01 15:30:02.031133, 1.61779
2022-12-01 15:30:02.039556, 1.60313
2022-12-01 15:30:02.047776, 1.63245
2022-12-01 15:30:02.059335, 1.66667
2022-12-01 15:30:02.068739, 1.70577
2022-12-01 15:30:02.076452, 1.74976
2022-12-01 15:30:02.088223, 1.77908
2022-12-01 15:30:02.096220, 1.82307
2022-12-01 15:30:02.104863, 1.82796
2022-12-01 15:30:02.112782, 1.84262
2022-12-01 15:30:02.125379, 1.84751
2022-12-01 15:30:02.133328, 1.84751
2022-12-01 15:30:02.141376, 1.83773
2022-12-01 15:30:02.154020, 1.82796
2022-12-01 15:30:02.162276, 1.81818
2022-12-01 15:30:02.170605, 1.81329
2022-12-01 15:30:02.178822, 1.81329
2022-12-01 15:30:02.190992, 1.79374
2022-12-01 15:30:02.198923, 1.78397
2022-12-01 15:30:02.207223, 1.78397
2022-12-01 15:30:02.219428, 1.79863
2022-12-01 15:30:02.227688, 1.77419
2022-12-01 15:30:02.235863, 1.76931
2022-12-01 15:30:02.244642, 1.75953
2022-12-01 15:30:02.256725, 1.74976
2022-12-01 15:30:02.264950, 1.73021
2022-12-01 15:30:02.273405, 1.72043
2022-12-01 15:30:02.285958, 1.70577
2022-12-01 15:30:02.293799, 1.69599
2022-12-01 15:30:02.301246, 1.69599
2022-12-01 15:30:02.310197, 1.68622
2022-12-01 15:30:02.322482, 1.69110
2022-12-01 15:30:02.331193, 1.68133
2022-12-01 15:30:02.339375, 1.68622
2022-12-01 15:30:02.350660, 1.68622
2022-12-01 15:30:02.359858, 1.69110
2022-12-01 15:30:02.367192, 1.69599
2022-12-01 15:30:02.376244, 1.70088
2022-12-01 15:30:02.388130, 1.71554
2022-12-01 15:30:02.395305, 1.71065
2022-12-01 15:30:02.404025, 1.71065
2022-12-01 15:30:02.416551, 1.74487
2022-12-01 15:30:02.424271, 1.71065
2022-12-01 15:30:02.432800, 1.73998
2022-12-01 15:30:02.440835, 1.70577
2022-12-01 15:30:02.453013, 1.73021
2022-12-01 15:30:02.461681, 1.69599
2022-12-01 15:30:02.469894, 1.68133
2022-12-01 15:30:02.481595, 1.67155
2022-12-01 15:30:02.490114, 1.66178
2022-12-01 15:30:02.498302, 1.66178
2022-12-01 15:30:02.506498, 1.64712
2022-12-01 15:30:02.518692, 1.64223
2022-12-01 15:30:02.527229, 1.64223
2022-12-01 15:30:02.535286, 1.63245
2022-12-01 15:30:02.548251, 1.63734
2022-12-01 15:30:02.556468, 1.65200
2022-12-01 15:30:02.563768, 1.62268
2022-12-01 15:30:02.572482, 1.61779
2022-12-01 15:30:02.584061, 1.61290
2022-12-01 15:30:02.593017, 1.61290
2022-12-01 15:30:02.600740, 1.60802
2022-12-01 15:30:02.613087, 1.61779
2022-12-01 15:30:02.621827, 1.62268
2022-12-01 15:30:02.629794, 1.59335
2022-12-01 15:30:02.637882, 1.59335
2022-12-01 15:30:02.649359, 1.58847
2022-12-01 15:30:02.658639, 1.58358
2022-12-01 15:30:02.666657, 1.58358
2022-12-01 15:30:02.674589, 1.57869
2022-12-01 15:30:02.686683, 1.57380
2022-12-01 15:30:02.694779, 1.57380
2022-12-01 15:30:02.702744, 1.57380
2022-12-01 15:30:02.714732, 1.56891
2022-12-01 15:30:02.723644, 1.56891
2022-12-01 15:30:02.731730, 1.58358
2022-12-01 15:30:02.740772, 1.60802
2022-12-01 15:30:02.752451, 1.65200
2022-12-01 15:30:02.761249, 1.65200
2022-12-01 15:30:02.768935, 1.69110
2022-12-01 15:30:02.781623, 1.73509
2022-12-01 15:30:02.789006, 1.80352
2022-12-01 15:30:02.797381, 1.80841
2022-12-01 15:30:02.805800, 1.86217
2022-12-01 15:30:02.817822, 1.85728
2022-12-01 15:30:02.826310, 1.85728
2022-12-01 15:30:02.834690, 1.85728
2022-12-01 15:30:02.846328, 1.84751
2022-12-01 15:30:02.854583, 1.84751
2022-12-01 15:30:02.863028, 1.82796
2022-12-01 15:30:02.871266, 1.81329
2022-12-01 15:30:02.883581, 1.80841
2022-12-01 15:30:02.891255, 1.79863
2022-12-01 15:30:02.900139, 1.79863
2022-12-01 15:30:02.912815, 1.78886
2022-12-01 15:30:02.921519, 1.78397
2022-12-01 15:30:02.929230, 1.77908
2022-12-01 15:30:02.936935, 1.78397
2022-12-01 15:30:02.948226, 1.79863
2022-12-01 15:30:02.957271, 1.77419
2022-12-01 15:30:02.965045, 1.75953
2022-12-01 15:30:02.977791, 1.74976
2022-12-01 15:30:02.985058, 1.73998
2022-12-01 15:30:02.994186, 1.73021
2022-12-01 15:30:03.001890, 1.72043
2022-12-01 15:30:03.014216, 1.73021
2022-12-01 15:30:03.022125, 1.71065
2022-12-01 15:30:03.030953, 1.71554
2022-12-01 15:30:03.043875, 1.71065
2022-12-01 15:30:03.051310, 1.71554
2022-12-01 15:30:03.059312, 1.71065
2022-12-01 15:30:03.068470, 1.71065
2022-12-01 15:30:03.079488, 1.74976
2022-12-01 15:30:03.088160, 1.72043
2022-12-01 15:30:03.096579, 1.73021
2022-12-01 15:30:03.108431, 1.72043
2022-12-01 15:30:03.117090, 1.74976
2022-12-01 15:30:03.125091, 1.72043
2022-12-01 15:30:03.133128, 1.72532
2022-12-01 15:30:03.145314, 1.71554
2022-12-01 15:30:03.153239, 1.71554
2022-12-01 15:30:03.161427, 1.71065
2022-12-01 15:30:03.174263, 1.71065
2022-12-01 15:30:03.181767, 1.70577
2022-12-01 15:30:03.190622, 1.70088
2022-12-01 15:30:03.198670, 1.69599
2022-12-01 15:30:03.210694, 1.68622
2022-12-01 15:30:03.218644, 1.67644
2022-12-01 15:30:03.227487, 1.66667
2022-12-01 15:30:03.238873, 1.66178
2022-12-01 15:30:03.247948, 1.65200
2022-12-01 15:30:03.256349, 1.64712
2022-12-01 15:30:03.264177, 1.64223
2022-12-01 15:30:03.277343, 1.63734
2022-12-01 15:30:03.285591, 1.63245
2022-12-01 15:30:03.294160, 1.63245
2022-12-01 15:30:03.305949, 1.62757
2022-12-01 15:30:03.314087, 1.64712
2022-12-01 15:30:03.322075, 1.62757
2022-12-01 15:30:03.330115, 1.60802
2022-12-01 15:30:03.342003, 1.60802
2022-12-01 15:30:03.350497, 1.60313
2022-12-01 15:30:03.358444, 1.59824
2022-12-01 15:30:03.370670, 1.59824
2022-12-01 15:30:03.379483, 1.58847
2022-12-01 15:30:03.386793, 1.58358
2022-12-01 15:30:03.396178, 1.58847
2022-12-01 15:30:03.408421, 1.60802
2022-12-01 15:30:03.415570, 1.57380
2022-12-01 15:30:03.424838, 1.57869
2022-12-01 15:30:03.436308, 1.59335
2022-12-01 15:30:03.445306, 1.61779
2022-12-01 15:30:03.453492, 1.65200
2022-12-01 15:30:03.461688, 1.68622
2022-12-01 15:30:03.473999, 1.73021
2022-12-01 15:30:03.481515, 1.77419
2022-12-01 15:30:03.490075, 1.80352
2022-12-01 15:30:03.502131, 1.83284
2022-12-01 15:30:03.510337, 1.84751
2022-12-01 15:30:03.518416, 1.85728
2022-12-01 15:30:03.526707, 1.87195
2022-12-01 15:30:03.539032, 1.86217
2022-12-01 15:30:03.547091, 1.85728
2022-12-01 15:30:03.555321, 1.85239
2022-12-01 15:30:03.563490, 1.84262
2022-12-01 15:30:03.575474, 1.86217
2022-12-01 15:30:03.583351, 1.82307
2022-12-01 15:30:03.591893, 1.80841
2022-12-01 15:30:03.604134, 1.79863
2022-12-01 15:30:03.613246, 1.80352
2022-12-01 15:30:03.620053, 1.78886
2022-12-01 15:30:03.629601, 1.78397
2022-12-01 15:30:03.641436, 1.77908
2022-12-01 15:30:03.648712, 1.78397
2022-12-01 15:30:03.658093, 1.77419
2022-12-01 15:30:03.669570, 1.76931
2022-12-01 15:30:03.677609, 1.75953
2022-12-01 15:30:03.686470, 1.76442
2022-12-01 15:30:03.694588, 1.74487
2022-12-01 15:30:03.707447, 1.73998
2022-12-01 15:30:03.714247, 1.75464
2022-12-01 15:30:03.723844, 1.73021
2022-12-01 15:30:03.735827, 1.74487
2022-12-01 15:30:03.743784, 1.73021
2022-12-01 15:30:03.752494, 1.73509
2022-12-01 15:30:03.760109, 1.73021
2022-12-01 15:30:03.772133, 1.73021
2022-12-01 15:30:03.781178, 1.72532
2022-12-01 15:30:03.788918, 1.72532
2022-12-01 15:30:03.801665, 1.72532
2022-12-01 15:30:03.809243, 1.72532
2022-12-01 15:30:03.818001, 1.75464
2022-12-01 15:30:03.825141, 1.72532
2022-12-01 15:30:03.837496, 1.72532
2022-12-01 15:30:03.846220, 1.72532
2022-12-01 15:30:03.854441, 1.72532
2022-12-01 15:30:03.866525, 1.72043
2022-12-01 15:30:03.875405, 1.71554
2022-12-01 15:30:03.882977, 1.71065
2022-12-01 15:30:03.891769, 1.70088
2022-12-01 15:30:03.903798, 1.68622
2022-12-01 15:30:03.912231, 1.68133
2022-12-01 15:30:03.919395, 1.67155
2022-12-01 15:30:03.931814, 1.66178
2022-12-01 15:30:03.940932, 1.69110
2022-12-01 15:30:03.948558, 1.64712
2022-12-01 15:30:03.957301, 1.64712
2022-12-01 15:30:03.968914, 1.64712
2022-12-01 15:30:03.977487, 1.64712
2022-12-01 15:30:03.985332, 1.65689
2022-12-01 15:30:03.997346, 1.62268
2022-12-01 15:30:04.005912, 1.61779
2022-12-01 15:30:04.014148, 1.61290
2022-12-01 15:30:04.022317, 1.60802
2022-12-01 15:30:04.034689, 1.60802
2022-12-01 15:30:04.042413, 1.60802
2022-12-01 15:30:04.050028, 1.60802
2022-12-01 15:30:04.063231, 1.60802
2022-12-01 15:30:04.071404, 1.62757
2022-12-01 15:30:04.079630, 1.59824
2022-12-01 15:30:04.087178, 1.58847
2022-12-01 15:30:04.099911, 1.60313
2022-12-01 15:30:04.108353, 1.57380
2022-12-01 15:30:04.116958, 1.60802
2022-12-01 15:30:04.128825, 1.63734
2022-12-01 15:30:04.137033, 1.63245
2022-12-01 15:30:04.145252, 1.67155
2022-12-01 15:30:04.153416, 1.71065
2022-12-01 15:30:04.165209, 1.74976
2022-12-01 15:30:04.173866, 1.78397
2022-12-01 15:30:04.181211, 1.84751
2022-12-01 15:30:04.194073, 1.83284
2022-12-01 15:30:04.202505, 1.84751
2022-12-01 15:30:04.210457, 1.85728
2022-12-01 15:30:04.219446, 1.85239
2022-12-01 15:30:04.230602, 1.85239
2022-12-01 15:30:04.239585, 1.84262
2022-12-01 15:30:04.247710, 1.82796
2022-12-01 15:30:04.260398, 1.81818
2022-12-01 15:30:04.268147, 1.80352
2022-12-01 15:30:04.276788, 1.79863
2022-12-01 15:30:04.284528, 1.81818
2022-12-01 15:30:04.296653, 1.77908
2022-12-01 15:30:04.304947, 1.77419
2022-12-01 15:30:04.313131, 1.77419
2022-12-01 15:30:04.325516, 1.77419
2022-12-01 15:30:04.333216, 1.77419
2022-12-01 15:30:04.341804, 1.76442
2022-12-01 15:30:04.349759, 1.75953
2022-12-01 15:30:04.362351, 1.76931
2022-12-01 15:30:04.370449, 1.74487
2022-12-01 15:30:04.378663, 1.73509
2022-12-01 15:30:04.390597, 1.73509
2022-12-01 15:30:04.398224, 1.75953
2022-12-01 15:30:04.407329, 1.72043
2022-12-01 15:30:04.415204, 1.72043
2022-12-01 15:30:04.427644, 1.74976
2022-12-01 15:30:04.436526, 1.72043
2022-12-01 15:30:04.443883, 1.72532
2022-12-01 15:30:04.452506, 1.72532
2022-12-01 15:30:04.466560, 1.72532
2022-12-01 15:30:04.472761, 1.75464
2022-12-01 15:30:04.480257, 1.73021
2022-12-01 15:30:04.492649, 1.74487
2022-12-01 15:30:04.501571, 1.73021
2022-12-01 15:30:04.508926, 1.73021
2022-12-01 15:30:04.517537, 1.73998
2022-12-01 15:30:04.529444, 1.72043
2022-12-01 15:30:04.537716, 1.72043
2022-12-01 15:30:04.545715, 1.71554
2022-12-01 15:30:04.558072, 1.71554
2022-12-01 15:30:04.566176, 1.70577
2022-12-01 15:30:04.575219, 1.70088
2022-12-01 15:30:04.582571, 1.69110
2022-12-01 15:30:04.595768, 1.68133
2022-12-01 15:30:04.603974, 1.67644
2022-12-01 15:30:04.612316, 1.66667
2022-12-01 15:30:04.625020, 1.69110
2022-12-01 15:30:04.632562, 1.65200
2022-12-01 15:30:04.641357, 1.66178
2022-12-01 15:30:04.648294, 1.64712
2022-12-01 15:30:04.661083, 1.66178
2022-12-01 15:30:04.669359, 1.65200
2022-12-01 15:30:04.677443, 1.64223
2022-12-01 15:30:04.689460, 1.63734
2022-12-01 15:30:04.697533, 1.62757
2022-12-01 15:30:04.706338, 1.62268
2022-12-01 15:30:04.714065, 1.61779
2022-12-01 15:30:04.726606, 1.61290
2022-12-01 15:30:04.734772, 1.60313
2022-12-01 15:30:04.743295, 1.60313
2022-12-01 15:30:04.756022, 1.59824
2022-12-01 15:30:04.764166, 1.58847
2022-12-01 15:30:04.772048, 1.58358
2022-12-01 15:30:04.781422, 1.57869
2022-12-01 15:30:04.792872, 1.57380
2022-12-01 15:30:04.799792, 1.57380
2022-12-01 15:30:04.809265, 1.56891
2022-12-01 15:30:04.821578, 1.58358
2022-12-01 15:30:04.829180, 1.60313
2022-12-01 15:30:04.837840, 1.63245
2022-12-01 15:30:04.845625, 1.66178
2022-12-01 15:30:04.858097, 1.70577
2022-12-01 15:30:04.865891, 1.74487
2022-12-01 15:30:04.874453, 1.80352
2022-12-01 15:30:04.886573, 1.80841
2022-12-01 15:30:04.894604, 1.83284
2022-12-01 15:30:04.902605, 1.84751
2022-12-01 15:30:04.911109, 1.85728
2022-12-01 15:30:04.922981, 1.85728
2022-12-01 15:30:04.931042, 1.85239
2022-12-01 15:30:04.939068, 1.84262
2022-12-01 15:30:04.951482, 1.82796
2022-12-01 15:30:04.959474, 1.82307
2022-12-01 15:30:04.968145, 1.80841
2022-12-01 15:30:04.976695, 1.79374
2022-12-01 15:30:04.988755, 1.78886
2022-12-01 15:30:04.997176, 1.77908
2022-12-01 15:30:05.005048, 1.77908
2022-12-01 15:30:05.017123, 1.78886
2022-12-01 15:30:05.025107, 1.76442
2022-12-01 15:30:05.034102, 1.75953
2022-12-01 15:30:05.042269, 1.74976
2022-12-01 15:30:05.054502, 1.74487
2022-12-01 15:30:05.062530, 1.73998
2022-12-01 15:30:05.070684, 1.73021
2022-12-01 15:30:05.082716, 1.73021
2022-12-01 15:30:05.090709, 1.72532
2022-12-01 15:30:05.099363, 1.72532
2022-12-01 15:30:05.106494, 1.74976
2022-12-01 15:30:05.120571, 1.71554
2022-12-01 15:30:05.128034, 1.72043
2022-12-01 15:30:05.137549, 1.73998
2022-12-01 15:30:05.148351, 1.71065
2022-12-01 15:30:05.156660, 1.72532
2022-12-01 15:30:05.165012, 1.71065
2022-12-01 15:30:05.172676, 1.71554
2022-12-01 15:30:05.185254, 1.71554
2022-12-01 15:30:05.193742, 1.71554
2022-12-01 15:30:05.202180, 1.74487
2022-12-01 15:30:05.214140, 1.71554
2022-12-01 15:30:05.222065, 1.74487
2022-12-01 15:30:05.230058, 1.71554
2022-12-01 15:30:05.237984, 1.71554
2022-12-01 15:30:05.250278, 1.70577
2022-12-01 15:30:05.258777, 1.70577
2022-12-01 15:30:05.266901, 1.69599
2022-12-01 15:30:05.275795, 1.69110
2022-12-01 15:30:05.287824, 1.68622
2022-12-01 15:30:05.296050, 1.68133
2022-12-01 15:30:05.304288, 1.67155
2022-12-01 15:30:05.316050, 1.66178
2022-12-01 15:30:05.324674, 1.65200
2022-12-01 15:30:05.332697, 1.64712
2022-12-01 15:30:05.340620, 1.64712
2022-12-01 15:30:05.352864, 1.63734
2022-12-01 15:30:05.361219, 1.63245
2022-12-01 15:30:05.369186, 1.62757
2022-12-01 15:30:05.381660, 1.62757
2022-12-01 15:30:05.390306, 1.63734
2022-12-01 15:30:05.398320, 1.61290
2022-12-01 15:30:05.406024, 1.60802
2022-12-01 15:30:05.418496, 1.59824
2022-12-01 15:30:05.426538, 1.59335
2022-12-01 15:30:05.434870, 1.59335
2022-12-01 15:30:05.446812, 1.58847
2022-12-01 15:30:05.455835, 1.58847
2022-12-01 15:30:05.463707, 1.58847
2022-12-01 15:30:05.472083, 1.58847
2022-12-01 15:30:05.484724, 1.58358
2022-12-01 15:30:05.492777, 1.58847
2022-12-01 15:30:05.500983, 1.58358
2022-12-01 15:30:05.513279, 1.57869
2022-12-01 15:30:05.521496, 1.58358
2022-12-01 15:30:05.529668, 1.59824
2022-12-01 15:30:05.537839, 1.61779
2022-12-01 15:30:05.549900, 1.65200
2022-12-01 15:30:05.557347, 1.68622
2022-12-01 15:30:05.566433, 1.72532
2022-12-01 15:30:05.578830, 1.75953
2022-12-01 15:30:05.587081, 1.78886
2022-12-01 15:30:05.595178, 1.83773
2022-12-01 15:30:05.603323, 1.82796
2022-12-01 15:30:05.615353, 1.83773
2022-12-01 15:30:05.623618, 1.84262
2022-12-01 15:30:05.631181, 1.85239
2022-12-01 15:30:05.644521, 1.82307
2022-12-01 15:30:05.652531, 1.81329
2022-12-01 15:30:05.661251, 1.80352
2022-12-01 15:30:05.668683, 1.79863
2022-12-01 15:30:05.680443, 1.78397
2022-12-01 15:30:05.689929, 1.77419
2022-12-01 15:30:05.697260, 1.76931
2022-12-01 15:30:05.710105, 1.76442
2022-12-01 15:30:05.718111, 1.76931
2022-12-01 15:30:05.726256, 1.75953
2022-12-01 15:30:05.734431, 1.75953
2022-12-01 15:30:05.747118, 1.75464
2022-12-01 15:30:05.755087, 1.75464
2022-12-01 15:30:05.763632, 1.74487
2022-12-01 15:30:05.775160, 1.74487
2022-12-01 15:30:05.783456, 1.73509
2022-12-01 15:30:05.792336, 1.72532
2022-12-01 15:30:05.799956, 1.72532
2022-12-01 15:30:05.812497, 1.71554
2022-12-01 15:30:05.820472, 1.71554
2022-12-01 15:30:05.829196, 1.71065
2022-12-01 15:30:05.841245, 1.70577
2022-12-01 15:30:05.848709, 1.73998
2022-12-01 15:30:05.857850, 1.70577
2022-12-01 15:30:05.865731, 1.72043
2022-12-01 15:30:05.877835, 1.71554
2022-12-01 15:30:05.886099, 1.72043
2022-12-01 15:30:05.894201, 1.72043
2022-12-01 15:30:05.906505, 1.72043
2022-12-01 15:30:05.914755, 1.71554
2022-12-01 15:30:05.923414, 1.71554
2022-12-01 15:30:05.930489, 1.72532
2022-12-01 15:30:05.943171, 1.70577
2022-12-01 15:30:05.951823, 1.71065
2022-12-01 15:30:05.959526, 1.69599
2022-12-01 15:30:05.971505, 1.69110
2022-12-01 15:30:05.980349, 1.68133
2022-12-01 15:30:05.989266, 1.67644
2022-12-01 15:30:05.996662, 1.66667
2022-12-01 15:30:06.008642, 1.65689
2022-12-01 15:30:06.017083, 1.64712
2022-12-01 15:30:06.025813, 1.64712
2022-12-01 15:30:06.037064, 1.63734
2022-12-01 15:30:06.045858, 1.63245
2022-12-01 15:30:06.053564, 1.63245
2022-12-01 15:30:06.061789, 1.63245
2022-12-01 15:30:06.074405, 1.63734
2022-12-01 15:30:06.082329, 1.65200
2022-12-01 15:30:06.090859, 1.62268
2022-12-01 15:30:06.102876, 1.62268
2022-12-01 15:30:06.111210, 1.61779
2022-12-01 15:30:06.119762, 1.60802
2022-12-01 15:30:06.128202, 1.60802
2022-12-01 15:30:06.140512, 1.60802
2022-12-01 15:30:06.148055, 1.58847
2022-12-01 15:30:06.155502, 1.58358
2022-12-01 15:30:06.164725, 1.57869
2022-12-01 15:30:06.177049, 1.56891
2022-12-01 15:30:06.185557, 1.56403
2022-12-01 15:30:06.193049, 1.58358
2022-12-01 15:30:06.205564, 1.55425
2022-12-01 15:30:06.215740, 1.55425
2022-12-01 15:30:06.221922, 1.55914
2022-12-01 15:30:06.230136, 1.56403
2022-12-01 15:30:06.242369, 1.59335
2022-12-01 15:30:06.250553, 1.61290
2022-12-01 15:30:06.258618, 1.64712
2022-12-01 15:30:06.270590, 1.68622
2022-12-01 15:30:06.279263, 1.72532
2022-12-01 15:30:06.286402, 1.76442
2022-12-01 15:30:06.295614, 1.79374
2022-12-01 15:30:06.307894, 1.83773
2022-12-01 15:30:06.316036, 1.83284
2022-12-01 15:30:06.324317, 1.83773
2022-12-01 15:30:06.337132, 1.83284
2022-12-01 15:30:06.345288, 1.82796
2022-12-01 15:30:06.353418, 1.81818
2022-12-01 15:30:06.362392, 1.80841
2022-12-01 15:30:06.373314, 1.82796
2022-12-01 15:30:06.381440, 1.78886
2022-12-01 15:30:06.389874, 1.77908
2022-12-01 15:30:06.402158, 1.76931
2022-12-01 15:30:06.409298, 1.78397
2022-12-01 15:30:06.418507, 1.75953
2022-12-01 15:30:06.426085, 1.74976
2022-12-01 15:30:06.438623, 1.74487
2022-12-01 15:30:06.447178, 1.73998
2022-12-01 15:30:06.455359, 1.75953
2022-12-01 15:30:06.467608, 1.72532
2022-12-01 15:30:06.475852, 1.71554
2022-12-01 15:30:06.484071, 1.71554
2022-12-01 15:30:06.492240, 1.70577
2022-12-01 15:30:06.504482, 1.70577
2022-12-01 15:30:06.513249, 1.70088
2022-12-01 15:30:06.521319, 1.69599
2022-12-01 15:30:06.532768, 1.69599
2022-12-01 15:30:06.541856, 1.70088
2022-12-01 15:30:06.549289, 1.69599
2022-12-01 15:30:06.557865, 1.70088
2022-12-01 15:30:06.569470, 1.72043
2022-12-01 15:30:06.578248, 1.71065
2022-12-01 15:30:06.585788, 1.71065
2022-12-01 15:30:06.598174, 1.71554
2022-12-01 15:30:06.606355, 1.72043
2022-12-01 15:30:06.614309, 1.71554
2022-12-01 15:30:06.622935, 1.71554
2022-12-01 15:30:06.635693, 1.72043
2022-12-01 15:30:06.643753, 1.70577
2022-12-01 15:30:06.652498, 1.70577
2022-12-01 15:30:06.663236, 1.70088
2022-12-01 15:30:06.671962, 1.69110
2022-12-01 15:30:06.680073, 1.68133
2022-12-01 15:30:06.688798, 1.68133
2022-12-01 15:30:06.700921, 1.66667
2022-12-01 15:30:06.709821, 1.66667
2022-12-01 15:30:06.716736, 1.65689
2022-12-01 15:30:06.730048, 1.64712
2022-12-01 15:30:06.738020, 1.63734
2022-12-01 15:30:06.746205, 1.63734
2022-12-01 15:30:06.754471, 1.64223
2022-12-01 15:30:06.766377, 1.64712
2022-12-01 15:30:06.774620, 1.62268
2022-12-01 15:30:06.782411, 1.61779
2022-12-01 15:30:06.794057, 1.61290
2022-12-01 15:30:06.803199, 1.61290
2022-12-01 15:30:06.811625, 1.63734
2022-12-01 15:30:06.820422, 1.59824
2022-12-01 15:30:06.831991, 1.59335
2022-12-01 15:30:06.840913, 1.59335
2022-12-01 15:30:06.848365, 1.58847
2022-12-01 15:30:06.861412, 1.58847
2022-12-01 15:30:06.869590, 1.57869
2022-12-01 15:30:06.877022, 1.57380
2022-12-01 15:30:06.885497, 1.56403
2022-12-01 15:30:06.896647, 1.56403
2022-12-01 15:30:06.905910, 1.55425
2022-12-01 15:30:06.913311, 1.55914
2022-12-01 15:30:06.926445, 1.55914
2022-12-01 15:30:06.934616, 1.57380
2022-12-01 15:30:06.942628, 1.59335
2022-12-01 15:30:06.950548, 1.62757
2022-12-01 15:30:06.963303, 1.66178
2022-12-01 15:30:06.971178, 1.70577
2022-12-01 15:30:06.979944, 1.74487
2022-12-01 15:30:06.992464, 1.77908
2022-12-01 15:30:06.999332, 1.81329
2022-12-01 15:30:07.008874, 1.83284
2022-12-01 15:30:07.016772, 1.84751
2022-12-01 15:30:07.027973, 1.85239
2022-12-01 15:30:07.037488, 1.84751
2022-12-01 15:30:07.044437, 1.87195
2022-12-01 15:30:07.053869, 1.83284
2022-12-01 15:30:07.065441, 1.81818
2022-12-01 15:30:07.073746, 1.80841
2022-12-01 15:30:07.081831, 1.82796
2022-12-01 15:30:07.093983, 1.78397
2022-12-01 15:30:07.102525, 1.77419
2022-12-01 15:30:07.110573, 1.76931
2022-12-01 15:30:07.118626, 1.78397
2022-12-01 15:30:07.130898, 1.75464
2022-12-01 15:30:07.138909, 1.74976
2022-12-01 15:30:07.147196, 1.74487
2022-12-01 15:30:07.160425, 1.73509
2022-12-01 15:30:07.168768, 1.73021
2022-12-01 15:30:07.176226, 1.72043
2022-12-01 15:30:07.185279, 1.70577
2022-12-01 15:30:07.196530, 1.70088
2022-12-01 15:30:07.205471, 1.67644
2022-12-01 15:30:07.213185, 1.69110
2022-12-01 15:30:07.224537, 1.66178
2022-12-01 15:30:07.233350, 1.65689
2022-12-01 15:30:07.242120, 1.65689
2022-12-01 15:30:07.249760, 1.66178
2022-12-01 15:30:07.261737, 1.66667
2022-12-01 15:30:07.270526, 1.69110
2022-12-01 15:30:07.277942, 1.67644
2022-12-01 15:30:07.291496, 1.68133
2022-12-01 15:30:07.298407, 1.68622
2022-12-01 15:30:07.306665, 1.68622
2022-12-01 15:30:07.315288, 1.69110
2022-12-01 15:30:07.328355, 1.69110
2022-12-01 15:30:07.336532, 1.69110
2022-12-01 15:30:07.344147, 1.68622
2022-12-01 15:30:07.355022, 1.70577
2022-12-01 15:30:07.364129, 1.68133
2022-12-01 15:30:07.371792, 1.67155
2022-12-01 15:30:07.380786, 1.66667
2022-12-01 15:30:07.393877, 1.66667
2022-12-01 15:30:07.401545, 1.66178
2022-12-01 15:30:07.410119, 1.65200
2022-12-01 15:30:07.422036, 1.64223
2022-12-01 15:30:07.429771, 1.63245
2022-12-01 15:30:07.438404, 1.63245
2022-12-01 15:30:07.446286, 1.62268
2022-12-01 15:30:07.459434, 1.61779
2022-12-01 15:30:07.466823, 1.60802
2022-12-01 15:30:07.475083, 1.60802
2022-12-01 15:30:07.487731, 1.60313
2022-12-01 15:30:07.494671, 1.59824
2022-12-01 15:30:07.504275, 1.59335
2022-12-01 15:30:07.511780, 1.58358
2022-12-01 15:30:07.524198, 1.58358
2022-12-01 15:30:07.532457, 1.59824
2022-12-01 15:30:07.540623, 1.56891
2022-12-01 15:30:07.553071, 1.56891
2022-12-01 15:30:07.561011, 1.56403
2022-12-01 15:30:07.569001, 1.56403
2022-12-01 15:30:07.577652, 1.55914
2022-12-01 15:30:07.589906, 1.58847
2022-12-01 15:30:07.598087, 1.55425
2022-12-01 15:30:07.606096, 1.55425
2022-12-01 15:30:07.618395, 1.55914
2022-12-01 15:30:07.626847, 1.56891
2022-12-01 15:30:07.634074, 1.58358
2022-12-01 15:30:07.643264, 1.61779
2022-12-01 15:30:07.654898, 1.67644
2022-12-01 15:30:07.662839, 1.68622
2022-12-01 15:30:07.671039, 1.72043
2022-12-01 15:30:07.682755, 1.75953
2022-12-01 15:30:07.692903, 1.79374
2022-12-01 15:30:07.700320, 1.81329
2022-12-01 15:30:07.708784, 1.83284
2022-12-01 15:30:07.720870, 1.83773
2022-12-01 15:30:07.728304, 1.86706
2022-12-01 15:30:07.737683, 1.82796
2022-12-01 15:30:07.749753, 1.81329
2022-12-01 15:30:07.757955, 1.79863
2022-12-01 15:30:07.766041, 1.81818
2022-12-01 15:30:07.774314, 1.76931
2022-12-01 15:30:07.786560, 1.75953
2022-12-01 15:30:07.794833, 1.74976
2022-12-01 15:30:07.802944, 1.77419
2022-12-01 15:30:07.815037, 1.73509
2022-12-01 15:30:07.823176, 1.73021
2022-12-01 15:30:07.831466, 1.72043
2022-12-01 15:30:07.839779, 1.73509
2022-12-01 15:30:07.851767, 1.71554
2022-12-01 15:30:07.860343, 1.70577
2022-12-01 15:30:07.868237, 1.70577
2022-12-01 15:30:07.876469, 1.69599
2022-12-01 15:30:07.889526, 1.70088
2022-12-01 15:30:07.897405, 1.68622
2022-12-01 15:30:07.905882, 1.68622
2022-12-01 15:30:07.917140, 1.69110
2022-12-01 15:30:07.925914, 1.68133
2022-12-01 15:30:07.934005, 1.68622
2022-12-01 15:30:07.942261, 1.68622
2022-12-01 15:30:07.954522, 1.68622
2022-12-01 15:30:07.962799, 1.69110
2022-12-01 15:30:07.971428, 1.69110
2022-12-01 15:30:07.983152, 1.69599
2022-12-01 15:30:07.991342, 1.70088
2022-12-01 15:30:07.999541, 1.70577
2022-12-01 15:30:08.007707, 1.71065
2022-12-01 15:30:08.020087, 1.70577
2022-12-01 15:30:08.027917, 1.71065
2022-12-01 15:30:08.036633, 1.70577
2022-12-01 15:30:08.048501, 1.73509
2022-12-01 15:30:08.057443, 1.69599
2022-12-01 15:30:08.065648, 1.68622
2022-12-01 15:30:08.073843, 1.68133
2022-12-01 15:30:08.085049, 1.70088
2022-12-01 15:30:08.093777, 1.66178
2022-12-01 15:30:08.101761, 1.66178
2022-12-01 15:30:08.113829, 1.64223
2022-12-01 15:30:08.122446, 1.63245
2022-12-01 15:30:08.130822, 1.65200
2022-12-01 15:30:08.139356, 1.62757
2022-12-01 15:30:08.150884, 1.61290
2022-12-01 15:30:08.159287, 1.60802
2022-12-01 15:30:08.167303, 1.63245
2022-12-01 15:30:08.178991, 1.59335
2022-12-01 15:30:08.188521, 1.58847
2022-12-01 15:30:08.195368, 1.58358
2022-12-01 15:30:08.204895, 1.58358
2022-12-01 15:30:08.217194, 1.57380
2022-12-01 15:30:08.224736, 1.56891
2022-12-01 15:30:08.232790, 1.56891
2022-12-01 15:30:08.244921, 1.56891
2022-12-01 15:30:08.253875, 1.59824
2022-12-01 15:30:08.261888, 1.56403
2022-12-01 15:30:08.269960, 1.55914
2022-12-01 15:30:08.281443, 1.56403
2022-12-01 15:30:08.290167, 1.56891
2022-12-01 15:30:08.298554, 1.57869
2022-12-01 15:30:08.310646, 1.61779
2022-12-01 15:30:08.318156, 1.62268
2022-12-01 15:30:08.327135, 1.66178
2022-12-01 15:30:08.335322, 1.70088
2022-12-01 15:30:08.347072, 1.73998
2022-12-01 15:30:08.356472, 1.77908
2022-12-01 15:30:08.363588, 1.80841
2022-12-01 15:30:08.376449, 1.83284
2022-12-01 15:30:08.385156, 1.84751
2022-12-01 15:30:08.393310, 1.86217
2022-12-01 15:30:08.400734, 1.85728
2022-12-01 15:30:08.412878, 1.85239
2022-12-01 15:30:08.421874, 1.83773
2022-12-01 15:30:08.429512, 1.83773
2022-12-01 15:30:08.441627, 1.81329
2022-12-01 15:30:08.449665, 1.80352
2022-12-01 15:30:08.458161, 1.79374
2022-12-01 15:30:08.466391, 1.78886
2022-12-01 15:30:08.478614, 1.77908
2022-12-01 15:30:08.486624, 1.77419
2022-12-01 15:30:08.494394, 1.76931
2022-12-01 15:30:08.506880, 1.76931
2022-12-01 15:30:08.515215, 1.76442
2022-12-01 15:30:08.523811, 1.75464
2022-12-01 15:30:08.531794, 1.74976
2022-12-01 15:30:08.543307, 1.73998
2022-12-01 15:30:08.552147, 1.73021
2022-12-01 15:30:08.560694, 1.72043
2022-12-01 15:30:08.572923, 1.71554
2022-12-01 15:30:08.580967, 1.70577
2022-12-01 15:30:08.588483, 1.71554
2022-12-01 15:30:08.597385, 1.70088
2022-12-01 15:30:08.609027, 1.70577
2022-12-01 15:30:08.617159, 1.71065
2022-12-01 15:30:08.626127, 1.71065
2022-12-01 15:30:08.638191, 1.72532
2022-12-01 15:30:08.646656, 1.71554
2022-12-01 15:30:08.654564, 1.71065
2022-12-01 15:30:08.662484, 1.71065
2022-12-01 15:30:08.674922, 1.71065
2022-12-01 15:30:08.682964, 1.70577
2022-12-01 15:30:08.691649, 1.72532
2022-12-01 15:30:08.703846, 1.70088
2022-12-01 15:30:08.712289, 1.69599
2022-12-01 15:30:08.720585, 1.70577
2022-12-01 15:30:08.729178, 1.68622
2022-12-01 15:30:08.741491, 1.68133
2022-12-01 15:30:08.749669, 1.68133
2022-12-01 15:30:08.757880, 1.66667
2022-12-01 15:30:08.765877, 1.68622
2022-12-01 15:30:08.777091, 1.65200
2022-12-01 15:30:08.785856, 1.64223
2022-12-01 15:30:08.794240, 1.63734
2022-12-01 15:30:08.806546, 1.62268
2022-12-01 15:30:08.814546, 1.61290
2022-12-01 15:30:08.822642, 1.60802
2022-12-01 15:30:08.830997, 1.60313
2022-12-01 15:30:08.843889, 1.60313
2022-12-01 15:30:08.852078, 1.62757
2022-12-01 15:30:08.860839, 1.59335
2022-12-01 15:30:08.872529, 1.58847
2022-12-01 15:30:08.879600, 1.58847
2022-12-01 15:30:08.888912, 1.58847
2022-12-01 15:30:08.895855, 1.58358
2022-12-01 15:30:08.908201, 1.58358
2022-12-01 15:30:08.917592, 1.57869
2022-12-01 15:30:08.924887, 1.57869
2022-12-01 15:30:08.937188, 1.57869
2022-12-01 15:30:08.945422, 1.57869
2022-12-01 15:30:08.953960, 1.57380
2022-12-01 15:30:08.962160, 1.56891
2022-12-01 15:30:08.973782, 1.57380
2022-12-01 15:30:08.981762, 1.58847
2022-12-01 15:30:08.990644, 1.60802
2022-12-01 15:30:09.003622, 1.64712
2022-12-01 15:30:09.011843, 1.70577
2022-12-01 15:30:09.019139, 1.72532
2022-12-01 15:30:09.028201, 1.76931
2022-12-01 15:30:09.040500, 1.80352
2022-12-01 15:30:09.048216, 1.83284
2022-12-01 15:30:09.056884, 1.85239
2022-12-01 15:30:09.068209, 1.85728
2022-12-01 15:30:09.076429, 1.86217
2022-12-01 15:30:09.085227, 1.85239
2022-12-01 15:30:09.092393, 1.83773
2022-12-01 15:30:09.106084, 1.82307
2022-12-01 15:30:09.113434, 1.81329
2022-12-01 15:30:09.122827, 1.79863
2022-12-01 15:30:09.134255, 1.78886
2022-12-01 15:30:09.142334, 1.77908
2022-12-01 15:30:09.150543, 1.77908
2022-12-01 15:30:09.158580, 1.76931
2022-12-01 15:30:09.169885, 1.76442
2022-12-01 15:30:09.179075, 1.75464
2022-12-01 15:30:09.187382, 1.74976
2022-12-01 15:30:09.199758, 1.75464
2022-12-01 15:30:09.208441, 1.73998
2022-12-01 15:30:09.216123, 1.73998
2022-12-01 15:30:09.224812, 1.72043
2022-12-01 15:30:09.236922, 1.71554
2022-12-01 15:30:09.244806, 1.70088
2022-12-01 15:30:09.253466, 1.72532
2022-12-01 15:30:09.264917, 1.69110
2022-12-01 15:30:09.273491, 1.68622
2022-12-01 15:30:09.281415, 1.68622
2022-12-01 15:30:09.290151, 1.68622
2022-12-01 15:30:09.302119, 1.68622
2022-12-01 15:30:09.309957, 1.71554
2022-12-01 15:30:09.318546, 1.69110
2022-12-01 15:30:09.329834, 1.69110
2022-12-01 15:30:09.338894, 1.69110
2022-12-01 15:30:09.346487, 1.69110
2022-12-01 15:30:09.354532, 1.69599
2022-12-01 15:30:09.366558, 1.68622
2022-12-01 15:30:09.375851, 1.68133
2022-12-01 15:30:09.383824, 1.67644
2022-12-01 15:30:09.396043, 1.67155
2022-12-01 15:30:09.403658, 1.66667
2022-12-01 15:30:09.412641, 1.68622
2022-12-01 15:30:09.420379, 1.66178
2022-12-01 15:30:09.432968, 1.65689
2022-12-01 15:30:09.440305, 1.65200
2022-12-01 15:30:09.449362, 1.64712
2022-12-01 15:30:09.460711, 1.67155
2022-12-01 15:30:09.469718, 1.62757
2022-12-01 15:30:09.477620, 1.61779
2022-12-01 15:30:09.486451, 1.60802
2022-12-01 15:30:09.498109, 1.60313
2022-12-01 15:30:09.507457, 1.62757
2022-12-01 15:30:09.514847, 1.58847
2022-12-01 15:30:09.526994, 1.58847
2022-12-01 15:30:09.536111, 1.58847
2022-12-01 15:30:09.543803, 1.58847
2022-12-01 15:30:09.551769, 1.61779
2022-12-01 15:30:09.563815, 1.57869
2022-12-01 15:30:09.571851, 1.56891
2022-12-01 15:30:09.580516, 1.56403
2022-12-01 15:30:09.593457, 1.56403
2022-12-01 15:30:09.601160, 1.55914
2022-12-01 15:30:09.608660, 1.55425
2022-12-01 15:30:09.617527, 1.54448
2022-12-01 15:30:09.628887, 1.56403
2022-12-01 15:30:09.637684, 1.52981
2022-12-01 15:30:09.645368, 1.52981
2022-12-01 15:30:09.654034, 1.53959
2022-12-01 15:30:09.666540, 1.55425
2022-12-01 15:30:09.674856, 1.58358
2022-12-01 15:30:09.682842, 1.61779
2022-12-01 15:30:09.695331, 1.65689
2022-12-01 15:30:09.703001, 1.70088
2022-12-01 15:30:09.711237, 1.73509
2022-12-01 15:30:09.719772, 1.76931
2022-12-01 15:30:09.731936, 1.79863
2022-12-01 15:30:09.740210, 1.81818
2022-12-01 15:30:09.748317, 1.82796
2022-12-01 15:30:09.760760, 1.82796
2022-12-01 15:30:09.769240, 1.82796
2022-12-01 15:30:09.777180, 1.81329
2022-12-01 15:30:09.785976, 1.80352
2022-12-01 15:30:09.797493, 1.79374
2022-12-01 15:30:09.805950, 1.78397
2022-12-01 15:30:09.813951, 1.77419
2022-12-01 15:30:09.826150, 1.76442
2022-12-01 15:30:09.834612, 1.75464
2022-12-01 15:30:09.843335, 1.74976
2022-12-01 15:30:09.851500, 1.76442
2022-12-01 15:30:09.863058, 1.73509
2022-12-01 15:30:09.870691, 1.73021
2022-12-01 15:30:09.879677, 1.72043
2022-12-01 15:30:09.891669, 1.73021
2022-12-01 15:30:09.899665, 1.71065
2022-12-01 15:30:09.907676, 1.70088
2022-12-01 15:30:09.916602, 1.69599
2022-12-01 15:30:09.928553, 1.69110
2022-12-01 15:30:09.936604, 1.68622
2022-12-01 15:30:09.944599, 1.68133
2022-12-01 15:30:09.957245, 1.67644
2022-12-01 15:30:09.965302, 1.67155
2022-12-01 15:30:09.973942, 1.66667
2022-12-01 15:30:09.982096, 1.66667
2022-12-01 15:30:09.994140, 1.66667
2022-12-01 15:30:10.002562, 1.66178
2022-12-01 15:30:10.010835, 1.66667
2022-12-01 15:30:10.022604, 1.68133
2022-12-01 15:30:10.030941, 1.67644
2022-12-01 15:30:10.039439, 1.69599
2022-12-01 15:30:10.047273, 1.67644
2022-12-01 15:30:10.059917, 1.67644
2022-12-01 15:30:10.068115, 1.67155
2022-12-01 15:30:10.076277, 1.66667
2022-12-01 15:30:10.088309, 1.66178
2022-12-01 15:30:10.096505, 1.65200
2022-12-01 15:30:10.104951, 1.64712
2022-12-01 15:30:10.112846, 1.66667
2022-12-01 15:30:10.125910, 1.63734
2022-12-01 15:30:10.133089, 1.62268
2022-12-01 15:30:10.141898, 1.61779
2022-12-01 15:30:10.154157, 1.60802
2022-12-01 15:30:10.161890, 1.60313
2022-12-01 15:30:10.170529, 1.59824
2022-12-01 15:30:10.178938, 1.60802
2022-12-01 15:30:10.190662, 1.57869
2022-12-01 15:30:10.198918, 1.57380
2022-12-01 15:30:10.207360, 1.56891
2022-12-01 15:30:10.220165, 1.57380
2022-12-01 15:30:10.228341, 1.58358
2022-12-01 15:30:10.236519, 1.56403
2022-12-01 15:30:10.244731, 1.55914
2022-12-01 15:30:10.256011, 1.55914
2022-12-01 15:30:10.264485, 1.55425
2022-12-01 15:30:10.272883, 1.54936
2022-12-01 15:30:10.285200, 1.53959
2022-12-01 15:30:10.292473, 1.53470
2022-12-01 15:30:10.301687, 1.52981
2022-12-01 15:30:10.309895, 1.54936
2022-12-01 15:30:10.321078, 1.52004
2022-12-01 15:30:10.330244, 1.51515
2022-12-01 15:30:10.338441, 1.51515
2022-12-01 15:30:10.350357, 1.52004
2022-12-01 15:30:10.358658, 1.52493
2022-12-01 15:30:10.366362, 1.55914
2022-12-01 15:30:10.375266, 1.56891
2022-12-01 15:30:10.388105, 1.60313
2022-12-01 15:30:10.395814, 1.64712
2022-12-01 15:30:10.404465, 1.68622
2022-12-01 15:30:10.416781, 1.73021
2022-12-01 15:30:10.424945, 1.76931
2022-12-01 15:30:10.433128, 1.78886
2022-12-01 15:30:10.441593, 1.80841
2022-12-01 15:30:10.453385, 1.81818
2022-12-01 15:30:10.461235, 1.81818
2022-12-01 15:30:10.469751, 1.80352
2022-12-01 15:30:10.477908, 1.79374
2022-12-01 15:30:10.489976, 1.78397
2022-12-01 15:30:10.497978, 1.77419
2022-12-01 15:30:10.506421, 1.76442
2022-12-01 15:30:10.518645, 1.74487
2022-12-01 15:30:10.526668, 1.73509
2022-12-01 15:30:10.535409, 1.72532
2022-12-01 15:30:10.542964, 1.72532
2022-12-01 15:30:10.556088, 1.72043
2022-12-01 15:30:10.563601, 1.71065
2022-12-01 15:30:10.571423, 1.70088
2022-12-01 15:30:10.583097, 1.69599
2022-12-01 15:30:10.592905, 1.68622
2022-12-01 15:30:10.600506, 1.69599
2022-12-01 15:30:10.609291, 1.67644
2022-12-01 15:30:10.621556, 1.67155
2022-12-01 15:30:10.628775, 1.68622
2022-12-01 15:30:10.637900, 1.66178
2022-12-01 15:30:10.649480, 1.68133
2022-12-01 15:30:10.657516, 1.66178
2022-12-01 15:30:10.666053, 1.66178
2022-12-01 15:30:10.674323, 1.66178
2022-12-01 15:30:10.686509, 1.66178
2022-12-01 15:30:10.694639, 1.66178
2022-12-01 15:30:10.702611, 1.66178
2022-12-01 15:30:10.715781, 1.68133
2022-12-01 15:30:10.722997, 1.66178
2022-12-01 15:30:10.731052, 1.66667
2022-12-01 15:30:10.740109, 1.67155
2022-12-01 15:30:10.752025, 1.67155
2022-12-01 15:30:10.759311, 1.68133
2022-12-01 15:30:10.768540, 1.66667
2022-12-01 15:30:10.780498, 1.66667
2022-12-01 15:30:10.788330, 1.65689
2022-12-01 15:30:10.797687, 1.64712
2022-12-01 15:30:10.805684, 1.63734
2022-12-01 15:30:10.817392, 1.62268
2022-12-01 15:30:10.826157, 1.62757
2022-12-01 15:30:10.833802, 1.60802
2022-12-01 15:30:10.845701, 1.59824
2022-12-01 15:30:10.854575, 1.59335
2022-12-01 15:30:10.862707, 1.58847
2022-12-01 15:30:10.870669, 1.58358
2022-12-01 15:30:10.882936, 1.57869
2022-12-01 15:30:10.892326, 1.57869
2022-12-01 15:30:10.899470, 1.57380
2022-12-01 15:30:10.911719, 1.57380
2022-12-01 15:30:10.920561, 1.58847
2022-12-01 15:30:10.928371, 1.56403
2022-12-01 15:30:10.936952, 1.55914
2022-12-01 15:30:10.948626, 1.57869
2022-12-01 15:30:10.956171, 1.55425
2022-12-01 15:30:10.965488, 1.54936
2022-12-01 15:30:10.977916, 1.54936
2022-12-01 15:30:10.985469, 1.54448
2022-12-01 15:30:10.994135, 1.54448
2022-12-01 15:30:11.001565, 1.55425
2022-12-01 15:30:11.014034, 1.55425
2022-12-01 15:30:11.022439, 1.55914
2022-12-01 15:30:11.030581, 1.52004
2022-12-01 15:30:11.043425, 1.51515
2022-12-01 15:30:11.051645, 1.51515
2022-12-01 15:30:11.059823, 1.52004
2022-12-01 15:30:11.068090, 1.53470
2022-12-01 15:30:11.078935, 1.58847
2022-12-01 15:30:11.088520, 1.59335
2022-12-01 15:30:11.095729, 1.63245
2022-12-01 15:30:11.108075, 1.68133
2022-12-01 15:30:11.117206, 1.72043
2022-12-01 15:30:11.124916, 1.75464
2022-12-01 15:30:11.133580, 1.78397
2022-12-01 15:30:11.144949, 1.81818
2022-12-01 15:30:11.154068, 1.81329
2022-12-01 15:30:11.161607, 1.80841
2022-12-01 15:30:11.173257, 1.79863
2022-12-01 15:30:11.182172, 1.79374
2022-12-01 15:30:11.189760, 1.78397
2022-12-01 15:30:11.198500, 1.77419
2022-12-01 15:30:11.210859, 1.75953
2022-12-01 15:30:11.218494, 1.74976
2022-12-01 15:30:11.227247, 1.73998
2022-12-01 15:30:11.239571, 1.75953
2022-12-01 15:30:11.247837, 1.72532
2022-12-01 15:30:11.256427, 1.72043
2022-12-01 15:30:11.264436, 1.71065
2022-12-01 15:30:11.276958, 1.71554
2022-12-01 15:30:11.284382, 1.69599
2022-12-01 15:30:11.293101, 1.68622
2022-12-01 15:30:11.305607, 1.70088
2022-12-01 15:30:11.312343, 1.66667
2022-12-01 15:30:11.321300, 1.68622
2022-12-01 15:30:11.329225, 1.64712
2022-12-01 15:30:11.341873, 1.64712
2022-12-01 15:30:11.350161, 1.64712
2022-12-01 15:30:11.358182, 1.64223
2022-12-01 15:30:11.366736, 1.67644
2022-12-01 15:30:11.378379, 1.64712
2022-12-01 15:30:11.386753, 1.65200
2022-12-01 15:30:11.394286, 1.65689
2022-12-01 15:30:11.407208, 1.66178
2022-12-01 15:30:11.414935, 1.68133
2022-12-01 15:30:11.423049, 1.66667
2022-12-01 15:30:11.431889, 1.66667
2022-12-01 15:30:11.444831, 1.67155
2022-12-01 15:30:11.452705, 1.67155
2022-12-01 15:30:11.460817, 1.67155
2022-12-01 15:30:11.473548, 1.66178
2022-12-01 15:30:11.480496, 1.66178
2022-12-01 15:30:11.489918, 1.64712
2022-12-01 15:30:11.497643, 1.67155
2022-12-01 15:30:11.509459, 1.63245
2022-12-01 15:30:11.518149, 1.62268
2022-12-01 15:30:11.526175, 1.63245
2022-12-01 15:30:11.538569, 1.60802
2022-12-01 15:30:11.546797, 1.59824
2022-12-01 15:30:11.554886, 1.59335
2022-12-01 15:30:11.562462, 1.58847
2022-12-01 15:30:11.575634, 1.58847
2022-12-01 15:30:11.583409, 1.57869
2022-12-01 15:30:11.592344, 1.57869
2022-12-01 15:30:11.603618, 1.57380
2022-12-01 15:30:11.611427, 1.57869
2022-12-01 15:30:11.619544, 1.56403
2022-12-01 15:30:11.628086, 1.55914
2022-12-01 15:30:11.641486, 1.55425
2022-12-01 15:30:11.649319, 1.54936
2022-12-01 15:30:11.657863, 1.54448
2022-12-01 15:30:11.669507, 1.53470
2022-12-01 15:30:11.677768, 1.52981
2022-12-01 15:30:11.685945, 1.52981
2022-12-01 15:30:11.694196, 1.53470
2022-12-01 15:30:11.706472, 1.51515
2022-12-01 15:30:11.714044, 1.51515
2022-12-01 15:30:11.722596, 1.51026
2022-12-01 15:30:11.734951, 1.50538
2022-12-01 15:30:11.742479, 1.50538
2022-12-01 15:30:11.751347, 1.50538
2022-12-01 15:30:11.759344, 1.49560
2022-12-01 15:30:11.771422, 1.49560
2022-12-01 15:30:11.780043, 1.49560
2022-12-01 15:30:11.788207, 1.52004
2022-12-01 15:30:11.800061, 1.51026
2022-12-01 15:30:11.808598, 1.53470
2022-12-01 15:30:11.816864, 1.55914
2022-12-01 15:30:11.825101, 1.59824
2022-12-01 15:30:11.837232, 1.64223
2022-12-01 15:30:11.845166, 1.68133
2022-12-01 15:30:11.853230, 1.74487
2022-12-01 15:30:11.865918, 1.74976
2022-12-01 15:30:11.873501, 1.76442
2022-12-01 15:30:11.882432, 1.77908
2022-12-01 15:30:11.890375, 1.78397
2022-12-01 15:30:11.902855, 1.78886
2022-12-01 15:30:11.910859, 1.80352
2022-12-01 15:30:11.918703, 1.76442
2022-12-01 15:30:11.931085, 1.75464
2022-12-01 15:30:11.939057, 1.74487
2022-12-01 15:30:11.948066, 1.75953
2022-12-01 15:30:11.956041, 1.73021
2022-12-01 15:30:11.969169, 1.72532
2022-12-01 15:30:11.976556, 1.72043
2022-12-01 15:30:11.984400, 1.72043
2022-12-01 15:30:11.997072, 1.71065
2022-12-01 15:30:12.005059, 1.70577
2022-12-01 15:30:12.013447, 1.69599
2022-12-01 15:30:12.021677, 1.69599
2022-12-01 15:30:12.034182, 1.69599
2022-12-01 15:30:12.042394, 1.67644
2022-12-01 15:30:12.050578, 1.67155
2022-12-01 15:30:12.062264, 1.66667
2022-12-01 15:30:12.070393, 1.69599
2022-12-01 15:30:12.078687, 1.66178
2022-12-01 15:30:12.087179, 1.65689
2022-12-01 15:30:12.099200, 1.65200
2022-12-01 15:30:12.108397, 1.65200
2022-12-01 15:30:12.115944, 1.67644
2022-12-01 15:30:12.127886, 1.65200
2022-12-01 15:30:12.137107, 1.65689
2022-12-01 15:30:12.144543, 1.66178
2022-12-01 15:30:12.152752, 1.68133
2022-12-01 15:30:12.165028, 1.66667
2022-12-01 15:30:12.172941, 1.66667
2022-12-01 15:30:12.180887, 1.66667
2022-12-01 15:30:12.193742, 1.67155
2022-12-01 15:30:12.201725, 1.65689
2022-12-01 15:30:12.209477, 1.65689
2022-12-01 15:30:12.217640, 1.64223
2022-12-01 15:30:12.230556, 1.63734
2022-12-01 15:30:12.238261, 1.63245
2022-12-01 15:30:12.246717, 1.62757
2022-12-01 15:30:12.254940, 1.62268
2022-12-01 15:30:12.267057, 1.61779
2022-12-01 15:30:12.275318, 1.62268
2022-12-01 15:30:12.283740, 1.61290
2022-12-01 15:30:12.295385, 1.60802
2022-12-01 15:30:12.303705, 1.60313
2022-12-01 15:30:12.312109, 1.59824
2022-12-01 15:30:12.320335, 1.59335
2022-12-01 15:30:12.332995, 1.59335
2022-12-01 15:30:12.341431, 1.58358
2022-12-01 15:30:12.349381, 1.58358
2022-12-01 15:30:12.361040, 1.57869
2022-12-01 15:30:12.369237, 1.56891
2022-12-01 15:30:12.378763, 1.56891
2022-12-01 15:30:12.386389, 1.56403
2022-12-01 15:30:12.398163, 1.55914
2022-12-01 15:30:12.406699, 1.55425
2022-12-01 15:30:12.414442, 1.54936
2022-12-01 15:30:12.426266, 1.54448
2022-12-01 15:30:12.435262, 1.53959
2022-12-01 15:30:12.443314, 1.53470
2022-12-01 15:30:12.451776, 1.53470
2022-12-01 15:30:12.463776, 1.52981
2022-12-01 15:30:12.471926, 1.53470
2022-12-01 15:30:12.480255, 1.54448
2022-12-01 15:30:12.492362, 1.52004
2022-12-01 15:30:12.501012, 1.52004
2022-12-01 15:30:12.509124, 1.52493
2022-12-01 15:30:12.517042, 1.53959
2022-12-01 15:30:12.529189, 1.55914
2022-12-01 15:30:12.537880, 1.58847
2022-12-01 15:30:12.545811, 1.62268
2022-12-01 15:30:12.558244, 1.66178
2022-12-01 15:30:12.566651, 1.70577
2022-12-01 15:30:12.574428, 1.73998
2022-12-01 15:30:12.582726, 1.79374
2022-12-01 15:30:12.594688, 1.79374
2022-12-01 15:30:12.603374, 1.80841
2022-12-01 15:30:12.610861, 1.81818
2022-12-01 15:30:12.623685, 1.82307
2022-12-01 15:30:12.631311, 1.80352
2022-12-01 15:30:12.640684, 1.79863
2022-12-01 15:30:12.647786, 1.78886
2022-12-01 15:30:12.660752, 1.78397
2022-12-01 15:30:12.668116, 1.76442
2022-12-01 15:30:12.677259, 1.75464
2022-12-01 15:30:12.688986, 1.74487
2022-12-01 15:30:12.697515, 1.74487
2022-12-01 15:30:12.705550, 1.73021
2022-12-01 15:30:12.714080, 1.72043
2022-12-01 15:30:12.726336, 1.72043
2022-12-01 15:30:12.734410, 1.71554
2022-12-01 15:30:12.742631, 1.71554
2022-12-01 15:30:12.755589, 1.72043
2022-12-01 15:30:12.763794, 1.66667
2022-12-01 15:30:12.771773, 1.64223
2022-12-01 15:30:12.779644, 1.62757
2022-12-01 15:30:12.792455, 1.62268
2022-12-01 15:30:12.800012, 1.61779
2022-12-01 15:30:12.808090, 1.62268
2022-12-01 15:30:12.820152, 1.63245
2022-12-01 15:30:12.828712, 1.62757
2022-12-01 15:30:12.836303, 1.63245
2022-12-01 15:30:12.845087, 1.63734
2022-12-01 15:30:12.856577, 1.64223
2022-12-01 15:30:12.865515, 1.64712
2022-12-01 15:30:12.874181, 1.65200
2022-12-01 15:30:12.885938, 1.65200
2022-12-01 15:30:12.894074, 1.64712
2022-12-01 15:30:12.902577, 1.64223
2022-12-01 15:30:12.910690, 1.63245
2022-12-01 15:30:12.922717, 1.62757
2022-12-01 15:30:12.931714, 1.61779
2022-12-01 15:30:12.939558, 1.61290
2022-12-01 15:30:12.951959, 1.60802
2022-12-01 15:30:12.960405, 1.60802
2022-12-01 15:30:12.967687, 1.60313
2022-12-01 15:30:12.976757, 1.59824
2022-12-01 15:30:12.989130, 1.59824
2022-12-01 15:30:12.996186, 1.59824
2022-12-01 15:30:13.004153, 1.62268
2022-12-01 15:30:13.016979, 1.59824
2022-12-01 15:30:13.025411, 1.56403
2022-12-01 15:30:13.033367, 1.55914
2022-12-01 15:30:13.041778, 1.54936
2022-12-01 15:30:13.054074, 1.54448
2022-12-01 15:30:13.062037, 1.54448
2022-12-01 15:30:13.070459, 1.52493
2022-12-01 15:30:13.082771, 1.52004
2022-12-01 15:30:13.090905, 1.52004
2022-12-01 15:30:13.099683, 1.51515
2022-12-01 15:30:13.107044, 1.51515
2022-12-01 15:30:13.120157, 1.51026
2022-12-01 15:30:13.127319, 1.50538
2022-12-01 15:30:13.137017, 1.49560
2022-12-01 15:30:13.144151, 1.50049
2022-12-01 15:30:13.157024, 1.52004
2022-12-01 15:30:13.164703, 1.48094
2022-12-01 15:30:13.172841, 1.50049
2022-12-01 15:30:13.184862, 1.47605
2022-12-01 15:30:13.193875, 1.48094
2022-12-01 15:30:13.201402, 1.48094
2022-12-01 15:30:13.209431, 1.48583
2022-12-01 15:30:13.222023, 1.49071
2022-12-01 15:30:13.230260, 1.50538
2022-12-01 15:30:13.238347, 1.52493
2022-12-01 15:30:13.250696, 1.55425
2022-12-01 15:30:13.258889, 1.58358
2022-12-01 15:30:13.267137, 1.64712
2022-12-01 15:30:13.275645, 1.69599
2022-12-01 15:30:13.287375, 1.73021
2022-12-01 15:30:13.295461, 1.73998
2022-12-01 15:30:13.303949, 1.76931
2022-12-01 15:30:13.316212, 1.78886
2022-12-01 15:30:13.324365, 1.80352
2022-12-01 15:30:13.332765, 1.80841
2022-12-01 15:30:13.341323, 1.80352
2022-12-01 15:30:13.353044, 1.79863
2022-12-01 15:30:13.360907, 1.81818
2022-12-01 15:30:13.369338, 1.76931
2022-12-01 15:30:13.381927, 1.75464
2022-12-01 15:30:13.389905, 1.74976
2022-12-01 15:30:13.398634, 1.76931
2022-12-01 15:30:13.406374, 1.72532
2022-12-01 15:30:13.418413, 1.71554
2022-12-01 15:30:13.427349, 1.70577
2022-12-01 15:30:13.435550, 1.72532
2022-12-01 15:30:13.446153, 1.69110
2022-12-01 15:30:13.455477, 1.68133
2022-12-01 15:30:13.463180, 1.67644
2022-12-01 15:30:13.472398, 1.66667
2022-12-01 15:30:13.484614, 1.66178
2022-12-01 15:30:13.492325, 1.68622
2022-12-01 15:30:13.501133, 1.64223
2022-12-01 15:30:13.512460, 1.63245
2022-12-01 15:30:13.521542, 1.62757
2022-12-01 15:30:13.528963, 1.61779
2022-12-01 15:30:13.537554, 1.63245
2022-12-01 15:30:13.549942, 1.61779
2022-12-01 15:30:13.557753, 1.64223
2022-12-01 15:30:13.566135, 1.63245
2022-12-01 15:30:13.577931, 1.64223
2022-12-01 15:30:13.586029, 1.64712
2022-12-01 15:30:13.593979, 1.66667
2022-12-01 15:30:13.602178, 1.67155
2022-12-01 15:30:13.614940, 1.69110
2022-12-01 15:30:13.623427, 1.68133
2022-12-01 15:30:13.631017, 1.68133
2022-12-01 15:30:13.643949, 1.67644
2022-12-01 15:30:13.652167, 1.66667
2022-12-01 15:30:13.660609, 1.68133
2022-12-01 15:30:13.669025, 1.65200
2022-12-01 15:30:13.680347, 1.64712
2022-12-01 15:30:13.688837, 1.63245
2022-12-01 15:30:13.696586, 1.62268
2022-12-01 15:30:13.708703, 1.61290
2022-12-01 15:30:13.717637, 1.60313
2022-12-01 15:30:13.725940, 1.59335
2022-12-01 15:30:13.734034, 1.58358
2022-12-01 15:30:13.745924, 1.58358
2022-12-01 15:30:13.754476, 1.56891
2022-12-01 15:30:13.762385, 1.56403
2022-12-01 15:30:13.774645, 1.58358
2022-12-01 15:30:13.782939, 1.54936
2022-12-01 15:30:13.791363, 1.54448
2022-12-01 15:30:13.800107, 1.53959
2022-12-01 15:30:13.812462, 1.52981
2022-12-01 15:30:13.819941, 1.52981
2022-12-01 15:30:13.828135, 1.53959
2022-12-01 15:30:13.840355, 1.54448
2022-12-01 15:30:13.848578, 1.52004
2022-12-01 15:30:13.856815, 1.52004
2022-12-01 15:30:13.864618, 1.51515
2022-12-01 15:30:13.877189, 1.51515
2022-12-01 15:30:13.885946, 1.51515
2022-12-01 15:30:13.893836, 1.51515
2022-12-01 15:30:13.906185, 1.52004
2022-12-01 15:30:13.914021, 1.53470
2022-12-01 15:30:13.922483, 1.52981
2022-12-01 15:30:13.930655, 1.55914
2022-12-01 15:30:13.941685, 1.58847
2022-12-01 15:30:13.950809, 1.63734
2022-12-01 15:30:13.959292, 1.68622
2022-12-01 15:30:13.967479, 1.75953
2022-12-01 15:30:13.979591, 1.76931
2022-12-01 15:30:13.987950, 1.79374
2022-12-01 15:30:13.995808, 1.84262
2022-12-01 15:30:14.008249, 1.82307
2022-12-01 15:30:14.017170, 1.81818
2022-12-01 15:30:14.025284, 1.81329
2022-12-01 15:30:14.034314, 1.80841
2022-12-01 15:30:14.044799, 1.79374
2022-12-01 15:30:14.053921, 1.77419
2022-12-01 15:30:14.061454, 1.76442
2022-12-01 15:30:14.074193, 1.75464
2022-12-01 15:30:14.081908, 1.75464
2022-12-01 15:30:14.090425, 1.73509
2022-12-01 15:30:14.098139, 1.73509
2022-12-01 15:30:14.111791, 1.73021
2022-12-01 15:30:14.118707, 1.73021
2022-12-01 15:30:14.127330, 1.75464
2022-12-01 15:30:14.140067, 1.71554
2022-12-01 15:30:14.147032, 1.71065
2022-12-01 15:30:14.156455, 1.70088
2022-12-01 15:30:14.164644, 1.69110
2022-12-01 15:30:14.176901, 1.68133
2022-12-01 15:30:14.185116, 1.67155
2022-12-01 15:30:14.193302, 1.66667
2022-12-01 15:30:14.204885, 1.69110
2022-12-01 15:30:14.213030, 1.66667
2022-12-01 15:30:14.220661, 1.66667
2022-12-01 15:30:14.229299, 1.66667
2022-12-01 15:30:14.241634, 1.67155
2022-12-01 15:30:14.250197, 1.68133
2022-12-01 15:30:14.258387, 1.67155
2022-12-01 15:30:14.270374, 1.67155
2022-12-01 15:30:14.278464, 1.67155
2022-12-01 15:30:14.286277, 1.67155
2022-12-01 15:30:14.294695, 1.66667
2022-12-01 15:30:14.307988, 1.67155
2022-12-01 15:30:14.314994, 1.66667
2022-12-01 15:30:14.324378, 1.66178
2022-12-01 15:30:14.336676, 1.65200
2022-12-01 15:30:14.343665, 1.65200
2022-12-01 15:30:14.353123, 1.63734
2022-12-01 15:30:14.360956, 1.63245
2022-12-01 15:30:14.373513, 1.62268
2022-12-01 15:30:14.380414, 1.61779
2022-12-01 15:30:14.389311, 1.62268
2022-12-01 15:30:14.402193, 1.60313
2022-12-01 15:30:14.409885, 1.59824
2022-12-01 15:30:14.418183, 1.61290
2022-12-01 15:30:14.426194, 1.58358
2022-12-01 15:30:14.438611, 1.57869
2022-12-01 15:30:14.446637, 1.56891
2022-12-01 15:30:14.454824, 1.56403
2022-12-01 15:30:14.467738, 1.55914
2022-12-01 15:30:14.475938, 1.55425
2022-12-01 15:30:14.484691, 1.54936
2022-12-01 15:30:14.492341, 1.54936
2022-12-01 15:30:14.504018, 1.54448
2022-12-01 15:30:14.512826, 1.53470
2022-12-01 15:30:14.520231, 1.53470
2022-12-01 15:30:14.532508, 1.52981
2022-12-01 15:30:14.541466, 1.52493
2022-12-01 15:30:14.548717, 1.52004
2022-12-01 15:30:14.557128, 1.52004
2022-12-01 15:30:14.569635, 1.52004
2022-12-01 15:30:14.577769, 1.51515
2022-12-01 15:30:14.585991, 1.53959
2022-12-01 15:30:14.597766, 1.52004
2022-12-01 15:30:14.606186, 1.53959
2022-12-01 15:30:14.614222, 1.56403
2022-12-01 15:30:14.622865, 1.60313
2022-12-01 15:30:14.634984, 1.64712
2022-12-01 15:30:14.643143, 1.69110
2022-12-01 15:30:14.651165, 1.75464
2022-12-01 15:30:14.662982, 1.78397
2022-12-01 15:30:14.671521, 1.80352
2022-12-01 15:30:14.679950, 1.83284
2022-12-01 15:30:14.688148, 1.84751
2022-12-01 15:30:14.699529, 1.88172
2022-12-01 15:30:14.708014, 1.84262
2022-12-01 15:30:14.716654, 1.83773
2022-12-01 15:30:14.729817, 1.82796
2022-12-01 15:30:14.737013, 1.84262
2022-12-01 15:30:14.745402, 1.80352
2022-12-01 15:30:14.753866, 1.78886
2022-12-01 15:30:14.765724, 1.77908
2022-12-01 15:30:14.774367, 1.79374
2022-12-01 15:30:14.782587, 1.76442
2022-12-01 15:30:14.794386, 1.75464
2022-12-01 15:30:14.803637, 1.74976
2022-12-01 15:30:14.811493, 1.75464
2022-12-01 15:30:14.819981, 1.73021
2022-12-01 15:30:14.831207, 1.72043
2022-12-01 15:30:14.839744, 1.72043
2022-12-01 15:30:14.847819, 1.70577
2022-12-01 15:30:14.856848, 1.69599
2022-12-01 15:30:14.869119, 1.69110
2022-12-01 15:30:14.876785, 1.68622
2022-12-01 15:30:14.884918, 1.72043
2022-12-01 15:30:14.897060, 1.68622
2022-12-01 15:30:14.905690, 1.68133
2022-12-01 15:30:14.913586, 1.68622
2022-12-01 15:30:14.920941, 1.68622
2022-12-01 15:30:14.933402, 1.69110
2022-12-01 15:30:14.942384, 1.70088
2022-12-01 15:30:14.951401, 1.69599
2022-12-01 15:30:14.962634, 1.70088
2022-12-01 15:30:14.970352, 1.69599
2022-12-01 15:30:14.979252, 1.69110
2022-12-01 15:30:14.987138, 1.68622
2022-12-01 15:30:14.999313, 1.68133
2022-12-01 15:30:15.007774, 1.67155
2022-12-01 15:30:15.015475, 1.66178
2022-12-01 15:30:15.028126, 1.65689
2022-12-01 15:30:15.035741, 1.65689
2022-12-01 15:30:15.044754, 1.65200
2022-12-01 15:30:15.052608, 1.65200
2022-12-01 15:30:15.064377, 1.64223
2022-12-01 15:30:15.073303, 1.63734
2022-12-01 15:30:15.080920, 1.63734
2022-12-01 15:30:15.093589, 1.65689
2022-12-01 15:30:15.101625, 1.61779
2022-12-01 15:30:15.109534, 1.60802
2022-12-01 15:30:15.117513, 1.60313
2022-12-01 15:30:15.130666, 1.60313
2022-12-01 15:30:15.138072, 1.60313
2022-12-01 15:30:15.146323, 1.60802
2022-12-01 15:30:15.159014, 1.59824
2022-12-01 15:30:15.166992, 1.59335
2022-12-01 15:30:15.175012, 1.58847
2022-12-01 15:30:15.183909, 1.58358
2022-12-01 15:30:15.196059, 1.57869
2022-12-01 15:30:15.205048, 1.57380
2022-12-01 15:30:15.213222, 1.56891
2022-12-01 15:30:15.225513, 1.56891
2022-12-01 15:30:15.231965, 1.57869
2022-12-01 15:30:15.241917, 1.56891
2022-12-01 15:30:15.249396, 1.57380
2022-12-01 15:30:15.260976, 1.54448
2022-12-01 15:30:15.269834, 1.53959
2022-12-01 15:30:15.278236, 1.53959
2022-12-01 15:30:15.290576, 1.54936
2022-12-01 15:30:15.298721, 1.56891
2022-12-01 15:30:15.307380, 1.60313
2022-12-01 15:30:15.315638, 1.64223
2022-12-01 15:30:15.326489, 1.69110
2022-12-01 15:30:15.336128, 1.73998
2022-12-01 15:30:15.342968, 1.77908
2022-12-01 15:30:15.355593, 1.81329
2022-12-01 15:30:15.364781, 1.84751
2022-12-01 15:30:15.371860, 1.86217
