1.66178
1.64712
1.65200
1.65200
1.65689
1.66667
1.67644
1.72043
1.70088
1.71065
1.72532
1.74487
1.73998
1.74487
1.74487
1.74487
1.75464
1.74487
1.73998
1.73998
1.73998
1.73509
1.73509
1.73998
1.74976
1.73998
1.73021
1.72532
1.72532
1.72043
1.71554
1.71065
1.71065
1.70577
1.70088
1.70088
1.70088
1.73509
1.70577
1.70577
1.71065
1.73998
1.71065
1.71065
1.71065
1.72532
1.70577
1.70088
1.70088
1.70088
1.72532
1.69110
1.68622
1.68622
1.68622
1.67644
1.67644
1.67155
1.68133
1.67155
1.66667
1.66667
1.67644
1.66667
1.66178
1.66178
1.65689
1.65689
1.66667
1.65200
1.65200
1.64712
1.64712
1.64712
1.64223
1.63734
1.65689
1.63734
1.63245
1.63734
1.63245
1.63245
1.65689
1.64223
1.65200
1.66178
1.67644
1.69110
1.73998
1.72043
1.73021
1.73998
1.74976
1.75464
1.78397
1.76442
1.77419
1.78397
1.79863
1.81329
1.85239
1.84751
1.87683
1.91105
1.95503
2.00391
2.06256
2.07234
2.09189
2.09677
2.10166
2.09677
2.08700
2.06745
2.04790
2.02346
1.99902
1.97947
1.94037
1.92571
1.93548
1.88172
1.86706
1.85239
1.83284
1.82796
1.81818
1.80841
1.79863
1.79374
1.78397
1.77419
1.76442
1.75464
1.73998
1.73021
1.72532
1.70577
1.69599
1.68622
1.67644
1.67155
1.66178
1.65689
1.65200
1.65689
1.65200
1.64712
1.64712
1.65200
1.63734
1.62757
1.61290
1.60313
1.58847
1.57869
1.56891
1.55914
1.55425
1.56891
1.54448
1.57869
1.54448
1.54448
1.54936
1.55914
1.57380
1.57869
1.59335
1.60802
1.61779
1.62757
1.63734
1.64223
1.66178
1.64712
1.65200
1.65200
1.67155
1.64712
1.64712
1.64712
1.65200
1.65200
1.65200
1.65200
1.66667
1.65689
1.65689
1.65689
1.65689
1.67155
1.66178
1.65689
1.65689
1.65689
1.65689
1.66178
1.66178
1.68133
1.66667
1.66667
1.66667
1.67644
1.66178
1.65200
1.64223
1.63734
1.62757
1.61779
1.64223
1.59824
1.61290
1.61290
1.60802
1.57380
1.56891
1.56891
1.55914
1.55425
1.54936
1.54448
1.54448
1.53959
1.53470
1.53470
1.52981
1.52981
1.52981
1.52493
1.53959
1.52493
1.52981
1.52981
1.52493
1.52493
1.52493
1.52493
1.52493
1.52981
1.53470
1.56891
1.55425
1.55425
1.55425
1.56403
1.57380
1.58847
1.59824
1.61290
1.62757
1.64223
1.65689
1.66178
1.67155
1.67155
1.67155
1.67155
1.66178
1.65689
1.68133
1.63734
1.63245
1.62757
1.61779
1.62268
1.61779
1.61779
1.61290
1.60802
1.64223
1.60313
1.60313
1.60313
1.60313
1.60313
1.60802
1.61779
1.61779
1.62268
1.62757
1.62757
1.63734
1.63734
1.63734
1.64223
1.64223
1.63734
1.63734
1.63734
1.64223
1.63245
1.62757
1.63245
1.64223
1.62268
1.62268
1.62268
1.61779
1.61779
1.62268
1.61290
1.61290
1.63734
1.60802
1.60313
1.60313
1.60313
1.61290
1.59824
1.60313
1.63245
1.59824
1.60313
1.59824
1.59824
1.60802
1.59824
1.61290
1.59335
1.59824
1.60313
1.60313
1.62268
1.62757
1.65200
1.66667
1.68622
1.70088
1.71065
1.71554
1.72043
1.72043
1.74976
1.71065
1.70577
1.70088
1.70088
1.71065
1.69110
1.68622
1.68622
1.68622
1.71554
1.67644
1.67644
1.67155
1.66667
1.66667
1.67644
1.69599
1.66178
1.66667
1.68622
1.67644
1.68133
1.69110
1.68622
1.70088
1.72532
1.71065
1.72043
1.73509
1.74487
1.74976
1.76442
1.74976
1.74487
1.74487
1.73998
1.75464
1.73021
1.72532
1.72043
1.72043
1.73021
1.73021
1.69110
1.68133
1.66667
1.66178
1.65689
1.64712
1.64712
1.64712
1.63734
1.64223
1.63245
1.63734
1.62757
1.62757
1.61779
1.61779
1.61779
1.62268
1.63245
1.65689
1.70088
1.69110
1.71065
1.73509
1.75953
1.76442
1.79374
1.77908
1.78397
1.77908
1.77908
1.79374
1.76442
1.75953
1.75953
1.76442
1.75464
1.74976
1.74976
1.74976
1.74487
1.74487
1.76442
1.76442
1.73998
1.73998
1.73998
1.74487
1.74976
1.76442
1.73509
1.73021
1.73021
1.73509
1.73509
1.73509
1.73021
1.73021
1.73021
1.72532
1.73021
1.72532
1.72532
1.72043
1.72043
1.71554
1.71065
1.72043
1.68622
1.68133
1.66667
1.66178
1.65689
1.65200
1.64712
1.64712
1.64223
1.63734
1.63734
1.63245
1.62757
1.62757
1.62757
1.64223
1.65200
1.61290
1.61290
1.61779
1.63245
1.65200
1.67155
1.70088
1.72532
1.74976
1.79374
1.77419
1.78886
1.79374
1.79374
1.78397
1.77419
1.76931
1.76442
1.77419
1.74976
1.74487
1.73998
1.75464
1.73021
1.72532
1.72043
1.71554
1.73998
1.69599
1.69110
1.69110
1.68622
1.69110
1.69599
1.71065
1.72532
1.73021
1.73509
1.73998
1.75953
1.73998
1.73998
1.73509
1.75953
1.75953
1.72532
1.72043
1.72043
1.72532
1.71554
1.71065
1.72043
1.70088
1.69599
1.71065
1.68622
1.68622
1.68133
1.67644
1.68133
1.67155
1.66667
1.70577
1.66667
1.67644
1.66178
1.66178
1.65689
1.65689
1.65689
1.66667
1.67644
1.69110
1.71554
1.73998
1.75464
1.77908
1.79863
1.81329
1.83284
1.84262
1.85239
1.86217
1.87195
1.90127
1.86706
1.85728
1.84751
1.83284
1.83284
1.80352
1.78886
1.77908
1.76931
1.76442
1.75953
1.75464
1.78397
1.74976
1.74487
1.77419
1.73998
1.73021
1.72043
1.71065
1.70088
1.69599
1.72532
1.68622
1.69110
1.68622
1.68622
1.69110
1.70577
1.69110
1.68622
1.69599
1.70088
1.66178
1.65200
1.64712
1.63734
1.62757
1.62268
1.61290
1.60313
1.59824
1.58847
1.57869
1.57380
1.57380
1.56891
1.56891
1.56891
1.56403
1.56403
1.55914
1.56891
1.57869
1.58358
1.56403
1.57869
1.54936
1.54936
1.56403
1.56403
1.55914
1.53470
1.54448
1.54448
1.55914
1.58358
1.60313
1.63245
1.65689
1.68133
1.70088
1.72043
1.73021
1.73509
1.73998
1.73509
1.73509
1.73021
1.73509
1.74976
1.71065
1.70577
1.69110
1.68622
1.68622
1.67155
1.65689
1.65200
1.67644
1.63245
1.64223
1.60802
1.61290
1.59335
1.58847
1.58847
1.58358
1.61290
1.58358
1.58358
1.58358
1.58358
1.57869
1.58358
1.57869
1.59335
1.56403
1.55914
1.54936
1.54448
1.54448
1.53959
1.52493
1.51515
1.50538
1.50049
1.49560
1.49071
1.48583
1.48583
1.48094
1.48094
1.48094
1.46628
1.48094
1.46628
1.47116
1.47605
1.48583
1.49560
1.50538
1.51026
1.53470
1.52004
1.52004
1.52004
1.52004
1.52004
1.52004
1.51515
1.51515
1.52004
1.51515
1.51515
1.52493
1.54448
1.56891
1.58847
1.62268
1.69110
1.69110
1.72532
1.74976
1.76442
1.77908
1.78397
1.78397
1.78397
1.77908
1.79863
1.75464
1.74976
1.73998
1.73509
1.72532
1.72532
1.72532
1.73021
1.75464
1.73021
1.73021
1.73021
1.73509
1.73021
1.73021
1.73021
1.73021
1.74487
1.72532
1.72532
1.72532
1.72532
1.73998
1.73021
1.73021
1.73021
1.73021
1.73509
1.71554
1.71065
1.70577
1.70088
1.69110
1.69110
1.68133
1.68133
1.68133
1.67155
1.70088
1.65689
1.65689
1.65689
1.64712
1.65200
1.64712
1.64712
1.64223
1.63245
1.62757
1.63734
1.64712
1.61290
1.60802
1.60802
1.60802
1.60802
1.60802
1.61779
1.61779
1.61290
1.61290
1.60802
1.60802
1.60313
1.60802
1.60802
1.60313
1.60313
1.59824
1.59335
1.58358
1.59335
1.58358
1.58847
1.60802
1.62757
1.66178
1.68622
1.71554
1.74487
1.75464
1.76931
1.77419
1.79374
1.76931
1.76442
1.75953
1.76931
1.73998
1.73509
1.72532
1.72532
1.71554
1.71065
1.71065
1.71554
1.71065
1.70577
1.69599
1.69110
1.68622
1.68133
1.71065
1.67155
1.67644
1.67644
1.67644
1.69599
1.68622
1.69110
1.72532
1.69599
1.69599
1.69599
1.71065
1.69110
1.69599
1.69110
1.69110
1.68622
1.67644
1.67644
1.66667
1.66178
1.68622
1.64712
1.64712
1.64223
1.63734
1.63245
1.62757
1.62268
1.61779
1.61290
1.60313
1.59824
1.59335
1.58847
1.58847
1.58847
1.58847
1.58847
1.58358
1.58847
1.60313
1.58358
1.58358
1.58358
1.58358
1.58358
1.58847
1.58358
1.57869
1.57380
1.56891
1.56403
1.55914
1.58358
1.55914
1.57380
1.59335
1.62268
1.67644
1.68133
1.69599
1.74976
1.73509
1.75464
1.75464
1.75953
1.76442
1.75464
1.74976
1.75464
1.78397
1.74976
1.74976
1.74976
1.78397
1.74976
1.74487
1.74487
1.75953
1.73021
1.72043
1.71554
1.70577
1.69599
1.72043
1.67644
1.67155
1.66667
1.66178
1.68622
1.65689
1.65689
1.65200
1.65689
1.67644
1.65200
1.65200
1.65200
1.65200
1.65200
1.64712
1.64712
1.64223
1.67155
1.63734
1.63245
1.62757
1.62268
1.62268
1.63734
1.61290
1.61290
1.61290
1.60802
1.60802
1.60313
1.59824
1.59335
1.59335
1.58358
1.57869
1.57869
1.58358
1.58847
1.62268
1.59335
1.59335
1.59335
1.58847
1.58358
1.59335
1.57380
1.56891
1.56891
1.56891
1.56403
1.56891
1.56891
1.56403
1.56891
1.57869
1.59335
1.61779
1.64223
1.66667
1.69599
1.72043
1.73509
1.74976
1.74976
1.76442
1.75464
1.74487
1.73509
1.73509
1.75953
1.71554
1.71065
1.70577
1.71065
1.69110
1.68622
1.68133
1.67644
1.70088
1.68622
1.66178
1.66178
1.65689
1.65689
1.65689
1.65689
1.65689
1.65689
1.66667
1.65689
1.66178
1.66667
1.67155
1.66667
1.67155
1.67155
1.67155
1.70088
1.66667
1.67155
1.66178
1.65200
1.68133
1.64223
1.63734
1.62757
1.62757
1.61779
1.62757
1.61290
1.61290
1.61290
1.63245
1.60313
1.60313
1.60313
1.59824
1.59824
1.59335
1.58847
1.58847
1.58358
1.61290
1.57380
1.57380
1.57380
1.58358
1.57380
1.57380
1.56891
1.57380
1.56891
1.56891
1.56891
1.56891
1.56891
1.57380
1.58847
1.63734
1.64223
1.65200
1.67644
1.70088
1.72043
1.73509
1.74487
1.75464
1.75953
1.74976
1.74487
1.73998
1.73509
1.75464
1.72043
1.71554
1.70577
1.71065
1.70088
1.69599
1.69599
1.69110
1.71554
1.67644
1.67155
1.67155
1.68622
1.66667
1.66667
1.66667
1.66667
1.66667
1.67155
1.69599
1.67644
1.68133
1.68133
1.68622
1.69599
1.68133
1.68133
1.67644
1.68133
1.66667
1.69110
1.65200
1.64712
1.63734
1.63734
1.63245
1.62757
1.65200
1.62757
1.62757
1.62268
1.62268
1.61779
1.61779
1.61290
1.63734
1.60802
1.60313
1.63734
1.59824
1.61290
1.59335
1.58847
1.58358
1.59335
1.58358
1.57869
1.60802
1.57869
1.57380
1.57380
1.57380
1.57380
1.58847
1.63734
1.63734
1.66667
1.68622
1.71065
1.73509
1.77419
1.79374
1.77908
1.78397
1.78397
1.78397
1.77419
1.76931
1.76442
1.75953
1.77908
1.74487
1.73998
1.73998
1.74976
1.73021
1.72532
1.72043
1.72043
1.72532
1.70577
1.71065
1.70577
1.70577
1.71554
1.71065
1.71554
1.72532
1.71554
1.70577
1.71554
1.69110
1.68133
1.67644
1.67644
1.68622
1.67644
1.68622
1.67155
1.67155
1.67644
1.66178
1.66178
1.65689
1.66178
1.65200
1.65200
1.64223
1.63245
1.62268
1.61779
1.61779
1.60802
1.60802
1.60313
1.60313
1.58358
1.57869
1.57869
1.57869
1.57869
1.58358
1.58847
1.57380
1.57380
1.56891
1.56891
1.56403
1.57869
1.60802
1.58847
1.60802
1.63245
1.66178
1.69599
1.72532
1.74976
1.80352
1.78397
1.79863
1.82307
1.79863
1.79374
1.78886
1.78397
1.76931
1.76442
1.74976
1.74976
1.73509
1.73021
1.72532
1.72532
1.73998
1.71554
1.71065
1.72043
1.68622
1.71065
1.66667
1.66178
1.66667
1.66667
1.67155
1.67644
1.68133
1.69110
1.69599
1.70577
1.70088
1.70577
1.70088
1.70088
1.69599
1.69110
1.69110
1.68622
1.69599
1.68133
1.67644
1.66178
1.65200
1.64712
1.64223
1.63734
1.63245
1.63245
1.62268
1.62268
1.62268
1.61290
1.60802
1.59824
1.59335
1.59824
1.57869
1.57380
1.56891
1.56891
1.56891
1.56891
1.58358
1.58358
1.59335
1.60802
1.63245
1.65689
1.69599
1.72532
1.75464
1.78397
1.79863
1.80841
1.81818
1.82307
1.81818
1.80841
1.79863
1.79374
1.79863
1.77419
1.76442
1.75953
1.76442
1.74976
1.74487
1.73998
1.73998
1.72043
1.71554
1.72532
1.69599
1.69599
1.69110
1.68622
1.68622
1.69110
1.69599
1.69599
1.70088
1.70577
1.71065
1.71554
1.71554
1.71554
1.72043
1.71554
1.71554
1.71065
1.71065
1.70577
1.70088
1.69599
1.68622
1.68133
1.67644
1.67155
1.66178
1.65689
1.64712
1.64712
1.63734
1.64223
1.63734
1.62757
1.62268
1.61779
1.61290
1.60802
1.60313
1.59824
1.60802
1.59335
1.59824
1.60802
1.62268
1.64223
1.66667
1.70577
1.73021
1.76442
1.79374
1.81329
1.83284
1.84262
1.84751
1.87683
1.84262
1.83284
1.82307
1.83284
1.80841
1.79863
1.79374
1.78886
1.81329
1.78397
1.77908
1.77419
1.76931
1.77419
1.75464
1.74487
1.73509
1.73998
1.73021
1.74976
1.72532
1.72532
1.72043
1.72043
1.72043
1.72043
1.72043
1.72043
1.72043
1.72043
1.71554
1.72043
1.70577
1.70577
1.69110
1.72043
1.68133
1.67644
1.67155
1.66667
1.66178
1.66178
1.65689
1.67644
1.64223
1.63734
1.63734
1.63245
1.62757
1.62757
1.62268
1.61779
1.61779
1.61290
1.62268
1.60313
1.59824
1.59335
1.59335
1.59824
1.61779
1.64223
1.67155
1.70088
1.73509
1.76931
1.79374
1.83284
1.83284
1.84262
1.85728
1.84751
1.84262
1.83773
1.83284
1.83284
1.81818
1.81329
1.80841
1.82307
1.80352
1.79863
1.79863
1.79374
1.79374
1.78397
1.77908
1.77419
1.76931
1.76442
1.77908
1.74976
1.74487
1.73998
1.73998
1.73509
1.73021
1.73021
1.72043
1.72043
1.71554
1.71065
1.71065
1.71065
1.70577
1.71065
1.70088
1.69599
1.71554
1.68622
1.68133
1.67644
1.69110
1.66667
1.66178
1.65689
1.64712
1.64223
1.63734
1.62757
1.62757
1.62757
1.63245
1.61290
1.61290
1.62757
1.60313
1.60313
1.59824
1.59335
1.58847
1.58847
1.58847
1.59335
1.59335
1.61779
1.61290
1.66178
1.69110
1.72532
1.73998
1.77419
1.80352
1.82796
1.84751
1.85239
1.85239
1.84751
1.83773
1.83773
1.81818
1.80841
1.79863
1.79863
1.78886
1.78397
1.78397
1.78886
1.81818
1.78397
1.77908
1.77419
1.76442
1.75464
1.73998
1.73021
1.71554
1.71065
1.70577
1.70577
1.73021
1.70577
1.71065
1.71065
1.71065
1.71065
1.70577
1.71065
1.70577
1.71554
1.69599
1.72532
1.69599
1.69110
1.68622
1.68133
1.68133
1.67155
1.66178
1.65689
1.64712
1.64223
1.63734
1.63245
1.62757
1.62268
1.62268
1.60802
1.59824
1.59335
1.58847
1.58847
1.58847
1.58358
1.58847
1.59335
1.62268
1.61779
1.58358
1.58358
1.58358
1.57869
1.57869
1.57869
1.56891
1.56403
1.55914
1.55914
1.56891
1.58847
1.61779
1.65689
1.69110
1.73021
1.76442
1.78886
1.80841
1.81329
1.82307
1.81818
1.81329
1.80352
1.79863
1.79374
1.78397
1.77419
1.76931
1.76931
1.76442
1.76442
1.75953
1.75953
1.75953
1.75953
1.74487
1.73998
1.73509
1.73021
1.72532
1.72043
1.71554
1.72043
1.72532
1.71554
1.72043
1.71554
1.72043
1.71554
1.71554
1.73998
1.71065
1.71065
1.70088
1.71554
1.69110
1.70088
1.68133
1.68133
1.67155
1.66667
1.66178
1.65689
1.65200
1.64712
1.64223
1.64223
1.64223
1.63734
1.63734
1.62757
1.62268
1.61779
1.60802
1.60313
1.59824
1.58847
1.58358
1.57869
1.58847
1.57380
1.57380
1.57380
1.57380
1.57869
1.57869
1.57380
1.57869
1.60802
1.59335
1.56891
1.55914
1.55425
1.55914
1.56891
1.58847
1.62268
1.66178
1.73021
1.73021
1.77419
1.79863
1.82307
1.83284
1.85728
1.83284
1.82307
1.80841
1.80841
1.78397
1.77419
1.76931
1.77419
1.75953
1.75464
1.75464
1.75464
1.74487
1.73509
1.73021
1.72532
1.72043
1.72043
1.71065
1.71065
1.72043
1.71065
1.70577
1.70577
1.71065
1.70088
1.70088
1.70088
1.70088
1.70088
1.70088
1.69599
1.69599
1.69599
1.69599
1.68622
1.68622
1.67644
1.67155
1.66667
1.66178
1.67644
1.65200
1.64712
1.64712
1.64223
1.63245
1.62757
1.65689
1.64223
1.62757
1.61290
1.61290
1.60802
1.60802
1.60802
1.60313
1.59824
1.59335
1.59335
1.59335
1.59335
1.58358
1.57869
1.57380
1.57380
1.56891
1.56891
1.56403
1.55914
1.56891
1.55914
1.54448
1.54936
1.55914
1.57869
1.61290
1.65200
1.69110
1.74487
1.76931
1.79863
1.82307
1.83773
1.84262
1.84262
1.83773
1.82796
1.82307
1.84751
1.80352
1.80352
1.79863
1.80352
1.78886
1.77908
1.75953
1.73998
1.73021
1.70577
1.71065
1.70088
1.69599
1.72043
1.69599
1.73021
1.69599
1.70088
1.69599
1.72532
1.69599
1.69599
1.69599
1.70088
1.69599
1.69599
1.69599
1.69110
1.69110
1.68622
1.68133
1.67644
1.67644
1.66667
1.66667
1.65689
1.64223
1.63245
1.61779
1.60313
1.59824
1.59335
1.59335
1.61290
1.58847
1.58847
1.58847
1.58847
1.58358
1.58358
1.58358
1.57380
1.57380
1.57380
1.57380
1.57380
1.56891
1.56891
1.56403
1.56403
1.55914
1.55914
1.57380
1.58358
1.61779
1.60313
1.63245
1.66667
1.70577
1.74976
1.77908
1.82307
1.82796
1.84262
1.84751
1.84751
1.83773
1.82796
1.81818
1.81329
1.81329
1.79374
1.78397
1.78397
1.79863
1.77419
1.76931
1.75953
1.74976
1.73021
1.72043
1.70577
1.69599
1.69599
1.68622
1.69110
1.68133
1.68622
1.68622
1.69110
1.69599
1.70088
1.71554
1.71065
1.71065
1.74487
1.71065
1.73998
1.70577
1.73021
1.69599
1.68133
1.67155
1.66178
1.66178
1.64712
1.64223
1.64223
1.63245
1.63734
1.65200
1.62268
1.61779
1.61290
1.61290
1.60802
1.61779
1.62268
1.59335
1.59335
1.58847
1.58358
1.58358
1.57869
1.57380
1.57380
1.57380
1.56891
1.56891
1.58358
1.60802
1.65200
1.65200
1.69110
1.73509
1.80352
1.80841
1.86217
1.85728
1.85728
1.85728
1.84751
1.84751
1.82796
1.81329
1.80841
1.79863
1.79863
1.78886
1.78397
1.77908
1.78397
1.79863
1.77419
1.75953
1.74976
1.73998
1.73021
1.72043
1.73021
1.71065
1.71554
1.71065
1.71554
1.71065
1.71065
1.74976
1.72043
1.73021
1.72043
1.74976
1.72043
1.72532
1.71554
1.71554
1.71065
1.71065
1.70577
1.70088
1.69599
1.68622
1.67644
1.66667
1.66178
1.65200
1.64712
1.64223
1.63734
1.63245
1.63245
1.62757
1.64712
1.62757
1.60802
1.60802
1.60313
1.59824
1.59824
1.58847
1.58358
1.58847
1.60802
1.57380
1.57869
1.59335
1.61779
1.65200
1.68622
1.73021
1.77419
1.80352
1.83284
1.84751
1.85728
1.87195
1.86217
1.85728
1.85239
1.84262
1.86217
1.82307
1.80841
1.79863
1.80352
1.78886
1.78397
1.77908
1.78397
1.77419
1.76931
1.75953
1.76442
1.74487
1.73998
1.75464
1.73021
1.74487
1.73021
1.73509
1.73021
1.73021
1.72532
1.72532
1.72532
1.72532
1.75464
1.72532
1.72532
1.72532
1.72532
1.72043
1.71554
1.71065
1.70088
1.68622
1.68133
1.67155
1.66178
1.69110
1.64712
1.64712
1.64712
1.64712
1.65689
1.62268
1.61779
1.61290
1.60802
1.60802
1.60802
1.60802
1.60802
1.62757
1.59824
1.58847
1.60313
1.57380
1.60802
1.63734
1.63245
1.67155
1.71065
1.74976
1.78397
1.84751
1.83284
1.84751
1.85728
1.85239
1.85239
1.84262
1.82796
1.81818
1.80352
1.79863
1.81818
1.77908
1.77419
1.77419
1.77419
1.77419
1.76442
1.75953
1.76931
1.74487
1.73509
1.73509
1.75953
1.72043
1.72043
1.74976
1.72043
1.72532
1.72532
1.72532
1.75464
1.73021
1.74487
1.73021
1.73021
1.73998
1.72043
1.72043
1.71554
1.71554
1.70577
1.70088
1.69110
1.68133
1.67644
1.66667
1.69110
1.65200
1.66178
1.64712
1.66178
1.65200
1.64223
1.63734
1.62757
1.62268
1.61779
1.61290
1.60313
1.60313
1.59824
1.58847
1.58358
1.57869
1.57380
1.57380
1.56891
1.58358
1.60313
1.63245
1.66178
1.70577
1.74487
1.80352
1.80841
1.83284
1.84751
1.85728
1.85728
1.85239
1.84262
1.82796
1.82307
1.80841
1.79374
1.78886
1.77908
1.77908
1.78886
1.76442
1.75953
1.74976
1.74487
1.73998
1.73021
1.73021
1.72532
1.72532
1.74976
1.71554
1.72043
1.73998
1.71065
1.72532
1.71065
1.71554
1.71554
1.71554
1.74487
1.71554
1.74487
1.71554
1.71554
1.70577
1.70577
1.69599
1.69110
1.68622
1.68133
1.67155
1.66178
1.65200
1.64712
1.64712
1.63734
1.63245
1.62757
1.62757
1.63734
1.61290
1.60802
1.59824
1.59335
1.59335
1.58847
1.58847
1.58847
1.58847
1.58358
1.58847
1.58358
1.57869
1.58358
1.59824
1.61779
1.65200
1.68622
1.72532
1.75953
1.78886
1.83773
1.82796
1.83773
1.84262
1.85239
1.82307
1.81329
1.80352
1.79863
1.78397
1.77419
1.76931
1.76442
1.76931
1.75953
1.75953
1.75464
1.75464
1.74487
1.74487
1.73509
1.72532
1.72532
1.71554
1.71554
1.71065
1.70577
1.73998
1.70577
1.72043
1.71554
1.72043
1.72043
1.72043
1.71554
1.71554
1.72532
1.70577
1.71065
1.69599
1.69110
1.68133
1.67644
1.66667
1.65689
1.64712
1.64712
1.63734
1.63245
1.63245
1.63245
1.63734
1.65200
1.62268
1.62268
1.61779
1.60802
1.60802
1.60802
1.58847
1.58358
1.57869
1.56891
1.56403
1.58358
1.55425
1.55425
1.55914
1.56403
1.59335
1.61290
1.64712
1.68622
1.72532
1.76442
1.79374
1.83773
1.83284
1.83773
1.83284
1.82796
1.81818
1.80841
1.82796
1.78886
1.77908
1.76931
1.78397
1.75953
1.74976
1.74487
1.73998
1.75953
1.72532
1.71554
1.71554
1.70577
1.70577
1.70088
1.69599
1.69599
1.70088
1.69599
1.70088
1.72043
1.71065
1.71065
1.71554
1.72043
1.71554
1.71554
1.72043
1.70577
1.70577
1.70088
1.69110
1.68133
1.68133
1.66667
1.66667
1.65689
1.64712
1.63734
1.63734
1.64223
1.64712
1.62268
1.61779
1.61290
1.61290
1.63734
1.59824
1.59335
1.59335
1.58847
1.58847
1.57869
1.57380
1.56403
1.56403
1.55425
1.55914
1.55914
1.57380
1.59335
1.62757
1.66178
1.70577
1.74487
1.77908
1.81329
1.83284
1.84751
1.85239
1.84751
1.87195
1.83284
1.81818
1.80841
1.82796
1.78397
1.77419
1.76931
1.78397
1.75464
1.74976
1.74487
1.73509
1.73021
1.72043
1.70577
1.70088
1.67644
1.69110
1.66178
1.65689
1.65689
1.66178
1.66667
1.69110
1.67644
1.68133
1.68622
1.68622
1.69110
1.69110
1.69110
1.68622
1.70577
1.68133
1.67155
1.66667
1.66667
1.66178
1.65200
1.64223
1.63245
1.63245
1.62268
1.61779
1.60802
1.60802
1.60313
1.59824
1.59335
1.58358
1.58358
1.59824
1.56891
1.56891
1.56403
1.56403
1.55914
1.58847
1.55425
1.55425
1.55914
1.56891
1.58358
1.61779
1.67644
1.68622
1.72043
1.75953
1.79374
1.81329
1.83284
1.83773
1.86706
1.82796
1.81329
1.79863
1.81818
1.76931
1.75953
1.74976
1.77419
1.73509
1.73021
1.72043
1.73509
1.71554
1.70577
1.70577
1.69599
1.70088
1.68622
1.68622
1.69110
1.68133
1.68622
1.68622
1.68622
1.69110
1.69110
1.69599
1.70088
1.70577
1.71065
1.70577
1.71065
1.70577
1.73509
1.69599
1.68622
1.68133
1.70088
1.66178
1.66178
1.64223
1.63245
1.65200
1.62757
1.61290
1.60802
1.63245
1.59335
1.58847
1.58358
1.58358
1.57380
1.56891
1.56891
1.56891
1.59824
1.56403
1.55914
1.56403
1.56891
1.57869
1.61779
1.62268
1.66178
1.70088
1.73998
1.77908
1.80841
1.83284
1.84751
1.86217
1.85728
1.85239
1.83773
1.83773
1.81329
1.80352
1.79374
1.78886
1.77908
1.77419
1.76931
1.76931
1.76442
1.75464
1.74976
1.73998
1.73021
1.72043
1.71554
1.70577
1.71554
1.70088
1.70577
1.71065
1.71065
1.72532
1.71554
1.71065
1.71065
1.71065
1.70577
1.72532
1.70088
1.69599
1.70577
1.68622
1.68133
1.68133
1.66667
1.68622
1.65200
1.64223
1.63734
1.62268
1.61290
1.60802
1.60313
1.60313
1.62757
1.59335
1.58847
1.58847
1.58847
1.58358
1.58358
1.57869
1.57869
1.57869
1.57869
1.57380
1.56891
1.57380
1.58847
1.60802
1.64712
1.70577
1.72532
1.76931
1.80352
1.83284
1.85239
1.85728
1.86217
1.85239
1.83773
1.82307
1.81329
1.79863
1.78886
1.77908
1.77908
1.76931
1.76442
1.75464
1.74976
1.75464
1.73998
1.73998
1.72043
1.71554
1.70088
1.72532
1.69110
1.68622
1.68622
1.68622
1.68622
1.71554
1.69110
1.69110
1.69110
1.69110
1.69599
1.68622
1.68133
1.67644
1.67155
1.66667
1.68622
1.66178
1.65689
1.65200
1.64712
1.67155
1.62757
1.61779
1.60802
1.60313
1.62757
1.58847
1.58847
1.58847
1.58847
1.61779
1.57869
1.56891
1.56403
1.56403
1.55914
1.55425
1.54448
1.56403
1.52981
1.52981
1.53959
1.55425
1.58358
1.61779
1.65689
1.70088
1.73509
1.76931
1.79863
1.81818
1.82796
1.82796
1.82796
1.81329
1.80352
1.79374
1.78397
1.77419
1.76442
1.75464
1.74976
1.76442
1.73509
1.73021
1.72043
1.73021
1.71065
1.70088
1.69599
1.69110
1.68622
1.68133
1.67644
1.67155
1.66667
1.66667
1.66667
1.66178
1.66667
1.68133
1.67644
1.69599
1.67644
1.67644
1.67155
1.66667
1.66178
1.65200
1.64712
1.66667
1.63734
1.62268
1.61779
1.60802
1.60313
1.59824
1.60802
1.57869
1.57380
1.56891
1.57380
1.58358
1.56403
1.55914
1.55914
1.55425
1.54936
1.53959
1.53470
1.52981
1.54936
1.52004
1.51515
1.51515
1.52004
1.52493
1.55914
1.56891
1.60313
1.64712
1.68622
1.73021
1.76931
1.78886
1.80841
1.81818
1.81818
1.80352
1.79374
1.78397
1.77419
1.76442
1.74487
1.73509
1.72532
1.72532
1.72043
1.71065
1.70088
1.69599
1.68622
1.69599
1.67644
1.67155
1.68622
1.66178
1.68133
1.66178
1.66178
1.66178
1.66178
1.66178
1.66178
1.68133
1.66178
1.66667
1.67155
1.67155
1.68133
1.66667
1.66667
1.65689
1.64712
1.63734
1.62268
1.62757
1.60802
1.59824
1.59335
1.58847
1.58358
1.57869
1.57869
1.57380
1.57380
1.58847
1.56403
1.55914
1.57869
1.55425
1.54936
1.54936
1.54448
1.54448
1.55425
1.55425
1.55914
1.52004
1.51515
1.51515
1.52004
1.53470
1.58847
1.59335
1.63245
1.68133
1.72043
1.75464
1.78397
1.81818
1.81329
1.80841
1.79863
1.79374
1.78397
1.77419
1.75953
1.74976
1.73998
1.75953
1.72532
1.72043
1.71065
1.71554
1.69599
1.68622
1.70088
1.66667
1.68622
1.64712
1.64712
1.64712
1.64223
1.67644
1.64712
1.65200
1.65689
1.66178
1.68133
1.66667
1.66667
1.67155
1.67155
1.67155
1.66178
1.66178
1.64712
1.67155
1.63245
1.62268
1.63245
1.60802
1.59824
1.59335
1.58847
1.58847
1.57869
1.57869
1.57380
1.57869
1.56403
1.55914
1.55425
1.54936
1.54448
1.53470
1.52981
1.52981
1.53470
1.51515
1.51515
1.51026
1.50538
1.50538
1.50538
1.49560
1.49560
1.49560
1.52004
1.51026
1.53470
1.55914
1.59824
1.64223
1.68133
1.74487
1.74976
1.76442
1.77908
1.78397
1.78886
1.80352
1.76442
1.75464
1.74487
1.75953
1.73021
1.72532
1.72043
1.72043
1.71065
1.70577
1.69599
1.69599
1.69599
1.67644
1.67155
1.66667
1.69599
1.66178
1.65689
1.65200
1.65200
1.67644
1.65200
1.65689
1.66178
1.68133
1.66667
1.66667
1.66667
1.67155
1.65689
1.65689
1.64223
1.63734
1.63245
1.62757
1.62268
1.61779
1.62268
1.61290
1.60802
1.60313
1.59824
1.59335
1.59335
1.58358
1.58358
1.57869
1.56891
1.56891
1.56403
1.55914
1.55425
1.54936
1.54448
1.53959
1.53470
1.53470
1.52981
1.53470
1.54448
1.52004
1.52004
1.52493
1.53959
1.55914
1.58847
1.62268
1.66178
1.70577
1.73998
1.79374
1.79374
1.80841
1.81818
1.82307
1.80352
1.79863
1.78886
1.78397
1.76442
1.75464
1.74487
1.74487
1.73021
1.72043
1.72043
1.71554
1.71554
1.72043
1.66667
1.64223
1.62757
1.62268
1.61779
1.62268
1.63245
1.62757
1.63245
1.63734
1.64223
1.64712
1.65200
1.65200
1.64712
1.64223
1.63245
1.62757
1.61779
1.61290
1.60802
1.60802
1.60313
1.59824
1.59824
1.59824
1.62268
1.59824
1.56403
1.55914
1.54936
1.54448
1.54448
1.52493
1.52004
1.52004
1.51515
1.51515
1.51026
1.50538
1.49560
1.50049
1.52004
1.48094
1.50049
1.47605
1.48094
1.48094
1.48583
1.49071
1.50538
1.52493
1.55425
1.58358
1.64712
1.69599
1.73021
1.73998
1.76931
1.78886
1.80352
1.80841
1.80352
1.79863
1.81818
1.76931
1.75464
1.74976
1.76931
1.72532
1.71554
1.70577
1.72532
1.69110
1.68133
1.67644
1.66667
1.66178
1.68622
1.64223
1.63245
1.62757
1.61779
1.63245
1.61779
1.64223
1.63245
1.64223
1.64712
1.66667
1.67155
1.69110
1.68133
1.68133
1.67644
1.66667
1.68133
1.65200
1.64712
1.63245
1.62268
1.61290
1.60313
1.59335
1.58358
1.58358
1.56891
1.56403
1.58358
1.54936
1.54448
1.53959
1.52981
1.52981
1.53959
1.54448
1.52004
1.52004
1.51515
1.51515
1.51515
1.51515
1.52004
1.53470
1.52981
1.55914
1.58847
1.63734
1.68622
1.75953
1.76931
1.79374
1.84262
1.82307
1.81818
1.81329
1.80841
1.79374
1.77419
1.76442
1.75464
1.75464
1.73509
1.73509
1.73021
1.73021
1.75464
1.71554
1.71065
1.70088
1.69110
1.68133
1.67155
1.66667
1.69110
1.66667
1.66667
1.66667
1.67155
1.68133
1.67155
1.67155
1.67155
1.67155
1.66667
1.67155
1.66667
1.66178
1.65200
1.65200
1.63734
1.63245
1.62268
1.61779
1.62268
1.60313
1.59824
1.61290
1.58358
1.57869
1.56891
1.56403
1.55914
1.55425
1.54936
1.54936
1.54448
1.53470
1.53470
1.52981
1.52493
1.52004
1.52004
1.52004
1.51515
1.53959
1.52004
1.53959
1.56403
1.60313
1.64712
1.69110
1.75464
1.78397
1.80352
1.83284
1.84751
1.88172
1.84262
1.83773
1.82796
1.84262
1.80352
1.78886
1.77908
1.79374
1.76442
1.75464
1.74976
1.75464
1.73021
1.72043
1.72043
1.70577
1.69599
1.69110
1.68622
1.72043
1.68622
1.68133
1.68622
1.68622
1.69110
1.70088
1.69599
1.70088
1.69599
1.69110
1.68622
1.68133
1.67155
1.66178
1.65689
1.65689
1.65200
1.65200
1.64223
1.63734
1.63734
1.65689
1.61779
1.60802
1.60313
1.60313
1.60313
1.60802
1.59824
1.59335
1.58847
1.58358
1.57869
1.57380
1.56891
1.56891
1.57869
1.56891
1.57380
1.54448
1.53959
1.53959
1.54936
1.56891
1.60313
1.64223
1.69110
1.73998
1.77908
1.81329
1.84751
1.86217
1.86217
1.86217
1.85239
1.84751
1.86217
1.81329
1.80352
1.78886
1.78397
1.77419
1.76442
1.75953
1.75464
1.74487
1.73998
1.72532
1.71065
1.70577
1.69110
1.68133
1.67644
1.67155
1.67155
1.67644
1.66667
1.67155
1.67155
1.67644
1.68622
1.69110
1.69110
1.69599
1.69599
1.69599
1.69599
1.69110
1.69110
1.68133
1.69110
1.66178
1.65689
1.64712
1.63245
1.63245
1.62268
1.60802
1.60313
1.59824
1.59335
1.58847
1.58358
1.58358
1.57869
1.57869
1.57869
1.60802
1.56891
1.56403
1.55914
1.55425
1.54936
1.53470
1.52981
1.52493
1.52493
1.53470
1.55425
1.58358
1.62268
1.67644
1.72043
1.79374
1.79863
1.82307
1.87195
1.85239
1.85239
1.84751
1.83773
1.85239
1.80841
1.79374
1.78397
1.79374
1.75953
1.74976
1.74487
1.73509
1.73509
1.72043
1.71554
1.70088
1.68622
1.71065
1.67155
1.66178
1.65689
1.65200
1.64712
1.64712
1.64712
1.64712
1.66667
1.65200
1.65689
1.66178
1.66667
1.67155
1.67644
1.68622
1.66667
1.66178
1.65200
1.63734
1.62757
1.61779
1.60802
1.59824
1.58847
1.58358
1.57869
1.57869
1.57869
1.56891
1.59335
1.58847
1.54936
1.54448
1.53959
1.53470
1.52981
1.53470
1.52493
1.52493
1.52004
1.52004
1.51515
1.52493
1.50049
1.50049
1.50538
1.52004
1.54448
1.58358
1.63245
1.68133
1.75953
1.76442
1.79863
1.82307
1.82796
1.82796
1.82307
1.81818
1.80352
1.79374
1.78397
1.77419
1.77419
1.74976
1.73998
1.73021
1.72043
1.71065
1.71554
1.69599
1.69110
1.67644
1.67155
1.67155
1.66178
1.66178
1.69599
1.66178
1.67644
1.66667
1.67155
1.67644
1.68622
1.69110
1.70577
1.70577
1.71065
1.71065
1.70577
1.71065
1.68622
1.65689
1.64712
1.61779
1.60313
1.58847
1.58358
1.57869
1.57380
1.57380
1.57380
1.60802
1.57869
1.58358
1.60313
1.56891
1.55914
1.55425
1.54936
1.53959
1.53470
1.52981
1.52493
1.52493
1.51515
1.52004
1.53470
1.51026
1.51026
1.51515
1.55914
1.58358
1.57869
1.61779
1.66178
1.71065
1.75464
1.79374
1.82796
1.84262
1.85239
1.85239
1.84751
1.83773
1.82307
1.80841
1.78886
1.78397
1.74487
1.72532
1.71554
1.70088
1.69599
1.68133
1.68622
1.66667
1.66178
1.65200
1.64223
1.63734
1.63245
1.63734
1.63734
1.64223
1.64712
1.66178
1.68622
1.67644
1.68133
1.68133
1.67155
1.66667
1.65689
1.65200
1.65689
1.66667
1.65689
1.65689
1.65689
1.64712
1.63734
1.61779
1.60313
1.62268
1.57380
1.56403
1.55425
1.55425
1.54936
1.54936
1.54936
1.54448
1.54448
1.54448
1.53959
1.53959
1.53470
1.52493
1.52004
1.51026
1.50538
1.49560
1.49071
1.50049
1.51515
1.54448
1.57869
1.65200
1.67155
1.75464
1.79863
1.82796
1.83284
1.85239
1.86706
1.86217
1.85239
1.84262
1.82796
1.80841
1.79374
1.77908
1.76931
1.77419
1.74487
1.73509
1.72532
1.71065
1.70577
1.69110
1.67644
1.68133
1.66178
1.65200
1.66178
1.65200
1.67155
1.67155
1.66178
1.66667
1.67155
1.67644
1.71065
1.68622
1.68133
1.69110
1.68133
1.70577
1.67155
1.66667
1.65200
1.64712
1.63734
1.62268
1.61290
1.60313
1.59335
1.58847
1.60802
1.57869
1.57380
1.56403
1.56891
1.56403
1.56403
1.55914
1.55425
1.55425
1.54936
1.54936
1.54448
1.53959
1.53470
1.53959
1.54448
1.56891
1.60313
1.64712
1.70088
1.74487
1.79863
1.83284
1.86217
1.88661
1.89638
1.90127
1.89638
1.89150
1.87683
1.86706
1.85728
1.83773
1.82307
1.80841
1.79863
1.78397
1.79863
1.75464
1.74487
1.73021
1.71554
1.70577
1.70088
1.69110
1.68133
1.67644
1.67155
1.66667
1.66667
1.66667
1.67155
1.67155
1.68133
1.68622
1.69599
1.70088
1.70088
1.71065
1.70577
1.69599
1.69599
1.68622
1.68133
1.66667
1.65200
1.63734
1.62268
1.60313
1.59335
1.58847
1.57869
1.57380
1.56891
1.55914
1.55425
1.55425
1.53470
1.52981
1.52004
1.53959
1.51026
1.50538
1.51026
1.51515
1.55914
1.56403
1.59335
1.64223
1.69110
1.73998
1.78886
1.82796
1.86217
1.91105
1.89638
1.90127
1.93060
1.88661
1.87683
1.86706
1.85239
1.86217
1.82307
1.80841
1.79863
1.79374
1.78397
1.77908
1.79863
1.74976
1.73998
1.73021
1.73021
1.71065
1.70577
1.71554
1.70577
1.70577
1.70577
1.71065
1.70577
1.71065
1.73021
1.71554
1.71554
1.71065
1.70577
1.70577
1.69599
1.69110
1.67644
1.67155
1.66178
1.65200
1.64223
1.63734
1.62757
1.62268
1.61779
1.60802
1.60802
1.60802
1.60313
1.60313
1.58847
1.58358
1.57869
1.57380
1.56891
1.55914
1.55914
1.54936
1.54448
1.56891
1.54448
1.54448
1.55914
1.58358
1.62757
1.66667
1.71554
1.76442
1.81818
1.85239
1.91105
1.89638
1.90616
1.90616
1.92571
1.88661
1.87683
1.86217
1.84751
1.85239
1.84262
1.81329
1.80841
1.79863
1.79374
1.77908
1.76931
1.75464
1.74487
1.73509
1.72532
1.72532
1.72043
1.72043
1.72043
1.73021
1.71554
1.72532
1.72043
1.72532
1.72043
1.72532
1.72532
1.71554
1.73509
1.70088
1.68622
1.67644
1.66178
1.65200
1.63734
1.62757
1.61779
1.61290
1.63734
1.62268
1.60313
1.59824
1.59335
1.58847
1.57869
1.56891
1.55914
1.55425
1.55425
1.54936
1.54936
1.54936
1.54936
1.54448
1.53959
1.53470
1.55425
1.52493
1.52004
1.52004
1.53959
1.54936
1.58358
1.62757
1.68133
1.72532
1.77419
1.81818
1.85239
1.87683
1.92571
1.90127
1.89638
1.89150
1.88172
1.87683
1.85239
1.84262
1.82796
1.81329
1.80352
1.79374
1.77908
1.77908
1.75953
1.75464
1.76442
1.73021
1.72532
1.71554
1.71554
1.70577
1.70088
1.70577
1.68622
1.68622
1.69110
1.70577
1.70088
1.70577
1.70088
1.71065
1.71065
1.71065
1.73998
1.70088
1.69599
1.68133
1.70577
1.66178
1.65200
1.64223
1.63734
1.62757
1.61779
1.63245
1.60313
1.59335
1.58847
1.58358
1.59824
1.57380
1.57380
1.56891
1.56891
1.56891
1.55914
1.54936
1.53959
1.52981
1.55914
1.52493
1.52004
1.52004
1.51515
1.51515
1.52004
1.54448
1.55425
1.59335
1.64223
1.70088
1.74976
1.79863
1.84262
1.87683
1.90616
1.91593
1.90127
1.89638
1.88172
1.87195
1.87683
1.83773
1.82307
1.80352
1.79374
1.78397
1.77908
1.77908
1.76931
1.75953
1.74976
1.75464
1.72532
1.71554
1.70577
1.70577
1.70088
1.73509
1.70088
1.70088
1.71065
1.70577
1.70577
1.71554
1.70088
1.70088
1.69599
1.72532
1.68622
1.68133
1.71065
1.69599
1.67644
1.67155
1.65689
1.64712
1.63734
1.63245
1.63734
1.61290
1.59824
1.58847
1.58358
1.57869
1.57380
1.56891
1.56891
1.55914
1.58847
1.54936
1.54448
1.53470
1.53470
1.51515
1.50538
1.50049
1.49071
1.48094
1.50538
1.47605
1.48094
1.49071
1.52493
1.53470
1.57380
1.62268
1.67644
1.73998
1.78886
1.82796
1.86217
1.88661
1.91105
1.90127
1.90127
1.88661
1.87195
1.85239
1.83773
1.82307
1.81329
1.82796
1.77908
1.76442
1.74487
1.72532
1.71065
1.70088
1.71554
1.67644
1.67155
1.67155
1.66667
1.66178
1.65200
1.65689
1.65689
1.65200
1.65689
1.66667
1.67155
1.67644
1.72043
1.69599
1.69110
1.69110
1.69110
1.68622
1.67644
1.67155
1.66667
1.65689
1.64712
1.64223
1.62757
1.64223
1.61779
1.60313
1.59824
1.58847
1.58358
1.60313
1.60313
1.56403
1.55425
1.55425
1.54936
1.54936
1.55425
1.54448
1.53959
1.53470
1.53470
1.52981
1.52981
1.54448
1.55914
1.57869
1.61779
1.66667
1.73021
1.76931
1.81818
1.88661
1.88172
1.90127
1.90616
1.90616
1.89638
1.89638
1.86706
1.84751
1.83284
1.81329
1.79374
1.77908
1.76442
1.75953
1.73509
1.72532
1.71554
1.70088
1.69599
1.68133
1.67155
1.66667
1.66178
1.66178
1.67644
1.66178
1.66667
1.67155
1.68133
1.72532
1.71554
1.70577
1.70577
1.70577
1.70577
1.70088
1.69110
1.69599
1.67644
1.66667
1.66178
1.64712
1.63734
1.62757
1.61290
1.60313
1.58847
1.57869
1.60313
1.56403
1.55425
1.55425
1.54936
1.54448
1.54448
1.53959
1.52981
1.52981
1.52493
1.53959
1.52004
1.51515
1.51026
1.51515
1.52493
1.54936
1.58358
1.65689
1.68622
1.74487
1.79374
1.84262
1.88172
1.90616
1.93060
1.92082
1.91593
1.90616
1.89150
1.88172
1.86217
1.84262
1.83284
1.81818
1.80352
1.79863
1.78886
1.77419
1.75953
1.74487
1.73509
1.72043
1.71065
1.69110
1.68133
1.67644
1.70088
1.66667
1.70088
1.67644
1.67644
1.68133
1.68133
1.68622
1.69110
1.69599
1.70088
1.71554
1.72043
1.70088
1.69110
1.68133
1.67155
1.66178
1.64712
1.64223
1.63245
1.61779
1.61290
1.60802
1.59335
1.58358
1.60802
1.57380
1.56403
1.55425
1.54936
1.53959
1.53959
1.54936
1.54448
1.53470
1.53470
1.52981
1.52493
1.52004
1.52004
1.52493
1.54448
1.58847
1.62268
1.67155
1.73021
1.78397
1.83284
1.90127
1.90127
1.91593
1.93060
1.93548
1.90616
1.89638
1.88661
1.86706
1.85728
1.84751
1.83773
1.83284
1.81818
1.80841
1.80352
1.79374
1.77908
1.76442
1.74487
1.73021
1.71065
1.71065
1.69110
1.68622
1.68133
1.68622
1.68622
1.68622
1.68622
1.68622
1.72043
1.69110
1.68622
1.68622
1.69110
1.69110
1.69110
1.68622
1.68133
1.67155
1.69110
1.66178
1.63734
1.62268
1.60802
1.59824
1.59335
1.58847
1.58358
1.57869
1.57869
1.59335
1.56891
1.56403
1.56403
1.55425
1.54936
1.57380
1.53959
1.52981
1.52004
1.52493
1.51026
1.50538
1.52493
1.51026
1.52981
1.55914
1.62268
1.65200
1.69599
1.74487
1.78397
1.85728
1.85728
1.87683
1.88172
1.88661
1.88172
1.87683
1.86217
1.84751
1.86217
1.81329
1.79863
1.78886
1.77908
1.76931
1.76442
1.75464
1.73998
1.72532
1.71065
1.70577
1.70577
1.66667
1.65689
1.68622
1.66667
1.65200
1.66178
1.66178
1.66178
1.66667
1.67644
1.68133
1.69110
1.69599
1.72043
1.70088
1.69599
1.68133
1.66667
1.65689
1.64223
1.63245
1.61779
1.61290
1.60313
1.61779
1.59335
1.58847
1.58358
1.57869
1.57380
1.58847
1.56403
1.55425
1.57869
1.54448
1.53470
1.52981
1.52981
1.53959
1.51515
1.50538
1.50049
1.49071
1.49071
1.48583
1.50049
1.52493
1.59824
1.62757
1.68133
1.73998
1.79374
1.84751
1.89150
1.92082
1.93548
1.93060
1.92082
1.90127
1.87683
1.85239
1.83773
1.82307
1.78886
1.77419
1.76442
1.76931
1.74487
1.73509
1.72043
1.71554
1.69599
1.68622
1.67644
1.69599
1.66178
1.66178
1.65689
1.66178
1.65689
1.65200
1.65689
1.66667
1.66667
1.67644
1.68133
1.69599
1.69599
1.69110
1.69110
1.68133
1.67155
1.66178
1.66667
1.64223
1.63245
1.62757
1.61779
1.61290
1.60802
1.62268
1.59335
1.58847
1.58358
1.57869
1.57380
1.56891
1.55425
1.54936
1.53959
1.53470
1.55425
1.52981
1.52004
1.55425
1.52493
1.52004
1.52004
1.52493
1.52493
1.54448
1.60802
1.61290
1.66667
1.72043
1.80352
1.84262
1.87195
1.90127
1.92082
1.93548
1.93060
1.92082
1.90616
1.88661
1.86706
1.84751
1.83284
1.84262
1.79863
1.78397
1.76931
1.75464
1.76931
1.72043
1.70088
1.69110
1.67644
1.66667
1.65689
1.67155
1.64712
1.65200
1.65689
1.69599
1.67155
1.68133
1.69110
1.69599
1.70088
1.72532
1.70577
1.70088
1.70088
1.69110
1.68622
1.68133
1.66667
1.65689
1.64712
1.64223
1.65689
1.61779
1.61290
1.59824
1.59335
1.60313
1.57869
1.56891
1.55914
1.54936
1.53959
1.52981
1.52493
1.51515
1.54448
1.50538
1.50538
1.50049
1.49560
1.49071
1.48583
1.50049
1.47605
1.48583
1.53470
1.54448
1.58847
1.65200
1.70577
1.77419
1.82796
1.87195
1.90127
1.92082
1.93548
1.93548
1.92082
1.91105
1.89150
1.87683
1.85239
1.83773
1.84262
1.79863
1.78397
1.76442
1.75464
1.72532
1.70577
1.68622
1.67155
1.69110
1.64712
1.63734
1.63245
1.62757
1.63245
1.63734
1.64223
1.64712
1.69110
1.67155
1.68133
1.68622
1.69110
1.69110
1.70088
1.69110
1.69110
1.69599
1.68133
1.66667
1.66178
1.65200
1.63734
1.62268
1.61290
1.63245
1.58847
1.57380
1.56403
1.55425
1.55425
1.53959
1.53470
1.53470
1.52493
1.52004
1.51026
1.51515
1.49560
1.49071
1.50538
1.48583
1.48583
1.50049
1.52493
1.56891
1.61779
1.67644
1.75464
1.80352
1.85239
1.89150
1.91593
1.92571
1.92082
1.91105
1.89638
1.87683
1.87195
1.83284
1.81329
1.79374
1.77908
1.76442
1.74976
1.73021
1.72043
1.70088
1.68622
1.70577
1.66178
1.65200
1.64712
1.64223
1.63734
1.63734
1.64223
1.64223
1.64712
1.65200
1.65689
1.65689
1.66667
1.69110
1.67155
1.67155
1.67155
1.66667
1.66178
1.65200
1.64223
1.65200
1.62268
1.60313
1.58847
1.58358
1.57380
1.56891
1.56891
1.56403
1.55914
1.55425
1.55425
1.54448
1.54448
1.52981
1.52004
1.52004
1.50049
1.48583
1.51026
1.48094
1.47605
1.47605
1.49560
1.52493
1.58358
1.62757
1.68133
1.73998
1.79374
1.83773
1.87195
1.92571
1.90616
1.91105
1.90127
1.87683
1.86217
1.84262
1.82796
1.81329
1.80352
1.79374
1.77419
1.76442
1.75464
1.74487
1.73021
1.72043
1.71065
1.70088
1.69599
1.68133
1.67644
1.67644
1.67644
1.71065
1.71065
1.70088
1.69110
1.68622
1.67155
1.67155
1.67155
1.67155
1.67155
1.67155
1.66667
1.66178
1.65689
1.64712
1.63245
1.63245
1.60802
1.59335
1.58358
1.56403
1.55914
1.57869
1.54936
1.53959
1.52981
1.52004
1.54936
1.52493
1.51515
1.51515
1.52004
1.50538
1.50049
1.48583
1.47605
1.47605
1.47116
1.48094
1.53959
1.56403
1.62268
1.68622
1.74976
1.80841
1.85728
1.91593
1.92082
1.93060
1.93548
1.92571
1.91593
1.90127
1.88172
1.88661
1.85239
1.83773
1.82307
1.80841
1.79374
1.77908
1.76442
1.75464
1.73021
1.71065
1.70088
1.69599
1.68622
1.69599
1.70088
1.69599
1.69599
1.69599
1.69599
1.70577
1.70577
1.71065
1.71065
1.71065
1.70577
1.70088
1.69110
1.68622
1.68133
1.66178
1.65689
1.64223
1.63245
1.61779
1.60802
1.60802
1.58847
1.58358
1.58358
1.57380
1.56891
1.56403
1.57869
1.55425
1.54448
1.53470
1.52493
1.51515
1.51026
1.50538
1.49071
1.48583
1.48583
1.48094
1.48094
1.49560
1.53470
1.56403
1.62268
1.68133
1.75953
1.80352
1.85239
1.88172
1.91105
1.91593
1.90616
1.89638
1.87683
1.84751
1.82307
1.79863
1.77908
1.76442
1.74976
1.74976
1.74976
1.74487
1.74976
1.74487
1.74487
1.74976
1.76442
1.72043
1.71554
1.70577
1.70088
1.72532
1.68622
1.67644
1.67644
1.67155
1.67155
1.66178
1.65689
1.65200
1.64712
1.64223
1.63245
1.62757
1.64223
1.60802
1.59335
1.58358
1.56891
1.55425
1.54448
1.53470
1.51515
1.50049
1.52981
1.49071
1.49560
1.50538
1.53470
1.53959
1.54448
1.54936
1.54448
1.55425
1.52981
1.51515
1.50049
1.51515
1.47605
1.46628
1.46139
1.46139
1.46628
1.48094
1.51515
1.55914
1.60802
1.66667
1.72043
1.77908
1.81818
1.85239
1.87683
1.91593
1.88661
1.88172
1.86217
1.84751
1.83773
1.80352
1.78886
1.77419
1.75953
1.76442
1.74487
1.74487
1.74487
1.73998
1.73509
1.73021
1.72043
1.71554
1.73021
1.69599
1.69110
1.68622
1.68622
1.68622
1.68622
1.70088
1.69110
1.69599
1.70088
1.70088
1.70088
1.69110
1.68622
1.67644
1.66178
1.66667
1.63734
1.62268
1.61290
1.59824
1.58847
1.57869
1.56891
1.56403
1.54936
1.53470
1.55425
1.52004
1.50538
1.49071
1.48094
1.50049
1.46628
1.45161
1.44673
1.44184
1.44673
1.42717
1.42717
1.45650
1.42229
1.41740
1.42229
1.42717
1.43695
1.46628
1.50538
1.55425
1.61290
1.67644
1.73509
1.78886
1.83284
1.86217
1.87683
1.88172
1.88172
1.87195
1.87683
1.83284
1.81329
1.79374
1.77908
1.76442
1.75464
1.74487
1.72532
1.71554
1.72043
1.69110
1.68622
1.67644
1.66178
1.66178
1.65200
1.64223
1.64712
1.63734
1.63245
1.63245
1.63245
1.63734
1.64223
1.64712
1.65689
1.66178
1.66667
1.66667
1.66667
1.70088
1.67155
1.65689
1.67155
1.64223
1.63245
1.63245
1.62757
1.61290
1.60802
1.59824
1.58847
1.57869
1.56891
1.55914
1.55425
1.54448
1.55914
1.52493
1.51515
1.50538
1.52493
1.49560
1.50538
1.47605
1.47605
1.43695
1.43206
1.42717
1.42717
1.43206
1.46139
1.48094
1.52004
1.60802
1.67155
1.71065
1.76442
1.81818
1.86217
1.89150
1.90616
1.91105
1.91105
1.92571
1.88661
1.86706
1.84751
1.82796
1.80841
1.79863
1.78397
1.77419
1.75953
1.74487
1.73021
1.72043
1.71065
1.69110
1.68133
1.67644
1.66667
1.66178
1.65689
1.65689
1.65689
1.65689
1.66178
1.66667
1.67155
1.67644
1.68133
1.72043
1.71065
1.70088
1.69599
1.69599
1.68133
1.67155
1.66178
1.64712
1.64712
1.62757
1.61290
1.59335
1.58358
1.57380
1.56891
1.56403
1.55425
1.54448
1.53959
1.53470
1.52493
1.54936
1.52004
1.51515
1.51515
1.50538
1.49560
1.49071
1.48583
1.48094
1.48583
1.48583
1.49560
1.51515
1.54448
1.59335
1.67644
1.72532
1.76931
1.82796
1.86706
1.90616
1.92571
1.93060
1.93548
1.92082
1.90127
1.88172
1.85728
1.84751
1.85239
1.80352
1.78397
1.76442
1.74487
1.74487
1.71554
1.70088
1.68133
1.67155
1.66178
1.64712
1.64223
1.63245
1.62757
1.62757
1.62268
1.66178
1.63734
1.64712
1.66178
1.67644
1.68622
1.69599
1.70088
1.70088
1.70088
1.72043
1.69110
1.68133
1.67155
1.65689
1.64223
1.62757
1.60802
1.59335
1.57869
1.56891
1.55914
1.55425
1.54448
1.56403
1.52981
1.51515
1.50049
1.49560
1.48583
1.48094
1.47605
1.46628
1.46139
1.45650
1.45161
1.46139
1.46139
1.49071
1.53470
1.62268
1.66178
1.72532
1.79374
1.85239
1.89638
1.92571
1.95503
1.94037
1.93548
1.91593
1.90127
1.90127
1.86217
1.84262
1.82796
1.81329
1.79863
1.78397
1.77419
1.74976
1.73509
1.73998
1.69599
1.67644
1.69110
1.64712
1.62757
1.62268
1.61779
1.61779
1.62268
1.64712
1.64223
1.64712
1.65689
1.66178
1.66667
1.66667
1.67155
1.65689
1.65689
1.64712
1.64223
1.63245
1.62757
1.61779
1.64223
1.59824
1.58847
1.57869
1.57380
1.56403
1.56403
1.55425
1.54936
1.54936
1.53959
1.52981
1.52493
1.52004
1.52493
1.50538
1.49560
1.52493
1.48583
1.46628
1.45650
1.45161
1.45650
1.45650
1.48583
1.52981
1.60802
1.65200
1.72532
1.79374
1.84751
1.89150
1.92082
1.95015
1.97947
1.94037
1.93060
1.91105
1.88661
1.86706
1.85239
1.83284
1.82307
1.81818
1.81329
1.81818
1.81818
1.80841
1.79863
1.78886
1.76931
1.75464
1.73509
1.72532
1.72043
1.70577
1.69599
1.72043
1.68622
1.68622
1.68622
1.67644
1.68133
1.68133
1.67644
1.67644
1.67644
1.67155
1.69110
1.66178
1.65689
1.64712
1.63245
1.62268
1.60802
1.59824
1.58847
1.57380
1.56403
1.59335
1.55425
1.54448
1.53959
1.55914
1.52981
1.52004
1.51026
1.51026
1.50049
1.49560
1.51026
1.49071
1.48583
1.47605
1.47605
1.46628
1.46139
1.46628
1.52004
1.52981
1.57380
1.63245
1.70088
1.76931
1.82796
1.89150
1.91593
1.94037
1.94037
1.94037
1.93060
1.93060
1.89150
1.87195
1.85239
1.83773
1.82307
1.83284
1.79863
1.78397
1.77419
1.77908
1.74487
1.73021
1.71065
1.70088
1.70088
1.67644
1.69110
1.66178
1.66178
1.66178
1.65689
1.69599
1.68622
1.66178
1.67155
1.68133
1.68133
1.68622
1.68622
1.68622
1.67644
1.66667
1.64712
1.63245
1.62268
1.60313
1.58847
1.58358
1.57869
1.60802
1.58358
1.57380
1.56891
1.56891
1.55914
1.58847
1.54448
1.52981
1.52493
1.53470
1.51026
1.50538
1.50049
1.51515
1.49560
1.48583
1.47605
1.47605
1.47116
1.47116
1.48583
1.50538
1.56891
1.58847
1.64223
1.70577
1.76931
1.82796
1.87683
1.94037
1.93548
1.94037
1.94037
1.92571
1.91105
1.90616
1.88172
1.85728
1.84262
1.83284
1.81329
1.80352
1.82307
1.76931
1.75953
1.74487
1.72043
1.70577
1.70088
1.71554
1.68133
1.67644
1.67155
1.66667
1.66667
1.66178
1.66667
1.68133
1.66178
1.66667
1.67644
1.68133
1.68622
1.68622
1.71554
1.67644
1.66178
1.65689
1.64712
1.63245
1.62757
1.62268
1.60802
1.60313
1.59335
1.58358
1.58358
1.56403
1.55425
1.54448
1.52981
1.53470
1.51515
1.51026
1.50538
1.50538
1.49560
1.49560
1.49560
1.49071
1.49071
1.48583
1.50538
1.48094
1.47116
1.47116
1.47116
1.49071
1.52004
1.57869
1.63245
1.69110
1.75464
1.81329
1.86706
1.90127
1.92571
1.95992
1.94037
1.94037
1.93060
1.91593
1.90127
1.88661
1.85239
1.83284
1.81329
1.79374
1.77908
1.77419
1.75464
1.74487
1.73509
1.72043
1.71554
1.69599
1.68622
1.67644
1.67155
1.66667
1.68622
1.65689
1.66178
1.65689
1.66178
1.67155
1.67644
1.70577
1.69110
1.68622
1.68622
1.68622
1.67644
1.67155
1.67644
1.66667
1.66667
1.63734
1.63245
1.61779
1.60313
1.59824
1.58847
1.57380
1.56891
1.56403
1.55914
1.55425
1.53959
1.52981
1.52493
1.54448
1.50538
1.49560
1.49071
1.49071
1.48583
1.48094
1.47605
1.47605
1.47116
1.47116
1.48094
1.52004
1.53959
1.58847
1.64712
1.71065
1.77908
1.87195
1.92082
1.92082
1.97458
1.95015
1.94526
1.93060
1.91105
1.89150
1.88172
1.84751
1.83284
1.81818
1.80352
1.79374
1.77908
1.76442
1.75464
1.73509
1.72043
1.71065
1.69110
1.67644
1.67644
1.66178
1.65200
1.65200
1.65200
1.65200
1.66178
1.66667
1.69599
1.68133
1.68622
1.68622
1.68622
1.69110
1.68622
1.68133
1.67155
1.66178
1.64712
1.66178
1.61779
1.60313
1.59335
1.57869
1.57869
1.56891
1.56403
1.55914
1.55425
1.54448
1.53959
1.52981
1.52493
1.52004
1.52493
1.52004
1.51515
1.54448
1.51026
1.49560
1.49071
1.48094
1.49071
1.46628
1.47116
1.49071
1.51515
1.55914
1.60802
1.68133
1.73021
1.78397
1.83284
1.88172
1.89638
1.91105
1.91593
1.92082
1.91593
1.88661
1.87683
1.86217
1.85239
1.84751
1.85239
1.82307
1.81329
1.79863
1.77908
1.75953
1.73509
1.71065
1.68622
1.67155
1.65689
1.67155
1.64223
1.65200
1.64223
1.64223
1.64712
1.65200
1.65689
1.66178
1.67155
1.67644
1.68133
1.68622
1.69110
1.68622
1.68133
1.69599
1.67155
1.64712
1.63245
1.61779
1.59824
1.58847
1.57869
1.56891
1.59335
1.55914
1.55425
1.55425
1.54448
1.54448
1.53959
1.53959
1.53470
1.52981
1.52493
1.52981
1.51515
1.50538
1.49560
1.49560
1.51515
1.52981
1.56403
1.61779
1.67644
1.73998
1.80352
1.85728
1.89638
1.93060
1.94037
1.95015
1.95015
1.92571
1.91105
1.89638
1.87683
1.88172
1.84262
1.82796
1.81329
1.79863
1.77908
1.76931
1.75464
1.73998
1.73021
1.73998
1.70088
1.69110
1.69110
1.69599
1.68622
1.68622
1.69110
1.69599
1.70577
1.71065
1.71554
1.74976
1.72043
1.71065
1.71065
1.69599
1.68622
1.67644
1.66667
1.65689
1.65200
1.63245
1.62757
1.61290
1.59824
1.58358
1.57869
1.56403
1.55425
1.54448
1.53959
1.52981
1.52004
1.51515
1.52981
1.50538
1.50049
1.49560
1.49560
1.50538
1.47605
1.46628
1.47116
1.45161
1.45650
1.46628
1.48583
1.52493
1.57380
1.63734
1.70088
1.80352
1.83773
1.88661
1.92571
1.95015
1.95992
1.95503
1.94526
1.93060
1.94037
1.88172
1.86217
1.84262
1.81818
1.80352
1.80841
1.77419
1.75953
1.75464
1.74976
1.73021
1.72043
1.70577
1.72532
1.68133
1.67155
1.66667
1.66667
1.68622
1.67644
1.67155
1.67644
1.67644
1.67644
1.67644
1.67155
1.69110
1.67155
1.66667
1.66178
1.65689
1.65200
1.64223
1.63245
1.61779
1.60313
1.58847
1.57869
1.58847
1.56403
1.55914
1.54936
1.54448
1.53470
1.52493
1.51515
1.51026
1.53959
1.50049
1.50049
1.53470
1.49560
1.49071
1.48094
1.50538
1.46628
1.45161
1.45161
1.44673
1.45161
1.46628
1.49071
1.53470
1.59335
1.69110
1.74976
1.79863
1.85728
1.90127
1.95015
1.95503
1.95992
1.95503
1.94037
1.92082
1.91105
1.89150
1.84751
1.82796
1.80841
1.79374
1.78886
1.77419
1.75953
1.74487
1.73021
1.72532
1.72043
1.69599
1.69110
1.71554
1.68133
1.67155
1.67155
1.67155
1.67155
1.68622
1.69110
1.68622
1.69110
1.69599
1.69599
1.69110
1.68622
1.67644
1.66667
1.65689
1.67644
1.63734
1.62268
1.60802
1.59824
1.59335
1.60802
1.58358
1.58358
1.57869
1.57380
1.59824
1.56403
1.55425
1.54448
1.54936
1.52004
1.51026
1.50049
1.49560
1.48583
1.47116
1.46628
1.46139
1.45650
1.48094
1.45161
1.45161
1.45161
1.46139
1.46628
1.48094
1.51515
1.58847
1.62268
1.68622
1.75464
1.81818
1.87195
1.91105
1.94037
1.94526
1.95503
1.94037
1.92571
1.91105
1.89638
1.88172
1.88661
1.84751
1.82307
1.80841
1.78886
1.76931
1.75464
1.73998
1.73021
1.71554
1.72532
1.69110
1.68133
1.66667
1.65689
1.64712
1.64223
1.67644
1.64712
1.65689
1.66667
1.68622
1.69599
1.68622
1.68622
1.68622
1.68133
1.68622
1.67644
1.70088
1.65689
1.65200
1.63734
1.61779
1.60802
1.58358
1.57380
1.56403
1.56403
1.55425
1.55425
1.55425
1.53959
1.56403
1.52981
1.51026
1.50538
1.50049
1.50049
1.50049
1.49560
1.50049
1.49071
1.49071
1.52004
1.48583
1.48094
1.51026
1.48094
1.48094
1.48583
1.50538
1.52981
1.56891
1.62757
1.69110
1.78397
1.81818
1.87195
1.91105
1.93548
1.97458
1.94526
1.94037
1.92571
1.90616
1.89150
1.89150
1.84751
1.83284
1.81818
1.79863
1.78397
1.76931
1.78397
1.73509
1.72043
1.70577
1.69110
1.69599
1.67644
1.67155
1.66667
1.66178
1.65689
1.65689
1.65200
1.65689
1.69110
1.70577
1.68133
1.69110
1.69110
1.69110
1.68622
1.68133
1.67155
1.66667
1.65689
1.64712
1.64223
1.64223
1.63245
1.63734
1.59824
1.58358
1.57380
1.57869
1.55425
1.53959
1.56403
1.52493
1.52004
1.51026
1.50049
1.49071
1.52004
1.48583
1.47605
1.47116
1.48094
1.45650
1.44673
1.43695
1.43695
1.42717
1.42717
1.43206
1.45650
1.48583
1.53470
1.59335
1.68133
1.77419
1.81329
1.86706
1.91593
1.94037
1.95503
1.95503
1.95015
1.96481
1.91593
1.89638
1.87683
1.85239
1.83773
1.82307
1.79374
1.77419
1.75464
1.73998
1.72532
1.73998
1.69110
1.67644
1.66667
1.65200
1.64712
1.64223
1.63734
1.63245
1.63245
1.63734
1.66178
1.65689
1.65689
1.67155
1.69599
1.69110
1.68622
1.68133
1.67644
1.67155
1.66667
1.65689
1.64712
1.63734
1.63734
1.61779
1.60802
1.59824
1.59335
1.60802
1.57869
1.56403
1.55914
1.54936
1.55425
1.53470
1.52493
1.51515
1.52493
1.50538
1.49560
1.48583
1.50049
1.46139
1.45161
1.44673
1.44673
1.45650
1.47605
1.51026
1.59824
1.63245
1.70088
1.76931
1.83284
1.88661
1.93060
1.97947
1.98925
1.96970
1.96481
1.95015
1.93060
1.91105
1.92082
1.86706
1.84751
1.82307
1.80352
1.77908
1.75953
1.73509
1.72043
1.72532
1.68133
1.68622
1.66178
1.65689
1.63734
1.63245
1.62268
1.61779
1.61779
1.65689
1.64712
1.64712
1.66178
1.67155
1.68133
1.68622
1.69110
1.69110
1.69110
1.68133
1.67155
1.65689
1.65200
1.63245
1.61779
1.60313
1.59824
1.58358
1.57869
1.59335
1.56891
1.55914
1.54936
1.54448
1.54448
1.53470
1.52981
1.52981
1.52981
1.52493
1.52493
1.51515
1.54448
1.50538
1.50049
1.51515
1.53470
1.57380
1.62757
1.69110
1.76442
1.82796
1.88661
1.93548
1.99413
1.97947
1.97947
1.96970
1.95015
1.93060
1.90127
1.87683
1.85239
1.83284
1.81818
1.79863
1.78397
1.79863
1.74976
1.73021
1.71554
1.71065
1.68133
1.66667
1.65200
1.64223
1.63245
1.64712
1.63245
1.63245
1.62757
1.63734
1.64712
1.67644
1.66178
1.66178
1.66178
1.66178
1.65200
1.64712
1.66667
1.62757
1.61779
1.60802
1.61779
1.58358
1.57380
1.58847
1.55425
1.53959
1.53959
1.52981
1.52493
1.52493
1.53959
1.52493
1.51515
1.50538
1.50049
1.51515
1.48094
1.46628
1.46139
1.44184
1.43206
1.42717
1.42717
1.43695
1.46139
1.50538
1.56403
1.63245
1.70577
1.77419
1.82796
1.86217
1.88661
1.89150
1.88172
1.85728
1.82307
1.78397
1.74487
1.68133
1.62757
1.57380
1.51026
1.44184
1.36852
1.32454
1.24633
1.13881
1.06061
0.97752
0.89932
0.82600
0.75758
0.70381
0.66471
0.64516
0.63050
0.64516
0.65982
0.69892
0.75269
0.82111
0.91398
0.98240
1.04106
1.10459
1.15347
1.18768
1.22190
1.25611
1.27566
1.30987
1.32942
1.36364
1.40274
1.41740
1.42717
1.44184
1.44673
1.44673
1.43695
1.43206
1.40762
1.38807
1.37341
1.35875
1.34897
1.34409
1.36364
1.32942
1.32942
1.33431
1.34897
1.37830
1.36364
1.38319
1.41251
1.45650
1.53959
1.57380
1.63245
1.69599
1.74976
1.81329
1.86706
1.90616
1.93548
1.94037
1.94037
1.93548
1.93548
1.91593
1.90127
1.89150
1.88172
1.87195
1.86217
1.85728
1.84751
1.83284
1.81329
1.78886
1.76931
1.75464
1.70577
1.68622
1.66667
1.66178
1.65689
1.65689
1.66178
1.66667
1.69599
1.69110
1.70577
1.72043
1.72532
1.72532
1.73021
1.72532
1.74976
1.71554
1.72043
1.71065
1.70088
1.71065
1.71554
1.72043
1.72043
1.73021
1.73021
1.75464
1.75953
1.77908
1.79374
1.80352
1.80841
1.80352
1.79863
1.80352
1.77419
1.75953
1.74976
1.74487
1.75953
1.73509
1.73998
1.78397
1.76931
1.80841
1.84751
1.92571
1.95015
1.99902
2.05279
2.09189
2.12121
2.14565
2.16031
2.16520
2.16031
2.14565
2.12610
2.10166
2.07722
2.05767
2.03324
2.01857
2.00391
1.98436
2.00391
1.95992
1.95503
1.95992
1.94037
1.94037
1.95503
1.93548
1.95503
1.93060
1.93060
1.92571
1.92571
1.92082
1.91593
1.91593
1.91105
1.91105
1.93548
1.91105
1.93548
1.89638
1.88661
1.87195
1.85728
1.83773
1.82796
1.81329
1.80841
1.80841
1.77419
1.76931
1.75953
1.75464
1.74487
1.73509
1.73021
1.72043
1.70577
1.69599
1.68133
1.66667
1.65689
1.66667
1.63245
1.62757
1.61779
1.61290
1.60802
1.60313
1.60313
1.64223
1.66178
1.69110
1.75953
1.82796
1.89150
1.95015
2.01369
2.03324
2.05279
2.06745
2.06256
2.05279
2.03324
2.01857
1.98925
1.96481
1.94037
1.92082
1.89638
1.88172
1.86706
1.84751
1.84262
1.81818
1.79863
1.77419
1.76442
1.73509
1.72532
1.71554
1.72043
1.74487
1.72043
1.72043
1.73021
1.74487
1.75464
1.75953
1.76442
1.76442
1.78886
1.75464
1.73998
1.72532
1.71554
1.70577
1.69599
1.68133
1.66667
1.65200
1.63734
1.62268
1.64223
1.60313
1.59335
1.57869
1.57380
1.56891
1.56891
1.55914
1.54936
1.54936
1.54936
1.55425
1.55914
1.55425
1.55425
1.54936
1.55425
1.54448
1.53470
1.52981
1.55425
1.52004
1.52493
1.54448
1.57869
1.62757
1.72532
1.76931
1.83773
1.90127
1.95503
1.99413
2.04301
2.03324
2.02346
2.00880
1.98925
1.96970
1.95015
1.93060
1.90127
1.88661
1.86706
1.85239
1.83773
1.81818
1.79863
1.77908
1.77908
1.74487
1.73021
1.71554
1.71554
1.70088
1.69599
1.69599
1.70088
1.70088
1.71065
1.72043
1.72532
1.73509
1.75464
1.75953
1.72532
1.72532
1.71065
1.71065
1.69110
1.67644
1.66178
1.67644
1.63734
1.62757
1.61779
1.60313
1.59824
1.60802
1.59824
1.57869
1.56891
1.55914
1.54936
1.54936
1.54448
1.56403
1.53959
1.53959
1.53959
1.53470
1.52981
1.52004
1.53959
1.51026
1.50538
1.49071
1.49071
1.52493
1.52981
1.52493
1.56403
1.61290
1.68133
1.74976
1.81818
1.88661
1.93548
1.99902
2.02835
2.00880
2.00391
1.98925
1.97458
1.97458
1.93060
1.90616
1.89150
1.87683
1.86217
1.84751
1.82796
1.80841
1.80841
1.75953
1.73509
1.73509
1.70088
1.69110
1.69599
1.68622
1.68133
1.68622
1.69110
1.69599
1.70088
1.70577
1.71065
1.71065
1.71554
1.71554
1.71554
1.71065
1.70577
1.69599
1.68133
1.66667
1.65200
1.63734
1.62757
1.61779
1.60802
1.59824
1.59824
1.59335
1.61779
1.58847
1.58358
1.57380
1.56891
1.55914
1.55425
1.54448
1.53959
1.53470
1.52981
1.52493
1.52004
1.51515
1.51026
1.50049
1.49560
1.49071
1.49071
1.49560
1.51026
1.56891
1.58847
1.64712
1.72043
1.79374
1.86217
1.92082
1.97458
1.99902
2.01369
2.01857
2.00391
1.98925
1.96481
1.93548
1.91105
1.88661
1.86706
1.85239
1.82796
1.81329
1.79863
1.79863
1.75953
1.74487
1.75953
1.71065
1.69599
1.68622
1.67644
1.67644
1.67644
1.67644
1.68133
1.68622
1.71554
1.69599
1.70088
1.70577
1.70577
1.71065
1.71065
1.70577
1.69599
1.69110
1.68133
1.67155
1.66178
1.65689
1.64223
1.63734
1.62757
1.63245
1.63245
1.60313
1.59824
1.60802
1.62757
1.67644
1.66667
1.68133
1.66178
1.64712
1.63245
1.61779
1.60802
1.62268
1.58358
1.56891
1.55914
1.54936
1.53959
1.54448
1.54936
1.56403
1.59824
1.65200
1.72043
1.79374
1.86706
1.93548
1.98925
2.03812
2.06256
2.07234
2.06745
2.06745
2.02835
1.99902
1.96481
1.92571
1.90127
1.87683
1.84262
1.82307
1.80841
1.79863
1.77419
1.75464
1.73509
1.71554
1.69599
1.68133
1.66178
1.65200
1.64712
1.66178
1.64712
1.65689
1.66667
1.69599
1.68622
1.70088
1.70577
1.71065
1.71554
1.70577
1.70088
1.68622
1.68622
1.66178
1.65200
1.64223
1.62757
1.61779
1.60802
1.61779
1.58358
1.56891
1.55914
1.56891
1.54936
1.53470
1.52981
1.54936
1.54448
1.51026
1.49560
1.49560
1.49071
1.48583
1.47605
1.47605
1.47116
1.46628
1.46139
1.49071
1.47605
1.48583
1.52004
1.56403
1.62757
1.69599
1.76931
1.87195
1.92571
1.94526
1.96970
1.97947
1.97947
1.96970
1.95015
1.94037
1.90127
1.87195
1.84751
1.81818
1.80841
1.77419
1.75953
1.73021
1.70577
1.68622
1.69110
1.64712
1.63245
1.62268
1.61290
1.60802
1.60802
1.60802
1.61290
1.62268
1.62268
1.63245
1.64223
1.65689
1.66178
1.66667
1.66667
1.66178
1.65689
1.67644
1.63734
1.62268
1.61290
1.60313
1.59335
1.58358
1.57380
1.55914
1.54448
1.53959
1.52981
1.52493
1.52493
1.51026
1.51026
1.50049
1.50049
1.49071
1.48583
1.50049
1.50538
1.46628
1.45650
1.44673
1.44184
1.47116
1.43695
1.44673
1.47116
1.51026
1.57380
1.64223
1.71554
1.78886
1.84751
1.90127
1.94037
1.95992
1.96481
1.95992
1.96970
1.92082
1.89638
1.86706
1.84262
1.82796
1.82307
1.77908
1.75953
1.74487
1.73021
1.71065
1.69599
1.69599
1.66667
1.65689
1.64712
1.63245
1.61779
1.61290
1.60802
1.60802
1.61290
1.62268
1.63245
1.64223
1.64712
1.65200
1.67644
1.64712
1.64223
1.63734
1.62757
1.64223
1.61290
1.60313
1.58358
1.57380
1.56403
1.54936
1.53470
1.52493
1.54448
1.50538
1.49560
1.49071
1.48094
1.47605
1.47116
1.47116
1.46628
1.46139
1.45650
1.45161
1.45161
1.44673
1.43695
1.45161
1.46628
1.50049
1.55914
1.62757
1.70577
1.78886
1.85239
1.91105
1.95015
1.97458
1.98436
1.97947
1.96481
1.97458
1.92082
1.89150
1.86706
1.84262
1.84751
1.79863
1.77908
1.76442
1.74487
1.73021
1.72043
1.70577
1.68622
1.67155
1.65689
1.64712
1.66667
1.63734
1.62757
1.62757
1.62757
1.65200
1.64223
1.64712
1.65200
1.65200
1.65200
1.65200
1.67155
1.64712
1.63245
1.62268
1.61779
1.63245
1.61779
1.58847
1.57869
1.56403
1.55425
1.53959
1.56403
1.52004
1.51515
1.50049
1.49560
1.49071
1.48094
1.47605
1.47116
1.45650
1.45161
1.46139
1.43206
1.42229
1.41251
1.41251
1.41740
1.44184
1.48583
1.55914
1.61779
1.69599
1.77908
1.85239
1.90127
1.94037
1.96481
1.96970
1.96970
1.96970
1.96481
1.91593
1.89150
1.86706
1.84751
1.82796
1.80841
1.79374
1.77908
1.75953
1.74487
1.72532
1.70577
1.68622
1.66667
1.65200
1.63734
1.62757
1.62268
1.61779
1.62268
1.63245
1.62757
1.63734
1.63734
1.64223
1.65200
1.64712
1.63734
1.63245
1.63245
1.61290
1.60313
1.59335
1.58847
1.57380
1.56403
1.55914
1.54936
1.53959
1.52981
1.52493
1.51515
1.51026
1.50049
1.49071
1.50538
1.47605
1.46628
1.45650
1.45161
1.44184
1.43206
1.42229
1.41740
1.40762
1.41251
1.40762
1.42717
1.50049
1.52493
1.60313
1.68622
1.77908
1.84751
1.90616
1.95015
2.00391
1.98925
1.98436
1.96970
1.94526
1.91593
1.89150
1.85728
1.83284
1.81329
1.81329
1.76442
1.75464
1.74487
1.73998
1.71065
1.69599
1.68622
1.66667
1.65200
1.64223
1.62757
1.62268
1.64223
1.65689
1.63245
1.64223
1.64223
1.64712
1.65689
1.66178
1.66667
1.66667
1.65689
1.65200
1.65200
1.63734
1.62268
1.61290
1.60313
1.58847
1.58358
1.56891
1.55914
1.54936
1.53470
1.52981
1.54936
1.51026
1.50049
1.49560
1.48094
1.48583
1.45650
1.45161
1.44184
1.44184
1.45161
1.43206
1.42717
1.42229
1.42717
1.41740
1.42229
1.44673
1.48583
1.53959
1.61290
1.71554
1.77908
1.85239
1.91105
1.95992
1.98436
1.98925
1.97947
1.95992
1.94526
1.90127
1.86706
1.83284
1.80841
1.78397
1.76442
1.74976
1.73021
1.71554
1.70577
1.69599
1.68622
1.66667
1.65689
1.65689
1.64223
1.62757
1.62268
1.62268
1.62268
1.64223
1.63245
1.64223
1.64712
1.67155
1.65689
1.66178
1.65689
1.65200
1.64712
1.67644
1.63245
1.62757
1.61290
1.60313
1.60802
1.57869
1.56891
1.55425
1.54936
1.52981
1.52004
1.50538
1.49560
1.49071
1.48583
1.47605
1.47116
1.50049
1.46628
1.45650
1.45650
1.45161
1.44673
1.46628
1.44184
1.43206
1.43206
1.42717
1.44184
1.43695
1.46628
1.51026
1.56891
1.65200
1.72043
1.79863
1.86217
1.91593
1.95015
1.96970
1.97947
1.97458
1.95992
1.96970
1.91105
1.88172
1.85728
1.82796
1.80352
1.78397
1.75953
1.73998
1.72532
1.70577
1.68622
1.67155
1.65200
1.63734
1.62268
1.64223
1.61779
1.61290
1.61779
1.63734
1.62757
1.63734
1.64712
1.65689
1.65689
1.66667
1.67155
1.68622
1.67155
1.66178
1.65200
1.64223
1.63245
1.61290
1.59824
1.58358
1.57380
1.55425
1.54448
1.55425
1.52981
1.52493
1.52004
1.54936
1.52004
1.52004
1.51515
1.51515
1.50538
1.50049
1.50049
1.48094
1.47116
1.45650
1.44673
1.46139
1.43206
1.42717
1.43206
1.44184
1.46139
1.50538
1.55425
1.62757
1.70088
1.79863
1.84751
1.90616
1.97458
1.97458
2.01857
1.98925
1.97947
1.95992
1.94037
1.93060
1.88172
1.85239
1.83284
1.80841
1.78886
1.77908
1.75464
1.73509
1.72043
1.70088
1.69110
1.66667
1.64712
1.63245
1.62268
1.61290
1.63734
1.60802
1.61290
1.64712
1.63245
1.63734
1.65689
1.66178
1.65689
1.65689
1.66178
1.65689
1.65689
1.65689
1.64712
1.64223
1.63245
1.62268
1.60802
1.59335
1.57869
1.56891
1.55914
1.55425
1.54448
1.53959
1.54936
1.52981
1.52004
1.51026
1.50538
1.49071
1.48094
1.46628
1.46139
1.44673
1.43206
1.42717
1.42229
1.41740
1.44184
1.42717
1.44184
1.47605
1.55914
1.59824
1.67644
1.75464
1.83284
1.92571
1.95503
1.97458
1.98925
1.99413
1.99413
1.94526
1.92082
1.89150
1.85728
1.83773
1.80352
1.77908
1.75464
1.73509
1.71065
1.69110
1.66667
1.66178
1.62757
1.60802
1.59335
1.58358
1.57869
1.57380
1.57869
1.59824
1.59824
1.60802
1.64223
1.62268
1.62757
1.63245
1.66667
1.63734
1.64223
1.64223
1.65689
1.64223
1.63734
1.62757
1.61779
1.60802
1.58847
1.57869
1.56403
1.56891
1.54448
1.52981
1.52004
1.50538
1.51026
1.48583
1.47116
1.45650
1.44673
1.43206
1.42717
1.42717
1.40762
1.40274
1.39785
1.42229
1.44184
1.44184
1.48583
1.54936
1.62268
1.73998
1.78886
1.86217
1.91593
1.95992
1.98925
1.99902
1.99902
1.98925
1.97458
1.94526
1.92082
1.89638
1.87195
1.84751
1.82307
1.80352
1.78397
1.75464
1.73509
1.71554
1.69599
1.67155
1.68133
1.65200
1.63245
1.62268
1.61290
1.61779
1.63734
1.64223
1.66178
1.67644
1.72532
1.71554
1.72043
1.72532
1.72043
1.73509
1.70577
1.68622
1.67644
1.66178
1.65689
1.63245
1.61779
1.60313
1.58847
1.57869
1.59335
1.55914
1.54448
1.53470
1.52493
1.52004
1.53959
1.50049
1.49071
1.49560
1.47116
1.46628
1.47605
1.46628
1.47116
1.49560
1.53470
1.62268
1.66178
1.73509
1.80841
1.87683
1.93548
1.97947
2.00391
2.01369
2.00880
1.99413
1.96970
1.94037
1.92082
1.87683
1.85239
1.82796
1.80841
1.79374
1.78397
1.78886
1.74976
1.73509
1.72043
1.71065
1.68622
1.66667
1.66178
1.65689
1.65200
1.66178
1.67155
1.67644
1.68622
1.70088
1.71065
1.71065
1.71554
1.72043
1.72532
1.72532
1.72043
1.74487
1.71554
1.69599
1.68133
1.66667
1.64712
1.63245
1.61290
1.59824
1.58358
1.56403
1.55425
1.54448
1.53959
1.52981
1.54448
1.51026
1.49560
1.48583
1.47605
1.46139
1.46139
1.45161
1.45161
1.46139
1.49560
1.53470
1.59824
1.70577
1.75953
1.84262
1.91593
1.97458
2.01857
2.03812
2.04790
2.03812
2.01857
1.99902
1.96970
1.94526
1.91105
1.88172
1.85728
1.83284
1.80841
1.78886
1.76442
1.74976
1.72043
1.70088
1.68133
1.66667
1.65689
1.65200
1.64223
1.63734
1.63245
1.62757
1.62757
1.64223
1.64223
1.64712
1.65689
1.66667
1.67155
1.67644
1.70577
1.67155
1.66667
1.69110
1.65200
1.64223
1.64223
1.60802
1.59335
1.57380
1.57869
1.53959
1.52981
1.54448
1.50538
1.49560
1.49071
1.48583
1.47605
1.47116
1.47116
1.46628
1.45650
1.45650
1.45161
1.44673
1.43695
1.44673
1.45650
1.46628
1.50049
1.57380
1.63245
1.73509
1.80352
1.87683
1.94037
1.98436
2.01369
2.02835
2.02346
2.00880
2.00391
1.95992
1.93060
1.90616
1.88172
1.86217
1.84262
1.82307
1.83284
1.77908
1.75953
1.73998
1.72043
1.71065
1.68133
1.66667
1.65689
1.65200
1.64223
1.64712
1.64712
1.64712
1.65200
1.65689
1.66667
1.67644
1.67644
1.67644
1.67644
1.68133
1.67155
1.67155
1.67155
1.66178
1.64712
1.63734
1.62757
1.61290
1.59335
1.57380
1.56891
1.54448
1.52981
1.52493
1.51515
1.50538
1.50538
1.49560
1.49071
1.48583
1.47605
1.46628
1.45650
1.45161
1.45161
1.43206
1.43206
1.42229
1.42229
1.44184
1.43695
1.47116
1.52493
1.58358
1.66667
1.74976
1.84262
1.91105
1.96970
2.00880
2.03324
2.03812
2.02835
2.00880
1.97947
1.95015
1.92082
1.92082
1.86217
1.83773
1.81818
1.79863
1.77908
1.75953
1.76442
1.72043
1.70577
1.69110
1.68133
1.68133
1.66667
1.66667
1.65689
1.66178
1.64712
1.64712
1.65689
1.64712
1.64712
1.65689
1.66667
1.67644
1.67644
1.67644
1.67644
1.66667
1.65689
1.64223
1.63245
1.62268
1.60313
1.59335
1.58847
1.56891
1.55914
1.54936
1.56891
1.52981
1.52493
1.54448
1.51026
1.50049
1.50049
1.49560
1.48583
1.49560
1.47605
1.46628
1.46139
1.44673
1.43695
1.46139
1.42717
1.42229
1.42229
1.46139
1.44673
1.47605
1.52981
1.58847
1.66667
1.75464
1.86217
1.92082
1.97947
2.02346
2.04301
2.04790
2.04301
2.03812
1.99413
1.96970
1.94037
1.91593
1.89150
1.86706
1.84751
1.83773
1.80352
1.79374
1.75464
1.73021
1.70577
1.69110
1.66667
1.65200
1.63734
1.63245
1.63245
1.62757
1.62757
1.64223
1.64223
1.67155
1.66667
1.68133
1.71554
1.70088
1.70088
1.70088
1.71554
1.69599
1.68133
1.66667
1.65689
1.65200
1.63245
1.60802
1.62757
1.57380
1.56403
1.54936
1.56403
1.52493
1.53959
1.50538
1.50538
1.50049
1.50049
1.49560
1.52004
1.48583
1.47116
1.47116
1.44673
1.43695
1.42717
1.42717
1.41740
1.42229
1.42717
1.42229
1.44673
1.42717
1.44184
1.46139
1.51026
1.56403
1.64223
1.73021
1.80352
1.87683
1.94037
1.98436
2.01857
2.01369
2.00880
1.99413
1.97947
1.94526
1.90616
1.87683
1.84751
1.82307
1.80352
1.78397
1.79863
1.74976
1.73021
1.71554
1.70088
1.68133
1.67644
1.66178
1.63734
1.62268
1.61779
1.63734
1.62268
1.63245
1.66667
1.65689
1.66178
1.67155
1.68622
1.67155
1.67155
1.66178
1.68622
1.65200
1.63734
1.64223
1.62268
1.60802
1.59335
1.58358
1.56403
1.54936
1.53470
1.52493
1.51515
1.51026
1.51026
1.50538
1.50049
1.50049
1.49071
1.50538
1.48094
1.47116
1.49071
1.45650
1.44184
1.43695
1.44673
1.41740
1.40762
1.40762
1.39296
1.38807
1.39785
1.41740
1.45650
1.51026
1.58847
1.66667
1.76442
1.83284
1.89638
1.94526
1.97947
2.00391
1.98925
1.97458
1.95503
1.93060
1.90127
1.88172
1.87683
1.82307
1.79863
1.78397
1.76442
1.74976
1.73021
1.71554
1.70088
1.71554
1.66667
1.65200
1.64223
1.66667
1.64223
1.63734
1.63734
1.64223
1.65200
1.67644
1.67155
1.67644
1.71065
1.68622
1.68622
1.68622
1.68133
1.68133
1.67155
1.66178
1.65200
1.64712
1.63245
1.61779
1.60802
1.59824
1.59335
1.57869
1.57869
1.58358
1.56403
1.55425
1.54448
1.53470
1.52004
1.51515
1.49560
1.48583
1.47605
1.46628
1.45650
1.46139
1.44184
1.43206
1.42717
1.43206
1.41740
1.42717
1.46139
1.47116
1.52004
1.58847
1.67644
1.74976
1.83284
1.90616
1.98436
1.99902
2.02346
2.02835
2.02346
2.00391
1.97947
1.95503
1.94037
1.89150
1.86706
1.83773
1.81818
1.79374
1.77419
1.75464
1.73509
1.72043
1.70088
1.68133
1.66667
1.66178
1.64223
1.63734
1.63245
1.65200
1.63734
1.64223
1.64223
1.64712
1.64712
1.68133
1.65689
1.65689
1.66178
1.66178
1.65689
1.68133
1.64712
1.63245
1.61779
1.59824
1.57869
1.55914
1.53470
1.53959
1.51026
1.50049
1.50538
1.49560
1.49071
1.49071
1.48094
1.50538
1.46628
1.45650
1.45161
1.43695
1.43206
1.42229
1.42717
1.40762
1.40274
1.42717
1.41251
1.42717
1.46628
1.50538
1.56403
1.63734
1.74976
1.79374
1.85728
1.91105
1.95015
1.96481
1.96970
1.95992
1.94037
1.92571
1.89638
1.86706
1.84262
1.81818
1.79374
1.76931
1.74487
1.74976
1.70088
1.67644
1.65200
1.64223
1.62268
1.60313
1.58358
1.57380
1.56891
1.57380
1.56891
1.57869
1.61779
1.60802
1.60802
1.61779
1.63245
1.64223
1.64712
1.65200
1.65689
1.65689
1.65200
1.64223
1.64223
1.61779
1.59824
1.58358
1.56891
1.58847
1.54936
1.52981
1.52493
1.51515
1.53959
1.50049
1.49071
1.49071
1.47605
1.46628
1.45650
1.44184
1.43206
1.42229
1.41740
1.40762
1.40762
1.41740
1.44184
1.48583
1.53959
1.61290
1.69110
1.77419
1.85239
1.90616
1.94526
1.97947
1.97458
1.96970
1.95992
1.93060
1.90127
1.87683
1.85239
1.82796
1.80352
1.78397
1.76442
1.74487
1.72532
1.70577
1.68622
1.66178
1.64223
1.62268
1.60802
1.59335
1.59335
1.57869
1.57380
1.57869
1.58847
1.60313
1.61290
1.63734
1.64712
1.65689
1.68133
1.67155
1.66667
1.66178
1.65200
1.64223
1.63245
1.60802
1.58847
1.56891
1.56403
1.57380
1.52981
1.52004
1.51026
1.51515
1.49560
1.49071
1.48094
1.48583
1.46628
1.45161
1.44184
1.46628
1.42229
1.41251
1.40762
1.40762
1.42717
1.45650
1.54448
1.58358
1.66178
1.73998
1.81818
1.88172
1.95015
1.96970
1.98436
1.98436
1.96970
1.95503
1.93060
1.89638
1.87195
1.84262
1.82307
1.80352
1.79374
1.79863
1.75464
1.73998
1.72043
1.70577
1.68133
1.66178
1.64712
1.63734
1.62268
1.61779
1.64223
1.61290
1.61779
1.62268
1.62268
1.63734
1.64223
1.64223
1.66178
1.64712
1.64712
1.67644
1.65200
1.63734
1.62268
1.61290
1.63245
1.58847
1.56891
1.55914
1.54448
1.52981
1.52004
1.52004
1.50049
1.49071
1.48094
1.47116
1.46139
1.46628
1.43695
1.42229
1.41251
1.41251
1.39296
1.38807
1.39785
1.40274
1.43206
1.49071
1.54448
1.62268
1.70577
1.78397
1.85239
1.90616
1.95015
1.96970
1.97947
1.96970
1.95992
1.94037
1.91105
1.88661
1.86706
1.85239
1.81818
1.79374
1.77419
1.75464
1.73509
1.72043
1.71065
1.67644
1.65689
1.63734
1.63245
1.63245
1.61779
1.61290
1.60802
1.61290
1.61779
1.63734
1.63245
1.63245
1.65200
1.63734
1.63245
1.65689
1.63245
1.62757
1.61779
1.63245
1.59824
1.58358
1.57380
1.56403
1.55425
1.54448
1.53470
1.53470
1.52493
1.51515
1.50538
1.50049
1.49071
1.47605
1.46628
1.46139
1.45161
1.44673
1.47605
1.44184
1.44673
1.48094
1.47116
1.50049
1.54936
1.61290
1.70088
1.81818
1.96481
2.12610
2.28739
2.44379
2.51222
2.55621
2.55621
2.52199
2.46334
2.39492
2.32160
2.24829
2.17986
2.12610
2.07722
2.03812
2.00880
1.97458
1.95503
1.93060
1.90616
1.92082
1.85728
1.82796
1.80352
1.76931
1.74976
1.73509
1.72043
1.71554
1.71065
1.70577
1.71065
1.70088
1.70088
1.69599
1.69110
1.68622
1.68622
1.68133
1.69110
1.67155
1.69110
1.64712
1.63245
1.62268
1.60313
1.59335
1.57869
1.56891
1.56403
1.55425
1.58358
1.54936
1.54448
1.54936
1.52493
1.51515
1.51026
1.50049
1.49560
1.49071
1.48094
1.47605
1.46628
1.46139
1.45650
1.44673
1.44184
1.45161
1.43206
1.42717
1.43695
1.45161
1.48094
1.52981
1.58847
1.67644
1.73998
1.80841
1.89150
1.92082
1.95015
1.95992
1.95992
1.95503
1.92082
1.89150
1.85728
1.82796
1.80352
1.77908
1.73998
1.71554
1.69110
1.66178
1.63734
1.61779
1.59824
1.56891
1.55425
1.54936
1.52981
1.55914
1.52004
1.55914
1.52981
1.53470
1.54448
1.54936
1.58847
1.56403
1.57869
1.58847
1.59824
1.60802
1.61779
1.61290
1.61290
1.60802
1.61290
1.63245
1.59824
1.59824
1.59824
1.58847
1.58847
1.57380
1.55914
1.58358
1.54936
1.52981
1.52493
1.52004
1.51026
1.50049
1.49560
1.48583
1.48094
1.50049
1.46139
1.45161
1.44184
1.45161
1.42229
1.41251
1.43206
1.40274
1.39785
1.43695
1.42717
1.46628
1.52004
1.60313
1.67644
1.76442
1.85239
1.91593
1.96970
2.00391
2.02835
2.03324
2.02346
2.02346
1.97458
1.94526
1.91105
1.88172
1.85728
1.83773
1.81818
1.79863
1.78397
1.76931
1.74976
1.73021
1.72043
1.69599
1.71554
1.68133
1.66667
1.66178
1.66667
1.66667
1.68622
1.68133
1.68622
1.69599
1.73509
1.72043
1.73509
1.71065
1.71065
1.70577
1.70577
1.69110
1.67644
1.66667
1.65200
1.66178
1.62268
1.60802
1.59335
1.58358
1.56403
1.55425
1.54448
1.54936
1.53470
1.52493
1.52004
1.53959
1.51026
1.50049
1.49071
1.48583
1.47605
1.47605
1.47605
1.47116
1.46628
1.45650
1.45161
1.43695
1.43206
1.44673
1.44673
1.47605
1.52493
1.59824
1.68133
1.76442
1.84751
1.91593
1.96970
2.00391
2.02346
2.02346
2.01369
1.99902
1.97458
1.95503
1.95503
1.90127
1.87683
1.84751
1.82796
1.80352
1.78397
1.76442
1.74487
1.73509
1.70577
1.68622
1.67155
1.65689
1.64712
1.64223
1.63734
1.64223
1.63734
1.63734
1.65200
1.65200
1.65200
1.66178
1.67644
1.67644
1.68133
1.69110
1.69599
1.67155
1.66178
1.66667
1.63734
1.61779
1.63245
1.58358
1.56403
1.55425
1.54448
1.52493
1.51515
1.51026
1.51026
1.50049
1.50049
1.49560
1.49071
1.51026
1.48094
1.46628
1.46139
1.45650
1.44184
1.43695
1.42717
1.42717
1.42229
1.42717
1.44184
1.45650
1.49560
1.55425
1.62757
1.70577
1.78886
1.86217
1.94526
1.98436
1.99902
2.03812
2.00391
1.98436
1.95992
1.93060
1.89638
1.86706
1.86706
1.80841
1.78886
1.76442
1.74487
1.72532
1.70088
1.70577
1.66178
1.64223
1.62757
1.61290
1.60313
1.59824
1.59824
1.60313
1.61290
1.62268
1.63245
1.64712
1.65689
1.66667
1.67155
1.66667
1.68622
1.65689
1.64712
1.65200
1.62757
1.61779
1.60313
1.58358
1.57380
1.55914
1.55425
1.52981
1.52004
1.52981
1.50538
1.50049
1.49071
1.49071
1.48094
1.47605
1.48583
1.45161
1.44673
1.44184
1.43206
1.42229
1.41251
1.40762
1.39296
1.41251
1.37830
1.37830
1.39296
1.42717
1.48094
1.58358
1.64223
1.72532
1.80841
1.91105
1.93060
1.96970
1.99413
1.99902
1.99413
1.97947
1.96481
1.95503
1.91105
1.89150
1.86706
1.84262
1.82307
1.79863
1.77908
1.74976
1.72532
1.70088
1.68133
1.66178
1.65689
1.64223
1.64223
1.63734
1.63734
1.63734
1.64223
1.63734
1.67155
1.64223
1.64712
1.67644
1.65689
1.65689
1.65689
1.65689
1.64712
1.63734
1.62268
1.61779
1.59335
1.57869
1.57380
1.54936
1.53959
1.52981
1.51515
1.50538
1.49560
1.49071
1.48094
1.47605
1.47605
1.46628
1.45650
1.45650
1.48583
1.44673
1.44184
1.46628
1.42717
1.41740
1.44673
1.40274
1.40274
1.40762
1.42717
1.46139
1.55425
1.60313
1.69110
1.78886
1.87195
1.94526
2.00391
2.03812
2.05767
2.05279
2.03812
2.01369
1.98436
1.95015
1.93060
1.89150
1.86706
1.84262
1.82796
1.80841
1.79374
1.80352
1.75953
1.73509
1.72043
1.70088
1.69110
1.67644
1.66667
1.66178
1.65689
1.65689
1.65689
1.69599
1.67155
1.67155
1.68133
1.69110
1.69599
1.70088
1.71065
1.70088
1.73021
1.69599
1.67644
1.66667
1.66667
1.62757
1.60802
1.60313
1.57380
1.56891
1.54936
1.54448
1.53959
1.52981
1.52004
1.52493
1.51026
1.50538
1.50049
1.49071
1.49071
1.48583
1.48094
1.48583
1.46628
1.45650
1.46628
1.44184
1.44184
1.44673
1.47605
1.51026
1.57380
1.66667
1.74976
1.83773
1.91105
1.97947
2.02346
2.04790
2.05279
2.04301
2.02346
1.99413
1.96481
1.93060
1.90127
1.87683
1.84751
1.82796
1.80841
1.81329
1.76442
1.74976
1.73021
1.71554
1.70577
1.69110
1.68133
1.67155
1.69599
1.66667
1.66667
1.67644
1.70088
1.69599
1.70577
1.72043
1.72532
1.73509
1.73509
1.75464
1.73021
1.72532
1.71554
1.70088
1.70088
1.67155
1.64712
1.62268
1.60802
1.58358
1.56891
1.55914
1.55425
1.53470
1.52981
1.54448
1.52493
1.52004
1.52004
1.51026
1.50538
1.50049
1.48583
1.47116
1.46139
1.45650
1.44184
1.44184
1.42229
1.42229
1.41740
1.43206
1.45161
1.50049
1.56891
1.64712
1.73998
1.85728
1.90616
1.96481
2.00880
2.03324
2.03324
2.02835
2.00391
1.97947
1.97458
1.91105
1.88172
1.85239
1.82796
1.81329
1.79863
1.77908
1.76442
1.74976
1.73021
1.71065
1.72043
1.67644
1.65689
1.63734
1.63245
1.65200
1.62757
1.63245
1.64223
1.65689
1.66667
1.67644
1.68622
1.69599
1.69110
1.69110
1.69110
1.68133
1.67155
1.65689
1.67644
1.63245
1.61779
1.60313
1.58358
1.56891
1.55914
1.54936
1.53959
1.54936
1.52981
1.52981
1.52493
1.52004
1.52004
1.51026
1.50049
1.49560
1.48094
1.47116
1.46628
1.45161
1.44673
1.44673
1.43695
1.43695
1.48094
1.47605
1.52004
1.57869
1.65689
1.73998
1.81818
1.92082
1.95503
1.99413
2.01857
2.02346
2.02346
2.00880
1.96481
1.94037
1.91105
1.88172
1.85239
1.82796
1.80841
1.78397
1.77908
1.73998
1.71554
1.69599
1.69110
1.66178
1.64223
1.62757
1.61290
1.60802
1.61779
1.59824
1.60313
1.62757
1.61290
1.62268
1.64223
1.64223
1.65200
1.65689
1.66178
1.66667
1.66178
1.65689
1.64712
1.63734
1.61779
1.60802
1.58847
1.57380
1.56403
1.54448
1.52981
1.51515
1.50049
1.49560
1.49071
1.48094
1.51026
1.47605
1.46628
1.46139
1.45650
1.44673
1.43695
1.42229
1.41740
1.41251
1.40762
1.39785
1.40762
1.41740
1.45161
1.51026
1.56891
1.64223
1.72532
1.79863
1.86217
1.92571
1.93548
1.95015
1.94526
1.93548
1.91105
1.88661
1.87195
1.82307
1.79374
1.76931
1.74487
1.72532
1.71554
1.68622
1.66667
1.64712
1.62757
1.60802
1.58847
1.57869
1.56403
1.55914
1.55914
1.55914
1.55914
1.60313
1.58358
1.59335
1.61290
1.62268
1.62757
1.63245
1.63245
1.62757
1.62268
1.60802
1.59824
1.57869
1.56891
1.56403
1.54448
1.52981
1.51026
1.50049
1.51026
1.48583
1.47605
1.48094
1.46139
1.46139
1.45650
1.45161
1.44673
1.43695
1.43206
1.42229
1.41740
1.40762
1.40274
1.41251
1.40762
1.42229
1.45650
1.51026
1.56891
1.65200
1.72532
1.83284
1.86217
1.91105
1.93548
1.95015
1.94526
1.93548
1.92571
1.88172
1.85239
1.82307
1.79863
1.77908
1.75953
1.73998
1.72043
1.71065
1.71065
1.66667
1.64712
1.63245
1.60802
1.59335
1.57869
1.57380
1.58847
1.57380
1.57869
1.61779
1.59824
1.60802
1.61779
1.62757
1.62757
1.62757
1.63245
1.66178
1.62268
1.61779
1.60802
1.60802
1.58358
1.56403
1.55914
1.53470
1.51515
1.50538
1.52493
1.48583
1.51026
1.48583
1.46139
1.45161
1.44184
1.43695
1.42229
1.44184
1.40274
1.39296
1.38319
1.38807
1.38807
1.40762
1.43695
1.48094
1.54448
1.61779
1.69599
1.79863
1.83284
1.87683
1.91105
1.92082
1.92082
1.91105
1.89150
1.87195
1.87683
1.82307
1.79863
1.77908
1.75953
1.74487
1.73021
1.71065
1.69599
1.68133
1.65689
1.64223
1.63245
1.61290
1.59824
1.58847
1.58358
1.59335
1.57869
1.58358
1.58847
1.59335
1.60802
1.60802
1.61779
1.62268
1.61779
1.61290
1.60802
1.59824
1.59824
1.57380
1.56891
1.55914
1.55425
1.53470
1.52981
1.51515
1.51026
1.49560
1.52004
1.48094
1.47116
1.46139
1.46628
1.44673
1.43206
1.42229
1.41740
1.40274
1.39296
1.38319
1.37830
1.37830
1.38807
1.42229
1.46139
1.52493
1.62757
1.68133
1.75464
1.81818
1.89150
1.90616
1.92082
1.92571
1.91593
1.90616
1.87683
1.85239
1.82796
1.80352
1.77908
1.76442
1.74487
1.74487
1.73509
1.68622
1.66667
1.64712
1.64712
1.61290
1.63245
1.59335
1.58847
1.58358
1.58358
1.59824
1.58847
1.58847
1.59824
1.62757
1.62268
1.60313
1.60802
1.60802
1.63734
1.59824
1.58847
1.58358
1.57869
1.56403
1.55425
1.54448
1.55425
1.52493
1.51026
1.50538
1.49560
1.50049
1.48094
1.46628
1.49071
1.44673
1.44184
1.43206
1.42717
1.41740
1.41251
1.40762
1.43206
1.40762
1.39296
1.39296
1.38807
1.38807
1.39296
1.40762
1.43695
1.48583
1.54936
1.62757
1.73509
1.78397
1.84262
1.89150
1.91593
1.93060
1.92571
1.90616
1.88661
1.85728
1.84751
1.79863
1.77419
1.75464
1.73509
1.72043
1.71065
1.69599
1.68133
1.66667
1.66667
1.63245
1.62268
1.60802
1.60313
1.60313
1.59824
1.63245
1.63245
1.60313
1.60802
1.60802
1.62268
1.61290
1.60802
1.61290
1.60802
1.60802
1.61290
1.59824
1.59335
1.58358
1.57380
1.55425
1.53959
1.53470
1.51026
1.50049
1.50049
1.48094
1.47605
1.47116
1.50049
1.47116
1.46139
1.45650
1.45161
1.45650
1.44673
1.44184
1.43695
1.42717
1.45650
1.42229
1.41251
1.40274
1.39785
1.41740
1.37830
1.38319
1.38807
1.41251
1.48583
1.51515
1.58847
1.66667
1.74487
1.81818
1.86706
1.90127
1.92082
1.92082
1.90616
1.88661
1.85728
1.82307
1.79374
1.76931
1.74487
1.73509
1.72532
1.72043
1.70577
1.69599
1.68133
1.66667
1.65200
1.64223
1.66178
1.61779
1.60802
1.60802
1.60802
1.61290
1.61779
1.61779
1.65200
1.62757
1.62757
1.62757
1.64223
1.62268
1.61290
1.60313
1.59824
1.58847
1.57869
1.57380
1.55914
1.54448
1.53470
1.52004
1.52004
1.50538
1.49071
1.49071
1.49560
1.48583
1.48094
1.49560
1.47605
1.47116
1.46628
1.45650
1.45161
1.44184
1.45650
1.42717
1.41740
1.41251
1.40762
1.40274
1.40274
1.39785
1.41251
1.40274
1.40762
1.42717
1.46139
1.51515
1.58358
1.65689
1.73998
1.79863
1.85728
1.92082
1.92082
1.93548
1.94037
1.90127
1.88172
1.85728
1.83284
1.81329
1.79374
1.77419
1.74487
1.72532
1.71065
1.69599
1.68622
1.66667
1.64223
1.63245
1.62757
1.61290
1.60802
1.60802
1.60802
1.60313
1.60802
1.61290
1.61779
1.62268
1.62757
1.66667
1.64223
1.64712
1.64712
1.64712
1.64223
1.66178
1.63734
1.60802
1.59824
1.58358
1.60802
1.56891
1.56403
1.55425
1.54448
1.56403
1.52981
1.52004
1.51515
1.50538
1.52004
1.49071
1.48094
1.47605
1.47605
1.46628
1.45650
1.45650
1.44673
1.43695
1.42717
1.42229
1.41251
1.40274
1.40274
1.40274
1.41740
1.42717
1.46139
1.51515
1.57869
1.69110
1.73509
1.80841
1.89638
1.91593
1.94037
1.95992
1.97947
1.93548
1.91593
1.89150
1.86217
1.83773
1.81818
1.78397
1.75953
1.73509
1.71554
1.70088
1.68133
1.66667
1.65200
1.63245
1.62757
1.61290
1.60802
1.60313
1.59824
1.60313
1.60802
1.60802
1.61290
1.61779
1.62268
1.62268
1.66178
1.63245
1.63245
1.63245
1.63245
1.66178
1.63245
1.62268
1.61779
1.62757
1.60313
1.59335
1.58358
1.56891
1.56403
1.55425
1.54448
1.53959
1.55425
1.51026
1.49071
1.47116
1.46139
1.44184
1.43695
1.42717
1.42229
1.41740
1.41740
1.43206
1.40762
1.40274
1.40762
1.40274
1.41251
1.43206
1.48094
1.52981
1.59824
1.66667
1.74976
1.80841
1.86217
1.90127
1.92082
1.93548
1.93060
1.94526
1.89150
1.87195
1.84262
1.81818
1.79863
1.80841
1.75464
1.73509
1.72043
1.70088
1.68133
1.67155
1.66667
1.63734
1.62757
1.61779
1.60802
1.60802
1.60802
1.61290
1.64223
1.62757
1.63734
1.64223
1.64712
1.65689
1.65689
1.65689
1.65200
1.64223
1.63734
1.64712
1.63734
1.61290
1.59824
1.59335
1.58847
1.57869
1.57380
1.56403
1.55425
1.54936
1.53959
1.55425
1.52981
1.52004
1.51515
1.51515
1.51515
1.49560
1.48583
1.48094
1.45650
1.44673
1.43206
1.41740
1.42229
1.41740
1.44673
1.50049
1.57869
1.64223
1.72532
1.79863
1.89150
1.92082
1.95503
1.97458
1.97947
1.99902
1.95015
1.92082
1.89150
1.86217
1.83773
1.81329
1.79863
1.80352
1.74976
1.73509
1.71554
1.70088
1.68133
1.65689
1.64223
1.62757
1.62268
1.61779
1.61779
1.65200
1.64712
1.63734
1.64223
1.64712
1.65200
1.66667
1.65689
1.66667
1.67644
1.67155
1.67155
1.66178
1.65200
1.63734
1.62757
1.61290
1.63245
1.58847
1.57869
1.56891
1.55914
1.54936
1.53959
1.53959
1.52004
1.50538
1.49560
1.48583
1.47605
1.48583
1.46628
1.45650
1.45650
1.44673
1.44673
1.44673
1.48094
1.49560
1.54448
1.60802
1.68622
1.76442
1.83773
1.91593
1.94526
1.99413
1.98436
2.00391
1.96970
1.95015
1.93060
1.90616
1.88172
1.86706
1.86706
1.83773
1.80841
1.79374
1.77419
1.75464
1.73509
1.71554
1.70088
1.68133
1.66667
1.66178
1.65689
1.65200
1.65689
1.66667
1.66178
1.67155
1.67155
1.68133
1.71065
1.70088
1.70088
1.70088
1.71065
1.69599
1.68133
1.67155
1.66178
1.65689
1.64223
1.62757
1.63734
1.60802
1.59335
1.58847
1.57869
1.56891
1.57869
1.55425
1.54936
1.54448
1.53470
1.52493
1.51515
1.53959
1.50049
1.49071
1.51515
1.47605
1.47116
1.47605
1.49560
1.52981
1.57380
1.64223
1.72043
1.79863
1.87195
1.93060
1.98436
2.01369
2.03324
2.03324
2.02346
2.00391
1.97947
1.95503
1.94037
1.90616
1.88172
1.86217
1.84262
1.82307
1.80352
1.78886
1.76442
1.74487
1.73021
1.70577
1.72043
1.68622
1.67644
1.67155
1.68133
1.67644
1.68133
1.68622
1.69110
1.69599
1.70088
1.70577
1.70577
1.70577
1.71065
1.70577
1.70088
1.69110
1.68133
1.68133
1.65689
1.64223
1.63734
1.61290
1.59824
1.59335
1.57380
1.55914
1.55425
1.53959
1.53470
1.55425
1.52493
1.52004
1.52493
1.50538
1.50049
1.49560
1.48583
1.47605
1.50538
1.47116
1.48094
1.53470
1.55425
1.61779
1.69110
1.77419
1.84751
1.91593
1.96481
1.99902
2.01857
2.02835
2.03812
1.99902
1.97947
1.95015
1.93060
1.90616
1.88172
1.85728
1.83773
1.81818
1.81818
1.81818
1.76931
1.75464
1.73998
1.72532
1.71554
1.70577
1.72532
1.69110
1.72043
1.69599
1.68622
1.68622
1.68622
1.70577
1.69599
1.69599
1.70088
1.70088
1.70577
1.70088
1.69110
1.68133
1.70088
1.65689
1.63734
1.61779
1.60802
1.58847
1.57869
1.57380
1.59335
1.57380
1.57380
1.58358
1.56403
1.55914
1.55914
1.54448
1.53959
1.53470
1.52004
1.51515
1.50049
1.49560
1.48583
1.47116
1.46628
1.46139
1.47116
1.52981
1.54936
1.61779
1.69599
1.77908
1.86706
1.93548
2.01857
2.02346
2.03812
2.03324
2.02346
1.99902
1.97947
1.95503
1.92082
1.89638
1.87195
1.85239
1.83284
1.80841
1.79863
1.77908
1.78886
1.74487
1.73021
1.73021
1.70088
1.68622
1.67644
1.66667
1.66667
1.65689
1.66178
1.67155
1.68133
1.69110
1.70088
1.71554
1.71554
1.71554
1.73509
1.70577
1.69110
1.67644
1.66667
1.65689
1.63734
1.61779
1.60313
1.58358
1.59824
1.55914
1.53959
1.52981
1.52004
1.51026
1.50049
1.49560
1.49071
1.49560
1.47605
1.47116
1.46139
1.46139
1.45161
1.44673
1.44184
1.43206
1.42717
1.44184
1.44184
1.43695
1.46139
1.50538
1.56891
1.64223
1.73021
1.81329
1.88661
1.94037
1.98436
2.01857
2.00880
2.00391
2.01369
1.95503
1.93060
1.90127
1.88172
1.86217
1.85239
1.83773
1.79863
1.79374
1.78886
1.74487
1.73021
1.71065
1.69599
1.70577
1.67155
1.65689
1.64712
1.64223
1.65200
1.65689
1.64223
1.64712
1.65689
1.66178
1.69110
1.68133
1.68622
1.68622
1.68622
1.68622
1.68133
1.67155
1.66178
1.66178
1.63245
1.61779
1.59824
1.59335
1.56891
1.55425
1.56891
1.52981
1.52004
1.51026
1.50538
1.50049
1.48094
1.47605
1.46628
1.45650
1.44184
1.43695
1.44184
1.41740
1.41251
1.40762
1.39785
1.39785
1.39785
1.41251
1.45650
1.50049
1.56403
1.65689
1.72043
1.79374
1.86706
1.90127
1.93060
1.94037
1.94037
1.93060
1.91105
1.89638
1.85728
1.83773
1.81329
1.78886
1.76931
1.74487
1.73021
1.70577
1.68622
1.66667
1.64712
1.62757
1.61290
1.59335
1.58847
1.57380
1.56403
1.55914
1.56403
1.56403
1.56891
1.57869
1.59335
1.59824
1.61290
1.61290
1.60802
1.60802
1.59824
1.59824
1.58358
1.57869
1.56891
1.58847
1.54936
1.52981
1.52004
1.51515
1.49560
1.48583
1.47605
1.47605
1.46139
1.45161
1.45161
1.44184
1.43206
1.42717
1.41740
1.42717
1.39785
1.38807
1.37341
1.35875
1.35386
1.34409
1.34897
1.36852
1.40274
1.46139
1.52981
1.60802
1.69110
1.75464
1.80841
1.84751
1.86217
1.86706
1.89150
1.84262
1.82307
1.79374
1.77908
1.75953
1.73998
1.72532
1.73998
1.69110
1.67644
1.66178
1.64712
1.63245
1.63734
1.63734
1.59824
1.58847
1.59335
1.57380
1.57380
1.57380
1.57869
1.58358
1.62268
1.60313
1.60313
1.60802
1.60313
1.59824
1.59824
1.59335
1.58847
1.58358
1.57380
1.56891
1.55914
1.56891
1.54936
1.52493
1.51515
1.50049
1.49071
1.48094
1.47605
1.47116
1.48094
1.46628
1.45650
1.45161
1.44184
1.43695
1.46139
1.42229
1.41740
1.40762
1.40274
1.39785
1.40274
1.43206
1.47605
1.49560
1.55914
1.62757
1.70577
1.78397
1.81329
1.85239
1.88172
1.89150
1.89638
1.88172
1.86217
1.84262
1.82307
1.80352
1.79863
1.75953
1.74487
1.73021
1.71554
1.70577
1.68622
1.67155
1.65689
1.64712
1.65689
1.61779
1.61290
1.60802
1.60313
1.60313
1.60313
1.60802
1.61779
1.61290
1.62268
1.62757
1.62757
1.62757
1.64223
1.62757
1.62268
1.60802
1.59335
1.57869
1.56891
1.55425
1.53959
1.54936
1.52004
1.50538
1.50049
1.49071
1.51026
1.47116
1.46628
1.45161
1.44184
1.43695
1.43695
1.42229
1.42229
1.42229
1.42229
1.41740
1.43695
1.40762
1.40274
1.39785
1.39785
1.41251
1.43695
1.51515
1.54448
1.61290
1.68622
1.75953
1.81818
1.86706
1.92571
1.90616
1.90616
1.89150
1.87195
1.84751
1.81818
1.82307
1.76931
1.74976
1.73509
1.72043
1.72043
1.70088
1.68622
1.67155
1.66178
1.65200
1.63734
1.62757
1.62268
1.61779
1.61779
1.61779
1.65200
1.63245
1.65200
1.62757
1.62268
1.61779
1.61290
1.60802
1.60802
1.60313
1.60802
1.59824
1.58847
1.58358
1.57380
1.55914
1.55425
1.54936
1.52981
1.52004
1.51026
1.53470
1.50049
1.49071
1.48583
1.48094
1.47605
1.47116
1.46139
1.45650
1.44673
1.44184
1.43206
1.42717
1.42717
1.42229
1.41251
1.40762
1.41251
1.39785
1.40274
1.41251
1.44184
1.48094
1.55425
1.60313
1.68133
1.74976
1.80841
1.85728
1.91593
1.90127
1.92571
1.90127
1.88661
1.86217
1.84262
1.82307
1.79863
1.77419
1.75464
1.73998
1.72532
1.71554
1.70088
1.68622
1.67155
1.66178
1.65689
1.63734
1.62757
1.62268
1.62757
1.64223
1.62268
1.62268
1.62268
1.62757
1.62757
1.63245
1.63245
1.62757
1.65200
1.61779
1.61290
1.60313
1.59335
1.58847
1.60802
1.56891
1.56403
1.55425
1.54448
1.53959
1.52493
1.52004
1.51026
1.52004
1.50538
1.49560
1.49560
1.52004
1.49071
1.48583
1.47605
1.47605
1.47605
1.48094
1.48094
1.48094
1.48094
1.50049
1.46628
1.45161
1.44184
1.43206
1.42717
1.43695
1.45650
1.49071
1.54448
1.60802
1.67644
1.73998
1.79863
1.84751
1.90127
1.90127
1.93060
1.91105
1.89638
1.87683
1.85728
1.83773
1.82307
1.78886
1.76931
1.75464
1.73998
1.72532
1.71554
1.70577
1.69599
1.68133
1.67644
1.66178
1.64712
1.64223
1.63245
1.62757
1.62268
1.64712
1.62268
1.62268
1.62757
1.62268
1.62757
1.63245
1.63734
1.64223
1.64223
1.64712
1.64223
1.63734
1.62757
1.61779
1.61779
1.59335
1.57869
1.56891
1.55914
1.54448
1.53470
1.52493
1.52004
1.51515
1.53470
1.51026
1.49071
1.48583
1.51026
1.48583
1.47116
1.46139
1.45650
1.45161
1.44673
1.44673
1.47605
1.44673
1.43206
1.43206
1.43206
1.43206
1.47116
1.47116
1.50049
1.55914
1.61779
1.69110
1.75953
1.85239
1.87683
1.90616
1.92571
1.93060
1.92082
1.90616
1.91593
1.85728
1.83284
1.80841
1.79374
1.78397
1.77908
1.75464
1.74487
1.73509
1.72532
1.71065
1.69599
1.68133
1.66667
1.64712
1.63734
1.62757
1.62268
1.62268
1.62757
1.63245
1.65689
1.65200
1.65200
1.66178
1.66178
1.66667
1.66667
1.65689
1.65200
1.64712
1.64223
1.63245
1.62268
1.61290
1.60802
1.59824
1.59335
1.56891
1.55425
1.54448
1.52981
1.55425
1.52981
1.51026
1.50538
1.49560
1.49560
1.51515
1.48583
1.48094
1.47605
1.47116
1.46139
1.45650
1.45161
1.44673
1.44673
1.44184
1.44673
1.46628
1.50049
1.53470
1.58358
1.64712
1.72043
1.78397
1.84262
1.88661
1.92082
1.94037
1.95015
1.93060
1.91105
1.88661
1.85728
1.83284
1.80352
1.80352
1.75953
1.74487
1.72532
1.71065
1.71065
1.67155
1.65200
1.63734
1.62268
1.61290
1.60313
1.59824
1.61779
1.60313
1.60802
1.61290
1.62268
1.63245
1.65689
1.65689
1.65689
1.66178
1.66178
1.69110
1.69110
1.65689
1.65689
1.63734
1.63245
1.61779
1.63734
1.60802
1.58358
1.56891
1.55425
1.53959
1.52981
1.52981
1.51515
1.51026
1.50538
1.50049
1.50049
1.49071
1.48094
1.49560
1.46628
1.45161
1.44184
1.43695
1.43206
1.43206
1.43695
1.45650
1.49560
1.54936
1.60313
1.67155
1.74487
1.80841
1.86706
1.93060
1.94037
1.98925
1.96970
1.94526
1.92571
1.90616
1.88661
1.87195
1.82796
1.81329
1.79374
1.77908
1.76442
1.74976
1.73509
1.72043
1.71554
1.69110
1.67644
1.66667
1.65200
1.64712
1.64223
1.64223
1.64223
1.65689
1.66178
1.66178
1.67155
1.67644
1.68133
1.68622
1.68133
1.67155
1.67155
1.66178
1.65200
1.64223
1.63245
1.62268
1.60802
1.59824
1.58847
1.56403
1.55425
1.53959
1.52981
1.54448
1.51515
1.51026
1.50538
1.50049
1.49560
1.49071
1.48583
1.48094
1.47605
1.46628
1.46139
1.47605
1.46628
1.48583
1.52493
1.59335
1.65200
1.72043
1.79374
1.86706
1.91105
1.94526
1.96481
1.96970
1.95992
1.94037
1.92082
1.89638
1.86706
1.84262
1.81818
1.81818
1.76931
1.74487
1.72532
1.70577
1.68622
1.67155
1.64712
1.63245
1.62268
1.60313
1.58847
1.57869
1.57380
1.56891
1.56891
1.57380
1.57380
1.57869
1.57869
1.57869
1.57380
1.56403
1.55425
1.54936
1.52981
1.52004
1.53959
1.49560
1.47605
1.46139
1.44673
1.43695
1.42229
1.41251
1.38807
1.37341
1.36364
1.34409
1.32942
1.32454
1.31476
1.31476
1.31476
1.31965
1.31965
1.31965
1.35386
1.31476
1.31476
1.30499
1.33431
1.31965
1.33920
1.38807
1.45650
1.52981
1.59824
1.66667
1.72043
1.75464
1.76931
1.77419
1.75464
1.73509
1.70577
1.67644
1.64712
1.62268
1.59824
1.57869
1.55914
1.54448
1.52981
1.52004
1.53959
1.50538
1.50049
1.49071
1.48583
1.48583
1.48094
1.48583
1.49071
1.49560
1.49560
1.50049
1.52004
1.53470
1.50049
1.49071
1.48583
1.47116
1.46139
1.44184
1.43206
1.40762
1.38319
1.36364
1.34897
1.33431
1.31965
1.30987
1.32454
1.27566
1.26100
1.24633
1.22190
1.20235
1.21212
1.16813
1.15347
1.13881
1.12903
1.11437
1.11437
1.10459
1.10459
1.09482
1.11437
1.07527
1.06061
1.06061
1.08993
1.10459
1.12414
1.17302
1.24633
1.34409
1.44673
1.55425
1.64223
1.72532
1.77908
1.82796
1.81818
1.83284
1.79863
1.77908
1.75464
1.73509
1.71554
1.70088
1.68622
1.67644
1.66667
1.65200
1.64223
1.63245
1.62757
1.62268
1.59824
1.59335
1.59824
1.60313
1.61290
1.64712
1.62268
1.63245
1.63734
1.63734
1.64223
1.65200
1.66178
1.67155
1.67644
1.68622
1.67644
1.67644
1.67155
1.66178
1.64712
1.65200
1.61779
1.60802
1.59824
1.59335
1.59824
1.60313
1.60802
1.61779
1.64223
1.64712
1.61290
1.60802
1.60313
1.59824
1.59335
1.59824
1.59335
1.59335
1.59335
1.59824
1.60802
1.60313
1.60802
1.61779
1.64223
1.68133
1.73998
1.80352
1.88172
1.95992
2.06256
2.09189
2.13587
2.16031
2.19941
2.17498
2.15054
2.12610
2.09677
2.06256
2.04301
2.01857
2.02346
2.00880
1.97947
1.96970
1.93060
1.91105
1.89638
1.87683
1.89150
1.83773
1.82307
1.81329
1.80841
1.80352
1.79863
1.79863
1.79863
1.79863
1.79863
1.80352
1.79863
1.79863
1.79863
1.79374
1.79374
1.77908
1.76931
1.75464
1.74487
1.73021
1.71554
1.70088
1.71065
1.67155
1.65689
1.63734
1.63245
1.62757
1.61779
1.61290
1.61779
1.60802
1.60313
1.59335
1.58358
1.56891
1.56403
1.54448
1.52981
1.52004
1.51515
1.50049
1.49560
1.49560
1.50049
1.52004
1.55914
1.61290
1.68622
1.76442
1.84262
1.91593
1.97458
2.02346
2.04790
2.05767
2.05767
2.03812
2.01369
1.98436
1.95992
1.92571
1.90127
1.87683
1.86217
1.84262
1.83773
1.81329
1.79863
1.77908
1.76442
1.74976
1.73021
1.72043
1.70577
1.72043
1.70088
1.70088
1.70088
1.71065
1.72043
1.73509
1.74487
1.75464
1.76442
1.76931
1.77419
1.77419
1.76931
1.75953
1.75464
1.73998
1.73021
1.72043
1.70577
1.69599
1.69110
1.67644
1.66667
1.65689
1.65200
1.63734
1.63245
1.65200
1.62268
1.61290
1.60802
1.59824
1.59335
1.58358
1.57380
1.59335
1.54936
1.53470
1.53959
1.50538
1.49071
1.49071
1.50049
1.52493
1.57380
1.64223
1.73021
1.81329
1.90127
1.97947
2.04790
2.09189
2.11632
2.12610
2.11632
2.09677
2.06745
2.03324
2.00391
1.97458
1.95503
1.95015
1.90616
1.87195
1.85239
1.83773
1.81818
1.80352
1.78886
1.77908
1.76931
1.77419
1.76931
1.77419
1.77419
1.77908
1.78397
1.81818
1.79374
1.79374
1.78886
1.78886
1.78397
1.78397
1.77908
1.77419
1.76931
1.77419
1.75953
1.74976
1.73998
1.72532
1.71554
1.70088
1.68622
1.67155
1.65200
1.64223
1.63734
1.62757
1.64223
1.62268
1.61779
1.61290
1.60802
1.60313
1.58847
1.56891
1.55914
1.53470
1.52004
1.52981
1.50538
1.50538
1.51515
1.53959
1.56891
1.62268
1.69110
1.75953
1.83773
1.90616
1.96481
2.01369
2.04301
2.06256
2.06256
2.05279
2.03324
2.01857
1.97947
1.94526
1.91105
1.87683
1.84751
1.81818
1.79374
1.77419
1.78886
1.73998
1.72043
1.73998
1.69599
1.68622
1.67155
1.69110
1.66178
1.66178
1.66667
1.71065
1.70088
1.72043
1.74487
1.76442
1.77908
1.79374
1.79374
1.80352
1.79374
1.75953
1.73998
1.72043
1.70088
1.68133
1.65689
1.63734
1.63734
1.60313
1.58358
1.56891
1.55914
1.54448
1.56891
1.52493
1.51026
1.50049
1.48583
1.47116
1.46628
1.45161
1.43206
1.42717
1.41251
1.42717
1.39785
1.40274
1.41740
1.47116
1.50049
1.56403
1.63734
1.71065
1.77908
1.84751
1.88172
1.91105
1.92082
1.92082
1.93060
1.88172
1.85728
1.82796
1.79374
1.76442
1.73509
1.71554
1.70088
1.68622
1.67644
1.68133
1.65200
1.63734
1.61779
1.59824
1.58358
1.58358
1.56403
1.56403
1.56403
1.56891
1.57869
1.59824
1.61290
1.62268
1.63245
1.64223
1.64712
1.64712
1.64223
1.64223
1.63734
1.62757
1.61779
1.63734
1.62757
1.59335
1.56891
1.54936
1.53470
1.51515
1.50049
1.49071
1.47605
1.46628
1.46139
1.47116
1.45650
1.44673
1.44184
1.43695
1.42717
1.41740
1.40762
1.39785
1.38319
1.38319
1.40762
1.41740
1.46139
1.52981
1.61290
1.74487
1.81329
1.89150
1.96481
2.00880
2.04301
2.04790
2.04790
2.02835
2.00391
1.99413
1.95015
1.94037
1.88172
1.85728
1.83284
1.81329
1.79863
1.78397
1.78397
1.73509
1.71554
1.70577
1.68622
1.67644
1.67155
1.66178
1.65689
1.66178
1.65689
1.66178
1.67155
1.66178
1.66178
1.66667
1.69110
1.66178
1.66178
1.66178
1.65689
1.68622
1.64223
1.63734
1.62268
1.62268
1.59824
1.58358
1.56891
1.56891
1.54448
1.53470
1.52493
1.51515
1.51026
1.49560
1.49071
1.48094
1.47605
1.47116
1.46139
1.46139
1.48583
1.44673
1.43695
1.43695
1.46628
1.45161
1.49071
1.54936
1.62757
1.71554
1.82307
1.89638
1.96970
2.02346
2.05767
2.06745
2.05767
2.03812
2.02835
1.97458
1.94037
1.90616
1.88172
1.86217
1.84751
1.83284
1.81329
1.79863
1.77908
1.75953
1.74976
1.73021
1.72043
1.70577
1.70088
1.69110
1.71065
1.69110
1.69110
1.69110
1.69599
1.70577
1.74487
1.72043
1.72532
1.73021
1.72532
1.72043
1.71065
1.69599
1.67644
1.69599
1.64712
1.62757
1.61290
1.59335
1.57869
1.56403
1.54936
1.53470
1.52493
1.51026
1.50049
1.52493
1.48583
1.48583
1.51515
1.48583
1.48094
1.48094
1.47116
1.46139
1.45161
1.43695
1.42717
1.42229
1.41251
1.41740
1.44184
1.49560
1.54936
1.63734
1.72043
1.82307
1.92082
1.97947
2.01369
2.01857
2.03812
2.00880
1.98925
1.96481
1.93548
1.90616
1.88661
1.84262
1.81818
1.79374
1.76931
1.74487
1.73021
1.72532
1.69110
1.67644
1.65689
1.65200
1.64712
1.64223
1.67644
1.65689
1.65200
1.65200
1.66178
1.66667
1.67644
1.68133
1.68622
1.69110
1.69110
1.69599
1.69599
1.69599
1.68133
1.67155
1.65689
1.64223
1.65200
1.63734
1.59335
1.57869
1.56403
1.57869
1.54936
1.54448
1.53470
1.52004
1.51026
1.50049
1.49560
1.48583
1.47605
1.47116
1.50049
1.46628
1.46139
1.45650
1.45650
1.44184
1.43206
1.42717
1.45650
1.44673
1.48094
1.53470
1.61290
1.70088
1.79374
1.87683
1.97947
2.01857
2.02835
2.03324
2.02835
2.00391
1.97947
1.95992
1.95992
1.90616
1.88172
1.86217
1.84262
1.82307
1.80352
1.81329
1.75953
1.73998
1.72043
1.70088
1.68622
1.67644
1.66667
1.66178
1.65689
1.66178
1.66178
1.66178
1.70088
1.68133
1.69110
1.69599
1.70577
1.71554
1.71554
1.72043
1.73509
1.71065
1.70577
1.68133
1.66178
1.64223
1.61779
1.59824
1.60313
1.55425
1.53959
1.52493
1.52004
1.51026
1.50538
1.50538
1.49560
1.49071
1.49071
1.51026
1.47605
1.47116
1.46628
1.46628
1.45650
1.45650
1.45650
1.45650
1.45161
1.44673
1.47116
1.45161
1.47116
1.52981
1.56891
1.64223
1.72532
1.84262
1.89150
1.95992
2.00391
2.03812
2.04790
2.02835
2.00880
1.97947
1.95015
1.92082
1.89638
1.87195
1.88172
1.83284
1.81329
1.79374
1.76931
1.74487
1.72043
1.69599
1.67155
1.65200
1.63734
1.63245
1.62757
1.62757
1.63245
1.64223
1.64712
1.65689
1.66178
1.67155
1.69110
1.68133
1.68133
1.68133
1.67644
1.67644
1.66178
1.65200
1.63734
1.63734
1.61290
1.57380
1.55425
1.53470
1.52004
1.52004
1.50049
1.49560
1.49560
1.50049
1.50049
1.50049
1.49560
1.49071
1.48583
1.47116
1.47116
1.45161
1.43695
1.43206
1.42717
1.42229
1.42229
1.42229
1.41740
1.41740
1.42229
1.45161
1.48583
1.54936
1.62757
1.72043
1.82796
1.89150
1.95992
2.00391
2.05767
2.04301
2.03812
2.00880
1.98436
1.95015
1.92082
1.90127
1.88661
1.84262
1.82307
1.79863
1.77419
1.74976
1.73021
1.71554
1.68622
1.66667
1.68133
1.65200
1.63245
1.62757
1.65689
1.64223
1.63245
1.63734
1.65200
1.66667
1.67644
1.68622
1.69599
1.70088
1.70577
1.70088
1.70577
1.69110
1.67155
1.65200
1.63245
1.61290
1.58847
1.59824
1.55914
1.54448
1.52981
1.52004
1.52981
1.50049
1.49560
1.49071
1.48094
1.47605
1.47116
1.49560
1.46139
1.45161
1.44673
1.45650
1.42717
1.41740
1.40274
1.39785
1.41251
1.40274
1.40274
1.42229
1.46139
1.52493
1.59824
1.68622
1.76931
1.84262
1.90616
1.98436
1.99902
2.00391
2.00391
1.98925
1.96970
1.94526
1.91105
1.88172
1.85239
1.82796
1.80352
1.78886
1.76931
1.75953
1.75464
1.72043
1.70577
1.69110
1.67155
1.65689
1.64223
1.63245
1.62757
1.62757
1.63245
1.63734
1.65200
1.66178
1.68622
1.70088
1.69599
1.70088
1.70088
1.70088
1.69599
1.68622
1.66667
1.64712
1.63245
1.63245
1.59335
1.57380
1.56403
1.54936
1.55914
1.53959
1.52493
1.51515
1.51515
1.50538
1.50538
1.52981
1.49560
1.49071
1.48583
1.50049
1.47116
1.46628
1.45161
1.44673
1.45161
1.43206
1.42229
1.42717
1.43206
1.45161
1.48583
1.56891
1.61779
1.69599
1.78886
1.87683
1.95015
2.01369
2.05279
2.10655
2.07722
2.06745
2.04790
2.02346
1.99413
1.96481
1.94037
1.94526
1.89150
1.87195
1.85728
1.83773
1.82796
1.80841
1.79374
1.77419
1.76931
1.73998
1.75953
1.71065
1.71554
1.70088
1.69110
1.69110
1.70088
1.70577
1.72532
1.72532
1.72532
1.73021
1.73021
1.72043
1.72043
1.71554
1.70577
1.72532
1.68622
1.66178
1.64712
1.62268
1.61779
1.58847
1.57380
1.55914
1.54448
1.54448
1.52493
1.52493
1.52981
1.51026
1.50049
1.49071
1.48583
1.47116
1.46139
1.48583
1.44184
1.43206
1.42229
1.41740
1.41251
1.41740
1.43206
1.44673
1.48094
1.53470
1.60802
1.69110
1.78397
1.87195
1.94037
1.98925
2.02835
2.04301
2.04301
2.05767
2.00391
1.97458
1.94037
1.90616
1.88172
1.83284
1.80352
1.77908
1.75464
1.73021
1.71554
1.69110
1.67644
1.65200
1.63245
1.61779
1.60802
1.60313
1.59824
1.63245
1.60802
1.61290
1.62268
1.63734
1.64712
1.66178
1.66667
1.67155
1.67155
1.67644
1.67155
1.66178
1.65689
1.64712
1.63734
1.61779
1.59824
1.58358
1.57869
1.54936
1.53470
1.52493
1.51026
1.50538
1.49560
1.48583
1.48094
1.46628
1.46139
1.47116
1.44673
1.43695
1.45650
1.42717
1.41251
1.40274
1.39296
1.39296
1.38807
1.40274
1.43206
1.51026
1.55425
1.64223
1.73021
1.81818
1.90127
1.95992
2.00391
2.02835
2.06256
2.02835
2.00880
1.98436
1.96481
1.93060
1.90127
1.87195
1.84262
1.81818
1.78886
1.75953
1.73509
1.71065
1.71065
1.66667
1.65200
1.63734
1.62268
1.63734
1.61290
1.60802
1.60802
1.61779
1.62268
1.63734
1.65200
1.66667
1.67644
1.69110
1.69599
1.69599
1.69599
1.68622
1.68622
1.66667
1.64712
1.62757
1.60802
1.58847
1.56891
1.58847
1.54448
1.52981
1.52004
1.52004
1.50049
1.49071
1.48094
1.47116
1.47605
1.45161
1.44184
1.43695
1.43206
1.42717
1.41251
1.40274
1.39296
1.40762
1.38807
1.40274
1.43695
1.49071
1.57380
1.69110
1.75953
1.85239
1.93060
1.98925
2.03324
2.05279
2.05279
2.04301
2.01857
1.99413
1.96970
1.95015
1.89150
1.86217
1.83284
1.82307
1.78886
1.77908
1.74487
1.73021
1.71065
1.69110
1.67644
1.66178
1.65200
1.64223
1.64223
1.64223
1.64223
1.67644
1.66178
1.66667
1.67644
1.68622
1.72043
1.69599
1.69110
1.69110
1.68622
1.67644
1.66667
1.65200
1.67644
1.62757
1.61290
1.59824
1.58358
1.57380
1.55425
1.53959
1.52981
1.54936
1.51515
1.49560
1.49071
1.48583
1.51515
1.49071
1.48094
1.45650
1.45161
1.44673
1.43695
1.46139
1.42717
1.41740
1.40762
1.40274
1.40762
1.43206
1.46139
1.51026
1.58847
1.68133
1.77419
1.86706
1.95015
2.01369
2.04301
2.06745
2.06745
2.05767
2.03324
2.00880
1.98436
1.94037
1.91105
1.88661
1.85728
1.83284
1.80841
1.79863
1.76442
1.74487
1.72532
1.70088
1.70577
1.69110
1.66178
1.65200
1.65200
1.65200
1.68622
1.66667
1.66667
1.67155
1.69599
1.68133
1.68622
1.68622
1.68622
1.70577
1.68133
1.67155
1.66178
1.65200
1.67155
1.63245
1.60802
1.59335
1.57380
1.56403
1.54936
1.53959
1.56403
1.52981
1.52004
1.51026
1.50538
1.49071
1.48583
1.47605
1.49560
1.47116
1.46139
1.45161
1.44673
1.46139
1.43695
1.43206
1.44673
1.41251
1.40762
1.40274
1.40762
1.43206
1.47605
1.53959
1.62757
1.73509
1.82307
1.91105
1.98436
2.03812
2.07234
2.08211
2.07722
2.06256
2.03324
1.99902
1.96481
1.93060
1.90616
1.89150
1.85239
1.83284
1.83773
1.78397
1.75953
1.73509
1.71554
1.70088
1.69599
1.66667
1.66667
1.67644
1.65689
1.65200
1.65689
1.65689
1.66667
1.70577
1.68622
1.69110
1.70088
1.71065
1.73021
1.71065
1.70577
1.69599
1.68622
1.66667
1.66667
1.63245
1.61779
1.59824
1.61779
1.58358
1.59335
1.55425
1.54448
1.53470
1.52981
1.52004
1.51026
1.49560
1.50538
1.48094
1.47605
1.46139
1.45650
1.45161
1.45161
1.44184
1.42717
1.41740
1.41251
1.40762
1.40762
1.42717
1.41740
1.43206
1.47116
1.56403
1.60313
1.69599
1.78397
1.87195
1.93548
1.99413
2.03324
2.04790
2.04790
2.03812
2.03812
1.99413
1.96481
1.93548
1.90616
1.88661
1.87195
1.82796
1.79863
1.77419
1.74976
1.72532
1.70577
1.69110
1.67644
1.66667
1.65200
1.64712
1.64223
1.65689
1.63245
1.63245
1.63734
1.66667
1.66178
1.67644
1.68622
1.69599
1.71065
1.70577
1.70088
1.69110
1.67644
1.66667
1.66178
1.63734
1.61779
1.60313
1.57869
1.56891
1.55425
1.53959
1.52493
1.51026
1.50538
1.52004
1.49071
1.48094
1.48094
1.47605
1.47116
1.46628
1.46139
1.46139
1.45161
1.45650
1.43695
1.43206
1.42717
1.42229
1.41251
1.40762
1.43206
1.41251
1.41251
1.42229
1.45161
1.52493
1.56891
1.65200
1.73509
1.81329
1.92082
1.95503
1.99413
2.01857
2.03324
2.02346
2.00880
1.98925
1.96481
1.95015
1.91105
1.88172
1.85728
1.83284
1.80841
1.78886
1.76931
1.77908
1.72532
1.70088
1.68133
1.66178
1.64223
1.63245
1.62268
1.61290
1.61290
1.61290
1.61779
1.63245
1.63734
1.64712
1.65689
1.67155
1.67644
1.70088
1.68133
1.68133
1.67155
1.65689
1.64223
1.62757
1.62757
1.57869
1.55914
1.53959
1.53959
1.51515
1.51026
1.50049
1.49071
1.51026
1.48094
1.47116
1.46628
1.45650
1.45650
1.46628
1.45161
1.44184
1.45650
1.44184
1.43206
1.42717
1.42229
1.41251
1.39296
1.39296
1.38319
1.39785
1.40274
1.43695
1.49071
1.56891
1.65200
1.73509
1.82796
1.90616
1.96481
2.03324
2.02835
2.03812
2.02835
2.00880
1.98436
1.96481
1.94526
1.89150
1.86706
1.83773
1.81329
1.78886
1.76442
1.74487
1.73021
1.73509
1.68622
1.66667
1.65200
1.64223
1.62757
1.62268
1.61779
1.61779
1.62268
1.64223
1.64712
1.65200
1.65689
1.67155
1.69599
1.69110
1.69599
1.69110
1.68622
1.70577
1.69110
1.66667
1.62757
1.60802
1.59335
1.57380
1.56403
1.54936
1.54936
1.52981
1.52004
1.51026
1.51515
1.49560
1.48583
1.48094
1.47116
1.47605
1.46139
1.44673
1.44184
1.43206
1.42717
1.41740
1.44184
1.41251
1.39785
1.39296
1.38807
1.41251
1.39785
1.41251
1.45161
1.52004
1.61779
1.67155
1.76442
1.85239
1.92571
1.98436
2.02835
2.04790
2.05279
2.04790
2.03812
2.03812
1.98436
1.95503
1.92571
1.89638
1.87683
1.83773
1.81329
1.78886
1.77419
1.74487
1.72532
1.73509
1.69599
1.68133
1.66667
1.65689
1.65200
1.65689
1.66178
1.67644
1.69599
1.71065
1.72532
1.73998
1.74487
1.74487
1.74487
1.75953
1.73509
1.72043
1.71065
1.69110
1.68133
1.66667
1.65200
1.63734
1.62757
1.63734
1.59335
1.61290
1.57869
1.56403
1.55914
1.54936
1.54448
1.53959
1.52493
1.51515
1.50049
1.49071
1.48583
1.48094
1.47116
1.46139
1.45650
1.45161
1.44184
1.43695
1.43206
1.43695
1.44673
1.48583
1.51026
1.57380
1.65689
1.77908
1.85239
1.93060
1.99902
2.04790
2.11144
2.09677
2.09189
2.07722
2.05767
2.02835
1.99902
1.98436
1.92571
1.89150
1.86217
1.83773
1.82796
1.77908
1.75464
1.73509
1.71065
1.69110
1.67644
1.65689
1.64712
1.63245
1.65200
1.62757
1.62757
1.63734
1.67644
1.66178
1.67155
1.68622
1.69599
1.73021
1.71065
1.70577
1.70088
1.69110
1.67644
1.66667
1.64712
1.62757
1.60802
1.59824
1.56891
1.55425
1.54936
1.52493
1.50538
1.49071
1.48094
1.47605
1.48583
1.46628
1.47116
1.47116
1.47605
1.49071
1.48583
1.48583
1.48094
1.50538
1.48583
1.46628
1.45650
1.47605
1.45161
1.45650
1.48094
1.52004
1.57869
1.69110
1.74487
1.82796
1.90616
1.96970
2.01857
2.05279
2.05767
2.06256
2.04301
2.01857
1.99413
1.96481
1.93548
1.93060
1.87195
1.84262
1.81818
1.80352
1.77908
1.76442
1.77908
1.73509
1.72043
1.70088
1.67644
1.66178
1.64712
1.64223
1.63734
1.63734
1.66667
1.64712
1.65200
1.65689
1.65689
1.65200
1.64712
1.65200
1.63245
1.62268
1.61290
1.63734
1.59824
1.58847
1.58847
1.57869
1.57869
1.56891
1.55914
1.57869
1.54936
1.53470
1.52493
1.51515
1.52981
1.49071
1.47116
1.46139
1.44673
1.46628
1.42717
1.41251
1.39785
1.38807
1.38319
1.38319
1.38319
1.39296
1.41740
1.47116
1.53959
1.62268
1.71554
1.81818
1.89150
1.95992
2.01369
2.04301
2.05767
2.06256
2.04790
2.02346
1.99902
1.96481
1.93548
1.92082
1.90127
1.83773
1.80352
1.78397
1.77908
1.73021
1.71065
1.69110
1.67155
1.64712
1.63245
1.61779
1.60313
1.59335
1.58847
1.59335
1.60313
1.63734
1.63245
1.64223
1.65689
1.67155
1.67644
1.69599
1.67155
1.66667
1.65689
1.64712
1.63245
1.63734
1.61290
1.58847
1.56891
1.55914
1.54448
1.54936
1.52493
1.51515
1.50538
1.50049
1.50538
1.49071
1.48094
1.47605
1.48094
1.46628
1.45650
1.44673
1.45161
1.42717
1.41251
1.40274
1.39296
1.42229
1.40762
1.42717
1.48094
1.54936
1.63734
1.73509
1.83284
1.91593
1.98436
2.03324
2.06745
2.08211
2.07722
2.06256
2.03812
2.01369
1.97947
1.95015
1.93548
1.88172
1.85239
1.82307
1.79863
1.77908
1.75953
1.73998
1.72043
1.70577
1.68622
1.67644
1.66667
1.65200
1.64223
1.65689
1.64223
1.64223
1.64712
1.65689
1.66667
1.67155
1.67644
1.67644
1.67644
1.67155
1.66667
1.66178
1.65689
1.64223
1.62268
1.61290
1.61779
1.57869
1.56403
1.55425
1.53470
1.52004
1.50538
1.49071
1.47605
1.46628
1.47605
1.45161
1.44184
1.43695
1.43206
1.43206
1.43206
1.42229
1.41740
1.41251
1.40762
1.39785
1.39296
1.39785
1.43695
1.44673
1.50049
1.57380
1.66667
1.76931
1.86217
1.94037
2.00880
2.05279
2.07722
2.08211
2.07722
2.05279
2.02835
1.99902
1.96970
1.93548
1.91593
1.87195
1.84751
1.82307
1.79863
1.77419
1.74976
1.73021
1.71554
1.69599
1.68133
1.66667
1.65689
1.64712
1.64223
1.65200
1.63734
1.63734
1.66667
1.64712
1.65689
1.66667
1.67155
1.70088
1.68622
1.68622
1.68133
1.67155
1.66178
1.64712
1.62757
1.64223
1.59335
1.57380
1.56403
1.54936
1.53959
1.52981
1.52004
1.51515
1.50538
1.49071
1.48583
1.49071
1.46628
1.46139
1.48583
1.47605
1.44673
1.43695
1.43206
1.42229
1.42717
1.41251
1.39785
1.39296
1.38807
1.39296
1.41740
1.45161
1.52493
1.59335
1.68622
1.77908
1.86706
1.94526
1.99902
2.03324
2.06745
2.05767
2.05279
2.03324
2.00391
1.97458
1.96970
1.90616
1.87195
1.83773
1.80841
1.78397
1.75464
1.73509
1.72532
1.69599
1.68133
1.66667
1.65689
1.64712
1.66667
1.64223
1.63245
1.62757
1.63245
1.63734
1.64223
1.67155
1.66178
1.66667
1.67155
1.68133
1.67644
1.67155
1.66178
1.65200
1.63734
1.62268
1.60313
1.60802
1.57380
1.54936
1.52981
1.52004
1.50538
1.49560
1.50538
1.48094
1.47605
1.47116
1.47116
1.46139
1.47116
1.45161
1.44184
1.43695
1.46139
1.43206
1.42717
1.42717
1.42229
1.41740
1.41251
1.42229
1.41251
1.42229
1.44673
1.48583
1.55425
1.64223
1.73998
1.83284
1.92082
1.99413
2.08211
2.08211
2.09189
2.08700
2.07234
2.05767
2.00391
1.96970
1.93548
1.90127
1.87683
1.85728
1.81818
1.79374
1.77419
1.74976
1.73998
1.70577
1.68622
1.66667
1.64712
1.63245
1.61779
1.60802
1.64223
1.61290
1.61779
1.64712
1.64223
1.65200
1.66667
1.67155
1.67644
1.68133
1.68133
1.67644
1.67155
1.65689
1.64712
1.66178
1.61290
1.59335
1.56891
1.55425
1.53959
1.53470
1.52004
1.51026
1.50049
1.49560
1.48583
1.48583
1.47116
1.46139
1.45650
1.45161
1.44673
1.47605
1.44673
1.44184
1.43695
1.46139
1.42229
1.40762
1.38807
1.37341
1.37341
1.37341
1.40274
1.45161
1.52493
1.63245
1.74487
1.82796
1.92082
1.99902
2.05279
2.09677
2.10655
2.09189
2.07234
2.04790
2.01369
1.99902
1.95015
1.91593
1.88661
1.85728
1.83773
1.80352
1.77908
1.74976
1.72532
1.70088
1.68133
1.66178
1.64712
1.63734
1.62757
1.62268
1.62268
1.61779
1.64712
1.62757
