2022-12-02 13:31:43.258208
2022-12-02 13:31:43.267148
2022-12-02 13:31:43.275271
2022-12-02 13:31:43.287599
2022-12-02 13:31:43.294810
2022-12-02 13:31:43.303813
2022-12-02 13:31:43.312124
2022-12-02 13:31:43.323886
2022-12-02 13:31:43.332383
2022-12-02 13:31:43.340442
2022-12-02 13:31:43.352399
2022-12-02 13:31:43.360562
2022-12-02 13:31:43.369428
2022-12-02 13:31:43.377885
2022-12-02 13:31:43.389986
2022-12-02 13:31:43.398352
2022-12-02 13:31:43.405924
2022-12-02 13:31:43.418426
2022-12-02 13:31:43.427030
2022-12-02 13:31:43.435252
2022-12-02 13:31:43.442579
2022-12-02 13:31:43.455082
2022-12-02 13:31:43.463480
2022-12-02 13:31:43.471659
2022-12-02 13:31:43.483562
2022-12-02 13:31:43.492432
2022-12-02 13:31:43.499934
2022-12-02 13:31:43.508494
2022-12-02 13:31:43.521183
2022-12-02 13:31:43.529388
2022-12-02 13:31:43.536735
2022-12-02 13:31:43.550178
2022-12-02 13:31:43.557807
2022-12-02 13:31:43.566016
2022-12-02 13:31:43.574374
2022-12-02 13:31:43.586058
2022-12-02 13:31:43.595174
2022-12-02 13:31:43.603351
2022-12-02 13:31:43.615369
2022-12-02 13:31:43.623331
2022-12-02 13:31:43.631532
2022-12-02 13:31:43.639395
2022-12-02 13:31:43.651373
2022-12-02 13:31:43.660256
2022-12-02 13:31:43.668733
2022-12-02 13:31:43.680773
2022-12-02 13:31:43.689125
2022-12-02 13:31:43.697344
2022-12-02 13:31:43.705673
2022-12-02 13:31:43.717016
2022-12-02 13:31:43.725985
2022-12-02 13:31:43.734123
2022-12-02 13:31:43.742314
2022-12-02 13:31:43.754567
2022-12-02 13:31:43.763028
2022-12-02 13:31:43.771192
2022-12-02 13:31:43.782980
2022-12-02 13:31:43.790957
2022-12-02 13:31:43.799725
2022-12-02 13:31:43.808107
2022-12-02 13:31:43.820091
2022-12-02 13:31:43.828436
2022-12-02 13:31:43.836525
2022-12-02 13:31:43.848439
2022-12-02 13:31:43.856492
2022-12-02 13:31:43.865385
2022-12-02 13:31:43.873206
2022-12-02 13:31:43.885658
2022-12-02 13:31:43.893862
2022-12-02 13:31:43.902041
2022-12-02 13:31:43.914411
2022-12-02 13:31:43.922714
2022-12-02 13:31:43.930807
2022-12-02 13:31:43.938528
2022-12-02 13:31:43.951051
2022-12-02 13:31:43.959453
2022-12-02 13:31:43.967229
2022-12-02 13:31:43.980066
2022-12-02 13:31:43.988051
2022-12-02 13:31:43.995643
2022-12-02 13:31:44.004571
2022-12-02 13:31:44.015853
2022-12-02 13:31:44.024439
2022-12-02 13:31:44.032650
2022-12-02 13:31:44.045176
2022-12-02 13:31:44.053770
2022-12-02 13:31:44.061744
2022-12-02 13:31:44.069345
2022-12-02 13:31:44.082173
2022-12-02 13:31:44.090291
2022-12-02 13:31:44.098585
2022-12-02 13:31:44.110286
2022-12-02 13:31:44.118663
2022-12-02 13:31:44.127477
2022-12-02 13:31:44.135098
2022-12-02 13:31:44.147604
2022-12-02 13:31:44.155876
2022-12-02 13:31:44.163757
2022-12-02 13:31:44.176213
2022-12-02 13:31:44.184230
2022-12-02 13:31:44.192875
2022-12-02 13:31:44.201039
2022-12-02 13:31:44.213399
2022-12-02 13:31:44.221518
2022-12-02 13:31:44.229845
2022-12-02 13:31:44.242037
2022-12-02 13:31:44.250646
2022-12-02 13:31:44.258458
2022-12-02 13:31:44.267490
2022-12-02 13:31:44.278801
2022-12-02 13:31:44.286557
2022-12-02 13:31:44.295109
2022-12-02 13:31:44.307188
2022-12-02 13:31:44.315193
2022-12-02 13:31:44.323596
2022-12-02 13:31:44.332198
2022-12-02 13:31:44.344077
2022-12-02 13:31:44.352347
2022-12-02 13:31:44.360610
2022-12-02 13:31:44.372667
2022-12-02 13:31:44.381456
2022-12-02 13:31:44.388854
2022-12-02 13:31:44.397549
2022-12-02 13:31:44.409734
2022-12-02 13:31:44.418285
2022-12-02 13:31:44.425989
2022-12-02 13:31:44.437860
2022-12-02 13:31:44.446183
2022-12-02 13:31:44.454743
2022-12-02 13:31:44.462839
2022-12-02 13:31:44.475566
2022-12-02 13:31:44.483331
2022-12-02 13:31:44.491700
2022-12-02 13:31:44.504119
2022-12-02 13:31:44.512030
2022-12-02 13:31:44.520472
2022-12-02 13:31:44.528049
2022-12-02 13:31:44.541179
2022-12-02 13:31:44.549659
2022-12-02 13:31:44.557562
2022-12-02 13:31:44.569360
2022-12-02 13:31:44.577928
2022-12-02 13:31:44.586431
2022-12-02 13:31:44.594517
2022-12-02 13:31:44.606460
2022-12-02 13:31:44.614373
2022-12-02 13:31:44.623039
2022-12-02 13:31:44.631204
2022-12-02 13:31:44.644056
2022-12-02 13:31:44.652555
2022-12-02 13:31:44.659899
2022-12-02 13:31:44.672091
2022-12-02 13:31:44.681120
2022-12-02 13:31:44.688445
2022-12-02 13:31:44.696997
2022-12-02 13:31:44.708347
2022-12-02 13:31:44.717564
2022-12-02 13:31:44.725714
2022-12-02 13:31:44.737417
2022-12-02 13:31:44.746246
2022-12-02 13:31:44.753523
2022-12-02 13:31:44.762644
2022-12-02 13:31:44.774615
2022-12-02 13:31:44.782740
2022-12-02 13:31:44.790542
2022-12-02 13:31:44.803229
2022-12-02 13:31:44.812191
2022-12-02 13:31:44.819400
2022-12-02 13:31:44.828560
2022-12-02 13:31:44.839643
2022-12-02 13:31:44.849066
2022-12-02 13:31:44.856291
2022-12-02 13:31:44.869545
2022-12-02 13:31:44.876470
2022-12-02 13:31:44.884772
2022-12-02 13:31:44.893296
2022-12-02 13:31:44.905515
2022-12-02 13:31:44.913645
2022-12-02 13:31:44.922040
2022-12-02 13:31:44.933570
2022-12-02 13:31:44.942294
2022-12-02 13:31:44.950305
2022-12-02 13:31:44.958657
2022-12-02 13:31:44.970940
2022-12-02 13:31:44.978774
2022-12-02 13:31:44.986769
2022-12-02 13:31:44.999632
2022-12-02 13:31:45.007309
2022-12-02 13:31:45.015440
2022-12-02 13:31:45.024015
2022-12-02 13:31:45.036813
2022-12-02 13:31:45.044058
2022-12-02 13:31:45.053164
2022-12-02 13:31:45.066238
2022-12-02 13:31:45.073685
2022-12-02 13:31:45.082145
2022-12-02 13:31:45.090235
2022-12-02 13:31:45.102283
2022-12-02 13:31:45.110796
2022-12-02 13:31:45.118643
2022-12-02 13:31:45.131759
2022-12-02 13:31:45.139756
2022-12-02 13:31:45.148181
2022-12-02 13:31:45.155662
2022-12-02 13:31:45.167463
2022-12-02 13:31:45.176035
2022-12-02 13:31:45.184144
2022-12-02 13:31:45.196249
2022-12-02 13:31:45.204525
2022-12-02 13:31:45.212620
2022-12-02 13:31:45.220985
2022-12-02 13:31:45.233297
2022-12-02 13:31:45.241546
2022-12-02 13:31:45.249727
2022-12-02 13:31:45.261441
2022-12-02 13:31:45.269861
2022-12-02 13:31:45.278132
2022-12-02 13:31:45.286626
2022-12-02 13:31:45.298888
2022-12-02 13:31:45.307245
2022-12-02 13:31:45.315151
2022-12-02 13:31:45.327065
2022-12-02 13:31:45.335469
2022-12-02 13:31:45.343860
2022-12-02 13:31:45.351929
2022-12-02 13:31:45.364108
2022-12-02 13:31:45.372696
2022-12-02 13:31:45.380051
2022-12-02 13:31:45.392183
2022-12-02 13:31:45.400753
2022-12-02 13:31:45.409491
2022-12-02 13:31:45.417284
2022-12-02 13:31:45.429459
2022-12-02 13:31:45.437786
2022-12-02 13:31:45.446015
2022-12-02 13:31:45.458563
2022-12-02 13:31:45.466135
2022-12-02 13:31:45.474799
2022-12-02 13:31:45.482627
2022-12-02 13:31:45.494863
2022-12-02 13:31:45.503725
2022-12-02 13:31:45.511573
2022-12-02 13:31:45.519733
2022-12-02 13:31:45.531848
2022-12-02 13:31:45.540209
2022-12-02 13:31:45.548619
2022-12-02 13:31:45.560124
2022-12-02 13:31:45.569097
2022-12-02 13:31:45.578120
2022-12-02 13:31:45.586192
2022-12-02 13:31:45.598008
2022-12-02 13:31:45.605709
2022-12-02 13:31:45.614478
2022-12-02 13:31:45.626748
2022-12-02 13:31:45.635435
2022-12-02 13:31:45.643150
2022-12-02 13:31:45.651893
2022-12-02 13:31:45.664192
2022-12-02 13:31:45.671945
2022-12-02 13:31:45.680639
2022-12-02 13:31:45.692943
2022-12-02 13:31:45.700679
2022-12-02 13:31:45.708550
2022-12-02 13:31:45.716789
2022-12-02 13:31:45.729424
2022-12-02 13:31:45.737063
2022-12-02 13:31:45.745747
2022-12-02 13:31:45.757674
2022-12-02 13:31:45.766087
2022-12-02 13:31:45.774090
2022-12-02 13:31:45.782483
2022-12-02 13:31:45.794558
2022-12-02 13:31:45.802365
2022-12-02 13:31:45.811737
2022-12-02 13:31:45.822782
2022-12-02 13:31:45.830899
2022-12-02 13:31:45.838906
2022-12-02 13:31:45.847298
2022-12-02 13:31:45.859721
2022-12-02 13:31:45.867990
2022-12-02 13:31:45.875833
2022-12-02 13:31:45.888670
2022-12-02 13:31:45.897089
2022-12-02 13:31:45.905221
2022-12-02 13:31:45.914356
2022-12-02 13:31:45.925991
2022-12-02 13:31:45.934125
2022-12-02 13:31:45.942276
2022-12-02 13:31:45.954138
2022-12-02 13:31:45.962786
2022-12-02 13:31:45.970352
2022-12-02 13:31:45.978743
2022-12-02 13:31:45.990778
2022-12-02 13:31:46.000173
2022-12-02 13:31:46.007603
2022-12-02 13:31:46.019400
2022-12-02 13:31:46.028694
2022-12-02 13:31:46.035807
2022-12-02 13:31:46.044734
2022-12-02 13:31:46.055692
2022-12-02 13:31:46.064696
2022-12-02 13:31:46.072456
2022-12-02 13:31:46.085371
2022-12-02 13:31:46.093855
2022-12-02 13:31:46.102236
2022-12-02 13:31:46.109990
2022-12-02 13:31:46.122257
2022-12-02 13:31:46.130617
2022-12-02 13:31:46.139289
2022-12-02 13:31:46.150914
2022-12-02 13:31:46.158624
2022-12-02 13:31:46.167229
2022-12-02 13:31:46.175673
2022-12-02 13:31:46.187778
2022-12-02 13:31:46.196699
2022-12-02 13:31:46.204055
2022-12-02 13:31:46.217241
2022-12-02 13:31:46.224579
2022-12-02 13:31:46.233634
2022-12-02 13:31:46.240413
2022-12-02 13:31:46.252951
2022-12-02 13:31:46.261768
2022-12-02 13:31:46.269337
2022-12-02 13:31:46.282208
2022-12-02 13:31:46.290112
2022-12-02 13:31:46.297787
2022-12-02 13:31:46.306223
2022-12-02 13:31:46.318402
2022-12-02 13:31:46.326632
2022-12-02 13:31:46.335322
2022-12-02 13:31:46.347427
2022-12-02 13:31:46.355650
2022-12-02 13:31:46.363273
2022-12-02 13:31:46.371917
2022-12-02 13:31:46.383777
2022-12-02 13:31:46.392355
2022-12-02 13:31:46.400214
2022-12-02 13:31:46.408052
2022-12-02 13:31:46.420807
2022-12-02 13:31:46.429023
2022-12-02 13:31:46.437376
2022-12-02 13:31:46.449821
2022-12-02 13:31:46.457720
2022-12-02 13:31:46.466005
2022-12-02 13:31:46.473768
2022-12-02 13:31:46.486459
2022-12-02 13:31:46.494687
2022-12-02 13:31:46.502662
2022-12-02 13:31:46.515070
2022-12-02 13:31:46.523334
2022-12-02 13:31:46.531449
2022-12-02 13:31:46.540116
2022-12-02 13:31:46.552015
2022-12-02 13:31:46.560424
2022-12-02 13:31:46.568178
2022-12-02 13:31:46.580203
2022-12-02 13:31:46.588775
2022-12-02 13:31:46.597427
2022-12-02 13:31:46.605490
2022-12-02 13:31:46.617183
2022-12-02 13:31:46.626016
2022-12-02 13:31:46.633871
2022-12-02 13:31:46.646360
2022-12-02 13:31:46.653822
2022-12-02 13:31:46.661966
2022-12-02 13:31:46.671057
2022-12-02 13:31:46.682968
2022-12-02 13:31:46.690845
2022-12-02 13:31:46.698830
2022-12-02 13:31:46.711149
2022-12-02 13:31:46.720159
2022-12-02 13:31:46.727996
2022-12-02 13:31:46.735826
2022-12-02 13:31:46.748024
2022-12-02 13:31:46.756335
2022-12-02 13:31:46.765267
2022-12-02 13:31:46.777813
2022-12-02 13:31:46.785760
2022-12-02 13:31:46.794248
2022-12-02 13:31:46.801927
2022-12-02 13:31:46.814590
2022-12-02 13:31:46.822041
2022-12-02 13:31:46.830903
2022-12-02 13:31:46.843809
2022-12-02 13:31:46.851110
2022-12-02 13:31:46.859666
2022-12-02 13:31:46.867824
2022-12-02 13:31:46.880345
2022-12-02 13:31:46.888573
2022-12-02 13:31:46.896843
2022-12-02 13:31:46.908424
2022-12-02 13:31:46.916123
2022-12-02 13:31:46.924689
2022-12-02 13:31:46.933608
2022-12-02 13:31:46.945717
2022-12-02 13:31:46.953709
2022-12-02 13:31:46.962161
2022-12-02 13:31:46.974266
2022-12-02 13:31:46.982603
2022-12-02 13:31:46.989944
2022-12-02 13:31:46.998523
2022-12-02 13:31:47.011025
2022-12-02 13:31:47.019192
2022-12-02 13:31:47.028237
2022-12-02 13:31:47.039306
2022-12-02 13:31:47.047192
2022-12-02 13:31:47.056157
2022-12-02 13:31:47.064266
2022-12-02 13:31:47.076164
2022-12-02 13:31:47.084319
2022-12-02 13:31:47.093413
2022-12-02 13:31:47.105637
2022-12-02 13:31:47.113606
2022-12-02 13:31:47.120944
2022-12-02 13:31:47.129402
2022-12-02 13:31:47.141943
2022-12-02 13:31:47.150491
2022-12-02 13:31:47.158335
2022-12-02 13:31:47.170765
2022-12-02 13:31:47.179790
2022-12-02 13:31:47.186708
2022-12-02 13:31:47.196200
2022-12-02 13:31:47.207750
2022-12-02 13:31:47.216089
2022-12-02 13:31:47.224075
2022-12-02 13:31:47.232410
2022-12-02 13:31:47.244718
2022-12-02 13:31:47.252220
2022-12-02 13:31:47.260215
2022-12-02 13:31:47.273124
2022-12-02 13:31:47.280507
2022-12-02 13:31:47.288893
2022-12-02 13:31:47.298164
2022-12-02 13:31:47.310316
2022-12-02 13:31:47.318421
2022-12-02 13:31:47.326630
2022-12-02 13:31:47.338536
2022-12-02 13:31:47.347643
2022-12-02 13:31:47.355287
2022-12-02 13:31:47.364083
2022-12-02 13:31:47.376292
2022-12-02 13:31:47.384507
2022-12-02 13:31:47.391763
2022-12-02 13:31:47.404244
2022-12-02 13:31:47.412511
2022-12-02 13:31:47.420388
2022-12-02 13:31:47.429130
2022-12-02 13:31:47.441046
2022-12-02 13:31:47.449515
2022-12-02 13:31:47.457565
2022-12-02 13:31:47.470077
2022-12-02 13:31:47.477976
2022-12-02 13:31:47.486246
2022-12-02 13:31:47.494266
2022-12-02 13:31:47.505957
2022-12-02 13:31:47.514867
2022-12-02 13:31:47.522264
2022-12-02 13:31:47.535196
2022-12-02 13:31:47.543388
2022-12-02 13:31:47.551676
2022-12-02 13:31:47.559309
2022-12-02 13:31:47.571765
2022-12-02 13:31:47.580047
2022-12-02 13:31:47.588619
2022-12-02 13:31:47.600147
2022-12-02 13:31:47.609116
2022-12-02 13:31:47.616653
2022-12-02 13:31:47.625446
2022-12-02 13:31:47.637556
2022-12-02 13:31:47.644960
2022-12-02 13:31:47.653604
2022-12-02 13:31:47.665502
2022-12-02 13:31:47.674418
2022-12-02 13:31:47.682515
2022-12-02 13:31:47.690323
2022-12-02 13:31:47.702960
2022-12-02 13:31:47.710986
2022-12-02 13:31:47.719002
2022-12-02 13:31:47.732608
2022-12-02 13:31:47.739348
2022-12-02 13:31:47.748606
2022-12-02 13:31:47.756023
2022-12-02 13:31:47.768683
2022-12-02 13:31:47.777331
2022-12-02 13:31:47.785067
2022-12-02 13:31:47.797653
2022-12-02 13:31:47.805094
2022-12-02 13:31:47.814132
2022-12-02 13:31:47.821886
2022-12-02 13:31:47.834312
2022-12-02 13:31:47.842888
2022-12-02 13:31:47.851427
2022-12-02 13:31:47.862674
2022-12-02 13:31:47.871351
2022-12-02 13:31:47.879093
2022-12-02 13:31:47.887626
2022-12-02 13:31:47.900081
2022-12-02 13:31:47.907874
2022-12-02 13:31:47.916458
2022-12-02 13:31:47.928818
2022-12-02 13:31:47.936683
2022-12-02 13:31:47.945112
2022-12-02 13:31:47.953079
2022-12-02 13:31:47.965996
2022-12-02 13:31:47.973289
2022-12-02 13:31:47.981218
2022-12-02 13:31:47.993993
2022-12-02 13:31:48.001960
2022-12-02 13:31:48.010757
2022-12-02 13:31:48.018717
2022-12-02 13:31:48.030613
2022-12-02 13:31:48.038451
2022-12-02 13:31:48.047297
2022-12-02 13:31:48.060447
2022-12-02 13:31:48.067666
2022-12-02 13:31:48.076303
2022-12-02 13:31:48.084608
2022-12-02 13:31:48.096678
2022-12-02 13:31:48.104846
2022-12-02 13:31:48.113143
2022-12-02 13:31:48.121122
2022-12-02 13:31:48.133587
2022-12-02 13:31:48.141437
2022-12-02 13:31:48.150094
2022-12-02 13:31:48.162243
2022-12-02 13:31:48.170239
2022-12-02 13:31:48.178773
2022-12-02 13:31:48.186881
2022-12-02 13:31:48.198891
2022-12-02 13:31:48.207190
2022-12-02 13:31:48.215991
2022-12-02 13:31:48.228386
2022-12-02 13:31:48.235086
2022-12-02 13:31:48.244754
2022-12-02 13:31:48.252335
2022-12-02 13:31:48.264375
2022-12-02 13:31:48.272553
2022-12-02 13:31:48.281054
2022-12-02 13:31:48.292636
2022-12-02 13:31:48.301479
2022-12-02 13:31:48.309618
2022-12-02 13:31:48.317829
2022-12-02 13:31:48.330175
2022-12-02 13:31:48.338404
2022-12-02 13:31:48.346662
2022-12-02 13:31:48.358788
2022-12-02 13:31:48.366835
2022-12-02 13:31:48.375113
2022-12-02 13:31:48.383703
2022-12-02 13:31:48.396319
2022-12-02 13:31:48.403650
2022-12-02 13:31:48.411581
2022-12-02 13:31:48.423456
2022-12-02 13:31:48.432018
2022-12-02 13:31:48.439788
2022-12-02 13:31:48.448599
2022-12-02 13:31:48.460928
2022-12-02 13:31:48.468708
2022-12-02 13:31:48.477341
2022-12-02 13:31:48.489226
2022-12-02 13:31:48.498267
2022-12-02 13:31:48.506125
2022-12-02 13:31:48.514579
2022-12-02 13:31:48.526806
2022-12-02 13:31:48.534313
2022-12-02 13:31:48.542873
2022-12-02 13:31:48.554736
2022-12-02 13:31:48.563248
2022-12-02 13:31:48.571163
2022-12-02 13:31:48.579194
2022-12-02 13:31:48.591687
2022-12-02 13:31:48.600156
2022-12-02 13:31:48.608125
2022-12-02 13:31:48.619969
2022-12-02 13:31:48.628972
2022-12-02 13:31:48.636659
2022-12-02 13:31:48.644717
2022-12-02 13:31:48.657381
2022-12-02 13:31:48.665643
2022-12-02 13:31:48.673952
2022-12-02 13:31:48.686022
2022-12-02 13:31:48.694502
2022-12-02 13:31:48.702089
2022-12-02 13:31:48.709975
2022-12-02 13:31:48.722785
2022-12-02 13:31:48.730881
2022-12-02 13:31:48.739733
2022-12-02 13:31:48.751355
2022-12-02 13:31:48.759745
2022-12-02 13:31:48.767997
2022-12-02 13:31:48.776090
2022-12-02 13:31:48.788241
2022-12-02 13:31:48.796049
2022-12-02 13:31:48.805119
2022-12-02 13:31:48.818132
2022-12-02 13:31:48.825580
2022-12-02 13:31:48.834139
2022-12-02 13:31:48.842205
2022-12-02 13:31:48.854210
2022-12-02 13:31:48.862582
2022-12-02 13:31:48.870699
2022-12-02 13:31:48.883071
2022-12-02 13:31:48.890306
2022-12-02 13:31:48.899631
2022-12-02 13:31:48.907627
2022-12-02 13:31:48.919101
2022-12-02 13:31:48.928039
2022-12-02 13:31:48.936358
2022-12-02 13:31:48.948708
2022-12-02 13:31:48.956611
2022-12-02 13:31:48.965167
2022-12-02 13:31:48.973031
2022-12-02 13:31:48.985670
2022-12-02 13:31:48.993385
2022-12-02 13:31:49.001672
2022-12-02 13:31:49.009777
2022-12-02 13:31:49.022217
2022-12-02 13:31:49.030501
2022-12-02 13:31:49.038044
2022-12-02 13:31:49.050788
2022-12-02 13:31:49.059009
2022-12-02 13:31:49.067986
2022-12-02 13:31:49.075346
2022-12-02 13:31:49.088385
2022-12-02 13:31:49.095082
2022-12-02 13:31:49.104195
2022-12-02 13:31:49.115826
2022-12-02 13:31:49.124265
2022-12-02 13:31:49.132960
2022-12-02 13:31:49.141237
2022-12-02 13:31:49.152597
2022-12-02 13:31:49.161736
2022-12-02 13:31:49.169860
2022-12-02 13:31:49.181496
2022-12-02 13:31:49.189303
2022-12-02 13:31:49.197763
2022-12-02 13:31:49.206498
2022-12-02 13:31:49.218974
2022-12-02 13:31:49.227060
2022-12-02 13:31:49.235330
2022-12-02 13:31:49.248188
2022-12-02 13:31:49.255421
2022-12-02 13:31:49.264714
2022-12-02 13:31:49.272164
2022-12-02 13:31:49.284141
2022-12-02 13:31:49.293008
2022-12-02 13:31:49.300852
2022-12-02 13:31:49.313750
2022-12-02 13:31:49.321406
2022-12-02 13:31:49.330194
2022-12-02 13:31:49.338067
2022-12-02 13:31:49.350249
2022-12-02 13:31:49.358373
2022-12-02 13:31:49.366504
2022-12-02 13:31:49.379264
2022-12-02 13:31:49.386849
2022-12-02 13:31:49.396022
2022-12-02 13:31:49.403364
2022-12-02 13:31:49.415698
2022-12-02 13:31:49.423840
2022-12-02 13:31:49.432093
2022-12-02 13:31:49.443382
2022-12-02 13:31:49.452287
2022-12-02 13:31:49.459943
2022-12-02 13:31:49.468907
2022-12-02 13:31:49.480045
2022-12-02 13:31:49.489042
2022-12-02 13:31:49.496816
2022-12-02 13:31:49.509245
2022-12-02 13:31:49.517473
2022-12-02 13:31:49.525758
2022-12-02 13:31:49.533165
2022-12-02 13:31:49.545969
2022-12-02 13:31:49.554351
2022-12-02 13:31:49.562635
2022-12-02 13:31:49.575204
2022-12-02 13:31:49.583594
2022-12-02 13:31:49.591809
2022-12-02 13:31:49.599896
2022-12-02 13:31:49.612064
2022-12-02 13:31:49.620269
2022-12-02 13:31:49.627690
2022-12-02 13:31:49.640628
2022-12-02 13:31:49.648000
2022-12-02 13:31:49.657043
2022-12-02 13:31:49.665246
2022-12-02 13:31:49.676755
2022-12-02 13:31:49.685662
2022-12-02 13:31:49.693216
2022-12-02 13:31:49.705786
2022-12-02 13:31:49.714207
2022-12-02 13:31:49.722617
2022-12-02 13:31:49.730577
2022-12-02 13:31:49.742144
2022-12-02 13:31:49.750911
2022-12-02 13:31:49.758784
2022-12-02 13:31:49.771382
2022-12-02 13:31:49.779480
2022-12-02 13:31:49.787499
2022-12-02 13:31:49.795726
2022-12-02 13:31:49.807738
2022-12-02 13:31:49.816760
2022-12-02 13:31:49.825467
2022-12-02 13:31:49.837878
2022-12-02 13:31:49.845771
2022-12-02 13:31:49.853906
2022-12-02 13:31:49.862087
2022-12-02 13:31:49.873329
2022-12-02 13:31:49.882711
2022-12-02 13:31:49.890853
2022-12-02 13:31:49.899175
2022-12-02 13:31:49.910992
2022-12-02 13:31:49.919626
2022-12-02 13:31:49.928268
2022-12-02 13:31:49.939549
2022-12-02 13:31:49.948583
2022-12-02 13:31:49.956116
2022-12-02 13:31:49.964274
2022-12-02 13:31:49.977387
2022-12-02 13:31:49.984522
2022-12-02 13:31:49.993664
2022-12-02 13:31:50.004965
2022-12-02 13:31:50.013331
2022-12-02 13:31:50.021130
2022-12-02 13:31:50.030204
2022-12-02 13:31:50.042036
2022-12-02 13:31:50.050662
2022-12-02 13:31:50.058098
2022-12-02 13:31:50.070617
2022-12-02 13:31:50.078980
2022-12-02 13:31:50.087357
2022-12-02 13:31:50.095662
2022-12-02 13:31:50.108447
2022-12-02 13:31:50.116538
2022-12-02 13:31:50.123990
2022-12-02 13:31:50.136302
2022-12-02 13:31:50.145332
2022-12-02 13:31:50.152298
2022-12-02 13:31:50.161702
2022-12-02 13:31:50.173210
2022-12-02 13:31:50.181937
2022-12-02 13:31:50.189600
2022-12-02 13:31:50.201963
2022-12-02 13:31:50.209942
2022-12-02 13:31:50.218388
2022-12-02 13:31:50.226068
2022-12-02 13:31:50.238602
2022-12-02 13:31:50.246928
2022-12-02 13:31:50.255238
2022-12-02 13:31:50.267147
2022-12-02 13:31:50.276431
2022-12-02 13:31:50.284459
2022-12-02 13:31:50.292746
2022-12-02 13:31:50.304340
2022-12-02 13:31:50.313139
2022-12-02 13:31:50.320613
2022-12-02 13:31:50.332858
2022-12-02 13:31:50.341850
2022-12-02 13:31:50.348849
2022-12-02 13:31:50.357812
2022-12-02 13:31:50.369987
2022-12-02 13:31:50.377731
2022-12-02 13:31:50.386359
2022-12-02 13:31:50.398574
2022-12-02 13:31:50.406353
2022-12-02 13:31:50.414898
2022-12-02 13:31:50.422539
2022-12-02 13:31:50.435380
2022-12-02 13:31:50.444232
2022-12-02 13:31:50.451601
2022-12-02 13:31:50.464795
2022-12-02 13:31:50.471538
2022-12-02 13:31:50.480398
2022-12-02 13:31:50.488634
2022-12-02 13:31:50.500860
2022-12-02 13:31:50.508233
2022-12-02 13:31:50.516987
2022-12-02 13:31:50.530188
2022-12-02 13:31:50.537485
2022-12-02 13:31:50.546231
2022-12-02 13:31:50.554079
2022-12-02 13:31:50.566545
2022-12-02 13:31:50.574790
2022-12-02 13:31:50.582797
2022-12-02 13:31:50.595793
2022-12-02 13:31:50.603179
2022-12-02 13:31:50.612144
2022-12-02 13:31:50.619655
2022-12-02 13:31:50.631648
2022-12-02 13:31:50.639334
2022-12-02 13:31:50.648449
2022-12-02 13:31:50.660350
2022-12-02 13:31:50.668885
2022-12-02 13:31:50.676598
2022-12-02 13:31:50.685031
2022-12-02 13:31:50.697487
2022-12-02 13:31:50.705526
2022-12-02 13:31:50.713174
2022-12-02 13:31:50.725236
2022-12-02 13:31:50.733711
2022-12-02 13:31:50.742015
2022-12-02 13:31:50.750429
2022-12-02 13:31:50.762835
2022-12-02 13:31:50.771084
2022-12-02 13:31:50.779003
2022-12-02 13:31:50.787138
2022-12-02 13:31:50.799105
2022-12-02 13:31:50.807629
2022-12-02 13:31:50.815442
2022-12-02 13:31:50.827836
2022-12-02 13:31:50.836576
2022-12-02 13:31:50.845222
2022-12-02 13:31:50.852355
2022-12-02 13:31:50.865695
2022-12-02 13:31:50.873852
2022-12-02 13:31:50.881875
2022-12-02 13:31:50.894366
2022-12-02 13:31:50.901821
2022-12-02 13:31:50.910714
2022-12-02 13:31:50.918685
2022-12-02 13:31:50.931971
2022-12-02 13:31:50.939167
2022-12-02 13:31:50.947416
2022-12-02 13:31:50.960464
2022-12-02 13:31:50.967616
2022-12-02 13:31:50.976840
2022-12-02 13:31:50.983762
2022-12-02 13:31:50.996658
2022-12-02 13:31:51.004070
2022-12-02 13:31:51.013677
2022-12-02 13:31:51.025117
2022-12-02 13:31:51.033694
2022-12-02 13:31:51.041452
2022-12-02 13:31:51.050149
2022-12-02 13:31:51.062262
2022-12-02 13:31:51.070408
2022-12-02 13:31:51.077809
2022-12-02 13:31:51.091520
2022-12-02 13:31:51.099252
2022-12-02 13:31:51.107897
2022-12-02 13:31:51.115515
2022-12-02 13:31:51.128363
2022-12-02 13:31:51.134913
2022-12-02 13:31:51.143748
2022-12-02 13:31:51.155912
2022-12-02 13:31:51.164079
2022-12-02 13:31:51.172428
2022-12-02 13:31:51.181495
2022-12-02 13:31:51.193632
2022-12-02 13:31:51.201588
2022-12-02 13:31:51.209460
2022-12-02 13:31:51.221517
2022-12-02 13:31:51.230167
2022-12-02 13:31:51.237299
2022-12-02 13:31:51.245883
2022-12-02 13:31:51.258765
2022-12-02 13:31:51.267229
2022-12-02 13:31:51.275836
2022-12-02 13:31:51.286669
2022-12-02 13:31:51.294794
2022-12-02 13:31:51.303753
2022-12-02 13:31:51.312186
2022-12-02 13:31:51.324440
2022-12-02 13:31:51.332378
2022-12-02 13:31:51.340792
2022-12-02 13:31:51.352833
2022-12-02 13:31:51.361842
2022-12-02 13:31:51.369692
2022-12-02 13:31:51.378198
2022-12-02 13:31:51.389546
2022-12-02 13:31:51.397445
2022-12-02 13:31:51.405774
2022-12-02 13:31:51.418395
2022-12-02 13:31:51.426838
2022-12-02 13:31:51.434736
2022-12-02 13:31:51.443176
2022-12-02 13:31:51.454764
2022-12-02 13:31:51.464259
2022-12-02 13:31:51.471692
2022-12-02 13:31:51.483368
2022-12-02 13:31:51.492693
2022-12-02 13:31:51.500472
2022-12-02 13:31:51.508805
2022-12-02 13:31:51.520520
2022-12-02 13:31:51.529671
2022-12-02 13:31:51.536802
2022-12-02 13:31:51.550091
2022-12-02 13:31:51.558055
2022-12-02 13:31:51.566066
2022-12-02 13:31:51.574232
2022-12-02 13:31:51.586275
2022-12-02 13:31:51.594727
2022-12-02 13:31:51.602948
2022-12-02 13:31:51.614921
2022-12-02 13:31:51.623251
2022-12-02 13:31:51.630927
2022-12-02 13:31:51.639271
2022-12-02 13:31:51.651755
2022-12-02 13:31:51.659637
2022-12-02 13:31:51.667926
2022-12-02 13:31:51.675581
2022-12-02 13:31:51.688049
2022-12-02 13:31:51.696608
2022-12-02 13:31:51.705091
2022-12-02 13:31:51.716913
2022-12-02 13:31:51.725169
2022-12-02 13:31:51.733436
2022-12-02 13:31:51.741153
2022-12-02 13:31:51.753828
2022-12-02 13:31:51.761929
2022-12-02 13:31:51.770042
2022-12-02 13:31:51.782862
2022-12-02 13:31:51.790714
2022-12-02 13:31:51.798474
2022-12-02 13:31:51.806881
2022-12-02 13:31:51.818926
2022-12-02 13:31:51.827436
2022-12-02 13:31:51.835589
2022-12-02 13:31:51.848352
2022-12-02 13:31:51.856619
2022-12-02 13:31:51.864436
2022-12-02 13:31:51.873034
2022-12-02 13:31:51.885309
2022-12-02 13:31:51.893792
2022-12-02 13:31:51.901246
2022-12-02 13:31:51.914188
2022-12-02 13:31:51.921959
2022-12-02 13:31:51.930729
2022-12-02 13:31:51.938633
2022-12-02 13:31:51.950850
2022-12-02 13:31:51.959085
2022-12-02 13:31:51.967027
2022-12-02 13:31:51.980244
2022-12-02 13:31:51.987744
2022-12-02 13:31:51.996635
2022-12-02 13:31:52.003659
2022-12-02 13:31:52.016279
2022-12-02 13:31:52.025363
2022-12-02 13:31:52.032866
2022-12-02 13:31:52.045767
2022-12-02 13:31:52.053383
2022-12-02 13:31:52.060771
2022-12-02 13:31:52.069657
2022-12-02 13:31:52.082197
2022-12-02 13:31:52.090065
2022-12-02 13:31:52.098570
2022-12-02 13:31:52.110080
2022-12-02 13:31:52.118872
2022-12-02 13:31:52.127046
2022-12-02 13:31:52.135073
2022-12-02 13:31:52.147708
2022-12-02 13:31:52.155612
2022-12-02 13:31:52.164136
2022-12-02 13:31:52.175672
2022-12-02 13:31:52.183969
2022-12-02 13:31:52.192537
2022-12-02 13:31:52.199847
2022-12-02 13:31:52.212470
2022-12-02 13:31:52.221322
2022-12-02 13:31:52.230040
2022-12-02 13:31:52.242285
2022-12-02 13:31:52.250089
2022-12-02 13:31:52.258318
2022-12-02 13:31:52.266507
2022-12-02 13:31:52.278580
2022-12-02 13:31:52.286681
2022-12-02 13:31:52.294952
2022-12-02 13:31:52.308037
2022-12-02 13:31:52.316116
2022-12-02 13:31:52.324382
2022-12-02 13:31:52.332035
2022-12-02 13:31:52.343946
2022-12-02 13:31:52.352524
2022-12-02 13:31:52.360530
2022-12-02 13:31:52.372897
2022-12-02 13:31:52.381317
2022-12-02 13:31:52.389832
2022-12-02 13:31:52.398028
2022-12-02 13:31:52.409262
2022-12-02 13:31:52.417928
2022-12-02 13:31:52.426241
2022-12-02 13:31:52.438286
2022-12-02 13:31:52.446419
2022-12-02 13:31:52.454292
2022-12-02 13:31:52.462775
2022-12-02 13:31:52.475423
2022-12-02 13:31:52.482539
2022-12-02 13:31:52.492344
2022-12-02 13:31:52.503120
2022-12-02 13:31:52.512033
2022-12-02 13:31:52.519885
2022-12-02 13:31:52.528370
2022-12-02 13:31:52.540037
2022-12-02 13:31:52.548389
2022-12-02 13:31:52.556306
2022-12-02 13:31:52.564835
2022-12-02 13:31:52.577138
2022-12-02 13:31:52.585440
2022-12-02 13:31:52.593523
2022-12-02 13:31:52.605850
2022-12-02 13:31:52.613755
2022-12-02 13:31:52.622156
2022-12-02 13:31:52.630608
2022-12-02 13:31:52.642248
2022-12-02 13:31:52.651142
2022-12-02 13:31:52.659325
2022-12-02 13:31:52.671405
2022-12-02 13:31:52.679424
2022-12-02 13:31:52.687292
2022-12-02 13:31:52.695990
2022-12-02 13:31:52.707991
2022-12-02 13:31:52.716361
2022-12-02 13:31:52.724173
2022-12-02 13:31:52.736983
2022-12-02 13:31:52.745333
2022-12-02 13:31:52.752819
2022-12-02 13:31:52.761846
2022-12-02 13:31:52.773194
2022-12-02 13:31:52.782199
2022-12-02 13:31:52.790235
2022-12-02 13:31:52.802575
2022-12-02 13:31:52.810915
2022-12-02 13:31:52.818381
2022-12-02 13:31:52.826520
2022-12-02 13:31:52.839179
2022-12-02 13:31:52.847453
2022-12-02 13:31:52.855763
2022-12-02 13:31:52.867916
2022-12-02 13:31:52.875950
2022-12-02 13:31:52.884476
2022-12-02 13:31:52.892206
2022-12-02 13:31:52.905156
2022-12-02 13:31:52.913438
2022-12-02 13:31:52.921456
2022-12-02 13:31:52.933812
2022-12-02 13:31:52.942026
2022-12-02 13:31:52.949832
2022-12-02 13:31:52.958575
2022-12-02 13:31:52.969837
2022-12-02 13:31:52.979691
2022-12-02 13:31:52.986672
2022-12-02 13:31:52.998808
2022-12-02 13:31:53.008346
2022-12-02 13:31:53.016253
2022-12-02 13:31:53.023947
2022-12-02 13:31:53.036310
2022-12-02 13:31:53.044855
2022-12-02 13:31:53.052670
2022-12-02 13:31:53.065146
2022-12-02 13:31:53.073308
2022-12-02 13:31:53.081711
2022-12-02 13:31:53.089703
2022-12-02 13:31:53.101680
2022-12-02 13:31:53.110274
2022-12-02 13:31:53.118285
2022-12-02 13:31:53.130206
2022-12-02 13:31:53.138050
2022-12-02 13:31:53.146779
2022-12-02 13:31:53.154923
2022-12-02 13:31:53.166747
2022-12-02 13:31:53.175583
2022-12-02 13:31:53.183437
2022-12-02 13:31:53.195497
2022-12-02 13:31:53.203407
2022-12-02 13:31:53.211871
2022-12-02 13:31:53.220429
2022-12-02 13:31:53.232336
2022-12-02 13:31:53.240524
2022-12-02 13:31:53.248821
2022-12-02 13:31:53.261433
2022-12-02 13:31:53.269628
2022-12-02 13:31:53.277462
2022-12-02 13:31:53.286006
2022-12-02 13:31:53.297774
2022-12-02 13:31:53.305817
2022-12-02 13:31:53.314695
2022-12-02 13:31:53.326136
2022-12-02 13:31:53.335300
2022-12-02 13:31:53.343446
2022-12-02 13:31:53.351627
2022-12-02 13:31:53.363917
2022-12-02 13:31:53.372211
2022-12-02 13:31:53.381021
2022-12-02 13:31:53.388658
2022-12-02 13:31:53.400683
2022-12-02 13:31:53.408942
2022-12-02 13:31:53.417103
2022-12-02 13:31:53.430039
2022-12-02 13:31:53.437481
2022-12-02 13:31:53.446230
2022-12-02 13:31:53.453987
2022-12-02 13:31:53.466088
2022-12-02 13:31:53.474668
2022-12-02 13:31:53.482807
2022-12-02 13:31:53.494743
2022-12-02 13:31:53.502685
2022-12-02 13:31:53.512217
2022-12-02 13:31:53.519468
2022-12-02 13:31:53.531603
2022-12-02 13:31:53.540922
2022-12-02 13:31:53.548225
2022-12-02 13:31:53.560813
2022-12-02 13:31:53.568743
2022-12-02 13:31:53.577049
2022-12-02 13:31:53.585283
2022-12-02 13:31:53.597688
2022-12-02 13:31:53.605946
2022-12-02 13:31:53.614261
2022-12-02 13:31:53.626367
2022-12-02 13:31:53.634239
2022-12-02 13:31:53.642750
2022-12-02 13:31:53.650694
2022-12-02 13:31:53.662938
2022-12-02 13:31:53.670884
2022-12-02 13:31:53.679676
2022-12-02 13:31:53.692544
2022-12-02 13:31:53.699972
2022-12-02 13:31:53.708772
2022-12-02 13:31:53.716368
2022-12-02 13:31:53.727838
2022-12-02 13:31:53.736577
2022-12-02 13:31:53.744105
2022-12-02 13:31:53.756426
2022-12-02 13:31:53.765408
2022-12-02 13:31:53.773587
2022-12-02 13:31:53.781902
2022-12-02 13:31:53.793612
2022-12-02 13:31:53.801700
2022-12-02 13:31:53.810237
2022-12-02 13:31:53.822016
2022-12-02 13:31:53.830197
2022-12-02 13:31:53.839325
2022-12-02 13:31:53.847306
2022-12-02 13:31:53.858804
2022-12-02 13:31:53.867215
2022-12-02 13:31:53.875161
2022-12-02 13:31:53.887874
2022-12-02 13:31:53.895856
2022-12-02 13:31:53.904156
2022-12-02 13:31:53.912305
2022-12-02 13:31:53.925058
2022-12-02 13:31:53.932713
2022-12-02 13:31:53.940808
2022-12-02 13:31:53.953531
2022-12-02 13:31:53.962147
2022-12-02 13:31:53.969356
2022-12-02 13:31:53.978591
2022-12-02 13:31:53.990650
2022-12-02 13:31:53.998727
2022-12-02 13:31:54.007143
2022-12-02 13:31:54.019523
2022-12-02 13:31:54.028375
2022-12-02 13:31:54.036163
2022-12-02 13:31:54.044626
2022-12-02 13:31:54.056149
2022-12-02 13:31:54.065134
2022-12-02 13:31:54.073296
2022-12-02 13:31:54.084774
2022-12-02 13:31:54.093466
2022-12-02 13:31:54.101463
2022-12-02 13:31:54.110050
2022-12-02 13:31:54.121954
2022-12-02 13:31:54.130174
2022-12-02 13:31:54.137967
2022-12-02 13:31:54.149615
2022-12-02 13:31:54.158823
2022-12-02 13:31:54.165883
2022-12-02 13:31:54.175091
2022-12-02 13:31:54.186977
2022-12-02 13:31:54.195729
2022-12-02 13:31:54.203608
2022-12-02 13:31:54.215736
2022-12-02 13:31:54.224335
2022-12-02 13:31:54.232311
2022-12-02 13:31:54.241351
2022-12-02 13:31:54.252751
2022-12-02 13:31:54.261799
2022-12-02 13:31:54.269494
2022-12-02 13:31:54.278049
2022-12-02 13:31:54.290312
2022-12-02 13:31:54.298197
2022-12-02 13:31:54.306408
2022-12-02 13:31:54.318584
2022-12-02 13:31:54.326827
2022-12-02 13:31:54.334787
2022-12-02 13:31:54.342978
2022-12-02 13:31:54.355266
2022-12-02 13:31:54.364046
2022-12-02 13:31:54.372409
2022-12-02 13:31:54.383790
2022-12-02 13:31:54.392053
2022-12-02 13:31:54.400248
2022-12-02 13:31:54.408411
2022-12-02 13:31:54.420358
2022-12-02 13:31:54.429755
2022-12-02 13:31:54.436996
2022-12-02 13:31:54.449928
2022-12-02 13:31:54.458131
2022-12-02 13:31:54.466018
2022-12-02 13:31:54.474337
2022-12-02 13:31:54.485961
2022-12-02 13:31:54.494634
2022-12-02 13:31:54.502473
2022-12-02 13:31:54.514574
2022-12-02 13:31:54.523541
2022-12-02 13:31:54.531201
2022-12-02 13:31:54.540219
2022-12-02 13:31:54.552524
2022-12-02 13:31:54.559895
2022-12-02 13:31:54.568242
2022-12-02 13:31:54.580775
2022-12-02 13:31:54.588902
2022-12-02 13:31:54.596598
2022-12-02 13:31:54.604327
2022-12-02 13:31:54.616808
2022-12-02 13:31:54.625260
2022-12-02 13:31:54.633585
2022-12-02 13:31:54.645686
2022-12-02 13:31:54.654311
2022-12-02 13:31:54.662557
2022-12-02 13:31:54.670645
2022-12-02 13:31:54.683212
2022-12-02 13:31:54.691885
2022-12-02 13:31:54.699133
2022-12-02 13:31:54.712268
2022-12-02 13:31:54.719898
2022-12-02 13:31:54.728215
2022-12-02 13:31:54.735889
2022-12-02 13:31:54.747577
2022-12-02 13:31:54.757352
2022-12-02 13:31:54.764786
2022-12-02 13:31:54.776919
2022-12-02 13:31:54.785880
2022-12-02 13:31:54.792868
2022-12-02 13:31:54.802214
2022-12-02 13:31:54.814229
2022-12-02 13:31:54.821840
2022-12-02 13:31:54.830503
2022-12-02 13:31:54.841788
2022-12-02 13:31:54.850864
2022-12-02 13:31:54.859331
2022-12-02 13:31:54.867246
2022-12-02 13:31:54.879757
2022-12-02 13:31:54.887711
2022-12-02 13:31:54.896010
2022-12-02 13:31:54.908464
2022-12-02 13:31:54.916446
2022-12-02 13:31:54.924818
2022-12-02 13:31:54.932823
2022-12-02 13:31:54.945111
2022-12-02 13:31:54.953220
2022-12-02 13:31:54.961489
2022-12-02 13:31:54.973934
2022-12-02 13:31:54.981941
2022-12-02 13:31:54.990282
2022-12-02 13:31:54.998121
2022-12-02 13:31:55.010927
2022-12-02 13:31:55.018883
2022-12-02 13:31:55.027785
2022-12-02 13:31:55.039973
2022-12-02 13:31:55.047497
2022-12-02 13:31:55.056344
2022-12-02 13:31:55.064525
2022-12-02 13:31:55.076856
2022-12-02 13:31:55.084138
2022-12-02 13:31:55.092757
2022-12-02 13:31:55.104609
2022-12-02 13:31:55.112807
2022-12-02 13:31:55.121110
2022-12-02 13:31:55.129423
2022-12-02 13:31:55.141971
2022-12-02 13:31:55.149339
2022-12-02 13:31:55.157349
2022-12-02 13:31:55.166455
2022-12-02 13:31:55.178726
2022-12-02 13:31:55.186710
2022-12-02 13:31:55.195596
2022-12-02 13:31:55.207662
2022-12-02 13:31:55.215473
2022-12-02 13:31:55.223394
2022-12-02 13:31:55.231238
2022-12-02 13:31:55.243500
2022-12-02 13:31:55.252204
2022-12-02 13:31:55.261134
2022-12-02 13:31:55.273243
2022-12-02 13:31:55.281243
2022-12-02 13:31:55.289884
2022-12-02 13:31:55.297870
2022-12-02 13:31:55.310044
2022-12-02 13:31:55.317381
2022-12-02 13:31:55.326142
2022-12-02 13:31:55.338524
2022-12-02 13:31:55.346668
2022-12-02 13:31:55.355449
2022-12-02 13:31:55.363631
2022-12-02 13:31:55.374927
2022-12-02 13:31:55.383418
2022-12-02 13:31:55.391166
2022-12-02 13:31:55.403214
2022-12-02 13:31:55.412612
2022-12-02 13:31:55.419838
2022-12-02 13:31:55.429026
2022-12-02 13:31:55.441354
2022-12-02 13:31:55.448399
2022-12-02 13:31:55.457480
2022-12-02 13:31:55.468626
2022-12-02 13:31:55.477957
2022-12-02 13:31:55.485584
2022-12-02 13:31:55.494158
2022-12-02 13:31:55.506412
2022-12-02 13:31:55.514299
2022-12-02 13:31:55.522873
2022-12-02 13:31:55.534947
2022-12-02 13:31:55.542887
2022-12-02 13:31:55.551734
2022-12-02 13:31:55.559632
2022-12-02 13:31:55.571861
2022-12-02 13:31:55.580249
2022-12-02 13:31:55.588070
2022-12-02 13:31:55.600249
2022-12-02 13:31:55.609209
2022-12-02 13:31:55.616649
2022-12-02 13:31:55.624559
2022-12-02 13:31:55.637263
2022-12-02 13:31:55.645796
2022-12-02 13:31:55.653106
2022-12-02 13:31:55.665863
2022-12-02 13:31:55.674438
2022-12-02 13:31:55.681918
2022-12-02 13:31:55.690805
2022-12-02 13:31:55.702242
2022-12-02 13:31:55.710168
2022-12-02 13:31:55.718784
2022-12-02 13:31:55.730954
2022-12-02 13:31:55.738950
2022-12-02 13:31:55.747713
2022-12-02 13:31:55.755854
2022-12-02 13:31:55.768147
2022-12-02 13:31:55.775802
2022-12-02 13:31:55.784669
2022-12-02 13:31:55.796135
2022-12-02 13:31:55.804759
2022-12-02 13:31:55.812618
2022-12-02 13:31:55.821186
2022-12-02 13:31:55.833911
2022-12-02 13:31:55.842369
2022-12-02 13:31:55.850386
2022-12-02 13:31:55.862841
2022-12-02 13:31:55.870728
2022-12-02 13:31:55.878719
2022-12-02 13:31:55.887123
2022-12-02 13:31:55.898844
2022-12-02 13:31:55.907927
2022-12-02 13:31:55.915935
2022-12-02 13:31:55.928210
2022-12-02 13:31:55.936052
2022-12-02 13:31:55.944628
2022-12-02 13:31:55.952879
2022-12-02 13:31:55.965067
2022-12-02 13:31:55.973279
2022-12-02 13:31:55.981534
2022-12-02 13:31:55.994210
2022-12-02 13:31:56.002046
2022-12-02 13:31:56.010227
2022-12-02 13:31:56.018378
2022-12-02 13:31:56.030682
2022-12-02 13:31:56.038810
2022-12-02 13:31:56.046884
2022-12-02 13:31:56.055550
2022-12-02 13:31:56.067265
2022-12-02 13:31:56.075674
2022-12-02 13:31:56.083703
2022-12-02 13:31:56.095782
2022-12-02 13:31:56.104069
2022-12-02 13:31:56.112407
2022-12-02 13:31:56.120501
2022-12-02 13:31:56.132728
2022-12-02 13:31:56.141307
2022-12-02 13:31:56.148487
2022-12-02 13:31:56.160675
2022-12-02 13:31:56.169819
2022-12-02 13:31:56.178210
2022-12-02 13:31:56.185976
2022-12-02 13:31:56.198342
2022-12-02 13:31:56.205585
2022-12-02 13:31:56.214771
2022-12-02 13:31:56.227204
2022-12-02 13:31:56.235270
2022-12-02 13:31:56.243479
2022-12-02 13:31:56.252049
2022-12-02 13:31:56.263643
2022-12-02 13:31:56.272238
2022-12-02 13:31:56.280483
2022-12-02 13:31:56.292917
2022-12-02 13:31:56.301126
2022-12-02 13:31:56.309521
2022-12-02 13:31:56.317926
2022-12-02 13:31:56.329087
2022-12-02 13:31:56.337643
2022-12-02 13:31:56.346216
2022-12-02 13:31:56.358619
2022-12-02 13:31:56.366026
2022-12-02 13:31:56.374922
2022-12-02 13:31:56.382202
2022-12-02 13:31:56.395860
2022-12-02 13:31:56.402506
2022-12-02 13:31:56.412252
2022-12-02 13:31:56.423654
2022-12-02 13:31:56.431309
2022-12-02 13:31:56.439822
2022-12-02 13:31:56.447745
2022-12-02 13:31:56.460888
2022-12-02 13:31:56.468386
2022-12-02 13:31:56.476865
2022-12-02 13:31:56.488880
2022-12-02 13:31:56.497430
2022-12-02 13:31:56.504931
2022-12-02 13:31:56.513874
2022-12-02 13:31:56.526291
2022-12-02 13:31:56.534334
2022-12-02 13:31:56.542878
2022-12-02 13:31:56.554739
2022-12-02 13:31:56.563083
2022-12-02 13:31:56.571884
2022-12-02 13:31:56.579560
2022-12-02 13:31:56.591651
2022-12-02 13:31:56.599891
2022-12-02 13:31:56.607967
2022-12-02 13:31:56.620338
2022-12-02 13:31:56.629036
2022-12-02 13:31:56.636719
2022-12-02 13:31:56.645391
2022-12-02 13:31:56.657888
2022-12-02 13:31:56.665263
2022-12-02 13:31:56.673589
2022-12-02 13:31:56.685590
2022-12-02 13:31:56.694014
2022-12-02 13:31:56.701571
2022-12-02 13:31:56.710005
2022-12-02 13:31:56.722514
2022-12-02 13:31:56.730110
2022-12-02 13:31:56.739821
2022-12-02 13:31:56.751566
2022-12-02 13:31:56.759735
2022-12-02 13:31:56.767965
2022-12-02 13:31:56.775323
2022-12-02 13:31:56.788972
2022-12-02 13:31:56.797155
2022-12-02 13:31:56.805021
2022-12-02 13:31:56.817640
2022-12-02 13:31:56.825564
2022-12-02 13:31:56.833703
2022-12-02 13:31:56.842198
2022-12-02 13:31:56.853199
2022-12-02 13:31:56.862295
2022-12-02 13:31:56.870134
2022-12-02 13:31:56.882369
2022-12-02 13:31:56.891472
2022-12-02 13:31:56.899010
2022-12-02 13:31:56.907861
2022-12-02 13:31:56.918759
2022-12-02 13:31:56.927476
2022-12-02 13:31:56.935655
2022-12-02 13:31:56.944223
2022-12-02 13:31:56.956050
2022-12-02 13:31:56.964050
2022-12-02 13:31:56.972383
2022-12-02 13:31:56.984160
2022-12-02 13:31:56.992347
2022-12-02 13:31:57.001411
2022-12-02 13:31:57.009712
2022-12-02 13:31:57.021427
2022-12-02 13:31:57.030045
2022-12-02 13:31:57.037950
2022-12-02 13:31:57.049952
2022-12-02 13:31:57.058947
2022-12-02 13:31:57.067100
2022-12-02 13:31:57.075278
2022-12-02 13:31:57.087315
2022-12-02 13:31:57.095515
2022-12-02 13:31:57.103360
2022-12-02 13:31:57.114861
2022-12-02 13:31:57.124667
2022-12-02 13:31:57.132498
2022-12-02 13:31:57.140717
2022-12-02 13:31:57.152340
2022-12-02 13:31:57.161054
2022-12-02 13:31:57.169244
2022-12-02 13:31:57.180669
2022-12-02 13:31:57.189323
2022-12-02 13:31:57.197931
2022-12-02 13:31:57.206014
2022-12-02 13:31:57.218039
2022-12-02 13:31:57.226706
2022-12-02 13:31:57.234702
2022-12-02 13:31:57.246679
2022-12-02 13:31:57.255358
2022-12-02 13:31:57.263842
2022-12-02 13:31:57.270875
2022-12-02 13:31:57.283473
2022-12-02 13:31:57.292205
2022-12-02 13:31:57.300356
2022-12-02 13:31:57.311727
2022-12-02 13:31:57.321502
2022-12-02 13:31:57.329574
2022-12-02 13:31:57.336652
2022-12-02 13:31:57.349496
2022-12-02 13:31:57.358052
2022-12-02 13:31:57.365568
2022-12-02 13:31:57.377179
2022-12-02 13:31:57.385821
2022-12-02 13:31:57.394317
2022-12-02 13:31:57.402335
2022-12-02 13:31:57.414853
2022-12-02 13:31:57.423299
2022-12-02 13:31:57.431125
2022-12-02 13:31:57.443797
2022-12-02 13:31:57.451276
2022-12-02 13:31:57.460294
2022-12-02 13:31:57.468604
2022-12-02 13:31:57.480329
2022-12-02 13:31:57.489370
2022-12-02 13:31:57.497376
2022-12-02 13:31:57.509950
2022-12-02 13:31:57.517218
2022-12-02 13:31:57.525972
2022-12-02 13:31:57.533986
2022-12-02 13:31:57.545784
2022-12-02 13:31:57.554354
2022-12-02 13:31:57.562367
2022-12-02 13:31:57.574751
2022-12-02 13:31:57.583328
2022-12-02 13:31:57.591004
2022-12-02 13:31:57.599231
2022-12-02 13:31:57.611862
2022-12-02 13:31:57.618914
2022-12-02 13:31:57.627885
2022-12-02 13:31:57.640197
2022-12-02 13:31:57.648698
2022-12-02 13:31:57.656705
2022-12-02 13:31:57.664553
2022-12-02 13:31:57.677814
2022-12-02 13:31:57.685421
2022-12-02 13:31:57.693984
2022-12-02 13:31:57.706237
2022-12-02 13:31:57.713683
2022-12-02 13:31:57.722359
2022-12-02 13:31:57.731138
2022-12-02 13:31:57.742900
2022-12-02 13:31:57.750884
2022-12-02 13:31:57.759099
2022-12-02 13:31:57.766857
2022-12-02 13:31:57.778954
2022-12-02 13:31:57.787650
2022-12-02 13:31:57.796159
2022-12-02 13:31:57.807781
2022-12-02 13:31:57.816658
2022-12-02 13:31:57.824193
2022-12-02 13:31:57.832687
2022-12-02 13:31:57.845741
2022-12-02 13:31:57.853354
2022-12-02 13:31:57.862077
2022-12-02 13:31:57.873965
2022-12-02 13:31:57.881850
2022-12-02 13:31:57.890262
2022-12-02 13:31:57.897994
2022-12-02 13:31:57.910912
2022-12-02 13:31:57.918900
2022-12-02 13:31:57.926919
2022-12-02 13:31:57.939938
2022-12-02 13:31:57.947324
2022-12-02 13:31:57.956335
2022-12-02 13:31:57.963502
2022-12-02 13:31:57.975905
2022-12-02 13:31:57.984203
2022-12-02 13:31:57.991762
2022-12-02 13:31:58.005448
2022-12-02 13:31:58.012262
2022-12-02 13:31:58.021307
2022-12-02 13:31:58.029348
2022-12-02 13:31:58.042240
2022-12-02 13:31:58.049977
2022-12-02 13:31:58.058338
2022-12-02 13:31:58.070136
2022-12-02 13:31:58.078682
2022-12-02 13:31:58.086716
2022-12-02 13:31:58.094898
2022-12-02 13:31:58.107987
2022-12-02 13:31:58.114284
2022-12-02 13:31:58.124348
2022-12-02 13:31:58.135417
2022-12-02 13:31:58.144950
2022-12-02 13:31:58.151675
2022-12-02 13:31:58.160563
2022-12-02 13:31:58.173114
2022-12-02 13:31:58.180572
2022-12-02 13:31:58.189812
2022-12-02 13:31:58.201002
2022-12-02 13:31:58.209185
2022-12-02 13:31:58.217392
2022-12-02 13:31:58.226237
2022-12-02 13:31:58.237767
2022-12-02 13:31:58.246634
2022-12-02 13:31:58.254501
2022-12-02 13:31:58.267253
2022-12-02 13:31:58.275926
2022-12-02 13:31:58.283310
2022-12-02 13:31:58.292296
2022-12-02 13:31:58.303917
2022-12-02 13:31:58.312136
2022-12-02 13:31:58.319502
2022-12-02 13:31:58.332386
2022-12-02 13:31:58.340938
2022-12-02 13:31:58.348423
2022-12-02 13:31:58.357330
2022-12-02 13:31:58.368403
2022-12-02 13:31:58.377643
2022-12-02 13:31:58.385295
2022-12-02 13:31:58.397502
2022-12-02 13:31:58.406315
2022-12-02 13:31:58.414699
2022-12-02 13:31:58.422558
2022-12-02 13:31:58.434303
2022-12-02 13:31:58.443835
2022-12-02 13:31:58.451424
2022-12-02 13:31:58.463719
2022-12-02 13:31:58.472086
2022-12-02 13:31:58.479785
2022-12-02 13:31:58.488802
2022-12-02 13:31:58.500726
2022-12-02 13:31:58.509288
2022-12-02 13:31:58.517504
2022-12-02 13:31:58.528767
2022-12-02 13:31:58.537942
2022-12-02 13:31:58.545563
2022-12-02 13:31:58.553641
2022-12-02 13:31:58.566044
2022-12-02 13:31:58.573985
2022-12-02 13:31:58.582232
2022-12-02 13:31:58.594458
2022-12-02 13:31:58.602412
2022-12-02 13:31:58.610690
2022-12-02 13:31:58.618715
2022-12-02 13:31:58.631529
2022-12-02 13:31:58.639852
2022-12-02 13:31:58.647991
2022-12-02 13:31:58.660426
2022-12-02 13:31:58.668448
2022-12-02 13:31:58.676819
2022-12-02 13:31:58.684425
2022-12-02 13:31:58.696079
2022-12-02 13:31:58.705113
2022-12-02 13:31:58.713187
2022-12-02 13:31:58.721455
2022-12-02 13:31:58.733999
2022-12-02 13:31:58.742341
2022-12-02 13:31:58.750237
2022-12-02 13:31:58.762200
2022-12-02 13:31:58.769894
2022-12-02 13:31:58.778706
2022-12-02 13:31:58.787055
2022-12-02 13:31:58.799163
2022-12-02 13:31:58.807465
2022-12-02 13:31:58.815779
2022-12-02 13:31:58.827739
2022-12-02 13:31:58.835870
2022-12-02 13:31:58.843698
2022-12-02 13:31:58.852831
2022-12-02 13:31:58.864845
2022-12-02 13:31:58.872168
2022-12-02 13:31:58.880758
2022-12-02 13:31:58.892763
2022-12-02 13:31:58.901856
2022-12-02 13:31:58.909900
2022-12-02 13:31:58.917130
2022-12-02 13:31:58.930274
2022-12-02 13:31:58.938170
2022-12-02 13:31:58.946686
2022-12-02 13:31:58.958132
2022-12-02 13:31:58.967067
2022-12-02 13:31:58.975078
2022-12-02 13:31:58.983390
2022-12-02 13:31:58.995667
2022-12-02 13:31:59.003434
2022-12-02 13:31:59.011602
2022-12-02 13:31:59.024567
2022-12-02 13:31:59.032708
2022-12-02 13:31:59.040808
2022-12-02 13:31:59.048807
2022-12-02 13:31:59.061472
2022-12-02 13:31:59.069165
2022-12-02 13:31:59.077936
2022-12-02 13:31:59.090165
2022-12-02 13:31:59.098363
2022-12-02 13:31:59.106790
2022-12-02 13:31:59.114636
2022-12-02 13:31:59.127105
2022-12-02 13:31:59.134956
2022-12-02 13:31:59.143760
2022-12-02 13:31:59.155812
2022-12-02 13:31:59.163991
2022-12-02 13:31:59.171695
2022-12-02 13:31:59.179412
2022-12-02 13:31:59.192754
2022-12-02 13:31:59.200608
2022-12-02 13:31:59.209044
2022-12-02 13:31:59.222064
2022-12-02 13:31:59.229629
2022-12-02 13:31:59.237998
2022-12-02 13:31:59.246105
2022-12-02 13:31:59.258376
2022-12-02 13:31:59.266656
2022-12-02 13:31:59.274882
2022-12-02 13:31:59.286748
2022-12-02 13:31:59.295071
2022-12-02 13:31:59.302724
2022-12-02 13:31:59.311938
2022-12-02 13:31:59.322968
2022-12-02 13:31:59.332097
2022-12-02 13:31:59.340073
2022-12-02 13:31:59.351654
2022-12-02 13:31:59.360021
2022-12-02 13:31:59.368061
2022-12-02 13:31:59.377640
2022-12-02 13:31:59.390038
2022-12-02 13:31:59.397003
2022-12-02 13:31:59.405959
2022-12-02 13:31:59.417332
2022-12-02 13:31:59.425152
2022-12-02 13:31:59.433610
2022-12-02 13:31:59.442661
2022-12-02 13:31:59.454580
2022-12-02 13:31:59.463120
2022-12-02 13:31:59.471167
2022-12-02 13:31:59.483468
2022-12-02 13:31:59.492322
2022-12-02 13:31:59.499378
2022-12-02 13:31:59.508788
2022-12-02 13:31:59.521112
2022-12-02 13:31:59.529215
2022-12-02 13:31:59.537489
2022-12-02 13:31:59.544910
2022-12-02 13:31:59.557929
2022-12-02 13:31:59.565185
2022-12-02 13:31:59.573875
2022-12-02 13:31:59.585871
2022-12-02 13:31:59.594246
2022-12-02 13:31:59.602147
2022-12-02 13:31:59.610645
2022-12-02 13:31:59.622367
2022-12-02 13:31:59.630779
2022-12-02 13:31:59.638425
2022-12-02 13:31:59.650498
2022-12-02 13:31:59.660387
2022-12-02 13:31:59.667483
2022-12-02 13:31:59.676755
2022-12-02 13:31:59.689047
2022-12-02 13:31:59.696659
2022-12-02 13:31:59.705407
2022-12-02 13:31:59.717201
2022-12-02 13:31:59.725882
2022-12-02 13:31:59.733395
2022-12-02 13:31:59.741756
2022-12-02 13:31:59.754085
2022-12-02 13:31:59.762092
2022-12-02 13:31:59.770395
2022-12-02 13:31:59.782667
2022-12-02 13:31:59.790839
2022-12-02 13:31:59.798818
2022-12-02 13:31:59.807166
2022-12-02 13:31:59.819165
2022-12-02 13:31:59.827671
2022-12-02 13:31:59.835443
2022-12-02 13:31:59.847759
2022-12-02 13:31:59.856194
2022-12-02 13:31:59.864292
2022-12-02 13:31:59.873360
2022-12-02 13:31:59.884691
2022-12-02 13:31:59.893759
2022-12-02 13:31:59.900637
2022-12-02 13:31:59.913156
2022-12-02 13:31:59.921965
2022-12-02 13:31:59.929836
2022-12-02 13:31:59.938429
2022-12-02 13:31:59.950320
2022-12-02 13:31:59.958731
2022-12-02 13:31:59.966672
2022-12-02 13:31:59.979558
2022-12-02 13:31:59.988038
2022-12-02 13:31:59.996172
2022-12-02 13:32:00.003215
2022-12-02 13:32:00.015427
2022-12-02 13:32:00.023259
2022-12-02 13:32:00.031877
2022-12-02 13:32:00.044291
2022-12-02 13:32:00.052874
2022-12-02 13:32:00.061221
2022-12-02 13:32:00.069284
2022-12-02 13:32:00.081981
2022-12-02 13:32:00.090007
2022-12-02 13:32:00.098219
2022-12-02 13:32:00.110412
2022-12-02 13:32:00.117938
2022-12-02 13:32:00.126718
2022-12-02 13:32:00.134323
2022-12-02 13:32:00.146700
2022-12-02 13:32:00.155836
2022-12-02 13:32:00.162836
2022-12-02 13:32:00.175525
2022-12-02 13:32:00.183453
2022-12-02 13:32:00.192199
2022-12-02 13:32:00.200107
2022-12-02 13:32:00.213079
2022-12-02 13:32:00.221000
2022-12-02 13:32:00.229236
2022-12-02 13:32:00.241207
2022-12-02 13:32:00.249296
2022-12-02 13:32:00.258244
2022-12-02 13:32:00.266252
2022-12-02 13:32:00.278257
2022-12-02 13:32:00.286186
2022-12-02 13:32:00.294688
2022-12-02 13:32:00.306194
2022-12-02 13:32:00.314868
2022-12-02 13:32:00.323389
2022-12-02 13:32:00.331287
2022-12-02 13:32:00.343172
2022-12-02 13:32:00.351103
2022-12-02 13:32:00.359308
2022-12-02 13:32:00.372437
2022-12-02 13:32:00.380622
2022-12-02 13:32:00.388873
2022-12-02 13:32:00.396280
2022-12-02 13:32:00.409521
2022-12-02 13:32:00.417482
2022-12-02 13:32:00.426214
2022-12-02 13:32:00.433581
2022-12-02 13:32:00.445871
2022-12-02 13:32:00.454311
2022-12-02 13:32:00.462555
2022-12-02 13:32:00.475094
2022-12-02 13:32:00.482571
2022-12-02 13:32:00.491887
2022-12-02 13:32:00.498709
2022-12-02 13:32:00.512374
2022-12-02 13:32:00.519767
2022-12-02 13:32:00.527989
2022-12-02 13:32:00.540835
2022-12-02 13:32:00.548295
2022-12-02 13:32:00.557314
2022-12-02 13:32:00.565572
2022-12-02 13:32:00.577788
2022-12-02 13:32:00.585185
2022-12-02 13:32:00.594276
2022-12-02 13:32:00.605843
2022-12-02 13:32:00.613536
2022-12-02 13:32:00.622356
2022-12-02 13:32:00.630570
2022-12-02 13:32:00.642972
2022-12-02 13:32:00.650648
2022-12-02 13:32:00.659820
2022-12-02 13:32:00.670344
2022-12-02 13:32:00.679046
2022-12-02 13:32:00.687970
2022-12-02 13:32:00.695916
2022-12-02 13:32:00.708918
2022-12-02 13:32:00.716806
2022-12-02 13:32:00.724734
2022-12-02 13:32:00.736955
2022-12-02 13:32:00.744676
2022-12-02 13:32:00.753913
2022-12-02 13:32:00.761618
2022-12-02 13:32:00.773319
2022-12-02 13:32:00.781821
2022-12-02 13:32:00.789971
2022-12-02 13:32:00.801645
2022-12-02 13:32:00.810086
2022-12-02 13:32:00.818826
2022-12-02 13:32:00.826814
2022-12-02 13:32:00.839118
2022-12-02 13:32:00.847443
2022-12-02 13:32:00.855307
2022-12-02 13:32:00.867956
2022-12-02 13:32:00.875537
2022-12-02 13:32:00.884367
2022-12-02 13:32:00.893186
2022-12-02 13:32:00.904865
2022-12-02 13:32:00.912840
2022-12-02 13:32:00.921967
2022-12-02 13:32:00.933114
2022-12-02 13:32:00.941997
2022-12-02 13:32:00.950007
2022-12-02 13:32:00.958346
2022-12-02 13:32:00.970534
2022-12-02 13:32:00.978545
2022-12-02 13:32:00.987513
2022-12-02 13:32:00.998931
2022-12-02 13:32:01.006605
2022-12-02 13:32:01.015832
2022-12-02 13:32:01.023688
2022-12-02 13:32:01.035139
2022-12-02 13:32:01.044655
2022-12-02 13:32:01.052098
2022-12-02 13:32:01.064302
2022-12-02 13:32:01.072742
2022-12-02 13:32:01.081315
2022-12-02 13:32:01.089377
2022-12-02 13:32:01.101278
2022-12-02 13:32:01.109966
2022-12-02 13:32:01.117765
2022-12-02 13:32:01.129783
2022-12-02 13:32:01.138172
2022-12-02 13:32:01.145731
2022-12-02 13:32:01.154549
2022-12-02 13:32:01.166405
2022-12-02 13:32:01.174878
2022-12-02 13:32:01.182915
2022-12-02 13:32:01.195173
2022-12-02 13:32:01.204481
2022-12-02 13:32:01.212625
2022-12-02 13:32:01.219620
2022-12-02 13:32:01.232721
2022-12-02 13:32:01.241345
2022-12-02 13:32:01.249520
2022-12-02 13:32:01.260575
2022-12-02 13:32:01.268794
2022-12-02 13:32:01.277161
2022-12-02 13:32:01.285772
2022-12-02 13:32:01.297730
2022-12-02 13:32:01.306452
2022-12-02 13:32:01.314193
2022-12-02 13:32:01.322843
2022-12-02 13:32:01.333954
2022-12-02 13:32:01.342754
2022-12-02 13:32:01.350888
2022-12-02 13:32:01.363083
2022-12-02 13:32:01.371424
2022-12-02 13:32:01.379426
2022-12-02 13:32:01.387479
2022-12-02 13:32:01.399585
2022-12-02 13:32:01.409285
2022-12-02 13:32:01.416157
2022-12-02 13:32:01.429053
2022-12-02 13:32:01.437222
2022-12-02 13:32:01.445137
2022-12-02 13:32:01.452629
2022-12-02 13:32:01.466082
2022-12-02 13:32:01.473675
2022-12-02 13:32:01.482159
2022-12-02 13:32:01.493998
2022-12-02 13:32:01.501939
2022-12-02 13:32:01.510927
2022-12-02 13:32:01.519315
2022-12-02 13:32:01.531463
2022-12-02 13:32:01.540451
2022-12-02 13:32:01.547790
2022-12-02 13:32:01.560089
2022-12-02 13:32:01.568309
2022-12-02 13:32:01.576094
2022-12-02 13:32:01.584783
2022-12-02 13:32:01.596821
2022-12-02 13:32:01.605755
2022-12-02 13:32:01.613167
2022-12-02 13:32:01.625986
2022-12-02 13:32:01.633099
2022-12-02 13:32:01.642386
2022-12-02 13:32:01.650258
2022-12-02 13:32:01.661965
2022-12-02 13:32:01.670601
2022-12-02 13:32:01.678374
2022-12-02 13:32:01.690870
2022-12-02 13:32:01.698944
2022-12-02 13:32:01.707854
2022-12-02 13:32:01.715932
2022-12-02 13:32:01.727852
2022-12-02 13:32:01.736406
2022-12-02 13:32:01.743383
2022-12-02 13:32:01.756962
2022-12-02 13:32:01.764780
2022-12-02 13:32:01.773384
2022-12-02 13:32:01.781252
2022-12-02 13:32:01.794266
2022-12-02 13:32:01.801706
2022-12-02 13:32:01.810178
2022-12-02 13:32:01.821991
2022-12-02 13:32:01.829744
2022-12-02 13:32:01.838270
2022-12-02 13:32:01.846793
2022-12-02 13:32:01.859835
2022-12-02 13:32:01.866821
2022-12-02 13:32:01.876293
2022-12-02 13:32:01.887744
2022-12-02 13:32:01.895522
2022-12-02 13:32:01.904989
2022-12-02 13:32:01.912992
2022-12-02 13:32:01.924974
2022-12-02 13:32:01.932723
2022-12-02 13:32:01.940302
2022-12-02 13:32:01.952951
2022-12-02 13:32:01.960858
2022-12-02 13:32:01.969366
2022-12-02 13:32:01.978056
2022-12-02 13:32:01.989740
2022-12-02 13:32:01.997847
2022-12-02 13:32:02.005880
2022-12-02 13:32:02.018002
2022-12-02 13:32:02.026248
2022-12-02 13:32:02.035135
2022-12-02 13:32:02.042609
2022-12-02 13:32:02.055385
2022-12-02 13:32:02.063459
2022-12-02 13:32:02.071179
2022-12-02 13:32:02.083836
2022-12-02 13:32:02.092104
2022-12-02 13:32:02.099944
2022-12-02 13:32:02.108265
2022-12-02 13:32:02.120409
2022-12-02 13:32:02.128765
2022-12-02 13:32:02.137681
2022-12-02 13:32:02.149467
2022-12-02 13:32:02.158015
2022-12-02 13:32:02.166139
2022-12-02 13:32:02.174423
2022-12-02 13:32:02.186083
2022-12-02 13:32:02.195249
2022-12-02 13:32:02.203656
2022-12-02 13:32:02.211425
2022-12-02 13:32:02.223617
2022-12-02 13:32:02.231416
2022-12-02 13:32:02.239826
2022-12-02 13:32:02.252148
2022-12-02 13:32:02.260472
2022-12-02 13:32:02.268494
2022-12-02 13:32:02.276060
2022-12-02 13:32:02.290024
2022-12-02 13:32:02.297638
2022-12-02 13:32:02.306349
2022-12-02 13:32:02.317170
2022-12-02 13:32:02.326276
2022-12-02 13:32:02.333830
2022-12-02 13:32:02.342470
2022-12-02 13:32:02.355545
2022-12-02 13:32:02.362883
2022-12-02 13:32:02.371844
2022-12-02 13:32:02.383427
2022-12-02 13:32:02.392318
2022-12-02 13:32:02.399270
2022-12-02 13:32:02.408316
2022-12-02 13:32:02.420219
2022-12-02 13:32:02.428314
2022-12-02 13:32:02.436617
2022-12-02 13:32:02.449109
2022-12-02 13:32:02.457437
2022-12-02 13:32:02.465808
2022-12-02 13:32:02.473805
2022-12-02 13:32:02.486042
2022-12-02 13:32:02.494247
2022-12-02 13:32:02.502079
2022-12-02 13:32:02.514551
2022-12-02 13:32:02.522943
2022-12-02 13:32:02.531012
2022-12-02 13:32:02.539173
2022-12-02 13:32:02.550402
2022-12-02 13:32:02.559642
2022-12-02 13:32:02.567693
2022-12-02 13:32:02.580336
2022-12-02 13:32:02.588163
2022-12-02 13:32:02.596483
2022-12-02 13:32:02.604563
2022-12-02 13:32:02.616034
2022-12-02 13:32:02.625794
2022-12-02 13:32:02.632697
2022-12-02 13:32:02.644998
2022-12-02 13:32:02.654014
2022-12-02 13:32:02.661526
2022-12-02 13:32:02.670331
2022-12-02 13:32:02.681472
2022-12-02 13:32:02.690964
2022-12-02 13:32:02.699332
2022-12-02 13:32:02.710981
2022-12-02 13:32:02.719980
2022-12-02 13:32:02.727485
2022-12-02 13:32:02.736366
2022-12-02 13:32:02.748683
2022-12-02 13:32:02.756915
2022-12-02 13:32:02.764764
2022-12-02 13:32:02.777214
2022-12-02 13:32:02.784671
2022-12-02 13:32:02.793139
2022-12-02 13:32:02.801161
2022-12-02 13:32:02.813419
2022-12-02 13:32:02.821660
2022-12-02 13:32:02.829763
2022-12-02 13:32:02.842460
2022-12-02 13:32:02.850470
2022-12-02 13:32:02.858824
2022-12-02 13:32:02.866530
2022-12-02 13:32:02.878447
2022-12-02 13:32:02.887415
2022-12-02 13:32:02.894959
2022-12-02 13:32:02.907450
2022-12-02 13:32:02.915787
2022-12-02 13:32:02.923678
2022-12-02 13:32:02.931489
2022-12-02 13:32:02.944442
2022-12-02 13:32:02.953582
2022-12-02 13:32:02.961205
2022-12-02 13:32:02.973308
2022-12-02 13:32:02.982031
2022-12-02 13:32:02.989682
2022-12-02 13:32:02.997390
2022-12-02 13:32:03.009635
2022-12-02 13:32:03.018061
2022-12-02 13:32:03.026713
2022-12-02 13:32:03.037832
2022-12-02 13:32:03.047023
2022-12-02 13:32:03.055357
2022-12-02 13:32:03.062982
2022-12-02 13:32:03.075894
2022-12-02 13:32:03.083142
2022-12-02 13:32:03.091798
2022-12-02 13:32:03.100087
2022-12-02 13:32:03.112560
2022-12-02 13:32:03.120267
2022-12-02 13:32:03.128700
2022-12-02 13:32:03.140809
2022-12-02 13:32:03.149258
2022-12-02 13:32:03.157357
2022-12-02 13:32:03.165788
2022-12-02 13:32:03.177532
2022-12-02 13:32:03.186311
2022-12-02 13:32:03.194318
2022-12-02 13:32:03.206323
2022-12-02 13:32:03.214276
2022-12-02 13:32:03.222382
2022-12-02 13:32:03.231274
2022-12-02 13:32:03.243110
2022-12-02 13:32:03.251831
2022-12-02 13:32:03.259116
2022-12-02 13:32:03.272068
2022-12-02 13:32:03.280070
2022-12-02 13:32:03.288215
2022-12-02 13:32:03.296642
2022-12-02 13:32:03.309002
2022-12-02 13:32:03.316958
2022-12-02 13:32:03.325445
2022-12-02 13:32:03.337707
2022-12-02 13:32:03.345256
2022-12-02 13:32:03.354180
2022-12-02 13:32:03.361900
2022-12-02 13:32:03.374380
2022-12-02 13:32:03.382491
2022-12-02 13:32:03.390971
2022-12-02 13:32:03.402515
2022-12-02 13:32:03.411405
2022-12-02 13:32:03.419559
2022-12-02 13:32:03.427370
2022-12-02 13:32:03.439701
2022-12-02 13:32:03.447998
2022-12-02 13:32:03.455623
2022-12-02 13:32:03.468747
2022-12-02 13:32:03.476913
2022-12-02 13:32:03.485091
2022-12-02 13:32:03.493355
2022-12-02 13:32:03.505624
2022-12-02 13:32:03.513973
2022-12-02 13:32:03.522233
2022-12-02 13:32:03.534365
2022-12-02 13:32:03.542739
2022-12-02 13:32:03.550870
2022-12-02 13:32:03.559025
2022-12-02 13:32:03.571450
2022-12-02 13:32:03.579955
2022-12-02 13:32:03.587561
2022-12-02 13:32:03.599888
2022-12-02 13:32:03.608835
2022-12-02 13:32:03.615516
2022-12-02 13:32:03.625303
2022-12-02 13:32:03.637268
2022-12-02 13:32:03.645046
2022-12-02 13:32:03.653434
2022-12-02 13:32:03.665619
2022-12-02 13:32:03.674278
2022-12-02 13:32:03.681455
2022-12-02 13:32:03.689677
2022-12-02 13:32:03.702461
2022-12-02 13:32:03.710640
2022-12-02 13:32:03.718888
2022-12-02 13:32:03.730992
2022-12-02 13:32:03.739056
2022-12-02 13:32:03.747503
2022-12-02 13:32:03.755728
2022-12-02 13:32:03.767857
2022-12-02 13:32:03.776755
2022-12-02 13:32:03.783852
2022-12-02 13:32:03.796731
2022-12-02 13:32:03.805450
2022-12-02 13:32:03.812664
2022-12-02 13:32:03.821549
2022-12-02 13:32:03.832978
2022-12-02 13:32:03.841644
2022-12-02 13:32:03.849432
2022-12-02 13:32:03.861343
2022-12-02 13:32:03.870420
2022-12-02 13:32:03.878661
2022-12-02 13:32:03.886870
2022-12-02 13:32:03.898674
2022-12-02 13:32:03.907472
2022-12-02 13:32:03.915321
2022-12-02 13:32:03.927653
2022-12-02 13:32:03.936283
2022-12-02 13:32:03.944161
2022-12-02 13:32:03.952891
2022-12-02 13:32:03.965188
2022-12-02 13:32:03.971740
2022-12-02 13:32:03.981581
2022-12-02 13:32:03.989761
2022-12-02 13:32:04.001123
2022-12-02 13:32:04.009713
2022-12-02 13:32:04.017786
2022-12-02 13:32:04.029929
2022-12-02 13:32:04.038398
2022-12-02 13:32:04.046158
2022-12-02 13:32:04.054955
2022-12-02 13:32:04.066544
2022-12-02 13:32:04.074935
2022-12-02 13:32:04.082946
2022-12-02 13:32:04.095162
2022-12-02 13:32:04.104197
2022-12-02 13:32:04.112061
2022-12-02 13:32:04.120852
2022-12-02 13:32:04.132312
2022-12-02 13:32:04.140777
2022-12-02 13:32:04.148823
2022-12-02 13:32:04.160993
2022-12-02 13:32:04.168774
2022-12-02 13:32:04.177469
2022-12-02 13:32:04.185787
2022-12-02 13:32:04.198058
2022-12-02 13:32:04.206299
2022-12-02 13:32:04.214286
2022-12-02 13:32:04.226488
2022-12-02 13:32:04.234772
2022-12-02 13:32:04.243275
2022-12-02 13:32:04.251301
2022-12-02 13:32:04.263307
2022-12-02 13:32:04.272463
2022-12-02 13:32:04.280337
2022-12-02 13:32:04.291899
2022-12-02 13:32:04.299606
2022-12-02 13:32:04.308618
2022-12-02 13:32:04.316204
2022-12-02 13:32:04.328900
2022-12-02 13:32:04.336993
2022-12-02 13:32:04.345585
2022-12-02 13:32:04.357451
2022-12-02 13:32:04.365537
2022-12-02 13:32:04.373856
2022-12-02 13:32:04.382116
2022-12-02 13:32:04.394188
2022-12-02 13:32:04.402408
2022-12-02 13:32:04.410881
2022-12-02 13:32:04.423166
2022-12-02 13:32:04.431402
2022-12-02 13:32:04.439546
2022-12-02 13:32:04.447717
2022-12-02 13:32:04.459932
2022-12-02 13:32:04.468051
2022-12-02 13:32:04.476171
2022-12-02 13:32:04.488119
2022-12-02 13:32:04.496810
2022-12-02 13:32:04.505090
2022-12-02 13:32:04.513254
2022-12-02 13:32:04.525020
2022-12-02 13:32:04.533345
2022-12-02 13:32:04.541119
2022-12-02 13:32:04.553375
2022-12-02 13:32:04.562037
2022-12-02 13:32:04.570418
2022-12-02 13:32:04.578820
2022-12-02 13:32:04.590515
2022-12-02 13:32:04.599148
2022-12-02 13:32:04.606627
2022-12-02 13:32:04.619368
2022-12-02 13:32:04.627791
2022-12-02 13:32:04.636109
2022-12-02 13:32:04.644367
2022-12-02 13:32:04.656661
2022-12-02 13:32:04.664741
2022-12-02 13:32:04.672980
2022-12-02 13:32:04.685359
2022-12-02 13:32:04.693433
2022-12-02 13:32:04.701874
2022-12-02 13:32:04.710405
2022-12-02 13:32:04.721769
2022-12-02 13:32:04.730645
2022-12-02 13:32:04.738428
2022-12-02 13:32:04.750339
2022-12-02 13:32:04.758687
2022-12-02 13:32:04.767452
2022-12-02 13:32:04.775447
2022-12-02 13:32:04.788621
2022-12-02 13:32:04.795811
2022-12-02 13:32:04.804872
2022-12-02 13:32:04.812724
2022-12-02 13:32:04.825432
2022-12-02 13:32:04.832632
2022-12-02 13:32:04.841291
2022-12-02 13:32:04.853923
2022-12-02 13:32:04.861201
2022-12-02 13:32:04.869587
2022-12-02 13:32:04.877869
2022-12-02 13:32:04.890678
2022-12-02 13:32:04.898379
2022-12-02 13:32:04.906523
2022-12-02 13:32:04.918860
2022-12-02 13:32:04.927049
2022-12-02 13:32:04.935053
2022-12-02 13:32:04.943333
2022-12-02 13:32:04.955417
2022-12-02 13:32:04.963493
2022-12-02 13:32:04.972104
2022-12-02 13:32:04.984206
2022-12-02 13:32:04.992329
2022-12-02 13:32:05.000395
2022-12-02 13:32:05.008651
2022-12-02 13:32:05.020267
2022-12-02 13:32:05.029303
2022-12-02 13:32:05.037438
2022-12-02 13:32:05.048921
2022-12-02 13:32:05.058051
2022-12-02 13:32:05.065659
2022-12-02 13:32:05.074662
2022-12-02 13:32:05.086711
2022-12-02 13:32:05.094938
2022-12-02 13:32:05.103097
2022-12-02 13:32:05.114637
2022-12-02 13:32:05.123919
2022-12-02 13:32:05.131533
2022-12-02 13:32:05.139872
2022-12-02 13:32:05.152015
2022-12-02 13:32:05.159897
2022-12-02 13:32:05.168533
2022-12-02 13:32:05.180520
2022-12-02 13:32:05.189257
2022-12-02 13:32:05.197017
2022-12-02 13:32:05.204880
2022-12-02 13:32:05.216999
2022-12-02 13:32:05.225553
2022-12-02 13:32:05.234434
2022-12-02 13:32:05.246099
2022-12-02 13:32:05.254359
2022-12-02 13:32:05.261862
2022-12-02 13:32:05.270661
2022-12-02 13:32:05.283275
2022-12-02 13:32:05.291321
2022-12-02 13:32:05.299279
2022-12-02 13:32:05.311390
2022-12-02 13:32:05.319627
2022-12-02 13:32:05.328364
2022-12-02 13:32:05.336179
2022-12-02 13:32:05.348240
2022-12-02 13:32:05.356984
2022-12-02 13:32:05.364486
2022-12-02 13:32:05.377140
2022-12-02 13:32:05.385117
2022-12-02 13:32:05.393898
2022-12-02 13:32:05.401771
2022-12-02 13:32:05.414491
2022-12-02 13:32:05.421790
2022-12-02 13:32:05.430385
2022-12-02 13:32:05.442724
2022-12-02 13:32:05.450632
2022-12-02 13:32:05.458787
2022-12-02 13:32:05.467246
2022-12-02 13:32:05.479097
2022-12-02 13:32:05.487367
2022-12-02 13:32:05.495957
2022-12-02 13:32:05.508533
2022-12-02 13:32:05.516758
2022-12-02 13:32:05.524930
2022-12-02 13:32:05.533091
2022-12-02 13:32:05.545485
2022-12-02 13:32:05.553599
2022-12-02 13:32:05.561575
2022-12-02 13:32:05.574448
2022-12-02 13:32:05.582428
2022-12-02 13:32:05.590766
2022-12-02 13:32:05.598855
2022-12-02 13:32:05.610686
2022-12-02 13:32:05.619885
2022-12-02 13:32:05.628070
2022-12-02 13:32:05.640534
2022-12-02 13:32:05.647896
2022-12-02 13:32:05.656925
2022-12-02 13:32:05.664809
2022-12-02 13:32:05.676287
2022-12-02 13:32:05.684911
2022-12-02 13:32:05.692360
2022-12-02 13:32:05.701153
2022-12-02 13:32:05.713473
2022-12-02 13:32:05.721367
2022-12-02 13:32:05.729828
2022-12-02 13:32:05.741781
2022-12-02 13:32:05.749895
2022-12-02 13:32:05.758109
2022-12-02 13:32:05.766585
2022-12-02 13:32:05.779001
2022-12-02 13:32:05.787159
2022-12-02 13:32:05.795087
2022-12-02 13:32:05.807384
2022-12-02 13:32:05.815461
2022-12-02 13:32:05.824302
2022-12-02 13:32:05.832048
2022-12-02 13:32:05.844473
2022-12-02 13:32:05.852974
2022-12-02 13:32:05.861139
2022-12-02 13:32:05.874125
2022-12-02 13:32:05.881382
2022-12-02 13:32:05.889703
2022-12-02 13:32:05.898046
2022-12-02 13:32:05.909881
2022-12-02 13:32:05.918451
2022-12-02 13:32:05.926697
2022-12-02 13:32:05.939469
2022-12-02 13:32:05.947652
2022-12-02 13:32:05.955868
2022-12-02 13:32:05.964049
2022-12-02 13:32:05.975913
2022-12-02 13:32:05.983898
2022-12-02 13:32:05.992570
2022-12-02 13:32:06.004363
2022-12-02 13:32:06.012644
2022-12-02 13:32:06.020981
2022-12-02 13:32:06.029114
2022-12-02 13:32:06.040690
2022-12-02 13:32:06.048743
2022-12-02 13:32:06.057317
2022-12-02 13:32:06.069667
2022-12-02 13:32:06.078008
2022-12-02 13:32:06.086366
2022-12-02 13:32:06.094030
2022-12-02 13:32:06.106783
2022-12-02 13:32:06.114429
2022-12-02 13:32:06.123224
2022-12-02 13:32:06.135377
2022-12-02 13:32:06.142827
2022-12-02 13:32:06.151416
2022-12-02 13:32:06.159937
2022-12-02 13:32:06.172144
2022-12-02 13:32:06.181134
2022-12-02 13:32:06.188986
2022-12-02 13:32:06.199943
2022-12-02 13:32:06.209502
2022-12-02 13:32:06.217231
2022-12-02 13:32:06.225731
2022-12-02 13:32:06.237990
2022-12-02 13:32:06.245811
2022-12-02 13:32:06.254452
2022-12-02 13:32:06.266565
2022-12-02 13:32:06.274888
2022-12-02 13:32:06.282841
2022-12-02 13:32:06.291752
2022-12-02 13:32:06.304138
2022-12-02 13:32:06.311147
2022-12-02 13:32:06.320166
2022-12-02 13:32:06.331223
2022-12-02 13:32:06.340023
2022-12-02 13:32:06.348136
2022-12-02 13:32:06.356293
2022-12-02 13:32:06.368664
2022-12-02 13:32:06.376790
2022-12-02 13:32:06.384614
2022-12-02 13:32:06.397216
2022-12-02 13:32:06.405609
2022-12-02 13:32:06.413333
2022-12-02 13:32:06.421705
2022-12-02 13:32:06.434260
2022-12-02 13:32:06.442407
2022-12-02 13:32:06.449579
2022-12-02 13:32:06.462658
2022-12-02 13:32:06.471024
2022-12-02 13:32:06.479372
2022-12-02 13:32:06.487383
2022-12-02 13:32:06.499386
2022-12-02 13:32:06.507844
2022-12-02 13:32:06.515903
2022-12-02 13:32:06.528276
2022-12-02 13:32:06.536441
2022-12-02 13:32:06.544987
2022-12-02 13:32:06.552998
2022-12-02 13:32:06.564665
2022-12-02 13:32:06.573623
2022-12-02 13:32:06.581412
2022-12-02 13:32:06.589928
2022-12-02 13:32:06.602026
2022-12-02 13:32:06.609956
2022-12-02 13:32:06.619442
2022-12-02 13:32:06.630712
2022-12-02 13:32:06.639204
2022-12-02 13:32:06.647064
2022-12-02 13:32:06.656364
2022-12-02 13:32:06.668583
2022-12-02 13:32:06.676425
2022-12-02 13:32:06.684095
2022-12-02 13:32:06.695885
2022-12-02 13:32:06.704010
2022-12-02 13:32:06.713311
2022-12-02 13:32:06.721748
2022-12-02 13:32:06.732914
2022-12-02 13:32:06.740761
2022-12-02 13:32:06.749613
2022-12-02 13:32:06.762061
2022-12-02 13:32:06.770459
2022-12-02 13:32:06.778468
2022-12-02 13:32:06.786917
2022-12-02 13:32:06.798695
2022-12-02 13:32:06.807158
2022-12-02 13:32:06.815265
2022-12-02 13:32:06.827886
2022-12-02 13:32:06.836485
2022-12-02 13:32:06.843982
2022-12-02 13:32:06.852976
2022-12-02 13:32:06.864457
2022-12-02 13:32:06.873440
2022-12-02 13:32:06.880787
2022-12-02 13:32:06.893602
2022-12-02 13:32:06.902012
2022-12-02 13:32:06.909665
2022-12-02 13:32:06.918043
2022-12-02 13:32:06.930300
2022-12-02 13:32:06.938389
2022-12-02 13:32:06.946264
2022-12-02 13:32:06.958894
2022-12-02 13:32:06.966386
2022-12-02 13:32:06.975014
2022-12-02 13:32:06.983289
2022-12-02 13:32:06.995396
2022-12-02 13:32:07.003282
2022-12-02 13:32:07.012038
2022-12-02 13:32:07.024028
2022-12-02 13:32:07.032593
2022-12-02 13:32:07.040135
2022-12-02 13:32:07.048802
2022-12-02 13:32:07.060615
2022-12-02 13:32:07.069256
2022-12-02 13:32:07.076827
2022-12-02 13:32:07.090298
2022-12-02 13:32:07.097554
2022-12-02 13:32:07.106451
2022-12-02 13:32:07.114224
2022-12-02 13:32:07.126501
2022-12-02 13:32:07.134901
2022-12-02 13:32:07.143196
2022-12-02 13:32:07.155155
2022-12-02 13:32:07.163754
2022-12-02 13:32:07.171732
2022-12-02 13:32:07.180131
2022-12-02 13:32:07.192292
2022-12-02 13:32:07.200599
2022-12-02 13:32:07.208759
2022-12-02 13:32:07.220831
2022-12-02 13:32:07.229707
2022-12-02 13:32:07.237603
2022-12-02 13:32:07.245683
2022-12-02 13:32:07.258293
2022-12-02 13:32:07.265827
2022-12-02 13:32:07.274275
2022-12-02 13:32:07.286509
2022-12-02 13:32:07.294786
2022-12-02 13:32:07.302969
2022-12-02 13:32:07.310389
2022-12-02 13:32:07.323916
2022-12-02 13:32:07.331448
2022-12-02 13:32:07.339681
2022-12-02 13:32:07.352171
2022-12-02 13:32:07.359611
2022-12-02 13:32:07.368399
2022-12-02 13:32:07.376155
2022-12-02 13:32:07.388656
2022-12-02 13:32:07.396704
2022-12-02 13:32:07.405068
2022-12-02 13:32:07.417473
2022-12-02 13:32:07.425139
2022-12-02 13:32:07.433450
2022-12-02 13:32:07.441793
2022-12-02 13:32:07.453774
2022-12-02 13:32:07.462522
2022-12-02 13:32:07.470853
2022-12-02 13:32:07.478721
2022-12-02 13:32:07.491793
2022-12-02 13:32:07.498974
2022-12-02 13:32:07.508151
2022-12-02 13:32:07.519534
2022-12-02 13:32:07.527970
2022-12-02 13:32:07.535447
2022-12-02 13:32:07.544169
2022-12-02 13:32:07.556217
2022-12-02 13:32:07.564667
2022-12-02 13:32:07.573157
2022-12-02 13:32:07.585145
2022-12-02 13:32:07.593269
2022-12-02 13:32:07.601376
2022-12-02 13:32:07.609379
2022-12-02 13:32:07.622385
2022-12-02 13:32:07.630477
2022-12-02 13:32:07.638791
2022-12-02 13:32:07.651013
2022-12-02 13:32:07.658927
2022-12-02 13:32:07.667995
2022-12-02 13:32:07.676198
2022-12-02 13:32:07.688544
2022-12-02 13:32:07.695587
2022-12-02 13:32:07.704933
2022-12-02 13:32:07.716340
2022-12-02 13:32:07.725470
2022-12-02 13:32:07.732699
2022-12-02 13:32:07.740884
2022-12-02 13:32:07.752928
2022-12-02 13:32:07.761751
2022-12-02 13:32:07.770302
2022-12-02 13:32:07.781614
2022-12-02 13:32:07.790468
2022-12-02 13:32:07.798282
2022-12-02 13:32:07.806729
2022-12-02 13:32:07.818661
2022-12-02 13:32:07.826940
2022-12-02 13:32:07.834775
2022-12-02 13:32:07.846821
2022-12-02 13:32:07.856486
2022-12-02 13:32:07.864042
2022-12-02 13:32:07.872892
2022-12-02 13:32:07.883774
2022-12-02 13:32:07.892040
2022-12-02 13:32:07.901526
2022-12-02 13:32:07.912977
2022-12-02 13:32:07.920487
2022-12-02 13:32:07.929692
2022-12-02 13:32:07.937673
2022-12-02 13:32:07.949465
2022-12-02 13:32:07.957860
2022-12-02 13:32:07.966365
2022-12-02 13:32:07.978090
2022-12-02 13:32:07.986676
2022-12-02 13:32:07.994937
2022-12-02 13:32:08.002627
2022-12-02 13:32:08.014824
2022-12-02 13:32:08.024220
2022-12-02 13:32:08.031160
2022-12-02 13:32:08.044005
2022-12-02 13:32:08.052446
2022-12-02 13:32:08.060414
2022-12-02 13:32:08.069000
2022-12-02 13:32:08.080085
2022-12-02 13:32:08.089968
2022-12-02 13:32:08.097155
2022-12-02 13:32:08.109387
2022-12-02 13:32:08.118087
2022-12-02 13:32:08.126178
2022-12-02 13:32:08.134394
2022-12-02 13:32:08.146399
2022-12-02 13:32:08.154900
2022-12-02 13:32:08.163297
2022-12-02 13:32:08.174902
2022-12-02 13:32:08.183511
2022-12-02 13:32:08.191696
2022-12-02 13:32:08.199911
2022-12-02 13:32:08.211634
2022-12-02 13:32:08.220358
2022-12-02 13:32:08.228533
2022-12-02 13:32:08.241432
2022-12-02 13:32:08.248814
2022-12-02 13:32:08.257830
2022-12-02 13:32:08.265321
2022-12-02 13:32:08.277679
2022-12-02 13:32:08.286059
2022-12-02 13:32:08.293931
2022-12-02 13:32:08.306477
2022-12-02 13:32:08.313664
2022-12-02 13:32:08.321846
2022-12-02 13:32:08.330521
2022-12-02 13:32:08.343074
2022-12-02 13:32:08.351348
2022-12-02 13:32:08.358822
2022-12-02 13:32:08.367630
2022-12-02 13:32:08.380040
2022-12-02 13:32:08.387859
2022-12-02 13:32:08.396276
2022-12-02 13:32:08.408250
2022-12-02 13:32:08.416709
2022-12-02 13:32:08.424561
2022-12-02 13:32:08.432616
2022-12-02 13:32:08.445536
2022-12-02 13:32:08.452874
2022-12-02 13:32:08.461616
2022-12-02 13:32:08.474309
2022-12-02 13:32:08.482397
2022-12-02 13:32:08.490803
2022-12-02 13:32:08.498765
2022-12-02 13:32:08.510777
2022-12-02 13:32:08.519501
2022-12-02 13:32:08.527041
2022-12-02 13:32:08.539882
2022-12-02 13:32:08.547398
2022-12-02 13:32:08.556413
2022-12-02 13:32:08.564491
2022-12-02 13:32:08.576530
2022-12-02 13:32:08.584041
2022-12-02 13:32:08.592914
2022-12-02 13:32:08.604450
2022-12-02 13:32:08.613472
2022-12-02 13:32:08.621338
2022-12-02 13:32:08.629969
2022-12-02 13:32:08.641972
2022-12-02 13:32:08.650576
2022-12-02 13:32:08.658643
2022-12-02 13:32:08.670923
2022-12-02 13:32:08.678806
2022-12-02 13:32:08.687377
2022-12-02 13:32:08.695883
2022-12-02 13:32:08.707737
2022-12-02 13:32:08.715808
2022-12-02 13:32:08.723444
2022-12-02 13:32:08.737015
2022-12-02 13:32:08.745014
2022-12-02 13:32:08.753540
2022-12-02 13:32:08.761366
2022-12-02 13:32:08.773844
2022-12-02 13:32:08.781126
2022-12-02 13:32:08.789855
2022-12-02 13:32:08.801989
2022-12-02 13:32:08.810024
2022-12-02 13:32:08.818194
2022-12-02 13:32:08.826405
2022-12-02 13:32:08.838978
2022-12-02 13:32:08.846793
2022-12-02 13:32:08.855183
2022-12-02 13:32:08.867489
2022-12-02 13:32:08.875553
2022-12-02 13:32:08.884049
2022-12-02 13:32:08.891633
2022-12-02 13:32:08.904458
2022-12-02 13:32:08.912682
2022-12-02 13:32:08.920905
2022-12-02 13:32:08.933055
2022-12-02 13:32:08.941124
2022-12-02 13:32:08.949284
2022-12-02 13:32:08.957352
2022-12-02 13:32:08.970311
2022-12-02 13:32:08.977907
2022-12-02 13:32:08.986526
2022-12-02 13:32:08.997799
2022-12-02 13:32:09.007120
2022-12-02 13:32:09.014265
2022-12-02 13:32:09.023013
2022-12-02 13:32:09.036052
2022-12-02 13:32:09.043518
2022-12-02 13:32:09.052456
2022-12-02 13:32:09.063464
2022-12-02 13:32:09.072198
2022-12-02 13:32:09.080045
2022-12-02 13:32:09.089298
2022-12-02 13:32:09.100589
2022-12-02 13:32:09.108482
2022-12-02 13:32:09.116791
2022-12-02 13:32:09.129432
2022-12-02 13:32:09.137286
2022-12-02 13:32:09.145603
2022-12-02 13:32:09.153895
2022-12-02 13:32:09.166726
2022-12-02 13:32:09.174841
2022-12-02 13:32:09.182865
2022-12-02 13:32:09.194461
2022-12-02 13:32:09.203414
2022-12-02 13:32:09.211801
2022-12-02 13:32:09.219827
2022-12-02 13:32:09.231636
2022-12-02 13:32:09.240285
2022-12-02 13:32:09.247937
2022-12-02 13:32:09.257237
2022-12-02 13:32:09.269019
2022-12-02 13:32:09.277551
2022-12-02 13:32:09.285920
2022-12-02 13:32:09.297371
2022-12-02 13:32:09.305556
2022-12-02 13:32:09.313390
2022-12-02 13:32:09.322288
2022-12-02 13:32:09.334466
2022-12-02 13:32:09.342793
2022-12-02 13:32:09.350717
2022-12-02 13:32:09.363135
2022-12-02 13:32:09.371038
2022-12-02 13:32:09.379553
2022-12-02 13:32:09.387685
2022-12-02 13:32:09.399481
2022-12-02 13:32:09.408936
2022-12-02 13:32:09.416040
2022-12-02 13:32:09.428481
2022-12-02 13:32:09.436693
2022-12-02 13:32:09.444917
2022-12-02 13:32:09.453846
2022-12-02 13:32:09.464868
2022-12-02 13:32:09.473197
2022-12-02 13:32:09.482099
2022-12-02 13:32:09.494079
2022-12-02 13:32:09.502502
2022-12-02 13:32:09.510658
2022-12-02 13:32:09.518391
2022-12-02 13:32:09.530912
2022-12-02 13:32:09.540475
2022-12-02 13:32:09.547191
2022-12-02 13:32:09.559508
2022-12-02 13:32:09.567648
2022-12-02 13:32:09.575579
2022-12-02 13:32:09.584434
2022-12-02 13:32:09.595639
2022-12-02 13:32:09.605412
2022-12-02 13:32:09.613205
2022-12-02 13:32:09.625284
2022-12-02 13:32:09.633030
2022-12-02 13:32:09.641454
2022-12-02 13:32:09.649854
2022-12-02 13:32:09.662273
2022-12-02 13:32:09.670407
2022-12-02 13:32:09.678215
2022-12-02 13:32:09.691221
2022-12-02 13:32:09.698901
2022-12-02 13:32:09.707751
2022-12-02 13:32:09.715458
2022-12-02 13:32:09.727539
2022-12-02 13:32:09.736547
2022-12-02 13:32:09.743869
2022-12-02 13:32:09.756472
2022-12-02 13:32:09.764348
2022-12-02 13:32:09.773017
2022-12-02 13:32:09.780664
2022-12-02 13:32:09.792712
2022-12-02 13:32:09.800931
2022-12-02 13:32:09.809588
2022-12-02 13:32:09.821586
2022-12-02 13:32:09.829589
2022-12-02 13:32:09.837969
2022-12-02 13:32:09.846054
2022-12-02 13:32:09.858621
2022-12-02 13:32:09.866750
2022-12-02 13:32:09.874978
2022-12-02 13:32:09.887097
2022-12-02 13:32:09.895077
2022-12-02 13:32:09.903581
2022-12-02 13:32:09.911715
2022-12-02 13:32:09.924145
2022-12-02 13:32:09.931746
2022-12-02 13:32:09.940261
2022-12-02 13:32:09.952241
2022-12-02 13:32:09.960977
2022-12-02 13:32:09.968631
2022-12-02 13:32:09.976787
2022-12-02 13:32:09.989398
2022-12-02 13:32:09.997415
2022-12-02 13:32:10.005774
2022-12-02 13:32:10.018276
2022-12-02 13:32:10.025977
2022-12-02 13:32:10.034651
2022-12-02 13:32:10.042150
2022-12-02 13:32:10.055195
2022-12-02 13:32:10.063228
2022-12-02 13:32:10.071564
2022-12-02 13:32:10.079260
2022-12-02 13:32:10.092040
2022-12-02 13:32:10.100432
2022-12-02 13:32:10.108357
2022-12-02 13:32:10.121428
2022-12-02 13:32:10.129580
2022-12-02 13:32:10.137824
2022-12-02 13:32:10.145389
2022-12-02 13:32:10.158181
2022-12-02 13:32:10.165791
2022-12-02 13:32:10.174568
2022-12-02 13:32:10.185779
2022-12-02 13:32:10.194759
2022-12-02 13:32:10.202279
2022-12-02 13:32:10.211221
2022-12-02 13:32:10.223888
2022-12-02 13:32:10.231221
2022-12-02 13:32:10.240283
2022-12-02 13:32:10.251921
2022-12-02 13:32:10.259985
2022-12-02 13:32:10.267706
2022-12-02 13:32:10.276233
2022-12-02 13:32:10.289417
2022-12-02 13:32:10.296975
2022-12-02 13:32:10.305305
2022-12-02 13:32:10.316582
2022-12-02 13:32:10.325231
2022-12-02 13:32:10.333024
2022-12-02 13:32:10.341622
2022-12-02 13:32:10.353960
2022-12-02 13:32:10.362397
2022-12-02 13:32:10.370308
2022-12-02 13:32:10.382895
2022-12-02 13:32:10.390791
2022-12-02 13:32:10.399278
2022-12-02 13:32:10.407832
2022-12-02 13:32:10.419954
2022-12-02 13:32:10.427960
2022-12-02 13:32:10.436716
2022-12-02 13:32:10.447529
2022-12-02 13:32:10.457361
2022-12-02 13:32:10.465147
2022-12-02 13:32:10.473172
2022-12-02 13:32:10.486142
2022-12-02 13:32:10.493415
2022-12-02 13:32:10.502061
2022-12-02 13:32:10.513658
2022-12-02 13:32:10.521832
2022-12-02 13:32:10.530325
2022-12-02 13:32:10.538987
2022-12-02 13:32:10.550891
2022-12-02 13:32:10.558748
2022-12-02 13:32:10.566979
2022-12-02 13:32:10.579315
2022-12-02 13:32:10.587914
2022-12-02 13:32:10.596015
2022-12-02 13:32:10.604309
2022-12-02 13:32:10.615582
2022-12-02 13:32:10.624638
2022-12-02 13:32:10.632944
2022-12-02 13:32:10.644738
2022-12-02 13:32:10.653980
2022-12-02 13:32:10.660510
2022-12-02 13:32:10.670033
2022-12-02 13:32:10.681713
2022-12-02 13:32:10.690037
2022-12-02 13:32:10.698200
2022-12-02 13:32:10.709928
2022-12-02 13:32:10.718782
2022-12-02 13:32:10.726525
2022-12-02 13:32:10.734746
2022-12-02 13:32:10.746910
2022-12-02 13:32:10.756474
2022-12-02 13:32:10.763600
2022-12-02 13:32:10.776077
2022-12-02 13:32:10.784306
2022-12-02 13:32:10.792340
2022-12-02 13:32:10.801460
2022-12-02 13:32:10.812726
2022-12-02 13:32:10.821290
2022-12-02 13:32:10.829454
2022-12-02 13:32:10.840835
2022-12-02 13:32:10.849796
2022-12-02 13:32:10.857772
2022-12-02 13:32:10.866196
2022-12-02 13:32:10.878463
2022-12-02 13:32:10.886281
2022-12-02 13:32:10.894964
2022-12-02 13:32:10.906558
2022-12-02 13:32:10.914952
2022-12-02 13:32:10.923930
2022-12-02 13:32:10.931733
2022-12-02 13:32:10.944287
2022-12-02 13:32:10.951853
2022-12-02 13:32:10.960715
2022-12-02 13:32:10.968346
2022-12-02 13:32:10.980912
2022-12-02 13:32:10.988440
2022-12-02 13:32:10.996758
2022-12-02 13:32:11.009716
2022-12-02 13:32:11.018270
2022-12-02 13:32:11.026465
2022-12-02 13:32:11.034409
2022-12-02 13:32:11.045765
2022-12-02 13:32:11.054995
2022-12-02 13:32:11.062410
2022-12-02 13:32:11.074966
2022-12-02 13:32:11.083987
2022-12-02 13:32:11.091459
2022-12-02 13:32:11.100531
2022-12-02 13:32:11.112159
2022-12-02 13:32:11.120949
2022-12-02 13:32:11.129124
2022-12-02 13:32:11.140084
2022-12-02 13:32:11.148716
2022-12-02 13:32:11.157272
2022-12-02 13:32:11.165281
2022-12-02 13:32:11.176854
2022-12-02 13:32:11.185513
2022-12-02 13:32:11.193882
2022-12-02 13:32:11.205565
2022-12-02 13:32:11.214145
2022-12-02 13:32:11.222127
2022-12-02 13:32:11.230743
2022-12-02 13:32:11.243066
2022-12-02 13:32:11.251077
2022-12-02 13:32:11.259021
2022-12-02 13:32:11.271690
2022-12-02 13:32:11.279759
2022-12-02 13:32:11.288017
2022-12-02 13:32:11.295759
2022-12-02 13:32:11.307969
2022-12-02 13:32:11.316875
2022-12-02 13:32:11.324875
2022-12-02 13:32:11.337858
2022-12-02 13:32:11.345749
2022-12-02 13:32:11.353915
2022-12-02 13:32:11.362231
2022-12-02 13:32:11.374327
2022-12-02 13:32:11.382474
2022-12-02 13:32:11.390514
2022-12-02 13:32:11.402199
2022-12-02 13:32:11.410462
2022-12-02 13:32:11.419407
2022-12-02 13:32:11.427125
2022-12-02 13:32:11.439073
2022-12-02 13:32:11.447620
2022-12-02 13:32:11.455981
2022-12-02 13:32:11.468293
2022-12-02 13:32:11.475911
2022-12-02 13:32:11.484214
2022-12-02 13:32:11.492617
2022-12-02 13:32:11.504632
2022-12-02 13:32:11.513439
2022-12-02 13:32:11.521377
2022-12-02 13:32:11.533155
2022-12-02 13:32:11.542008
2022-12-02 13:32:11.549517
2022-12-02 13:32:11.558263
2022-12-02 13:32:11.570533
2022-12-02 13:32:11.578842
2022-12-02 13:32:11.587151
2022-12-02 13:32:11.599330
2022-12-02 13:32:11.607625
2022-12-02 13:32:11.615584
2022-12-02 13:32:11.623355
2022-12-02 13:32:11.636239
2022-12-02 13:32:11.644422
2022-12-02 13:32:11.652078
2022-12-02 13:32:11.664923
2022-12-02 13:32:11.673120
2022-12-02 13:32:11.680967
2022-12-02 13:32:11.689743
2022-12-02 13:32:11.702115
2022-12-02 13:32:11.709861
2022-12-02 13:32:11.718504
2022-12-02 13:32:11.729794
2022-12-02 13:32:11.739430
2022-12-02 13:32:11.746687
2022-12-02 13:32:11.756033
2022-12-02 13:32:11.767659
2022-12-02 13:32:11.775924
2022-12-02 13:32:11.784466
2022-12-02 13:32:11.795662
2022-12-02 13:32:11.803504
2022-12-02 13:32:11.812330
2022-12-02 13:32:11.821440
2022-12-02 13:32:11.832909
2022-12-02 13:32:11.841217
2022-12-02 13:32:11.849632
2022-12-02 13:32:11.857553
2022-12-02 13:32:11.869907
2022-12-02 13:32:11.878250
2022-12-02 13:32:11.886068
2022-12-02 13:32:11.898083
2022-12-02 13:32:11.905986
2022-12-02 13:32:11.914874
2022-12-02 13:32:11.922235
2022-12-02 13:32:11.935032
2022-12-02 13:32:11.943343
2022-12-02 13:32:11.951310
2022-12-02 13:32:11.963771
2022-12-02 13:32:11.972143
2022-12-02 13:32:11.979904
2022-12-02 13:32:11.988549
2022-12-02 13:32:12.000531
2022-12-02 13:32:12.008405
2022-12-02 13:32:12.017185
2022-12-02 13:32:12.029345
2022-12-02 13:32:12.037398
2022-12-02 13:32:12.045956
2022-12-02 13:32:12.053691
2022-12-02 13:32:12.066554
2022-12-02 13:32:12.073937
2022-12-02 13:32:12.083149
2022-12-02 13:32:12.094171
2022-12-02 13:32:12.103242
2022-12-02 13:32:12.111802
2022-12-02 13:32:12.120441
2022-12-02 13:32:12.132763
2022-12-02 13:32:12.140170
2022-12-02 13:32:12.149031
2022-12-02 13:32:12.160003
2022-12-02 13:32:12.168656
2022-12-02 13:32:12.176136
2022-12-02 13:32:12.185134
2022-12-02 13:32:12.197392
2022-12-02 13:32:12.205974
2022-12-02 13:32:12.214030
2022-12-02 13:32:12.226118
2022-12-02 13:32:12.234591
2022-12-02 13:32:12.242499
2022-12-02 13:32:12.251536
2022-12-02 13:32:12.262097
2022-12-02 13:32:12.271233
2022-12-02 13:32:12.278893
2022-12-02 13:32:12.291427
2022-12-02 13:32:12.299360
2022-12-02 13:32:12.308168
2022-12-02 13:32:12.315653
2022-12-02 13:32:12.327645
2022-12-02 13:32:12.336609
2022-12-02 13:32:12.344855
2022-12-02 13:32:12.357137
2022-12-02 13:32:12.366071
2022-12-02 13:32:12.373602
2022-12-02 13:32:12.382086
2022-12-02 13:32:12.394339
2022-12-02 13:32:12.402522
2022-12-02 13:32:12.410698
2022-12-02 13:32:12.422386
2022-12-02 13:32:12.430932
2022-12-02 13:32:12.439210
2022-12-02 13:32:12.447090
2022-12-02 13:32:12.459882
2022-12-02 13:32:12.468078
2022-12-02 13:32:12.475284
2022-12-02 13:32:12.488554
2022-12-02 13:32:12.496016
2022-12-02 13:32:12.504833
2022-12-02 13:32:12.512269
2022-12-02 13:32:12.524917
2022-12-02 13:32:12.534034
2022-12-02 13:32:12.542079
2022-12-02 13:32:12.553352
2022-12-02 13:32:12.562020
2022-12-02 13:32:12.570456
2022-12-02 13:32:12.578528
2022-12-02 13:32:12.590598
2022-12-02 13:32:12.598777
2022-12-02 13:32:12.606682
2022-12-02 13:32:12.619662
2022-12-02 13:32:12.627715
2022-12-02 13:32:12.635989
2022-12-02 13:32:12.643243
2022-12-02 13:32:12.656212
2022-12-02 13:32:12.664380
2022-12-02 13:32:12.673217
2022-12-02 13:32:12.685127
2022-12-02 13:32:12.692982
2022-12-02 13:32:12.702010
2022-12-02 13:32:12.709450
2022-12-02 13:32:12.721561
2022-12-02 13:32:12.729333
2022-12-02 13:32:12.738236
2022-12-02 13:32:12.745764
2022-12-02 13:32:12.758086
2022-12-02 13:32:12.767100
2022-12-02 13:32:12.775295
2022-12-02 13:32:12.788088
2022-12-02 13:32:12.794839
2022-12-02 13:32:12.804373
2022-12-02 13:32:12.812371
2022-12-02 13:32:12.824565
2022-12-02 13:32:12.833099
2022-12-02 13:32:12.840501
2022-12-02 13:32:12.851891
2022-12-02 13:32:12.861082
2022-12-02 13:32:12.870008
2022-12-02 13:32:12.878088
2022-12-02 13:32:12.890245
2022-12-02 13:32:12.898002
2022-12-02 13:32:12.906476
2022-12-02 13:32:12.918562
2022-12-02 13:32:12.926546
2022-12-02 13:32:12.935005
2022-12-02 13:32:12.942524
2022-12-02 13:32:12.955963
2022-12-02 13:32:12.963470
2022-12-02 13:32:12.972334
2022-12-02 13:32:12.983646
2022-12-02 13:32:12.991891
2022-12-02 13:32:13.000248
2022-12-02 13:32:13.008329
2022-12-02 13:32:13.021088
2022-12-02 13:32:13.029233
2022-12-02 13:32:13.036931
2022-12-02 13:32:13.048700
2022-12-02 13:32:13.057157
2022-12-02 13:32:13.065585
2022-12-02 13:32:13.074368
2022-12-02 13:32:13.086026
2022-12-02 13:32:13.094584
2022-12-02 13:32:13.102835
2022-12-02 13:32:13.114862
2022-12-02 13:32:13.122967
2022-12-02 13:32:13.131004
2022-12-02 13:32:13.139452
2022-12-02 13:32:13.151097
2022-12-02 13:32:13.160725
2022-12-02 13:32:13.168288
2022-12-02 13:32:13.180236
2022-12-02 13:32:13.188958
2022-12-02 13:32:13.197032
2022-12-02 13:32:13.205753
2022-12-02 13:32:13.217926
2022-12-02 13:32:13.225427
2022-12-02 13:32:13.233883
2022-12-02 13:32:13.245362
2022-12-02 13:32:13.253916
2022-12-02 13:32:13.262388
2022-12-02 13:32:13.270383
2022-12-02 13:32:13.282106
2022-12-02 13:32:13.290738
2022-12-02 13:32:13.299238
2022-12-02 13:32:13.310600
2022-12-02 13:32:13.320472
2022-12-02 13:32:13.328372
2022-12-02 13:32:13.337488
2022-12-02 13:32:13.348617
2022-12-02 13:32:13.356056
2022-12-02 13:32:13.365563
2022-12-02 13:32:13.377165
2022-12-02 13:32:13.384643
2022-12-02 13:32:13.392813
2022-12-02 13:32:13.401364
2022-12-02 13:32:13.413739
2022-12-02 13:32:13.422377
2022-12-02 13:32:13.430136
2022-12-02 13:32:13.441823
2022-12-02 13:32:13.450777
2022-12-02 13:32:13.458468
2022-12-02 13:32:13.467558
2022-12-02 13:32:13.479057
2022-12-02 13:32:13.488020
2022-12-02 13:32:13.495444
2022-12-02 13:32:13.508032
2022-12-02 13:32:13.516351
2022-12-02 13:32:13.523755
2022-12-02 13:32:13.532124
2022-12-02 13:32:13.544951
2022-12-02 13:32:13.553110
2022-12-02 13:32:13.561615
2022-12-02 13:32:13.569714
2022-12-02 13:32:13.582090
2022-12-02 13:32:13.589894
2022-12-02 13:32:13.598761
2022-12-02 13:32:13.610903
2022-12-02 13:32:13.618976
2022-12-02 13:32:13.627704
2022-12-02 13:32:13.635439
2022-12-02 13:32:13.647505
2022-12-02 13:32:13.655108
2022-12-02 13:32:13.664001
2022-12-02 13:32:13.676090
2022-12-02 13:32:13.683546
2022-12-02 13:32:13.692150
2022-12-02 13:32:13.701028
2022-12-02 13:32:13.712387
2022-12-02 13:32:13.722122
2022-12-02 13:32:13.729217
2022-12-02 13:32:13.741507
2022-12-02 13:32:13.749831
2022-12-02 13:32:13.757809
2022-12-02 13:32:13.766492
2022-12-02 13:32:13.778200
2022-12-02 13:32:13.786678
2022-12-02 13:32:13.794832
2022-12-02 13:32:13.807123
2022-12-02 13:32:13.815860
2022-12-02 13:32:13.823386
2022-12-02 13:32:13.832484
2022-12-02 13:32:13.843983
2022-12-02 13:32:13.852883
2022-12-02 13:32:13.859845
2022-12-02 13:32:13.873132
2022-12-02 13:32:13.880872
2022-12-02 13:32:13.888632
2022-12-02 13:32:13.897250
2022-12-02 13:32:13.910089
2022-12-02 13:32:13.918101
2022-12-02 13:32:13.925967
2022-12-02 13:32:13.938517
2022-12-02 13:32:13.945799
2022-12-02 13:32:13.954177
2022-12-02 13:32:13.962280
2022-12-02 13:32:13.974881
2022-12-02 13:32:13.983071
2022-12-02 13:32:13.991400
2022-12-02 13:32:14.003139
2022-12-02 13:32:14.011404
2022-12-02 13:32:14.019607
2022-12-02 13:32:14.027891
2022-12-02 13:32:14.040978
2022-12-02 13:32:14.049667
2022-12-02 13:32:14.056874
2022-12-02 13:32:14.069675
2022-12-02 13:32:14.077399
2022-12-02 13:32:14.086052
2022-12-02 13:32:14.093577
2022-12-02 13:32:14.106156
2022-12-02 13:32:14.114517
2022-12-02 13:32:14.123204
2022-12-02 13:32:14.135012
2022-12-02 13:32:14.143549
2022-12-02 13:32:14.151548
2022-12-02 13:32:14.159820
2022-12-02 13:32:14.171514
2022-12-02 13:32:14.180030
2022-12-02 13:32:14.188825
2022-12-02 13:32:14.200982
2022-12-02 13:32:14.209041
2022-12-02 13:32:14.217201
2022-12-02 13:32:14.225093
2022-12-02 13:32:14.236997
2022-12-02 13:32:14.244806
2022-12-02 13:32:14.254186
2022-12-02 13:32:14.266089
2022-12-02 13:32:14.274481
2022-12-02 13:32:14.282466
2022-12-02 13:32:14.290938
2022-12-02 13:32:14.303030
2022-12-02 13:32:14.310968
2022-12-02 13:32:14.319267
2022-12-02 13:32:14.332185
2022-12-02 13:32:14.339580
2022-12-02 13:32:14.348569
2022-12-02 13:32:14.356257
2022-12-02 13:32:14.369152
2022-12-02 13:32:14.376716
2022-12-02 13:32:14.385249
2022-12-02 13:32:14.396796
2022-12-02 13:32:14.404903
2022-12-02 13:32:14.413150
2022-12-02 13:32:14.422098
2022-12-02 13:32:14.433866
2022-12-02 13:32:14.442125
2022-12-02 13:32:14.450381
2022-12-02 13:32:14.458685
2022-12-02 13:32:14.471037
2022-12-02 13:32:14.478916
2022-12-02 13:32:14.487162
2022-12-02 13:32:14.498984
2022-12-02 13:32:14.507522
2022-12-02 13:32:14.516117
2022-12-02 13:32:14.523970
2022-12-02 13:32:14.536590
2022-12-02 13:32:14.544511
2022-12-02 13:32:14.551970
2022-12-02 13:32:14.565664
2022-12-02 13:32:14.573144
2022-12-02 13:32:14.582056
2022-12-02 13:32:14.589384
2022-12-02 13:32:14.602360
2022-12-02 13:32:14.609814
2022-12-02 13:32:14.617863
2022-12-02 13:32:14.629915
2022-12-02 13:32:14.637905
2022-12-02 13:32:14.646853
2022-12-02 13:32:14.654638
2022-12-02 13:32:14.666679
2022-12-02 13:32:14.675080
2022-12-02 13:32:14.683147
2022-12-02 13:32:14.695881
2022-12-02 13:32:14.703965
2022-12-02 13:32:14.712273
2022-12-02 13:32:14.720438
2022-12-02 13:32:14.732387
2022-12-02 13:32:14.740514
2022-12-02 13:32:14.748810
2022-12-02 13:32:14.760655
2022-12-02 13:32:14.770071
2022-12-02 13:32:14.777615
2022-12-02 13:32:14.786285
2022-12-02 13:32:14.798646
2022-12-02 13:32:14.806228
2022-12-02 13:32:14.814990
2022-12-02 13:32:14.827876
2022-12-02 13:32:14.835268
2022-12-02 13:32:14.844290
2022-12-02 13:32:14.852410
2022-12-02 13:32:14.863925
2022-12-02 13:32:14.872396
2022-12-02 13:32:14.880123
2022-12-02 13:32:14.893359
2022-12-02 13:32:14.901051
2022-12-02 13:32:14.909017
2022-12-02 13:32:14.918021
2022-12-02 13:32:14.928726
2022-12-02 13:32:14.938350
2022-12-02 13:32:14.945840
2022-12-02 13:32:14.958269
2022-12-02 13:32:14.966618
2022-12-02 13:32:14.974444
2022-12-02 13:32:14.983005
2022-12-02 13:32:14.994359
2022-12-02 13:32:15.003123
2022-12-02 13:32:15.010942
2022-12-02 13:32:15.023970
2022-12-02 13:32:15.032015
2022-12-02 13:32:15.040831
2022-12-02 13:32:15.047597
2022-12-02 13:32:15.060649
2022-12-02 13:32:15.069160
2022-12-02 13:32:15.077166
2022-12-02 13:32:15.088996
2022-12-02 13:32:15.098240
2022-12-02 13:32:15.106230
2022-12-02 13:32:15.114448
2022-12-02 13:32:15.126382
2022-12-02 13:32:15.134482
2022-12-02 13:32:15.142528
2022-12-02 13:32:15.154617
2022-12-02 13:32:15.162922
2022-12-02 13:32:15.171315
2022-12-02 13:32:15.179257
2022-12-02 13:32:15.191484
2022-12-02 13:32:15.199956
2022-12-02 13:32:15.207929
2022-12-02 13:32:15.220798
2022-12-02 13:32:15.228612
2022-12-02 13:32:15.236994
2022-12-02 13:32:15.244274
2022-12-02 13:32:15.257083
2022-12-02 13:32:15.266101
2022-12-02 13:32:15.274281
2022-12-02 13:32:15.286175
2022-12-02 13:32:15.293528
2022-12-02 13:32:15.302545
2022-12-02 13:32:15.309825
2022-12-02 13:32:15.322387
2022-12-02 13:32:15.330653
2022-12-02 13:32:15.338896
2022-12-02 13:32:15.346769
2022-12-02 13:32:15.359217
2022-12-02 13:32:15.367288
2022-12-02 13:32:15.375894
2022-12-02 13:32:15.388243
2022-12-02 13:32:15.396609
2022-12-02 13:32:15.404832
2022-12-02 13:32:15.412791
2022-12-02 13:32:15.425254
2022-12-02 13:32:15.434035
2022-12-02 13:32:15.442005
2022-12-02 13:32:15.454111
2022-12-02 13:32:15.462003
2022-12-02 13:32:15.470487
2022-12-02 13:32:15.478400
2022-12-02 13:32:15.490410
2022-12-02 13:32:15.499546
2022-12-02 13:32:15.507301
2022-12-02 13:32:15.518433
2022-12-02 13:32:15.526810
2022-12-02 13:32:15.535848
2022-12-02 13:32:15.543996
2022-12-02 13:32:15.556162
2022-12-02 13:32:15.565218
2022-12-02 13:32:15.571980
2022-12-02 13:32:15.585020
2022-12-02 13:32:15.593802
2022-12-02 13:32:15.601618
2022-12-02 13:32:15.609823
2022-12-02 13:32:15.622013
2022-12-02 13:32:15.629557
2022-12-02 13:32:15.638361
2022-12-02 13:32:15.650789
2022-12-02 13:32:15.658589
2022-12-02 13:32:15.667213
2022-12-02 13:32:15.674730
2022-12-02 13:32:15.686373
2022-12-02 13:32:15.695199
2022-12-02 13:32:15.703351
2022-12-02 13:32:15.714974
2022-12-02 13:32:15.723942
2022-12-02 13:32:15.732431
2022-12-02 13:32:15.740064
2022-12-02 13:32:15.752085
2022-12-02 13:32:15.760740
2022-12-02 13:32:15.769955
2022-12-02 13:32:15.782006
2022-12-02 13:32:15.789394
2022-12-02 13:32:15.798055
2022-12-02 13:32:15.805763
2022-12-02 13:32:15.818318
2022-12-02 13:32:15.826689
2022-12-02 13:32:15.835548
2022-12-02 13:32:15.846630
2022-12-02 13:32:15.854912
2022-12-02 13:32:15.863440
2022-12-02 13:32:15.872129
2022-12-02 13:32:15.884701
2022-12-02 13:32:15.892804
2022-12-02 13:32:15.900987
2022-12-02 13:32:15.912300
2022-12-02 13:32:15.920020
2022-12-02 13:32:15.928351
2022-12-02 13:32:15.937942
2022-12-02 13:32:15.949686
2022-12-02 13:32:15.957939
2022-12-02 13:32:15.966207
2022-12-02 13:32:15.977309
2022-12-02 13:32:15.986528
2022-12-02 13:32:15.993965
2022-12-02 13:32:16.002077
2022-12-02 13:32:16.014953
2022-12-02 13:32:16.022570
2022-12-02 13:32:16.031837
2022-12-02 13:32:16.043940
2022-12-02 13:32:16.052545
2022-12-02 13:32:16.060605
2022-12-02 13:32:16.068955
2022-12-02 13:32:16.079774
2022-12-02 13:32:16.088547
2022-12-02 13:32:16.096823
2022-12-02 13:32:16.109254
2022-12-02 13:32:16.118059
2022-12-02 13:32:16.125183
2022-12-02 13:32:16.134104
2022-12-02 13:32:16.146000
2022-12-02 13:32:16.154107
2022-12-02 13:32:16.162215
2022-12-02 13:32:16.174796
2022-12-02 13:32:16.183025
2022-12-02 13:32:16.190860
2022-12-02 13:32:16.199683
2022-12-02 13:32:16.211472
2022-12-02 13:32:16.220461
2022-12-02 13:32:16.227203
2022-12-02 13:32:16.236852
2022-12-02 13:32:16.248296
2022-12-02 13:32:16.256849
2022-12-02 13:32:16.264043
2022-12-02 13:32:16.277175
2022-12-02 13:32:16.286018
2022-12-02 13:32:16.293931
2022-12-02 13:32:16.302109
2022-12-02 13:32:16.314362
2022-12-02 13:32:16.321737
2022-12-02 13:32:16.330646
2022-12-02 13:32:16.342756
2022-12-02 13:32:16.351022
2022-12-02 13:32:16.359168
2022-12-02 13:32:16.367280
2022-12-02 13:32:16.379440
2022-12-02 13:32:16.387624
2022-12-02 13:32:16.395815
2022-12-02 13:32:16.407781
2022-12-02 13:32:16.416660
2022-12-02 13:32:16.424725
2022-12-02 13:32:16.433440
2022-12-02 13:32:16.444968
2022-12-02 13:32:16.453082
2022-12-02 13:32:16.460807
2022-12-02 13:32:16.473521
2022-12-02 13:32:16.482100
2022-12-02 13:32:16.489203
2022-12-02 13:32:16.498358
2022-12-02 13:32:16.510361
2022-12-02 13:32:16.518931
2022-12-02 13:32:16.527056
2022-12-02 13:32:16.538822
2022-12-02 13:32:16.547743
2022-12-02 13:32:16.555674
2022-12-02 13:32:16.564254
2022-12-02 13:32:16.576231
2022-12-02 13:32:16.584425
2022-12-02 13:32:16.591853
2022-12-02 13:32:16.604587
2022-12-02 13:32:16.612478
2022-12-02 13:32:16.620875
2022-12-02 13:32:16.629347
2022-12-02 13:32:16.641621
2022-12-02 13:32:16.650814
2022-12-02 13:32:16.657770
2022-12-02 13:32:16.670532
2022-12-02 13:32:16.678031
2022-12-02 13:32:16.686674
2022-12-02 13:32:16.694538
2022-12-02 13:32:16.707145
2022-12-02 13:32:16.715587
2022-12-02 13:32:16.723225
2022-12-02 13:32:16.736147
2022-12-02 13:32:16.744003
2022-12-02 13:32:16.751946
2022-12-02 13:32:16.760223
2022-12-02 13:32:16.772978
2022-12-02 13:32:16.781185
2022-12-02 13:32:16.789205
2022-12-02 13:32:16.801616
2022-12-02 13:32:16.809862
2022-12-02 13:32:16.818350
2022-12-02 13:32:16.826371
2022-12-02 13:32:16.838488
2022-12-02 13:32:16.846554
2022-12-02 13:32:16.854852
2022-12-02 13:32:16.866000
2022-12-02 13:32:16.875196
2022-12-02 13:32:16.884018
2022-12-02 13:32:16.892300
2022-12-02 13:32:16.903645
2022-12-02 13:32:16.911900
2022-12-02 13:32:16.920879
2022-12-02 13:32:16.932908
2022-12-02 13:32:16.941010
2022-12-02 13:32:16.948097
2022-12-02 13:32:16.956793
2022-12-02 13:32:16.970131
2022-12-02 13:32:16.976905
2022-12-02 13:32:16.986726
2022-12-02 13:32:16.998268
2022-12-02 13:32:17.005633
2022-12-02 13:32:17.014504
2022-12-02 13:32:17.022780
2022-12-02 13:32:17.034267
2022-12-02 13:32:17.043225
2022-12-02 13:32:17.051415
2022-12-02 13:32:17.063151
2022-12-02 13:32:17.071455
2022-12-02 13:32:17.080257
2022-12-02 13:32:17.088532
2022-12-02 13:32:17.100928
2022-12-02 13:32:17.109290
2022-12-02 13:32:17.117502
2022-12-02 13:32:17.124589
2022-12-02 13:32:17.137220
2022-12-02 13:32:17.145294
2022-12-02 13:32:17.153687
2022-12-02 13:32:17.166010
2022-12-02 13:32:17.174030
2022-12-02 13:32:17.182191
2022-12-02 13:32:17.190502
2022-12-02 13:32:17.202975
2022-12-02 13:32:17.211005
2022-12-02 13:32:17.219443
2022-12-02 13:32:17.231583
2022-12-02 13:32:17.239959
2022-12-02 13:32:17.248559
2022-12-02 13:32:17.255702
2022-12-02 13:32:17.269036
2022-12-02 13:32:17.276773
2022-12-02 13:32:17.285416
2022-12-02 13:32:17.296534
2022-12-02 13:32:17.305277
2022-12-02 13:32:17.313214
2022-12-02 13:32:17.321653
2022-12-02 13:32:17.332968
2022-12-02 13:32:17.341534
2022-12-02 13:32:17.350057
2022-12-02 13:32:17.362293
2022-12-02 13:32:17.370585
2022-12-02 13:32:17.378240
2022-12-02 13:32:17.386288
2022-12-02 13:32:17.398609
2022-12-02 13:32:17.406820
2022-12-02 13:32:17.415677
2022-12-02 13:32:17.428177
2022-12-02 13:32:17.435649
2022-12-02 13:32:17.444802
2022-12-02 13:32:17.452331
2022-12-02 13:32:17.464911
2022-12-02 13:32:17.473542
2022-12-02 13:32:17.481069
2022-12-02 13:32:17.493231
2022-12-02 13:32:17.502128
2022-12-02 13:32:17.510188
2022-12-02 13:32:17.518499
2022-12-02 13:32:17.530813
2022-12-02 13:32:17.538083
2022-12-02 13:32:17.546641
2022-12-02 13:32:17.559147
2022-12-02 13:32:17.567564
2022-12-02 13:32:17.576295
2022-12-02 13:32:17.584423
2022-12-02 13:32:17.596070
2022-12-02 13:32:17.604469
2022-12-02 13:32:17.613215
2022-12-02 13:32:17.624585
2022-12-02 13:32:17.631941
2022-12-02 13:32:17.640355
2022-12-02 13:32:17.648711
2022-12-02 13:32:17.661142
2022-12-02 13:32:17.669634
2022-12-02 13:32:17.677751
2022-12-02 13:32:17.689600
2022-12-02 13:32:17.697651
2022-12-02 13:32:17.706079
2022-12-02 13:32:17.714441
2022-12-02 13:32:17.726977
2022-12-02 13:32:17.734429
2022-12-02 13:32:17.743297
2022-12-02 13:32:17.755489
2022-12-02 13:32:17.763283
2022-12-02 13:32:17.771763
2022-12-02 13:32:17.779787
2022-12-02 13:32:17.792536
2022-12-02 13:32:17.799934
2022-12-02 13:32:17.808860
2022-12-02 13:32:17.821294
2022-12-02 13:32:17.829117
2022-12-02 13:32:17.836997
2022-12-02 13:32:17.845475
2022-12-02 13:32:17.858333
2022-12-02 13:32:17.865871
2022-12-02 13:32:17.874893
2022-12-02 13:32:17.886830
2022-12-02 13:32:17.895044
2022-12-02 13:32:17.903416
2022-12-02 13:32:17.911143
2022-12-02 13:32:17.923849
2022-12-02 13:32:17.932709
2022-12-02 13:32:17.940317
2022-12-02 13:32:17.953082
2022-12-02 13:32:17.959929
2022-12-02 13:32:17.969806
2022-12-02 13:32:17.976310
2022-12-02 13:32:17.989535
2022-12-02 13:32:17.997429
2022-12-02 13:32:18.005897
2022-12-02 13:32:18.014187
2022-12-02 13:32:18.026337
2022-12-02 13:32:18.034674
2022-12-02 13:32:18.042728
2022-12-02 13:32:18.054833
2022-12-02 13:32:18.062971
2022-12-02 13:32:18.071100
2022-12-02 13:32:18.079401
2022-12-02 13:32:18.092389
2022-12-02 13:32:18.099561
2022-12-02 13:32:18.108163
2022-12-02 13:32:18.121012
2022-12-02 13:32:18.128401
2022-12-02 13:32:18.136787
2022-12-02 13:32:18.144749
2022-12-02 13:32:18.157211
2022-12-02 13:32:18.165685
2022-12-02 13:32:18.173787
2022-12-02 13:32:18.185829
2022-12-02 13:32:18.194084
2022-12-02 13:32:18.201808
2022-12-02 13:32:18.209736
2022-12-02 13:32:18.222483
2022-12-02 13:32:18.231028
2022-12-02 13:32:18.238981
2022-12-02 13:32:18.252211
2022-12-02 13:32:18.259857
2022-12-02 13:32:18.268466
2022-12-02 13:32:18.276376
2022-12-02 13:32:18.288653
2022-12-02 13:32:18.297253
2022-12-02 13:32:18.304508
2022-12-02 13:32:18.317273
2022-12-02 13:32:18.324463
2022-12-02 13:32:18.334127
2022-12-02 13:32:18.342122
2022-12-02 13:32:18.354184
2022-12-02 13:32:18.362225
2022-12-02 13:32:18.370326
2022-12-02 13:32:18.382789
2022-12-02 13:32:18.390740
2022-12-02 13:32:18.398870
2022-12-02 13:32:18.406982
2022-12-02 13:32:18.420015
2022-12-02 13:32:18.427310
2022-12-02 13:32:18.435457
2022-12-02 13:32:18.447639
2022-12-02 13:32:18.456021
2022-12-02 13:32:18.464566
2022-12-02 13:32:18.472597
2022-12-02 13:32:18.485175
2022-12-02 13:32:18.492992
2022-12-02 13:32:18.502090
2022-12-02 13:32:18.514439
2022-12-02 13:32:18.521415
2022-12-02 13:32:18.530465
2022-12-02 13:32:18.537589
2022-12-02 13:32:18.550653
2022-12-02 13:32:18.558778
2022-12-02 13:32:18.566996
2022-12-02 13:32:18.578790
2022-12-02 13:32:18.586292
2022-12-02 13:32:18.595492
2022-12-02 13:32:18.604159
2022-12-02 13:32:18.615720
2022-12-02 13:32:18.624921
2022-12-02 13:32:18.631981
2022-12-02 13:32:18.644540
2022-12-02 13:32:18.653041
2022-12-02 13:32:18.660559
2022-12-02 13:32:18.669869
2022-12-02 13:32:18.682060
2022-12-02 13:32:18.689626
2022-12-02 13:32:18.698382
2022-12-02 13:32:18.709483
2022-12-02 13:32:18.718542
2022-12-02 13:32:18.726137
2022-12-02 13:32:18.735062
2022-12-02 13:32:18.747706
2022-12-02 13:32:18.755137
2022-12-02 13:32:18.763016
2022-12-02 13:32:18.776166
2022-12-02 13:32:18.783960
2022-12-02 13:32:18.792787
2022-12-02 13:32:18.800251
2022-12-02 13:32:18.813302
2022-12-02 13:32:18.821225
2022-12-02 13:32:18.829320
2022-12-02 13:32:18.837081
2022-12-02 13:32:18.849687
2022-12-02 13:32:18.857796
2022-12-02 13:32:18.865966
2022-12-02 13:32:18.878115
2022-12-02 13:32:18.886408
2022-12-02 13:32:18.894519
2022-12-02 13:32:18.902816
2022-12-02 13:32:18.915249
2022-12-02 13:32:18.922836
2022-12-02 13:32:18.931688
2022-12-02 13:32:18.943625
2022-12-02 13:32:18.951302
2022-12-02 13:32:18.960053
2022-12-02 13:32:18.968168
2022-12-02 13:32:18.980447
2022-12-02 13:32:18.988369
2022-12-02 13:32:18.997079
2022-12-02 13:32:19.009415
2022-12-02 13:32:19.017610
2022-12-02 13:32:19.026071
2022-12-02 13:32:19.034018
2022-12-02 13:32:19.045491
2022-12-02 13:32:19.054074
2022-12-02 13:32:19.062250
2022-12-02 13:32:19.074497
2022-12-02 13:32:19.083182
2022-12-02 13:32:19.091434
2022-12-02 13:32:19.099555
2022-12-02 13:32:19.111490
2022-12-02 13:32:19.119934
2022-12-02 13:32:19.127845
2022-12-02 13:32:19.139455
2022-12-02 13:32:19.148720
2022-12-02 13:32:19.156591
2022-12-02 13:32:19.164917
2022-12-02 13:32:19.176833
2022-12-02 13:32:19.185480
2022-12-02 13:32:19.193323
2022-12-02 13:32:19.205406
2022-12-02 13:32:19.213998
2022-12-02 13:32:19.222006
2022-12-02 13:32:19.230299
2022-12-02 13:32:19.242558
2022-12-02 13:32:19.251208
2022-12-02 13:32:19.259302
2022-12-02 13:32:19.270850
2022-12-02 13:32:19.280213
2022-12-02 13:32:19.288079
2022-12-02 13:32:19.296058
2022-12-02 13:32:19.307866
2022-12-02 13:32:19.316837
2022-12-02 13:32:19.323942
2022-12-02 13:32:19.337175
2022-12-02 13:32:19.344973
2022-12-02 13:32:19.354294
2022-12-02 13:32:19.361356
2022-12-02 13:32:19.373643
2022-12-02 13:32:19.382107
2022-12-02 13:32:19.390009
2022-12-02 13:32:19.402487
2022-12-02 13:32:19.410262
2022-12-02 13:32:19.418545
2022-12-02 13:32:19.426737
2022-12-02 13:32:19.438529
2022-12-02 13:32:19.447164
2022-12-02 13:32:19.455526
2022-12-02 13:32:19.467354
2022-12-02 13:32:19.476047
2022-12-02 13:32:19.483918
2022-12-02 13:32:19.492180
2022-12-02 13:32:19.504801
2022-12-02 13:32:19.512910
2022-12-02 13:32:19.520824
2022-12-02 13:32:19.534214
2022-12-02 13:32:19.542125
2022-12-02 13:32:19.550149
2022-12-02 13:32:19.557968
2022-12-02 13:32:19.570476
2022-12-02 13:32:19.578750
2022-12-02 13:32:19.586903
2022-12-02 13:32:19.599016
2022-12-02 13:32:19.607198
2022-12-02 13:32:19.615483
2022-12-02 13:32:19.623412
2022-12-02 13:32:19.636559
2022-12-02 13:32:19.644090
2022-12-02 13:32:19.651591
2022-12-02 13:32:19.663711
2022-12-02 13:32:19.672146
2022-12-02 13:32:19.681708
2022-12-02 13:32:19.689338
2022-12-02 13:32:19.702091
2022-12-02 13:32:19.709523
2022-12-02 13:32:19.718243
2022-12-02 13:32:19.726008
2022-12-02 13:32:19.737756
2022-12-02 13:32:19.746766
2022-12-02 13:32:19.755036
2022-12-02 13:32:19.766818
2022-12-02 13:32:19.775191
2022-12-02 13:32:19.782948
2022-12-02 13:32:19.790722
2022-12-02 13:32:19.803333
2022-12-02 13:32:19.812795
2022-12-02 13:32:19.820047
2022-12-02 13:32:19.832559
2022-12-02 13:32:19.839958
2022-12-02 13:32:19.847964
2022-12-02 13:32:19.857094
2022-12-02 13:32:19.870263
2022-12-02 13:32:19.877559
2022-12-02 13:32:19.886141
2022-12-02 13:32:19.898374
2022-12-02 13:32:19.906244
2022-12-02 13:32:19.914211
2022-12-02 13:32:19.922786
2022-12-02 13:32:19.935062
2022-12-02 13:32:19.942287
2022-12-02 13:32:19.951258
2022-12-02 13:32:19.964319
2022-12-02 13:32:19.971732
2022-12-02 13:32:19.979915
2022-12-02 13:32:19.987349
2022-12-02 13:32:20.000089
2022-12-02 13:32:20.008931
2022-12-02 13:32:20.016251
2022-12-02 13:32:20.029742
2022-12-02 13:32:20.037078
2022-12-02 13:32:20.045435
2022-12-02 13:32:20.053657
2022-12-02 13:32:20.066017
2022-12-02 13:32:20.074005
2022-12-02 13:32:20.082630
2022-12-02 13:32:20.094574
2022-12-02 13:32:20.102886
2022-12-02 13:32:20.111008
2022-12-02 13:32:20.119268
2022-12-02 13:32:20.131478
2022-12-02 13:32:20.139882
2022-12-02 13:32:20.148654
2022-12-02 13:32:20.159757
2022-12-02 13:32:20.169210
2022-12-02 13:32:20.176468
2022-12-02 13:32:20.184863
2022-12-02 13:32:20.197269
2022-12-02 13:32:20.205128
2022-12-02 13:32:20.213595
2022-12-02 13:32:20.225443
2022-12-02 13:32:20.234105
2022-12-02 13:32:20.242247
2022-12-02 13:32:20.250493
2022-12-02 13:32:20.262487
2022-12-02 13:32:20.269971
2022-12-02 13:32:20.278952
2022-12-02 13:32:20.290709
2022-12-02 13:32:20.300190
2022-12-02 13:32:20.307641
2022-12-02 13:32:20.315935
2022-12-02 13:32:20.328058
2022-12-02 13:32:20.336296
2022-12-02 13:32:20.344320
2022-12-02 13:32:20.357007
2022-12-02 13:32:20.365118
2022-12-02 13:32:20.373948
2022-12-02 13:32:20.381973
2022-12-02 13:32:20.392950
2022-12-02 13:32:20.401804
2022-12-02 13:32:20.409848
2022-12-02 13:32:20.421983
2022-12-02 13:32:20.430577
2022-12-02 13:32:20.438455
2022-12-02 13:32:20.446818
2022-12-02 13:32:20.458841
2022-12-02 13:32:20.467720
2022-12-02 13:32:20.475541
2022-12-02 13:32:20.487870
2022-12-02 13:32:20.496693
2022-12-02 13:32:20.504604
2022-12-02 13:32:20.513094
2022-12-02 13:32:20.525384
2022-12-02 13:32:20.533132
2022-12-02 13:32:20.541784
2022-12-02 13:32:20.553226
2022-12-02 13:32:20.561472
2022-12-02 13:32:20.570025
2022-12-02 13:32:20.577858
2022-12-02 13:32:20.590343
2022-12-02 13:32:20.598312
2022-12-02 13:32:20.606714
2022-12-02 13:32:20.614829
2022-12-02 13:32:20.626312
2022-12-02 13:32:20.635947
2022-12-02 13:32:20.643427
2022-12-02 13:32:20.655633
2022-12-02 13:32:20.664185
2022-12-02 13:32:20.672010
2022-12-02 13:32:20.680151
2022-12-02 13:32:20.692011
2022-12-02 13:32:20.701191
2022-12-02 13:32:20.708732
2022-12-02 13:32:20.721277
2022-12-02 13:32:20.730180
2022-12-02 13:32:20.737151
2022-12-02 13:32:20.746405
2022-12-02 13:32:20.758037
2022-12-02 13:32:20.767044
2022-12-02 13:32:20.774570
2022-12-02 13:32:20.786747
2022-12-02 13:32:20.795164
2022-12-02 13:32:20.802945
2022-12-02 13:32:20.811536
2022-12-02 13:32:20.823955
2022-12-02 13:32:20.831965
2022-12-02 13:32:20.840496
2022-12-02 13:32:20.852635
2022-12-02 13:32:20.860715
2022-12-02 13:32:20.868180
2022-12-02 13:32:20.877081
2022-12-02 13:32:20.888347
2022-12-02 13:32:20.896761
2022-12-02 13:32:20.905222
2022-12-02 13:32:20.917771
2022-12-02 13:32:20.925347
2022-12-02 13:32:20.934032
2022-12-02 13:32:20.941938
2022-12-02 13:32:20.954739
2022-12-02 13:32:20.962642
2022-12-02 13:32:20.970946
2022-12-02 13:32:20.983481
2022-12-02 13:32:20.991675
2022-12-02 13:32:20.999624
2022-12-02 13:32:21.007851
2022-12-02 13:32:21.020156
2022-12-02 13:32:21.029198
2022-12-02 13:32:21.036688
2022-12-02 13:32:21.049006
2022-12-02 13:32:21.057913
2022-12-02 13:32:21.065740
2022-12-02 13:32:21.074217
2022-12-02 13:32:21.085874
2022-12-02 13:32:21.093835
2022-12-02 13:32:21.102441
2022-12-02 13:32:21.114817
2022-12-02 13:32:21.122809
2022-12-02 13:32:21.131742
2022-12-02 13:32:21.138837
2022-12-02 13:32:21.150893
2022-12-02 13:32:21.159484
2022-12-02 13:32:21.168079
2022-12-02 13:32:21.180740
2022-12-02 13:32:21.188107
2022-12-02 13:32:21.197143
2022-12-02 13:32:21.204536
2022-12-02 13:32:21.216837
2022-12-02 13:32:21.225029
2022-12-02 13:32:21.233466
2022-12-02 13:32:21.245284
2022-12-02 13:32:21.253963
2022-12-02 13:32:21.261102
2022-12-02 13:32:21.269817
2022-12-02 13:32:21.282700
2022-12-02 13:32:21.290853
2022-12-02 13:32:21.299111
2022-12-02 13:32:21.310943
2022-12-02 13:32:21.318847
2022-12-02 13:32:21.328315
2022-12-02 13:32:21.335786
2022-12-02 13:32:21.348799
2022-12-02 13:32:21.355799
2022-12-02 13:32:21.364815
2022-12-02 13:32:21.375875
2022-12-02 13:32:21.385391
2022-12-02 13:32:21.392647
2022-12-02 13:32:21.401027
2022-12-02 13:32:21.414140
2022-12-02 13:32:21.421278
2022-12-02 13:32:21.430129
2022-12-02 13:32:21.441761
2022-12-02 13:32:21.450630
2022-12-02 13:32:21.458405
2022-12-02 13:32:21.467169
2022-12-02 13:32:21.478904
2022-12-02 13:32:21.486822
2022-12-02 13:32:21.495576
2022-12-02 13:32:21.503964
2022-12-02 13:32:21.516607
2022-12-02 13:32:21.525541
2022-12-02 13:32:21.531836
2022-12-02 13:32:21.544561
2022-12-02 13:32:21.552123
2022-12-02 13:32:21.561201
2022-12-02 13:32:21.569007
2022-12-02 13:32:21.580874
2022-12-02 13:32:21.589208
2022-12-02 13:32:21.598139
2022-12-02 13:32:21.610061
2022-12-02 13:32:21.618409
2022-12-02 13:32:21.625846
2022-12-02 13:32:21.634270
2022-12-02 13:32:21.646167
2022-12-02 13:32:21.655060
2022-12-02 13:32:21.663086
2022-12-02 13:32:21.674922
2022-12-02 13:32:21.684657
2022-12-02 13:32:21.691414
2022-12-02 13:32:21.700122
2022-12-02 13:32:21.713340
2022-12-02 13:32:21.720958
2022-12-02 13:32:21.729587
2022-12-02 13:32:21.741650
2022-12-02 13:32:21.749718
2022-12-02 13:32:21.758137
2022-12-02 13:32:21.766117
2022-12-02 13:32:21.777834
2022-12-02 13:32:21.785589
2022-12-02 13:32:21.794711
2022-12-02 13:32:21.807052
2022-12-02 13:32:21.815145
2022-12-02 13:32:21.823044
2022-12-02 13:32:21.831446
2022-12-02 13:32:21.842918
2022-12-02 13:32:21.851567
2022-12-02 13:32:21.860004
2022-12-02 13:32:21.872291
2022-12-02 13:32:21.881292
2022-12-02 13:32:21.888461
2022-12-02 13:32:21.897689
2022-12-02 13:32:21.908528
2022-12-02 13:32:21.918011
2022-12-02 13:32:21.925317
2022-12-02 13:32:21.937463
2022-12-02 13:32:21.946022
2022-12-02 13:32:21.954253
2022-12-02 13:32:21.962726
2022-12-02 13:32:21.974737
2022-12-02 13:32:21.982831
2022-12-02 13:32:21.990904
2022-12-02 13:32:22.002938
2022-12-02 13:32:22.012239
2022-12-02 13:32:22.019228
2022-12-02 13:32:22.028617
2022-12-02 13:32:22.040448
2022-12-02 13:32:22.049117
2022-12-02 13:32:22.057330
2022-12-02 13:32:22.068526
2022-12-02 13:32:22.077324
2022-12-02 13:32:22.085595
2022-12-02 13:32:22.093169
2022-12-02 13:32:22.106147
2022-12-02 13:32:22.113690
2022-12-02 13:32:22.122389
2022-12-02 13:32:22.134583
2022-12-02 13:32:22.142241
2022-12-02 13:32:22.151063
2022-12-02 13:32:22.159142
2022-12-02 13:32:22.171114
2022-12-02 13:32:22.180206
2022-12-02 13:32:22.187622
2022-12-02 13:32:22.199788
2022-12-02 13:32:22.207647
2022-12-02 13:32:22.216023
2022-12-02 13:32:22.224776
2022-12-02 13:32:22.237704
2022-12-02 13:32:22.244319
2022-12-02 13:32:22.252850
2022-12-02 13:32:22.266205
2022-12-02 13:32:22.274382
2022-12-02 13:32:22.282521
2022-12-02 13:32:22.290513
2022-12-02 13:32:22.302536
2022-12-02 13:32:22.310650
2022-12-02 13:32:22.318509
2022-12-02 13:32:22.330472
2022-12-02 13:32:22.339255
2022-12-02 13:32:22.346594
2022-12-02 13:32:22.355679
2022-12-02 13:32:22.367323
2022-12-02 13:32:22.376104
2022-12-02 13:32:22.384237
2022-12-02 13:32:22.392526
2022-12-02 13:32:22.404893
2022-12-02 13:32:22.413123
2022-12-02 13:32:22.421188
2022-12-02 13:32:22.434141
2022-12-02 13:32:22.441361
2022-12-02 13:32:22.450407
2022-12-02 13:32:22.458019
2022-12-02 13:32:22.470286
2022-12-02 13:32:22.478077
2022-12-02 13:32:22.486396
2022-12-02 13:32:22.498312
2022-12-02 13:32:22.506665
2022-12-02 13:32:22.515227
2022-12-02 13:32:22.523572
2022-12-02 13:32:22.536091
2022-12-02 13:32:22.544808
2022-12-02 13:32:22.552140
2022-12-02 13:32:22.564964
2022-12-02 13:32:22.573503
2022-12-02 13:32:22.581434
2022-12-02 13:32:22.589841
2022-12-02 13:32:22.602130
2022-12-02 13:32:22.609566
2022-12-02 13:32:22.618400
2022-12-02 13:32:22.629783
2022-12-02 13:32:22.638102
2022-12-02 13:32:22.646105
2022-12-02 13:32:22.654499
2022-12-02 13:32:22.667595
2022-12-02 13:32:22.675249
2022-12-02 13:32:22.684068
2022-12-02 13:32:22.695990
2022-12-02 13:32:22.703742
2022-12-02 13:32:22.711323
2022-12-02 13:32:22.720364
2022-12-02 13:32:22.733270
2022-12-02 13:32:22.741237
2022-12-02 13:32:22.749189
2022-12-02 13:32:22.761179
2022-12-02 13:32:22.768246
2022-12-02 13:32:22.777795
2022-12-02 13:32:22.785827
2022-12-02 13:32:22.797526
2022-12-02 13:32:22.806392
2022-12-02 13:32:22.814391
2022-12-02 13:32:22.826554
2022-12-02 13:32:22.835095
2022-12-02 13:32:22.843063
2022-12-02 13:32:22.851937
2022-12-02 13:32:22.863985
2022-12-02 13:32:22.871990
2022-12-02 13:32:22.880164
2022-12-02 13:32:22.891771
2022-12-02 13:32:22.900642
2022-12-02 13:32:22.908578
2022-12-02 13:32:22.916897
2022-12-02 13:32:22.929282
2022-12-02 13:32:22.936603
2022-12-02 13:32:22.946182
2022-12-02 13:32:22.957817
2022-12-02 13:32:22.965601
2022-12-02 13:32:22.974330
2022-12-02 13:32:22.981402
2022-12-02 13:32:22.994811
2022-12-02 13:32:23.002464
2022-12-02 13:32:23.011604
2022-12-02 13:32:23.023282
2022-12-02 13:32:23.031590
2022-12-02 13:32:23.039729
2022-12-02 13:32:23.048602
2022-12-02 13:32:23.059518
2022-12-02 13:32:23.068758
2022-12-02 13:32:23.075850
2022-12-02 13:32:23.088541
2022-12-02 13:32:23.097671
2022-12-02 13:32:23.105276
2022-12-02 13:32:23.114188
2022-12-02 13:32:23.124984
2022-12-02 13:32:23.134207
2022-12-02 13:32:23.142070
2022-12-02 13:32:23.153880
2022-12-02 13:32:23.162803
2022-12-02 13:32:23.170719
2022-12-02 13:32:23.179790
2022-12-02 13:32:23.190907
2022-12-02 13:32:23.199547
2022-12-02 13:32:23.207674
2022-12-02 13:32:23.219749
2022-12-02 13:32:23.227995
2022-12-02 13:32:23.236090
2022-12-02 13:32:23.245297
2022-12-02 13:32:23.257657
2022-12-02 13:32:23.265402
2022-12-02 13:32:23.272961
2022-12-02 13:32:23.280612
2022-12-02 13:32:23.294242
2022-12-02 13:32:23.301830
2022-12-02 13:32:23.310230
2022-12-02 13:32:23.322325
2022-12-02 13:32:23.330757
2022-12-02 13:32:23.338963
