HR_time,RR-interval,heart_rate
1.1984910235429211,688,87.78082191780821
1.8820054354072433,688,87.78082191780821
2.5655198472715655,688,87.78082191780821
3.249034259135888,688,87.78082191780821
3.9325486710002098,688,88.18721461187214
4.606699871743103,679,88.59360730593608
5.280851072485996,679,89.84761904761903
5.936275850986031,660,90.2654594232059
6.6010638406074955,669,90.68329979879275
7.265851830228959,669,90.25352112676056
7.930639819850423,669,90.25352112676056
8.595427809471888,669,90.25352112676056
9.260215799093352,669,90.25352112676056
9.925003788714816,669,89.8356807511737
10.599154989457709,679,89.01144768152292
11.282669401322032,688,88.59360730593608
11.956820602064925,679,88.18721461187214
12.640335013929246,688,88.59360730593608
13.31448621467214,679,88.59360730593608
13.988637415415033,679,89.0
14.662788616157926,679,89.0
15.336939816900818,679,89.0
16.01109101764371,679,89.41784037558685
16.675879007265177,669,90.2654594232059
17.33130378576521,660,91.11307847082493
17.986728564265245,660,91.98509316770185
18.63279013164385,650,91.55531449566966
19.297578121265317,669,91.55531449566966
19.95300289976535,660,90.68329979879275
20.617790889386814,669,90.68329979879275
21.28257887900828,669,90.68329979879275
21.938003657508315,660,90.68329979879275
22.602791647129777,669,91.11307847082493
23.258216425629815,660,90.68329979879275
23.923004415251278,669,90.2654594232059
24.597155615994172,679,89.8356807511737
25.261943605615635,669,89.41784037558685
25.93609480635853,679,89.8356807511737
26.60088279597999,669,90.2654594232059
27.256307574480026,660,90.68329979879275
27.921095564101492,669,91.11307847082493
28.576520342601526,660,90.68329979879275
29.24130833222299,669,90.68329979879275
29.906096321844455,669,90.25352112676056
30.570884311465917,669,90.68329979879275
31.22630908996595,660,91.11307847082493
31.88173386846599,660,91.11307847082495
32.54652185808745,669,91.11307847082493
33.201946636587486,660,90.68329979879275
33.86673462620895,669,90.2654594232059
34.54088582695184,679,89.8356807511737
35.20567381657331,669,89.01144768152292
35.88918822843763,688,89.01144768152292
36.56333942918052,679,88.18721461187214
37.246853841044846,688,88.18721461187214
37.93036825290917,688,88.18721461187214
38.60451945365206,679,89.44122635355511
39.259944232152094,660,90.2654594232059
39.92473222177356,669,91.11307847082493
40.580157000273594,660,90.68329979879275
41.24494498989506,669,91.11307847082493
41.900369768395095,660,91.11307847082493
42.55579454689513,660,91.54285714285713
43.21121932539516,660,91.98509316770185
43.85728089277377,650,91.55531449566966
44.52206888239523,669,91.55531449566966
45.17749366089527,660,90.68329979879275
45.84228165051673,669,90.68329979879275
46.5070696401382,669,90.68329979879275
47.16249441863823,660,91.11307847082493
47.817919197138266,660,90.69523809523808
48.49207039788116,679,89.84761904761905
49.166221598624055,679,88.59360730593606
49.84973601048838,688,88.18721461187214
50.5332504223527,688,88.18721461187214
51.20740162309559,679,88.18721461187214
51.890916034959915,688,87.40694063926941
52.593156869067094,707,86.60513883746759
53.28603449205284,698,85.82486486486485
53.98827532616003,707,86.60513883746759
54.67178973802435,688,87.40694063926941
55.34594093876724,679,88.18721461187214
56.029455350631565,688,88.18721461187214
56.71296976249589,688,88.18721461187214
57.38712096323878,679,88.18721461187214
58.0706353751031,688,89.01144768152292
58.73542336472457,669,89.42928805710977
59.40021135434603,669,90.25352112676056
60.06499934396749,669,90.25352112676056
60.72978733358896,669,90.25352112676056
61.39457532321042,669,90.25352112676056
62.059363312831884,669,90.68329979879275
62.71478809133192,660,90.2654594232059
63.38893929207482,679,89.84761904761905
64.06309049281771,679,89.0
64.7372416935606,679,89.41784037558685
65.40202968318206,669,89.8356807511737
66.06681767280352,669,90.25352112676056
66.731605662425,669,90.25352112676056
67.39639365204646,669,89.8356807511737
68.07054485278935,679,89.8356807511737
68.73533284241081,669,90.2654594232059
69.39075762091085,660,91.55531449566965
70.03681918828946,650,91.98509316770185
70.69224396678949,660,92.42732919254658
71.3383055341681,650,92.88257215929849
71.97500389042527,641,93.78005115089513
72.61170224668246,641,94.23529411764706
73.24840060293963,641,94.23529411764706
73.8850989591968,641,93.78005115089513
74.5311605265754,650,93.32480818414322
75.17722209395401,650,93.32480818414321
75.81392045021119,641,93.32480818414322
76.4599820175898,650,93.32480818414322
77.1060435849684,650,92.86956521739128
77.75210515234701,650,92.86956521739128
78.39816671972561,650,93.79364049318623
79.02550186486137,632,94.24888345993816
79.66220022111854,641,95.1729587357331
80.28953536625428,632,94.70412642669008
80.92623372251147,641,95.6559980844441
81.54420565652579,622,95.65599808444408
82.17154080166154,632,96.60786974219809
82.78951273567586,622,96.1248303934871
83.4168478808116,632,96.1248303934871
84.04418302594735,632,95.1729587357331
84.68088138220452,641,95.1729587357331
85.30821652734026,632,94.70412642669008
85.94491488359745,641,94.70412642669008
86.58161323985462,641,94.23529411764706
87.2183115961118,641,93.78005115089513
87.86437316349041,650,93.78005115089513
88.50107151974758,641,93.78005115089513
89.13776987600475,641,93.78005115089513
89.78383144338336,650,93.32480818414322
90.42989301076197,650,92.42732919254657
91.085317789262,660,92.88257215929849
91.72201614551918,641,92.88257215929849
92.36807771289779,650,92.88257215929849
93.02350249139782,660,91.98509316770185
93.67892726989786,660,91.98509316770185
94.32498883727646,650,92.42732919254658
94.97105040465507,650,92.86956521739128
95.61711197203368,650,92.42732919254657
96.27253675053372,660,92.42732919254658
96.91859831791231,650,91.98509316770185
97.57402309641235,660,91.98509316770185
98.22944787491238,660,91.98509316770185
98.87550944229099,650,92.42732919254658
99.5215710096696,650,93.32480818414321
100.15826936592677,641,93.78005115089513
100.79496772218396,641,94.23529411764706
101.43166607844113,641,93.78005115089513
102.07772764581973,650,93.78005115089513
102.71442600207692,641,93.32480818414322
103.36048756945551,650,93.32480818414322
104.00654913683412,650,93.79364049318623
104.63388428196987,632,94.24888345993816
105.27058263822705,641,94.70412642669008
105.90728099448422,641,94.23529411764706
106.54397935074141,641,93.78005115089513
107.19004091812,650,93.78005115089513
107.82673927437719,641,93.78005115089513
108.46343763063436,641,93.78005115089513
109.10949919801297,650,92.88257215929849
109.764923976513,660,91.55531449566966
110.42971196613446,669,90.68329979879275
111.09449995575594,669,90.25352112676056
111.7592879453774,669,89.8356807511737
112.43343914612029,679,89.41784037558685
113.10759034686318,679,89.0
113.78174154760607,679,89.41784037558685
114.44652953722753,669,90.2654594232059
115.10195431572758,660,91.11307847082493
115.75737909422762,660,91.11307847082495
116.42216708384908,669,91.11307847082493
117.07759186234911,660,90.68329979879275
117.74237985197057,669,91.11307847082493
118.3978046304706,660,91.11307847082493
119.05322940897064,660,91.11307847082495
119.71801739859211,669,90.2654594232059
120.392168599335,679,89.8356807511737
121.05695658895647,669,89.01144768152292
121.74047100082079,688,89.01144768152292
122.41462220156367,679,89.01144768152292
123.07941019118515,669,89.41784037558685
123.75356139192803,679,89.41784037558685
124.42771259267093,679,88.59360730593606
125.11122700453525,688,88.59360730593608
125.78537820527815,679,88.18721461187214
126.46889261714247,688,88.59360730593608
127.14304381788536,679,88.18721461187214
127.82655822974968,688,88.18721461187214
128.51007264161402,688,87.78082191780821
129.19358705347832,688,87.38541281007033
129.88646467646407,698,87.38541281007033
130.5699790883284,688,87.38541281007033
131.25349350019272,688,87.38541281007033
131.94637112317847,698,86.99000370233247
132.6392487461642,698,86.59459459459458
133.33212636915,698,86.59459459459458
134.02500399213574,698,86.59459459459458
134.71788161512148,698,86.99000370233246
135.4013960269858,688,87.79180550413426
136.0755472277287,679,87.79180550413426
136.76842485071444,698,87.79180550413426
137.45193926257878,688,87.38541281007033
138.13545367444308,688,88.18721461187214
138.80960487518598,679,88.59360730593608
139.48375607592888,679,88.59360730593606
140.1672704877932,688,88.59360730593608
140.8414216885361,679,88.18721461187214
141.52493610040042,688,88.18721461187214
142.20845051226473,688,88.18721461187214
142.88260171300763,679,88.59360730593608
143.55675291375053,679,89.0
144.23090411449343,679,88.59360730593606
144.91441852635774,688,88.59360730593608
145.58856972710063,679,88.59360730593608
146.26272092784353,679,89.41784037558685
146.927508917465,669,89.8356807511737
147.59229690708645,669,90.25352112676056
148.2570848967079,669,90.25352112676056
148.92187288632937,669,89.8356807511737
149.59602408707227,679,89.8356807511737
150.26081207669372,669,90.2654594232059
150.91623685519377,660,90.68329979879275
151.58102484481523,669,90.68329979879275
152.2458128344367,669,90.68329979879275
152.90123761293674,660,90.68329979879275
153.5660256025582,669,91.11307847082493
154.22145038105825,660,91.55531449566965
154.86751194843683,650,91.55531449566966
155.53229993805832,669,91.12553582363748
156.19708792767977,669,89.8356807511737
156.87123912842267,679,89.41784037558685
157.54539032916554,679,89.41784037558685
158.21017831878703,669,89.41784037558685
158.8843295195299,679,89.01144768152292
159.56784393139424,688,87.79180550413426
160.26072155437998,698,87.38541281007033
160.94423596624432,688,87.79180550413426
161.6183871669872,679,88.59360730593608
162.2925383677301,679,88.59360730593606
162.97605277959443,688,88.59360730593608
163.65020398033732,679,88.18721461187214
164.33371839220163,688,89.01144768152292
164.9985063818231,669,89.01144768152292
165.672657582566,679,89.41784037558685
166.3468087833089,679,89.0
167.02095998405179,679,88.59360730593606
167.7044743959161,688,88.59360730593608
168.378625596659,679,88.59360730593608
169.0527767974019,679,89.0
169.7269279981448,679,88.59360730593606
170.4104424100091,688,88.59360730593608
171.084593610752,679,88.18721461187214
171.7681080226163,688,88.59360730593608
172.4422592233592,679,89.01144768152292
173.10704721298066,669,89.8356807511737
173.77183520260215,669,89.8356807511737
174.44598640334502,679,89.41784037558685
175.12013760408792,679,89.41784037558685
175.78492559370937,669,90.2654594232059
176.44035037220942,660,91.11307847082493
177.09577515070944,660,91.11307847082495
177.76056314033093,669,90.68329979879275
178.4253511299524,669,90.68329979879275
179.0807759084524,660,90.68329979879275
179.7455638980739,669,91.55531449566965
180.39162546545248,650,91.55531449566966
181.04705024395253,660,92.42732919254658
181.69311181133114,650,91.98509316770185
182.34853658983116,660,91.98509316770185
183.0039613683312,660,91.54285714285713
183.65938614683122,660,91.98509316770185
184.30544771420983,650,91.98509316770185
184.96087249270988,660,92.42732919254658
185.6069340600885,650,91.98509316770185
186.2623588385885,660,92.88257215929849
186.89905719484568,641,92.88257215929849
187.5451187622243,650,93.78005115089513
188.1818171184815,641,93.78005115089513
188.81851547473866,641,94.23529411764706
189.45521383099583,641,94.23529411764706
190.091912187253,641,94.23529411764706
190.72861054351017,641,93.78005115089513
191.37467211088878,650,93.32480818414322
192.0207336782674,650,92.42732919254657
192.67615845676744,660,91.98509316770185
193.33158323526746,660,91.11307847082495
193.99637122488892,669,90.68329979879275
194.6611592145104,669,90.68329979879275
195.31658399301043,660,91.11307847082493
195.97200877151047,660,91.98509316770185
196.61807033888908,650,91.98509316770185
197.2734951173891,660,91.98509316770185
197.92891989588915,660,91.98509316770185
198.57498146326773,650,91.98509316770185
199.23040624176778,660,92.88257215929849
199.86710459802495,641,92.88257215929849
200.51316616540356,650,93.32480818414322
201.15922773278217,650,92.42732919254657
201.81465251128222,660,92.42732919254658
202.4607140786608,650,91.98509316770185
203.11613885716085,660,91.98509316770185
203.77156363566087,660,91.98509316770185
204.41762520303948,650,91.98509316770185
205.07304998153953,660,91.98509316770185
205.72847476003955,660,91.11307847082495
206.39326274966103,669,91.11307847082493
207.04868752816105,660,91.55531449566965
207.69474909553966,650,92.42732919254658
208.34081066291827,650,92.86956521739128
208.98687223029688,650,92.86956521739128
209.6329337976755,650,92.86956521739128
210.27899536505407,650,92.86956521739128
210.92505693243268,650,92.86956521739128
211.5711184998113,650,93.32480818414321
212.20781685606846,641,93.32480818414322
212.85387842344707,650,92.88257215929849
213.50930320194712,660,91.98509316770185
214.16472798044714,660,91.54285714285713
214.8201527589472,660,91.54285714285713
215.4755775374472,660,91.98509316770185
216.12163910482582,650,91.98509316770185
216.77706388332587,660,91.55531449566966
217.44185187294732,669,90.68329979879275
218.10663986256878,669,90.25352112676056
218.77142785219024,669,90.68329979879275
219.4268526306903,660,91.11307847082493
220.0822774091903,660,91.54285714285713
220.73770218769036,660,91.11307847082495
221.40249017731182,669,90.68329979879275
222.06727816693328,669,89.8356807511737
222.74142936767618,679,89.8356807511737
223.40621735729763,669,90.2654594232059
224.06164213579768,660,90.68329979879275
224.72643012541914,669,90.2654594232059
225.40058132616204,679,89.8356807511737
226.0653693157835,669,89.41784037558685
226.7395205165264,679,89.41784037558685
227.4136717172693,679,89.84761904761903
228.06909649576932,660,89.84761904761905
228.7432476965122,679,90.2654594232059
229.40803568613367,669,89.41784037558685
230.08218688687657,679,89.8356807511737
230.74697487649803,669,89.8356807511737
231.4117628661195,669,90.68329979879275
232.06718764461954,660,91.11307847082493
232.72261242311956,660,91.54285714285713
233.3780372016196,660,91.11307847082495
234.04282519124106,669,91.11307847082493
234.6982499697411,660,91.55531449566965
235.34431153711972,650,91.98509316770185
235.99973631561974,660,91.98509316770185
236.6551610941198,660,91.54285714285713
237.3105858726198,660,91.11307847082495
237.97537386224127,669,91.11307847082493
238.63079864074132,660,91.55531449566965
239.27686020811993,650,91.98509316770185
239.93228498661995,660,91.98509316770185
240.58770976512,660,91.54285714285713
241.24313454362002,660,91.54285714285713
241.89855932212006,660,91.54285714285713
242.55398410062008,660,91.98509316770185
243.2000456679987,650,92.42732919254658
243.8461072353773,650,92.42732919254657
244.50153201387735,660,91.98509316770185
245.15695679237737,660,91.98509316770185
245.80301835975598,650,92.42732919254658
246.4490799271346,650,92.86956521739128
247.0951414945132,650,92.42732919254657
247.75056627301322,660,91.98509316770185
248.40599105151327,660,91.54285714285713
249.0614158300133,660,91.98509316770185
249.7074773973919,650,92.42732919254658
250.3535389647705,650,92.86956521739128
250.99960053214912,650,92.86956521739128
251.64566209952773,650,92.42732919254657
252.30108687802775,660,91.98509316770185
252.9565116565278,660,91.54285714285713
253.61193643502781,660,91.54285714285713
254.26736121352786,660,91.98509316770185
254.91342278090647,650,91.98509316770185
255.5688475594065,660,91.98509316770185
256.22427233790654,660,91.11307847082495
256.889060327528,669,91.11307847082493
257.54448510602805,660,90.68329979879275
258.2092730956495,669,90.68329979879275
258.87406108527097,669,90.68329979879275
259.529485863771,660,90.68329979879275
260.1942738533925,669,90.68329979879275
260.85906184301393,669,90.25352112676056
261.5238498326354,669,90.25352112676056
262.18863782225685,669,90.25352112676056
262.8534258118783,669,90.68329979879275
263.50885059037836,660,90.68329979879275
264.1736385799998,669,90.68329979879275
264.8384265696213,669,90.25352112676056
265.50321455924274,669,90.68329979879275
266.1586393377428,660,90.68329979879275
266.82342732736424,669,91.55531449566965
267.4694888947429,650,91.55531449566966
268.1249136732429,660,91.55531449566966
268.78970166286433,669,91.11307847082493
269.4451264413644,660,90.68329979879275
270.10991443098584,669,91.55531449566965
270.7559759983645,650,91.55531449566966
271.41140077686447,660,91.98509316770185
272.0668255553645,660,91.54285714285713
272.72225033386457,660,91.11307847082495
273.387038323486,669,90.68329979879275
274.0518263131075,669,90.68329979879275
274.70725109160753,660,91.11307847082493
275.3626758701076,660,91.11307847082495
276.02746385972904,669,90.68329979879275
276.6922518493505,669,90.25352112676056
277.35703983897196,669,90.68329979879275
278.012464617472,660,91.55531449566965
278.6585261848506,650,91.98509316770185
279.31395096335063,660,92.42732919254658
279.9600125307292,650,91.98509316770185
280.61543730922926,660,91.98509316770185
281.2708620877293,660,91.11307847082495
281.9356500773508,669,90.2654594232059
282.60980127809364,679,89.8356807511737
283.2745892677151,669,89.41784037558685
283.948740468458,679,89.8356807511737
284.6135284580795,669,89.8356807511737
285.27831644770094,669,90.25352112676056
285.9431044373224,669,90.25352112676056
286.60789242694386,669,90.25352112676056
287.2726804165653,669,90.25352112676056
287.9374684061868,669,90.25352112676056
288.60225639580824,669,90.25352112676056
289.26704438542976,669,90.25352112676056
289.9318323750512,669,90.68329979879275
290.5872571535512,660,91.11307847082493
291.24268193205125,660,91.54285714285713
291.8981067105513,660,91.11307847082495
292.56289470017276,669,90.68329979879275
293.2276826897942,669,90.25352112676056
293.8924706794157,669,90.68329979879275
294.54789545791573,660,91.11307847082493
295.2033202364158,660,91.54285714285713
295.8587450149158,660,91.11307847082495
296.5235330045373,669,91.55531449566965
297.16959457191587,650,91.55531449566966
297.8250193504159,660,92.42732919254658
298.4710809177945,650,92.42732919254658
299.11714248517313,650,92.42732919254657
299.7725672636731,660,91.55531449566966
300.43735525329464,669,91.55531449566965
301.0834168206732,650,91.55531449566966
301.73884159917327,660,92.42732919254658
302.38490316655185,650,91.98509316770185
303.0403279450519,660,91.98509316770185
303.69575272355195,660,91.11307847082495
304.3605407131734,669,91.11307847082493
305.01596549167346,660,91.55531449566965
305.66202705905204,650,91.98509316770185
306.3174518375521,660,92.42732919254658
306.96351340493067,650,91.98509316770185
307.6189381834307,660,91.98509316770185
308.27436296193076,660,91.98509316770185
308.92042452930934,650,92.42732919254658
309.566486096688,650,92.86956521739128
310.21254766406656,650,92.42732919254657
310.8679724425666,660,92.42732919254658
311.5140340099452,650,91.55531449566966
312.17882199956665,669,91.99755052051438
312.8248835669453,650,91.55531449566966
313.48030834544534,660,92.42732919254658
314.1263699128239,650,91.98509316770185
314.78179469132397,660,91.98509316770185
315.437219469824,660,91.54285714285713
316.092644248324,660,91.54285714285713
316.74806902682406,660,91.98509316770185
317.39413059420264,650,91.98509316770185
318.0495553727027,660,91.98509316770185
318.70498015120273,660,91.11307847082495
319.3697681408242,669,90.2654594232059
320.0439193415671,679,89.8356807511737
320.7087073311886,669,89.8356807511737
321.37349532081004,669,90.25352112676056
322.0382833104315,669,89.8356807511737
322.71243451117437,679,89.41784037558685
323.3865857119173,679,88.59360730593606
324.0701001237816,688,88.59360730593608
324.7442513245245,679,88.59360730593608
325.41840252526737,679,89.41784037558685
326.0831905148888,669,89.8356807511737
326.7479785045103,669,90.25352112676056
327.41276649413174,669,89.8356807511737
328.08691769487467,679,89.8356807511737
328.75170568449613,669,89.8356807511737
329.4164936741176,669,90.25352112676056
330.08128166373905,669,90.25352112676056
330.7460696533605,669,90.68329979879275
331.40149443186056,660,90.68329979879275
332.066282421482,669,90.68329979879275
332.7310704111035,669,89.8356807511737
333.4052216118464,679,89.8356807511737
334.07000960146786,669,89.8356807511737
334.7347975910893,669,90.68329979879275
335.3902223695893,660,91.11307847082493
336.04564714808936,660,91.11307847082495
336.7104351377108,669,90.68329979879275
337.3752231273323,669,90.25352112676056
338.0400111169538,669,90.25352112676056
338.70479910657525,669,90.68329979879275
339.36022388507524,660,90.68329979879275
340.0250118746967,669,91.11307847082493
340.68043665319675,660,90.68329979879275
341.3452246428182,669,90.68329979879275
342.01001263243967,669,90.68329979879275
342.6654374109397,660,91.11307847082493
343.32086218943977,660,91.54285714285713
343.9762869679398,660,91.11307847082495
344.6410749575613,669,90.68329979879275
345.30586294718273,669,90.68329979879275
345.9612877256828,660,91.55531449566965
346.60734929306136,650,91.98509316770185
347.2627740715614,660,92.42732919254658
347.90883563894,650,92.42732919254658
348.5548972063186,650,92.42732919254657
349.2103219848186,660,92.42732919254658
349.85638355219726,650,92.42732919254658
350.50244511957584,650,92.86956521739128
351.1485066869545,650,92.86956521739128
351.79456825433306,650,92.42732919254657
352.4499930328331,660,91.98509316770185
353.10541781133315,660,91.54285714285713
353.7608425898332,660,91.98509316770185
354.4069041572118,650,92.42732919254658
355.05296572459036,650,92.42732919254657
355.7083905030904,660,92.42732919254658
356.35445207046905,650,91.98509316770185
357.00987684896904,660,92.42732919254658
357.6559384163477,650,92.88257215929849
358.29263677260485,641,93.32480818414322
358.93869833998343,650,93.32480818414322
359.58475990736207,650,93.32480818414321
360.22145826361924,641,92.88257215929849
360.8768830421193,660,92.88257215929849
361.52294460949787,650,92.88257215929849
362.15964296575504,641,93.32480818414322
362.8057045331337,650,93.32480818414322
363.45176610051226,650,92.42732919254657
364.1071908790123,660,92.42732919254658
364.7532524463909,650,92.88257215929849
365.38995080264806,641,93.78005115089513
366.0266491589053,641,94.70412642669008
366.653984304041,632,95.6559980844441
367.27195623805534,622,97.10577184010019
367.8805649609482,613,98.60017482517482
368.4798104727197,603,98.60017482517482
369.097782406734,622,98.10227272727272
369.71575434074833,622,97.09090909090908
370.3337262747626,622,96.60786974219809
370.9610614198984,632,96.60786974219809
371.5790333539127,622,96.60786974219809
372.197005287927,622,97.09090909090908
372.8149772219413,622,96.60786974219809
373.4423123670771,632,96.1248303934871
374.06964751221284,632,95.1729587357331
374.70634586847,641,94.70412642669008
375.3430442247272,641,94.23529411764706
375.97974258098435,641,94.23529411764706
376.6164409372415,641,94.23529411764706
377.2531392934987,641,93.33781512605042
377.90856407199874,660,92.44033613445377
378.5639888504988,660,91.54285714285713
379.21941362899884,660,91.11307847082495
379.8842016186203,669,91.55531449566965
380.5302631859989,650,91.55531449566966
381.1856879644989,660,91.98509316770185
381.841112742999,660,91.54285714285713
382.496537521499,660,91.54285714285713
383.151962299999,660,91.54285714285713
383.80738707849906,660,91.54285714285713
384.4628118569991,660,92.44033613445377
385.0995102132563,641,92.88257215929849
385.74557178063486,650,93.78005115089513
386.3822701368921,641,93.32480818414322
387.02833170427067,650,93.32480818414322
387.67439327164925,650,93.32480818414321
388.3110916279064,641,93.78005115089513
388.94778998416365,641,94.70412642669008
389.57512512929935,632,95.6559980844441
390.1930970633137,622,97.10577184010019
390.8017057862066,613,97.10577184010019
391.42904093134234,632,96.15390018234618
392.0657392875995,641,95.1729587357331
392.6930744327353,632,95.1729587357331
393.320409577871,632,95.64179104477613
393.94774472300674,632,96.12483039348712
394.5657166570211,622,96.60786974219809
395.1836885910354,622,96.13903743315507
395.82038694729255,641,94.73192280864913
396.4664485146712,650,93.32480818414322
397.11251008204977,650,92.86956521739128
397.7585716494284,650,92.86956521739128
398.404633216807,650,92.86956521739128
399.05069478418557,650,92.86956521739128
399.6967563515642,650,92.42732919254657
400.35218113006425,660,91.98509316770185
401.00760590856424,660,92.44033613445377
401.64430426482147,641,93.80664743509344
402.2716394099572,632,94.70412642669008
402.90833776621434,641,94.70412642669008
403.5450361224716,641,94.23529411764706
404.18173447872874,641,93.78005115089513
404.8277960461073,650,93.78005115089513
405.4644944023645,641,93.78005115089513
406.10119275862166,641,93.78005115089513
406.7472543260003,650,92.88257215929849
407.40267910450035,660,92.42732919254658
408.04874067187893,650,92.42732919254658
408.6948022392575,650,92.42732919254657
409.35022701775756,660,91.98509316770185
410.0056517962576,660,91.54285714285713
410.66107657475766,660,91.11307847082495
411.3258645643791,669,91.11307847082493
411.98128934287917,660,91.11307847082493
412.63671412137916,660,91.54285714285713
413.2921388998792,660,91.11307847082495
413.95692688950066,669,90.68329979879275
414.6217148791221,669,90.68329979879275
415.2771396576222,660,91.11307847082493
415.9325644361222,660,91.98509316770185
416.5786260035008,650,91.98509316770185
417.23405078200085,660,91.55531449566966
417.8988387716223,669,90.68329979879275
418.56362676124377,669,90.68329979879275
419.2190515397438,660,90.68329979879275
419.8838395293653,669,90.68329979879275
420.54862751898673,669,91.12553582363748
421.1946890863654,650,91.55531449566966
421.85011386486536,660,91.98509316770185
422.5055386433654,660,91.54285714285713
423.16096342186546,660,91.54285714285713
423.8163882003655,660,91.54285714285713
424.4718129788655,660,91.98509316770185
425.11787454624414,650,92.88257215929849
425.7545729025013,641,93.32480818414322
426.4006344698799,650,93.32480818414322
427.0466960372585,650,93.79364049318623
427.6740311823943,632,94.71771576898118
428.30136632753,632,96.12483039348712
428.91933826154434,622,97.10577184010019
429.5279469844372,613,97.58881118881118
430.1459189184515,622,97.10577184010019
430.7732540635873,632,96.1248303934871
431.40058920872303,632,95.64179104477613
432.0279243538588,632,96.12483039348712
432.6458962878731,622,95.65599808444408
433.28259464413026,641,95.18716577540106
433.9192930003875,641,94.23529411764706
434.55599135664465,641,94.23529411764706
435.1926897129018,641,94.23529411764706
435.829388069159,641,94.70412642669008
436.45672321429475,632,95.1729587357331
437.08405835943046,632,95.64179104477613
437.7113935045662,632,95.64179104477613
438.338728649702,632,95.1729587357331
438.97542700595915,641,95.1729587357331
439.6027621510949,632,95.1729587357331
440.23009729623067,632,96.12483039348712
440.84806923024496,622,96.60786974219809
441.4660411642593,622,96.60786974219809
442.093376309395,632,95.65599808444408
442.73007466565224,641,95.1729587357331
443.35740981078794,632,95.1729587357331
443.9847449559237,632,95.64179104477613
444.61208010105946,632,95.64179104477613
445.2394152461952,632,95.64179104477613
445.8667503913309,632,95.64179104477613
446.4940855364667,632,95.1729587357331
447.13078389272385,641,94.70412642669008
447.767482248981,641,94.23529411764706
448.40418060523825,641,94.70412642669008
449.03151575037396,632,94.70412642669008
449.6682141066312,641,94.70412642669008
450.30491246288835,641,94.23529411764706
450.9416108191455,641,94.70412642669008
451.5689459642813,632,95.1729587357331
452.196281109417,632,95.64179104477613
452.82361625455275,632,95.1729587357331
453.4603146108099,641,95.1729587357331
454.0876497559457,632,94.70412642669008
454.72434811220285,641,95.1729587357331
455.3516832573386,632,95.6559980844441
455.9696551913529,622,95.65599808444408
456.60635354761007,641,95.65599808444408
457.23368869274583,632,94.70412642669008
457.870387049003,641,94.70412642669008
458.50708540526017,641,94.23529411764706
459.1437837615174,641,94.70412642669008
459.7711189066531,632,94.70412642669008
460.4078172629103,641,94.70412642669008
461.0445156191675,641,94.23529411764706
461.68121397542467,641,94.23529411764706
462.31791233168184,641,94.23529411764706
462.954610687939,641,94.23529411764706
463.5913090441962,641,94.23529411764706
464.22800740045335,641,93.78005115089513
464.874068967832,650,93.32480818414322
465.52013053521057,650,92.86956521739128
466.16619210258915,650,92.86956521739128
466.8122536699678,650,93.32480818414321
467.44895202622496,641,93.78005115089513
468.08565038248213,641,93.78005115089513
468.73171194986077,650,93.32480818414322
469.37777351723935,650,92.86956521739128
470.02383508461793,650,92.86956521739128
470.66989665199657,650,93.32480818414321
471.30659500825374,641,93.32480818414322
471.9526565756323,650,93.32480818414322
472.59871814301096,650,92.86956521739128
473.24477971038954,650,93.32480818414321
473.8814780666467,641,93.32480818414322
474.52753963402535,650,93.78005115089513
475.1642379902825,641,93.78005115089513
475.8009363465397,641,93.78005115089513
476.4469979139183,650,93.32480818414322
477.0930594812969,650,93.32480818414321
477.7297578375541,641,93.78005115089513
478.36645619381125,641,93.78005115089513
479.0125177611899,650,92.88257215929849
479.6679425396899,660,92.88257215929849
480.3046408959471,641,92.88257215929849
480.9507024633257,650,93.78005115089513
481.58740081958285,641,93.32480818414322
482.2334623869615,650,93.32480818414322
482.8795239543401,650,93.32480818414321
483.51622231059724,641,93.78005115089513
484.1529206668544,641,94.70412642669008
484.7802558119902,632,94.70412642669008
485.41695416824734,641,94.70412642669008
486.0536525245045,641,94.70412642669008
486.6809876696403,632,94.70412642669008
487.31768602589744,641,94.70412642669008
487.9543843821546,641,94.70412642669008
488.5817195272904,632,94.70412642669008
489.21841788354754,641,94.24888345993816
489.8644794509262,650,93.32480818414322
490.51054101830476,650,92.86956521739128
491.15660258568334,650,93.32480818414321
491.7933009419406,641,93.32480818414322
492.43936250931915,650,92.88257215929849
493.0947872878192,660,92.42732919254658
493.7408488551978,650,92.42732919254658
494.3869104225764,650,92.86956521739128
495.032971989955,650,93.32480818414321
495.6696703462122,641,93.32480818414322
496.3157319135908,650,93.32480818414322
496.9617934809694,650,92.86956521739128
497.60785504834803,650,92.86956521739128
498.2539166157266,650,92.42732919254657
498.90934139422666,660,91.55531449566966
499.5741293838481,669,89.85906672914196
500.25764379571245,688,89.01144768152292
500.9317949964553,679,88.59360730593608
501.6059461971982,679,89.0
502.2800973979411,679,88.59360730593606
502.96361180980546,688,87.79180550413426
503.6564894327912,698,87.79180550413426
504.3306406335341,679,87.79180550413426
505.0141550453984,688,87.79180550413426
505.70703266838416,698,86.60513883746759
506.4092735024913,707,85.4501280227596
507.12087754771994,716,85.06526315789472
507.8231183818271,707,84.69052631578947
508.5347224270557,716,84.69052631578947
509.24632647228435,716,83.59514170040485
509.9766569397558,735,83.23013828276986
510.69762419610583,726,83.23013828276986
511.40922824133446,716,83.23013828276986
512.1395587088059,735,82.87449392712551
512.8698891762774,735,82.15384615384616
513.6002196437488,735,82.50949050949052
514.3211869000988,726,83.98973998973999
515.0140645230847,698,85.0851246051246
515.7163053571918,707,85.82486486486485
516.418546191299,707,85.44
517.1207870254062,707,85.82486486486485
517.813664648392,698,85.82486486486485
518.5159054824991,707,85.0851246051246
519.2368727388491,726,83.60487512487512
519.9672032063206,735,82.50949050949052
520.6975336737921,735,81.80720545277508
521.437227352385,745,81.460564751704
522.1769210309778,745,80.7759493670886
522.9259779206922,754,80.4379746835443
523.6750348104065,754,80.78461538461538
524.405365277878,735,81.1225900681597
525.1450589564708,745,81.1225900681597
525.8941158461852,754,80.7759493670886
526.6338095247781,745,80.7759493670886
527.373503203371,745,81.81620910734836
528.094470459721,726,82.16284980841942
528.8248009271925,735,82.50949050949052
529.555131394664,735,82.15384615384616
530.2854618621354,735,82.87449392712551
530.9970659073641,716,83.59514170040485
531.7086699525927,716,83.9507860560492
532.4296372089427,726,83.9507860560492
533.1412412541713,716,84.71038776301933
533.834118877157,698,85.83499288762445
534.5269965001428,698,86.59459459459458
535.2198741231285,698,86.99000370233246
535.9033885349929,688,86.23040199536234
536.6149925802215,716,85.84553713049746
537.3172334143287,707,85.06526315789472
538.0194742484359,707,85.44
538.721715082543,707,84.70025974025972
539.4426823388931,726,83.96051948051948
540.1636495952431,726,83.2207792207792
540.8846168515931,726,82.51849416406378
541.6243105301861,745,81.81620910734836
542.364004208779,745,81.11392405063292
543.1036978873718,745,81.460564751704
543.8340283548433,735,82.16284980841942
544.5549956111934,726,82.50949050949052
545.2853260786649,735,82.86513486513486
546.0062933350149,726,83.23013828276986
546.7178973802435,716,84.32552289815447
547.4201382143507,707,85.06526315789472
548.1223790484578,707,85.82486486486485
548.8152566714435,698,86.20972972972973
549.5081342944294,698,86.99000370233246
550.1916487062937,688,87.79180550413426
550.8657999070366,679,88.59360730593608
551.5399511077794,679,89.0
552.2141023085223,679,88.59360730593606
552.8976167203866,688,88.59360730593608
553.5717679211295,679,89.01144768152292
554.236555910751,669,89.41784037558685
554.9107071114939,679,89.8356807511737
555.5754951011154,669,89.41784037558685
556.2496463018583,679,89.8356807511737
556.9144342914798,669,89.8356807511737
557.5792222811012,669,90.68329979879275
558.2346470596012,660,90.68329979879275
558.8994350492227,669,90.68329979879275
559.5642230388441,669,90.25352112676056
560.2290110284656,669,90.68329979879275
560.8844358069657,660,90.68329979879275
561.5492237965872,669,90.2654594232059
562.22337499733,679,89.41784037558685
562.8975261980729,679,89.0
563.5716773988158,679,89.41784037558685
564.2364653884373,669,89.41784037558685
564.9106165891802,679,89.41784037558685
565.584767789923,679,88.59360730593606
566.2682822017874,688,88.59360730593608
566.9424334025302,679,88.59360730593608
567.6165846032732,679,89.0
568.2907358040161,679,89.0
568.9648870047589,679,89.0
569.6390382055018,679,89.0
570.3131894062448,679,89.41784037558685
570.9779773958662,669,89.41784037558685
571.6521285966091,679,89.01144768152292
572.3356430084734,688,88.59360730593608
573.0097942092164,679,89.01144768152292
573.6745821988378,669,89.41784037558685
574.3487333995806,679,89.8356807511737
575.0135213892021,669,90.2654594232059
575.6689461677022,660,90.68329979879275
576.3337341573236,669,91.11307847082493
576.9891589358236,660,91.55531449566965
577.6352205032023,650,91.98509316770185
578.2906452817023,660,91.98509316770185
578.9460700602024,660,91.11307847082495
579.6108580498238,669,91.11307847082493
580.2662828283238,660,91.11307847082493
580.9217076068239,660,91.98509316770185
581.5677691742025,650,92.42732919254658
582.2138307415811,650,92.42732919254657
582.8692555200811,660,91.98509316770185
583.5246802985812,660,91.11307847082495
584.1894682882026,669,91.11307847082493
584.8448930667026,660,91.11307847082493
585.5003178452027,660,91.98509316770185
586.1463794125813,650,91.98509316770185
586.8018041910814,660,91.55531449566966
587.4665921807028,669,91.11307847082493
588.1220169592028,660,90.68329979879275
588.7868049488243,669,90.68329979879275
589.4515929384457,669,90.25352112676056
590.1163809280672,669,89.8356807511737
590.7905321288101,679,89.8356807511737
591.4553201184316,669,89.01144768152292
592.1388345302959,688,89.42928805710977
592.8036225199173,669,89.42928805710977
593.4684105095388,669,90.25352112676056
594.1331984991602,669,90.25352112676056
594.7979864887818,669,90.68329979879275
595.4534112672818,660,91.11307847082493
596.1088360457818,660,91.54285714285713
596.7642608242819,660,91.98509316770185
597.4103223916604,650,92.42732919254658
598.0563839590391,650,92.42732919254657
598.7118087375391,660,91.98509316770185
599.3672335160392,660,91.54285714285713
600.0226582945392,660,91.54285714285713
600.6780830730393,660,91.54285714285713
601.3335078515393,660,91.54285714285713
601.9889326300392,660,91.54285714285713
602.6443574085393,660,91.11307847082495
603.3091453981608,669,91.11307847082493
603.9645701766608,660,91.55531449566965
604.6106317440394,650,92.42732919254658
605.2566933114181,650,92.86956521739128
605.9027548787966,650,92.86956521739128
606.5488164461752,650,92.86956521739128
607.1948780135539,650,92.42732919254657
607.8503027920539,660,92.42732919254658
608.4963643594325,650,92.42732919254658
609.1424259268111,650,92.42732919254657
609.7978507053111,660,92.42732919254658
610.4439122726898,650,91.98509316770185
611.0993370511898,660,92.42732919254658
611.7453986185684,650,92.88257215929849
612.3820969748256,641,93.32480818414322
613.0281585422042,650,93.78005115089513
613.6648568984614,641,93.32480818414322
614.3109184658399,650,92.88257215929849
614.96634324434,660,92.42732919254658
615.6124048117185,650,91.98509316770185
616.2678295902186,660,91.55531449566966
616.9326175798401,669,90.68329979879275
617.5974055694616,669,90.68329979879275
618.2528303479615,660,91.11307847082493
618.9082551264617,660,91.98509316770185
619.5543166938402,650,91.98509316770185
620.2097414723403,660,91.98509316770185
620.8651662508403,660,91.98509316770185
621.5112278182189,650,92.88257215929849
622.1479261744761,641,93.78005115089513
622.7846245307333,641,94.23529411764706
623.4213228869904,641,94.23529411764706
624.0580212432476,641,94.23529411764706
624.6947195995048,641,94.70412642669008
625.3220547446406,632,94.70412642669008
625.9587531008978,641,94.70412642669008
626.5954514571549,641,94.23529411764706
627.2321498134121,641,94.23529411764706
627.8688481696693,641,93.78005115089513
628.5149097370479,650,93.32480818414322
629.1609713044264,650,93.79364049318623
629.7883064495622,632,94.24888345993816
630.4250048058194,641,94.24888345993816
631.0710663731979,650,93.32480818414322
631.7171279405766,650,92.86956521739128
632.3631895079552,650,93.79364049318623
632.9905246530909,632,94.24888345993816
633.6272230093481,641,95.1729587357331
634.2545581544839,632,94.70412642669008
634.8912565107411,641,94.70412642669008
635.5279548669982,641,93.78005115089513
636.1740164343769,650,93.78005115089513
636.810714790634,641,93.78005115089513
637.4474131468912,641,93.78005115089513
638.0934747142697,650,93.32480818414322
638.7395362816484,650,92.86956521739128
639.385597849027,650,92.42732919254657
640.041022627527,660,92.42732919254658
640.6870841949057,650,92.88257215929849
641.3237825511628,641,93.78005115089513
641.96048090742,641,94.23529411764706
642.5971792636772,641,93.78005115089513
643.2432408310558,650,93.78005115089513
643.879939187313,641,93.32480818414322
644.5260007546916,650,93.78005115089513
645.1626991109488,641,93.78005115089513
645.799397467206,641,93.78005115089513
646.4454590345845,650,92.88257215929849
647.1008838130846,660,91.98509316770185
647.7563085915846,660,91.98509316770185
648.4023701589632,650,92.42732919254658
649.0484317263418,650,92.86956521739128
649.6944932937204,650,92.42732919254657
650.3499180722205,660,91.98509316770185
651.0053428507205,660,91.98509316770185
651.6514044180991,650,92.42732919254658
652.2974659854777,650,92.42732919254657
652.9528907639777,660,92.42732919254658
653.5989523313564,650,92.42732919254658
654.2450138987349,650,92.86956521739128
654.8910754661135,650,92.42732919254657
655.5465002446135,660,91.98509316770185
656.2019250231136,660,91.98509316770185
656.8479865904923,650,92.42732919254658
657.4940481578708,650,92.42732919254657
658.1494729363709,660,91.98509316770185
658.8048977148709,660,91.54285714285713
659.4603224933709,660,91.54285714285713
660.115747271871,660,91.54285714285713
660.771172050371,660,91.98509316770185
661.4172336177496,650,91.98509316770185
662.0726583962496,660,91.98509316770185
662.7280831747497,660,91.98509316770185
663.3741447421282,650,92.42732919254658
664.0202063095069,650,92.86956521739128
664.6662678768855,650,92.86956521739128
665.3123294442642,650,92.42732919254657
665.9677542227641,660,92.42732919254658
666.6138157901428,650,92.88257215929849
667.2505141464,641,93.32480818414322
667.8965757137785,650,93.32480818414322
668.5426372811571,650,92.42732919254657
669.1980620596572,660,92.88257215929849
669.8347604159144,641,92.88257215929849
670.4808219832929,650,93.32480818414322
671.1268835506716,650,92.42732919254657
671.7823083291715,660,92.42732919254658
672.4283698965502,650,92.42732919254658
673.0744314639288,650,92.86956521739128
673.7204930313075,650,92.42732919254657
674.3759178098074,660,92.42732919254658
675.0219793771861,650,91.98509316770185
675.6774041556861,660,92.42732919254658
676.3234657230647,650,92.42732919254658
676.9695272904432,650,92.86956521739128
677.6155888578219,650,92.42732919254657
678.271013636322,660,92.42732919254658
678.9170752037005,650,91.98509316770185
679.5724999822006,660,91.98509316770185
680.2279247607006,660,91.54285714285713
680.8833495392006,660,91.98509316770185
681.5294111065792,650,91.98509316770185
682.1848358850793,660,92.42732919254658
682.8308974524579,650,91.98509316770185
683.486322230958,660,91.98509316770185
684.141747009458,660,91.11307847082495
684.8065349990794,669,91.11307847082493
685.4619597775794,660,91.11307847082493
686.1173845560795,660,91.11307847082495
686.782172545701,669,90.68329979879275
687.4469605353224,669,90.25352112676056
688.1117485249439,669,89.8356807511737
688.7858997256868,679,89.8356807511737
689.4506877153083,669,90.2654594232059
690.1061124938083,660,90.68329979879275
690.7709004834297,669,91.11307847082493
691.4263252619298,660,90.68329979879275
692.0911132515513,669,91.11307847082493
692.7465380300513,660,91.11307847082493
693.4019628085513,660,91.54285714285713
694.0573875870514,660,91.98509316770185
694.7034491544299,650,91.98509316770185
695.35887393293,660,91.98509316770185
696.01429871143,660,91.11307847082495
696.6790867010515,669,91.11307847082493
697.3345114795516,660,91.55531449566965
697.9805730469301,650,91.98509316770185
698.6359978254302,660,91.98509316770185
699.2914226039302,660,91.11307847082495
699.9562105935516,669,91.11307847082493
700.6116353720518,660,90.68329979879275
701.2764233616732,669,91.11307847082493
701.9318481401732,660,91.11307847082493
702.5872729186732,660,91.54285714285713
703.2426976971733,660,91.11307847082495
703.9074856867948,669,90.2654594232059
704.5816368875376,679,89.8356807511737
705.2464248771591,669,90.2654594232059
705.9018496556591,660,91.55531449566965
706.5479112230378,650,92.42732919254658
707.1939727904163,650,92.86956521739128
707.8400343577949,650,92.42732919254657
708.4954591362949,660,92.42732919254658
709.1415207036736,650,92.88257215929849
709.7782190599307,641,92.88257215929849
710.4336438384308,660,92.88257215929849
711.0797054058094,650,91.98509316770185
711.7351301843095,660,92.42732919254658
712.381191751688,650,92.42732919254658
713.0272533190666,650,93.32480818414321
713.6639516753238,641,93.32480818414322
714.3100132427024,650,93.32480818414322
714.9560748100811,650,92.86956521739128
715.6021363774596,650,93.32480818414321
716.2388347337168,641,93.78005115089513
716.8755330899739,641,93.78005115089513
717.5215946573526,650,93.32480818414322
718.1676562247312,650,93.32480818414321
718.8043545809884,641,93.78005115089513
719.4410529372456,641,93.78005115089513
720.0871145046242,650,92.88257215929849
720.7425392831242,660,92.42732919254658
721.3886008505028,650,92.42732919254658
722.0346624178815,650,92.86956521739128
722.68072398526,650,92.42732919254657
723.3361487637601,660,91.98509316770185
723.9915735422601,660,91.54285714285713
724.6469983207601,660,91.54285714285713
725.3024230992602,660,91.98509316770185
725.9484846666388,650,92.42732919254658
726.5945462340173,650,92.42732919254657
727.2499710125174,660,91.98509316770185
727.9053957910174,660,91.54285714285713
728.5608205695174,660,91.98509316770185
729.2068821368961,650,91.98509316770185
729.8623069153961,660,91.55531449566966
730.5270949050176,669,91.11307847082493
731.1825196835176,660,91.11307847082493
731.8379444620176,660,91.54285714285713
732.4933692405177,660,91.54285714285713
733.1487940190177,660,91.54285714285713
733.8042187975177,660,91.11307847082495
734.4690067871392,669,91.11307847082493
735.1244315656393,660,91.11307847082493
735.7798563441393,660,91.54285714285713
736.4352811226394,660,91.11307847082495
737.1000691122608,669,90.68329979879275
737.7648571018823,669,90.25352112676056
738.4296450915037,669,90.25352112676056
739.0944330811252,669,90.68329979879275
739.7498578596252,660,90.68329979879275
740.4146458492467,669,90.68329979879275
741.0794338388681,669,90.68329979879275
741.7348586173682,660,91.11307847082493
742.3902833958682,660,91.54285714285713
743.0457081743682,660,91.54285714285713
743.7011329528683,660,91.54285714285713
744.3565577313683,660,91.54285714285713
745.0119825098684,660,91.54285714285713
745.6674072883684,660,91.54285714285713
746.3228320668684,660,91.54285714285713
746.9782568453685,660,90.69523809523808
747.6524080461113,679,89.44122635355511
748.3359224579757,688,88.18721461187214
749.01943686984,688,87.78082191780821
749.7029512817044,688,87.78082191780821
750.3864656935687,688,87.38541281007033
751.0793433165544,698,86.60513883746759
751.7815841506616,707,86.20972972972973
752.4744617736474,698,86.20972972972973
753.1673393966331,698,87.3963963963964
753.8414905973759,679,88.19819819819818
754.5156417981188,679,88.59360730593606
755.1991562099831,688,88.18721461187214
755.8826706218475,688,88.18721461187214
756.5568218225905,679,88.18721461187214
757.2403362344547,688,88.59360730593608
757.9144874351977,679,88.59360730593608
758.5886386359405,679,88.59360730593606
759.2721530478049,688,88.18721461187214
759.9556674596691,688,87.78082191780821
760.6391818715334,688,87.78082191780821
761.3226962833978,688,87.78082191780821
762.0062106952621,688,88.18721461187214
762.680361896005,679,88.59360730593608
763.354513096748,679,89.0
764.0286642974908,679,88.59360730593606
764.7121787093552,688,88.18721461187214
765.3956931212194,688,88.18721461187214
766.0698443219624,679,88.59360730593608
766.7439955227052,679,89.41784037558685
767.4087835123267,669,89.8356807511737
768.0735715019482,669,89.8356807511737
768.747722702691,679,89.01144768152292
769.4312371145554,688,89.01144768152292
770.0960251041769,669,89.42928805710977
770.7608130937983,669,90.25352112676056
771.4256010834198,669,90.25352112676056
772.0903890730413,669,90.25352112676056
772.7551770626627,669,90.25352112676056
773.4199650522842,669,90.25352112676056
774.0847530419056,669,90.25352112676056
774.7495410315271,669,90.68329979879275
775.4049658100271,660,90.68329979879275
776.0697537996485,669,90.2654594232059
776.7439050003915,679,89.8356807511737
777.4086929900129,669,90.2654594232059
778.064117768513,660,91.11307847082493
778.719542547013,660,91.11307847082495
779.3843305366345,669,91.11307847082493
780.0397553151345,660,91.11307847082493
780.6951800936346,660,91.98509316770185
781.3412416610131,650,92.42732919254658
781.9873032283917,650,92.42732919254657
782.6427280068918,660,92.42732919254658
783.2887895742704,650,92.42732919254658
783.934851141649,650,92.86956521739128
784.5809127090276,650,92.86956521739128
785.2269742764062,650,92.86956521739128
785.8730358437848,650,92.42732919254657
786.5284606222849,660,92.88257215929849
787.1651589785421,641,92.88257215929849
787.8112205459206,650,93.32480818414322
788.4572821132992,650,92.86956521739128
789.1033436806779,650,92.42732919254657
789.7587684591779,660,92.42732919254658
790.4048300265565,650,92.88257215929849
791.0415283828137,641,92.88257215929849
791.6969531613137,660,92.88257215929849
792.3430147286923,650,91.98509316770185
792.9984395071923,660,92.42732919254658
793.6445010745709,650,92.88257215929849
794.2811994308281,641,92.88257215929849
794.9366242093282,660,92.44033613445377
795.5920489878282,660,91.98509316770185
796.2381105552068,650,91.98509316770185
796.8935353337068,660,92.88257215929849
797.530233689964,641,92.88257215929849
798.1762952573426,650,92.88257215929849
798.8317200358426,660,92.88257215929849
799.4684183920998,641,93.33781512605042
800.105116748357,641,94.70412642669008
800.7324518934928,632,94.70412642669008
801.36915024975,641,95.6559980844441
801.9871221837642,622,96.13903743315507
802.6050941177785,622,96.60786974219809
803.2324292629144,632,96.1248303934871
803.8597644080501,632,94.71771576898118
804.5058259754287,650,93.79364049318625
805.1518875428072,650,91.99755052051438
805.8166755324287,669,91.55531449566966
806.4721003109288,660,91.11307847082493
807.1275250894288,660,91.98509316770185
807.7735866568074,650,92.42732919254658
808.4196482241861,650,92.42732919254657
809.075073002686,660,91.55531449566966
809.7398609923075,669,91.11307847082493
810.3952857708075,660,90.68329979879275
811.0600737604291,669,91.55531449566965
811.7061353278076,650,91.55531449566966
812.3615601063077,660,92.42732919254658
813.0076216736862,650,92.42732919254658
813.6536832410649,650,92.42732919254657
814.3091080195649,660,91.98509316770185
814.964532798065,660,91.98509316770185
815.6105943654436,650,92.42732919254658
816.2566559328221,650,92.86956521739128
816.9027175002008,650,92.86956521739128
817.5487790675794,650,92.42732919254657
818.2042038460794,660,92.42732919254658
818.850265413458,650,92.88257215929849
819.4869637697152,641,93.78005115089513
820.1236621259724,641,94.70412642669008
820.7509972711081,632,94.70412642669008
821.3876956273652,641,94.70412642669008
822.0243939836224,641,94.23529411764706
822.6610923398796,641,94.70412642669008
823.2884274850154,632,94.70412642669008
823.9251258412726,641,95.1729587357331
824.5524609864083,632,95.1729587357331
825.1797961315441,632,95.1729587357331
825.8164944878013,641,94.70412642669008
826.4531928440584,641,93.78005115089513
827.0992544114371,650,93.32480818414322
827.7453159788156,650,93.32480818414321
828.3820143350728,641,93.78005115089513
829.0187126913299,641,94.23529411764706
829.6554110475871,641,93.78005115089513
830.3014726149657,650,93.32480818414322
830.9475341823444,650,92.86956521739128
831.593595749723,650,92.86956521739128
832.2396573171015,650,93.32480818414321
832.8763556733587,641,93.78005115089513
833.5130540296159,641,93.78005115089513
834.1591155969945,650,93.32480818414322
834.8051771643732,650,93.32480818414321
835.4418755206303,641,93.78005115089513
836.0785738768875,641,93.78005115089513
836.7246354442661,650,92.88257215929849
837.3800602227661,660,92.42732919254658
838.0261217901448,650,92.88257215929849
838.6628201464019,641,93.32480818414322
839.3088817137806,650,93.32480818414322
839.9549432811591,650,92.86956521739128
840.6010048485377,650,92.86956521739128
841.2470664159164,650,93.32480818414321
841.8837647721735,641,93.32480818414322
842.5298263395522,650,92.88257215929849
843.1852511180522,660,92.88257215929849
843.8219494743093,641,92.88257215929849
844.468011041688,650,92.88257215929849
845.123435820188,660,91.98509316770185
845.778860598688,660,91.54285714285713
846.4342853771881,660,91.98509316770185
847.0803469445667,650,92.42732919254658
847.7264085119452,650,92.86956521739128
848.3724700793239,650,92.86956521739128
849.0185316467025,650,92.42732919254657
849.6739564252025,660,92.42732919254658
850.3200179925811,650,91.98509316770185
850.9754427710811,660,92.42732919254658
851.6215043384598,650,92.42732919254658
852.2675659058384,650,92.86956521739128
852.9136274732169,650,92.86956521739128
853.5596890405956,650,92.42732919254657
854.2151138190956,660,92.42732919254658
854.8611753864742,650,92.88257215929849
855.4978737427314,641,93.32480818414322
856.14393531011,650,93.32480818414322
856.7899968774886,650,92.42732919254657
857.4454216559886,660,91.98509316770185
858.1008464344886,660,91.98509316770185
858.7469080018673,650,92.42732919254658
859.3929695692459,650,92.42732919254657
860.0483943477459,660,92.42732919254658
860.6944559151245,650,91.98509316770185
861.3498806936245,660,92.88257215929849
861.9865790498817,641,92.88257215929849
862.6326406172603,650,92.88257215929849
863.2880653957604,660,91.98509316770185
863.9434901742604,660,91.54285714285713
864.5989149527604,660,91.98509316770185
865.2449765201391,650,92.42732919254658
865.8910380875177,650,92.42732919254657
866.5464628660177,660,92.42732919254658
867.1925244333963,650,92.88257215929849
867.8292227896535,641,93.32480818414322
868.4752843570321,650,93.32480818414322
869.1213459244107,650,92.42732919254657
869.7767707029108,660,92.42732919254658
870.4228322702893,650,92.42732919254658
871.0688938376679,650,92.86956521739128
871.7149554050466,650,92.86956521739128
872.3610169724252,650,92.42732919254657
873.0164417509252,660,92.88257215929849
873.6531401071824,641,92.88257215929849
874.299201674561,650,93.32480818414322
874.9452632419395,650,92.42732919254657
875.6006880204396,660,91.98509316770185
876.2561127989396,660,91.54285714285713
876.9115375774397,660,91.54285714285713
877.5669623559397,660,91.54285714285713
878.2223871344397,660,91.54285714285713
878.8778119129398,660,91.11307847082495
879.5425999025613,669,91.11307847082493
880.1980246810613,660,91.55531449566965
880.8440862484399,650,91.98509316770185
881.4995110269399,660,91.98509316770185
882.15493580544,660,91.54285714285713
882.81036058394,660,91.54285714285713
883.46578536244,660,91.98509316770185
884.1118469298186,650,91.98509316770185
884.7672717083187,660,91.98509316770185
885.4226964868187,660,91.54285714285713
886.0781212653187,660,92.44033613445377
886.7148196215759,641,92.44033613445377
887.370244400076,660,92.44033613445377
888.025669178576,660,91.54285714285713
888.681093957076,660,91.98509316770185
889.3271555244546,650,91.98509316770185
889.9825803029547,660,91.98509316770185
890.6380050814547,660,91.54285714285713
891.2934298599547,660,91.54285714285713
891.9488546384548,660,91.98509316770185
892.5949162058333,650,92.42732919254658
893.240977773212,650,92.42732919254657
893.8964025517121,660,91.55531449566966
894.5611905413335,669,91.11307847082493
895.2166153198335,660,91.11307847082493
895.8720400983335,660,91.54285714285713
896.5274648768336,660,91.11307847082495
897.1922528664551,669,90.68329979879275
897.8570408560765,669,90.25352112676056
898.521828845698,669,90.68329979879275
899.177253624198,660,90.68329979879275
899.8420416138194,669,90.2654594232059
900.5161928145624,679,89.8356807511737
901.1809808041838,669,89.8356807511737
901.8457687938053,669,90.25352112676056
902.5105567834268,669,90.25352112676056
903.1753447730482,669,89.8356807511737
903.8494959737911,679,89.8356807511737
904.5142839634126,669,90.70769544805061
905.1603455307912,650,91.55531449566966
905.8157703092912,660,91.55531449566966
906.4805582989127,669,91.11307847082493
907.1359830774127,660,91.11307847082493
907.7914078559128,660,91.54285714285713
908.4468326344128,660,91.11307847082495
909.1116206240342,669,91.11307847082493
909.7670454025343,660,91.55531449566965
910.4131069699129,650,92.42732919254658
911.0591685372915,650,92.42732919254657
911.7145933157915,660,91.98509316770185
912.3700180942916,660,91.11307847082495
913.034806083913,669,91.11307847082493
913.690230862413,660,91.55531449566965
914.3362924297917,650,91.55531449566966
915.0010804194131,669,91.12553582363748
915.6658684090346,669,90.25352112676056
916.3306563986561,669,90.68329979879275
916.9860811771562,660,91.11307847082493
917.6415059556562,660,91.54285714285713
918.2969307341561,660,91.11307847082495
918.9617187237776,669,91.11307847082493
919.6171435022777,660,91.11307847082493
920.2725682807777,660,91.11307847082495
920.9373562703992,669,90.68329979879275
921.6021442600206,669,90.68329979879275
922.2575690385207,660,90.68329979879275
922.9223570281422,669,91.11307847082493
923.5777818066422,660,90.68329979879275
924.2425697962636,669,91.11307847082493
924.8979945747636,660,91.55531449566965
925.5440561421423,650,92.42732919254658
926.1901177095209,650,92.86956521739128
926.8361792768995,650,92.86956521739128
927.4822408442781,650,92.86956521739128
928.1283024116567,650,93.79364049318623
928.7556375567924,632,93.79364049318625
929.401699124171,650,93.79364049318625
930.0477606915497,650,92.86956521739128
930.6938222589283,650,92.86956521739128
931.3398838263068,650,92.86956521739128
931.9859453936855,650,92.86956521739128
932.6320069610641,1301,92.86956521739128
933.2780685284426,641,93.32480818414321
933.9147668846998,641,93.78005115089513
934.5514652409571,650,93.78005115089513
935.1975268083356,660,92.88257215929849
935.8529515868357,650,92.42732919254658
936.4990131542143,650,92.42732919254658
937.1450747215929,641,93.32480818414321
937.7817730778501,650,93.32480818414322
938.4278346452287,660,92.88257215929849
939.0832594237287,650,92.42732919254658
939.7293209911073,641,92.88257215929849
940.3660193473645,650,93.32480818414322
941.0120809147431,660,92.88257215929849
941.6675056932431,660,91.98509316770185
942.3229304717431,660,91.54285714285713
942.9783552502432,650,91.98509316770185
943.6244168176219,650,92.42732919254658
944.2704783850004,650,92.86956521739128
944.916539952379,669,91.99755052051438
945.5813279420005,650,91.99755052051438
946.2273895093791,650,91.99755052051438
946.8734510767578,660,92.42732919254657
947.5288758552578,660,91.98509316770185
948.1843006337577,650,91.98509316770185
948.8303622011364,660,91.98509316770185
949.4857869796364,650,92.42732919254658
950.131848547015,660,91.98509316770185
950.787273325515,660,91.98509316770185
951.4426981040151,660,91.54285714285713
952.0981228825151,660,91.54285714285713
952.7535476610152,660,91.54285714285713
953.4089724395152,660,91.54285714285713
954.0643972180152,660,91.54285714285713
954.7198219965153,660,91.54285714285713
955.3752467750153,650,91.98509316770185
956.0213083423939,650,92.42732919254658
956.6673699097726,650,92.86956521739128
957.3134314771511,660,92.42732919254657
957.9688562556512,650,92.42732919254658
958.6149178230297,632,93.35140446834151
959.2422529681655,650,93.79364049318625
959.8883145355442,641,94.24888345993816
960.5250128918013,650,93.32480818414322
961.1710744591799,641,93.78005115089513
961.807772815437,641,93.78005115089513
962.4444711716942,650,93.78005115089513
963.0905327390728,650,93.32480818414322
963.7365943064515,650,92.86956521739128
964.3826558738301,650,92.86956521739128
965.0287174412086,641,93.32480818414321
965.6654157974658,641,93.78005115089513
966.302114153723,660,93.33781512605042
966.9575389322231,660,92.44033613445377
967.6129637107231,660,91.54285714285713
968.2683884892232,669,91.11307847082495
968.9331764788446,660,91.11307847082493
969.5886012573446,669,90.68329979879275
970.2533892469661,679,90.2654594232059
970.927540447709,669,89.8356807511737
971.5923284373305,679,89.41784037558685
972.2664796380733,669,89.8356807511737
972.9312676276949,660,90.2654594232059
973.5866924061949,669,90.68329979879275
974.2514803958163,669,90.68329979879275
974.9162683854378,660,90.68329979879275
975.5716931639378,660,91.11307847082493
976.2271179424379,660,91.54285714285713
976.8825427209379,660,91.54285714285713
977.537967499438,669,91.11307847082495
978.2027554890594,679,90.2654594232059
978.8769066898022,669,89.8356807511737
979.5416946794237,669,89.8356807511737
980.2064826690452,669,90.25352112676056
980.8712706586666,679,89.8356807511737
981.5454218594095,669,89.8356807511737
982.210209849031,669,89.8356807511737
982.8749978386525,660,90.68329979879275
983.5304226171526,669,90.68329979879275
984.195210606774,660,91.11307847082493
984.850635385274,660,91.11307847082493
985.506060163774,660,91.54285714285713
986.1614849422741,650,91.98509316770185
986.8075465096526,650,92.42732919254658
987.4536080770313,660,92.42732919254657
988.1090328555314,660,91.98509316770185
988.7644576340314,641,92.44033613445377
989.4011559902885,660,92.44033613445377
990.0565807687885,650,92.88257215929849
990.7026423361672,660,91.98509316770185
991.3580671146673,650,92.42732919254658
992.0041286820458,650,92.42732919254658
992.6501902494244,650,92.86956521739128
993.2962518168031,641,93.32480818414321
993.9329501730602,650,93.32480818414322
994.5790117404388,650,93.32480818414322
995.2250733078174,650,92.86956521739128
995.871134875196,650,92.86956521739128
996.5171964425747,660,92.42732919254657
997.1726212210747,669,91.55531449566966
997.8374092106961,669,90.68329979879275
998.5021972003176,660,90.68329979879275
999.1576219788176,669,90.68329979879275
999.8224099684392,669,90.68329979879275
1000.4871979580606,679,89.8356807511737
1001.1613491588034,669,89.8356807511737
1001.8261371484249,660,90.2654594232059
1002.481561926925,669,90.68329979879275
1003.1463499165465,660,91.11307847082493
1003.8017746950464,669,90.68329979879275
1004.4665626846679,669,90.68329979879275
1005.1313506742894,650,91.12553582363748
1005.777412241668,660,91.55531449566966
1006.432837020168,669,91.55531449566966
1007.0976250097895,660,91.11307847082493
1007.7530497882896,650,91.55531449566965
1008.3991113556681,669,91.55531449566966
1009.0638993452895,669,91.12553582363748
1009.7286873349111,669,90.25352112676056
1010.3934753245326,660,90.68329979879275
1011.0489001030326,660,91.11307847082493
1011.7043248815326,669,91.11307847082495
1012.369112871154,679,90.2654594232059
1013.0432640718969,669,89.8356807511737
1013.7080520615184,660,90.2654594232059
1014.3634768400185,669,90.68329979879275
1015.02826482964,669,90.68329979879275
1015.6930528192614,679,89.8356807511737
1016.3672040200042,660,90.2654594232059
1017.0226287985043,669,90.2654594232059
1017.6874167881258,669,90.68329979879275
1018.3522047777473,679,89.8356807511737
1019.0263559784901,669,89.8356807511737
1019.6911439681116,660,90.2654594232059
1020.3465687466116,669,90.68329979879275
1021.0113567362331,669,90.68329979879275
1021.6761447258546,679,89.8356807511737
1022.3502959265975,679,89.41784037558685
1023.0244471273403,669,89.41784037558685
1023.6892351169618,669,89.8356807511737
1024.3540231065833,679,89.8356807511737
1025.0281743073263,679,89.41784037558685
1025.702325508069,669,89.41784037558685
1026.3671134976905,669,89.8356807511737
1027.031901487312,679,89.8356807511737
1027.7060526880548,669,89.8356807511737
1028.3708406776764,679,89.41784037558685
1029.0449918784193,660,90.2654594232059
1029.7004166569193,660,90.69523809523808
1030.3558414354193,669,91.11307847082495
1031.0206294250409,660,91.11307847082493
1031.6760542035408,650,91.55531449566965
1032.3221157709195,650,92.42732919254658
1032.9681773382981,650,92.86956521739128
1033.6142389056765,660,92.86956521739128
