2022-12-01 14:31:25.662688
2022-12-01 14:31:25.675046
2022-12-01 14:31:25.683368
2022-12-01 14:31:25.691228
2022-12-01 14:31:25.699626
2022-12-01 14:31:25.710823
2022-12-01 14:31:25.719906
2022-12-01 14:31:25.727950
2022-12-01 14:31:25.736310
2022-12-01 14:31:25.748612
2022-12-01 14:31:25.756236
2022-12-01 14:31:25.764992
2022-12-01 14:31:25.777086
2022-12-01 14:31:25.785583
2022-12-01 14:31:25.793333
2022-12-01 14:31:25.802145
2022-12-01 14:31:25.814323
2022-12-01 14:31:25.822313
2022-12-01 14:31:25.830586
2022-12-01 14:31:25.842618
2022-12-01 14:31:25.851066
2022-12-01 14:31:25.859041
2022-12-01 14:31:25.867320
2022-12-01 14:31:25.878988
2022-12-01 14:31:25.887966
2022-12-01 14:31:25.896528
2022-12-01 14:31:25.907558
2022-12-01 14:31:25.916710
2022-12-01 14:31:25.924511
2022-12-01 14:31:25.932490
2022-12-01 14:31:25.944587
2022-12-01 14:31:25.953536
2022-12-01 14:31:25.961525
2022-12-01 14:31:25.973082
2022-12-01 14:31:25.982093
2022-12-01 14:31:25.990181
2022-12-01 14:31:25.998946
2022-12-01 14:31:26.010513
2022-12-01 14:31:26.018910
2022-12-01 14:31:26.027039
2022-12-01 14:31:26.039355
2022-12-01 14:31:26.047759
2022-12-01 14:31:26.055747
2022-12-01 14:31:26.064108
2022-12-01 14:31:26.076269
2022-12-01 14:31:26.084649
2022-12-01 14:31:26.092818
2022-12-01 14:31:26.104933
2022-12-01 14:31:26.113020
2022-12-01 14:31:26.121519
2022-12-01 14:31:26.129476
2022-12-01 14:31:26.141838
2022-12-01 14:31:26.149749
2022-12-01 14:31:26.159307
2022-12-01 14:31:26.170515
2022-12-01 14:31:26.178963
2022-12-01 14:31:26.186972
2022-12-01 14:31:26.195019
2022-12-01 14:31:26.206712
2022-12-01 14:31:26.214697
2022-12-01 14:31:26.223666
2022-12-01 14:31:26.235687
2022-12-01 14:31:26.243612
2022-12-01 14:31:26.252595
2022-12-01 14:31:26.260567
2022-12-01 14:31:26.272535
2022-12-01 14:31:26.281116
2022-12-01 14:31:26.289289
2022-12-01 14:31:26.301486
2022-12-01 14:31:26.309517
2022-12-01 14:31:26.317898
2022-12-01 14:31:26.326168
2022-12-01 14:31:26.338537
2022-12-01 14:31:26.346770
2022-12-01 14:31:26.354752
2022-12-01 14:31:26.366958
2022-12-01 14:31:26.375306
2022-12-01 14:31:26.383220
2022-12-01 14:31:26.391686
2022-12-01 14:31:26.404378
2022-12-01 14:31:26.412158
2022-12-01 14:31:26.421130
2022-12-01 14:31:26.432653
2022-12-01 14:31:26.440776
2022-12-01 14:31:26.449361
2022-12-01 14:31:26.457310
2022-12-01 14:31:26.468579
2022-12-01 14:31:26.477553
2022-12-01 14:31:26.486163
2022-12-01 14:31:26.498087
2022-12-01 14:31:26.506319
2022-12-01 14:31:26.514723
2022-12-01 14:31:26.523733
2022-12-01 14:31:26.535021
2022-12-01 14:31:26.543263
2022-12-01 14:31:26.551481
2022-12-01 14:31:26.563614
2022-12-01 14:31:26.571923
2022-12-01 14:31:26.580343
2022-12-01 14:31:26.588426
2022-12-01 14:31:26.600411
2022-12-01 14:31:26.608532
2022-12-01 14:31:26.616717
2022-12-01 14:31:26.625274
2022-12-01 14:31:26.637503
2022-12-01 14:31:26.645518
2022-12-01 14:31:26.653515
2022-12-01 14:31:26.666534
2022-12-01 14:31:26.674443
2022-12-01 14:31:26.682702
2022-12-01 14:31:26.690706
2022-12-01 14:31:26.702993
2022-12-01 14:31:26.711065
2022-12-01 14:31:26.719349
2022-12-01 14:31:26.731441
2022-12-01 14:31:26.739925
2022-12-01 14:31:26.747989
2022-12-01 14:31:26.756212
2022-12-01 14:31:26.768491
2022-12-01 14:31:26.776946
2022-12-01 14:31:26.784992
2022-12-01 14:31:26.797209
2022-12-01 14:31:26.805503
2022-12-01 14:31:26.813521
2022-12-01 14:31:26.821986
2022-12-01 14:31:26.834226
2022-12-01 14:31:26.842179
2022-12-01 14:31:26.850215
2022-12-01 14:31:26.862866
2022-12-01 14:31:26.870854
2022-12-01 14:31:26.878833
2022-12-01 14:31:26.886819
2022-12-01 14:31:26.899325
2022-12-01 14:31:26.907701
2022-12-01 14:31:26.915674
2022-12-01 14:31:26.927648
2022-12-01 14:31:26.935621
2022-12-01 14:31:26.944534
2022-12-01 14:31:26.952853
2022-12-01 14:31:26.964848
2022-12-01 14:31:26.973487
2022-12-01 14:31:26.981193
2022-12-01 14:31:26.993822
2022-12-01 14:31:27.001812
2022-12-01 14:31:27.009803
2022-12-01 14:31:27.018330
2022-12-01 14:31:27.030838
2022-12-01 14:31:27.038148
2022-12-01 14:31:27.047011
2022-12-01 14:31:27.059317
2022-12-01 14:31:27.068089
2022-12-01 14:31:27.075877
2022-12-01 14:31:27.083813
2022-12-01 14:31:27.096331
2022-12-01 14:31:27.104320
2022-12-01 14:31:27.112617
2022-12-01 14:31:27.124900
2022-12-01 14:31:27.133115
2022-12-01 14:31:27.141385
2022-12-01 14:31:27.149771
2022-12-01 14:31:27.161617
2022-12-01 14:31:27.170354
2022-12-01 14:31:27.178144
2022-12-01 14:31:27.190790
2022-12-01 14:31:27.198636
2022-12-01 14:31:27.206603
2022-12-01 14:31:27.215170
2022-12-01 14:31:27.227368
2022-12-01 14:31:27.235431
2022-12-01 14:31:27.243740
2022-12-01 14:31:27.256009
2022-12-01 14:31:27.264272
2022-12-01 14:31:27.272261
2022-12-01 14:31:27.280584
2022-12-01 14:31:27.292843
2022-12-01 14:31:27.301029
2022-12-01 14:31:27.309290
2022-12-01 14:31:27.321515
2022-12-01 14:31:27.329544
2022-12-01 14:31:27.338015
2022-12-01 14:31:27.345988
2022-12-01 14:31:27.358355
2022-12-01 14:31:27.366523
2022-12-01 14:31:27.375630
2022-12-01 14:31:27.387063
2022-12-01 14:31:27.395167
2022-12-01 14:31:27.403407
2022-12-01 14:31:27.411362
2022-12-01 14:31:27.423979
2022-12-01 14:31:27.432038
2022-12-01 14:31:27.440218
2022-12-01 14:31:27.448456
2022-12-01 14:31:27.460745
2022-12-01 14:31:27.468975
2022-12-01 14:31:27.477319
2022-12-01 14:31:27.489450
2022-12-01 14:31:27.497701
2022-12-01 14:31:27.505894
2022-12-01 14:31:27.515031
2022-12-01 14:31:27.526290
2022-12-01 14:31:27.534277
2022-12-01 14:31:27.542840
2022-12-01 14:31:27.554980
2022-12-01 14:31:27.563008
2022-12-01 14:31:27.571530
2022-12-01 14:31:27.579671
2022-12-01 14:31:27.591934
2022-12-01 14:31:27.599985
2022-12-01 14:31:27.608047
2022-12-01 14:31:27.620091
2022-12-01 14:31:27.628633
2022-12-01 14:31:27.637652
2022-12-01 14:31:27.645228
2022-12-01 14:31:27.657415
2022-12-01 14:31:27.665576
2022-12-01 14:31:27.673758
2022-12-01 14:31:27.685974
2022-12-01 14:31:27.694178
2022-12-01 14:31:27.702170
2022-12-01 14:31:27.710368
2022-12-01 14:31:27.722909
2022-12-01 14:31:27.730968
2022-12-01 14:31:27.739448
2022-12-01 14:31:27.751495
2022-12-01 14:31:27.760395
2022-12-01 14:31:27.767740
2022-12-01 14:31:27.776700
2022-12-01 14:31:27.788024
2022-12-01 14:31:27.796735
2022-12-01 14:31:27.805126
2022-12-01 14:31:27.816091
2022-12-01 14:31:27.825092
2022-12-01 14:31:27.833047
2022-12-01 14:31:27.842008
2022-12-01 14:31:27.853955
2022-12-01 14:31:27.861930
2022-12-01 14:31:27.869913
2022-12-01 14:31:27.882497
2022-12-01 14:31:27.890854
2022-12-01 14:31:27.899830
2022-12-01 14:31:27.907812
2022-12-01 14:31:27.919456
2022-12-01 14:31:27.927292
2022-12-01 14:31:27.936269
2022-12-01 14:31:27.947510
2022-12-01 14:31:27.956490
2022-12-01 14:31:27.964464
2022-12-01 14:31:27.972443
2022-12-01 14:31:27.984412
2022-12-01 14:31:27.993387
2022-12-01 14:31:28.001365
2022-12-01 14:31:28.013502
2022-12-01 14:31:28.021488
2022-12-01 14:31:28.030459
2022-12-01 14:31:28.038438
2022-12-01 14:31:28.050403
2022-12-01 14:31:28.058384
2022-12-01 14:31:28.066729
2022-12-01 14:31:28.079086
2022-12-01 14:31:28.087306
2022-12-01 14:31:28.095528
2022-12-01 14:31:28.104291
2022-12-01 14:31:28.115343
2022-12-01 14:31:28.124326
2022-12-01 14:31:28.132298
2022-12-01 14:31:28.144612
2022-12-01 14:31:28.152589
2022-12-01 14:31:28.161265
2022-12-01 14:31:28.169576
2022-12-01 14:31:28.181068
2022-12-01 14:31:28.189045
2022-12-01 14:31:28.198256
2022-12-01 14:31:28.209868
2022-12-01 14:31:28.218370
2022-12-01 14:31:28.226350
2022-12-01 14:31:28.235331
2022-12-01 14:31:28.247075
2022-12-01 14:31:28.255775
2022-12-01 14:31:28.263544
2022-12-01 14:31:28.275608
2022-12-01 14:31:28.283752
2022-12-01 14:31:28.292237
2022-12-01 14:31:28.300541
2022-12-01 14:31:28.312611
2022-12-01 14:31:28.320888
2022-12-01 14:31:28.329601
2022-12-01 14:31:28.337592
2022-12-01 14:31:28.349427
2022-12-01 14:31:28.357802
2022-12-01 14:31:28.365789
2022-12-01 14:31:28.377802
2022-12-01 14:31:28.386417
2022-12-01 14:31:28.395060
2022-12-01 14:31:28.402646
2022-12-01 14:31:28.415171
2022-12-01 14:31:28.423336
2022-12-01 14:31:28.431388
2022-12-01 14:31:28.443872
2022-12-01 14:31:28.451941
2022-12-01 14:31:28.460114
2022-12-01 14:31:28.469247
2022-12-01 14:31:28.480655
2022-12-01 14:31:28.488485
2022-12-01 14:31:28.497458
2022-12-01 14:31:28.509341
2022-12-01 14:31:28.518188
2022-12-01 14:31:28.525825
2022-12-01 14:31:28.533822
2022-12-01 14:31:28.546320
2022-12-01 14:31:28.554309
2022-12-01 14:31:28.562535
2022-12-01 14:31:28.574856
2022-12-01 14:31:28.582785
2022-12-01 14:31:28.591447
2022-12-01 14:31:28.599430
2022-12-01 14:31:28.611410
2022-12-01 14:31:28.620051
2022-12-01 14:31:28.628142
2022-12-01 14:31:28.640573
2022-12-01 14:31:28.648605
2022-12-01 14:31:28.656656
2022-12-01 14:31:28.665165
2022-12-01 14:31:28.677388
2022-12-01 14:31:28.685384
2022-12-01 14:31:28.693779
2022-12-01 14:31:28.705918
2022-12-01 14:31:28.714117
2022-12-01 14:31:28.721953
2022-12-01 14:31:28.730526
2022-12-01 14:31:28.742824
2022-12-01 14:31:28.751177
2022-12-01 14:31:28.759337
2022-12-01 14:31:28.771505
2022-12-01 14:31:28.780124
2022-12-01 14:31:28.788332
2022-12-01 14:31:28.796225
2022-12-01 14:31:28.808319
2022-12-01 14:31:28.816492
2022-12-01 14:31:28.824893
2022-12-01 14:31:28.837168
2022-12-01 14:31:28.845143
2022-12-01 14:31:28.853354
2022-12-01 14:31:28.861342
2022-12-01 14:31:28.872934
2022-12-01 14:31:28.882144
2022-12-01 14:31:28.890219
2022-12-01 14:31:28.902668
2022-12-01 14:31:28.910748
2022-12-01 14:31:28.918906
2022-12-01 14:31:28.927304
2022-12-01 14:31:28.939377
2022-12-01 14:31:28.947689
2022-12-01 14:31:28.955899
2022-12-01 14:31:28.968039
2022-12-01 14:31:28.976284
2022-12-01 14:31:28.984274
2022-12-01 14:31:28.992852
2022-12-01 14:31:29.004987
2022-12-01 14:31:29.013092
2022-12-01 14:31:29.021522
2022-12-01 14:31:29.033624
2022-12-01 14:31:29.041906
2022-12-01 14:31:29.050265
2022-12-01 14:31:29.058066
2022-12-01 14:31:29.070545
2022-12-01 14:31:29.078587
2022-12-01 14:31:29.087479
2022-12-01 14:31:29.099015
2022-12-01 14:31:29.107372
2022-12-01 14:31:29.115539
2022-12-01 14:31:29.123852
2022-12-01 14:31:29.135954
2022-12-01 14:31:29.144232
2022-12-01 14:31:29.152219
2022-12-01 14:31:29.164219
2022-12-01 14:31:29.172915
2022-12-01 14:31:29.181022
2022-12-01 14:31:29.189465
2022-12-01 14:31:29.201466
2022-12-01 14:31:29.210550
2022-12-01 14:31:29.217732
2022-12-01 14:31:29.226281
2022-12-01 14:31:29.238539
2022-12-01 14:31:29.246624
2022-12-01 14:31:29.254825
2022-12-01 14:31:29.267087
2022-12-01 14:31:29.275255
2022-12-01 14:31:29.283709
2022-12-01 14:31:29.291696
2022-12-01 14:31:29.303625
2022-12-01 14:31:29.312240
2022-12-01 14:31:29.320363
2022-12-01 14:31:29.332635
2022-12-01 14:31:29.340869
2022-12-01 14:31:29.349158
2022-12-01 14:31:29.357312
2022-12-01 14:31:29.369449
2022-12-01 14:31:29.377434
2022-12-01 14:31:29.386403
2022-12-01 14:31:29.397590
2022-12-01 14:31:29.406364
2022-12-01 14:31:29.414965
2022-12-01 14:31:29.422900
2022-12-01 14:31:29.434938
2022-12-01 14:31:29.443257
2022-12-01 14:31:29.451348
2022-12-01 14:31:29.463584
2022-12-01 14:31:29.472062
2022-12-01 14:31:29.480175
2022-12-01 14:31:29.488354
2022-12-01 14:31:29.500342
2022-12-01 14:31:29.508313
2022-12-01 14:31:29.516924
2022-12-01 14:31:29.528861
2022-12-01 14:31:29.536844
2022-12-01 14:31:29.546113
2022-12-01 14:31:29.553796
2022-12-01 14:31:29.566134
2022-12-01 14:31:29.574228
2022-12-01 14:31:29.583682
2022-12-01 14:31:29.594865
2022-12-01 14:31:29.602852
2022-12-01 14:31:29.611068
2022-12-01 14:31:29.619044
2022-12-01 14:31:29.631547
2022-12-01 14:31:29.639531
2022-12-01 14:31:29.648500
2022-12-01 14:31:29.659470
2022-12-01 14:31:29.668482
2022-12-01 14:31:29.676592
2022-12-01 14:31:29.684894
2022-12-01 14:31:29.696978
2022-12-01 14:31:29.705599
2022-12-01 14:31:29.714027
2022-12-01 14:31:29.725676
2022-12-01 14:31:29.734298
2022-12-01 14:31:29.742206
2022-12-01 14:31:29.750533
2022-12-01 14:31:29.762811
2022-12-01 14:31:29.770844
2022-12-01 14:31:29.779199
2022-12-01 14:31:29.791533
2022-12-01 14:31:29.799418
2022-12-01 14:31:29.807778
2022-12-01 14:31:29.815332
2022-12-01 14:31:29.828438
2022-12-01 14:31:29.836444
2022-12-01 14:31:29.845636
2022-12-01 14:31:29.857025
2022-12-01 14:31:29.865500
2022-12-01 14:31:29.873314
2022-12-01 14:31:29.881474
2022-12-01 14:31:29.893871
2022-12-01 14:31:29.901910
2022-12-01 14:31:29.909905
2022-12-01 14:31:29.922111
2022-12-01 14:31:29.930460
2022-12-01 14:31:29.938549
2022-12-01 14:31:29.947033
2022-12-01 14:31:29.959324
2022-12-01 14:31:29.968120
2022-12-01 14:31:29.975784
2022-12-01 14:31:29.987981
2022-12-01 14:31:29.996300
2022-12-01 14:31:30.004477
2022-12-01 14:31:30.012505
2022-12-01 14:31:30.024879
2022-12-01 14:31:30.033303
2022-12-01 14:31:30.041399
2022-12-01 14:31:30.053496
2022-12-01 14:31:30.061940
2022-12-01 14:31:30.070078
2022-12-01 14:31:30.078223
2022-12-01 14:31:30.090319
2022-12-01 14:31:30.098683
2022-12-01 14:31:30.106834
2022-12-01 14:31:30.114805
2022-12-01 14:31:30.126930
2022-12-01 14:31:30.134917
2022-12-01 14:31:30.143895
2022-12-01 14:31:30.155861
2022-12-01 14:31:30.163842
2022-12-01 14:31:30.171968
2022-12-01 14:31:30.180796
2022-12-01 14:31:30.192763
2022-12-01 14:31:30.200742
2022-12-01 14:31:30.210028
2022-12-01 14:31:30.221472
2022-12-01 14:31:30.229539
2022-12-01 14:31:30.237883
2022-12-01 14:31:30.245936
2022-12-01 14:31:30.258682
2022-12-01 14:31:30.266565
2022-12-01 14:31:30.274576
2022-12-01 14:31:30.287009
2022-12-01 14:31:30.295209
2022-12-01 14:31:30.303432
2022-12-01 14:31:30.311644
2022-12-01 14:31:30.323848
2022-12-01 14:31:30.332251
2022-12-01 14:31:30.340238
2022-12-01 14:31:30.352363
2022-12-01 14:31:30.360750
2022-12-01 14:31:30.368937
2022-12-01 14:31:30.377830
2022-12-01 14:31:30.389436
2022-12-01 14:31:30.398134
2022-12-01 14:31:30.405994
2022-12-01 14:31:30.418279
2022-12-01 14:31:30.426280
2022-12-01 14:31:30.434497
2022-12-01 14:31:30.443403
2022-12-01 14:31:30.455146
2022-12-01 14:31:30.463141
2022-12-01 14:31:30.471407
2022-12-01 14:31:30.483677
2022-12-01 14:31:30.491910
2022-12-01 14:31:30.500006
2022-12-01 14:31:30.508655
2022-12-01 14:31:30.520182
2022-12-01 14:31:30.528149
2022-12-01 14:31:30.537238
2022-12-01 14:31:30.549199
2022-12-01 14:31:30.557331
2022-12-01 14:31:30.565546
2022-12-01 14:31:30.573846
2022-12-01 14:31:30.585916
2022-12-01 14:31:30.594214
2022-12-01 14:31:30.602201
2022-12-01 14:31:30.613696
2022-12-01 14:31:30.622976
2022-12-01 14:31:30.631238
2022-12-01 14:31:30.639455
2022-12-01 14:31:30.651525
2022-12-01 14:31:30.659307
2022-12-01 14:31:30.668179
2022-12-01 14:31:30.680218
2022-12-01 14:31:30.688474
2022-12-01 14:31:30.696572
2022-12-01 14:31:30.705684
2022-12-01 14:31:30.717037
2022-12-01 14:31:30.725450
2022-12-01 14:31:30.733482
2022-12-01 14:31:30.745570
2022-12-01 14:31:30.753751
2022-12-01 14:31:30.762549
2022-12-01 14:31:30.770348
2022-12-01 14:31:30.782032
2022-12-01 14:31:30.790981
2022-12-01 14:31:30.799063
2022-12-01 14:31:30.811374
2022-12-01 14:31:30.819483
2022-12-01 14:31:30.828396
2022-12-01 14:31:30.835821
2022-12-01 14:31:30.848095
2022-12-01 14:31:30.856883
2022-12-01 14:31:30.863880
2022-12-01 14:31:30.876904
2022-12-01 14:31:30.884878
2022-12-01 14:31:30.892859
2022-12-01 14:31:30.901208
2022-12-01 14:31:30.913678
2022-12-01 14:31:30.922377
2022-12-01 14:31:30.930111
2022-12-01 14:31:30.938097
2022-12-01 14:31:30.950676
2022-12-01 14:31:30.958412
2022-12-01 14:31:30.966984
2022-12-01 14:31:30.979030
2022-12-01 14:31:30.986943
2022-12-01 14:31:30.994927
2022-12-01 14:31:31.003898
2022-12-01 14:31:31.015868
2022-12-01 14:31:31.023915
2022-12-01 14:31:31.032887
2022-12-01 14:31:31.043862
2022-12-01 14:31:31.052831
2022-12-01 14:31:31.061387
2022-12-01 14:31:31.069129
2022-12-01 14:31:31.081098
2022-12-01 14:31:31.089123
2022-12-01 14:31:31.098291
2022-12-01 14:31:31.110020
2022-12-01 14:31:31.118059
2022-12-01 14:31:31.126974
2022-12-01 14:31:31.134961
2022-12-01 14:31:31.146963
2022-12-01 14:31:31.154906
2022-12-01 14:31:31.162938
2022-12-01 14:31:31.174849
2022-12-01 14:31:31.183867
2022-12-01 14:31:31.191804
2022-12-01 14:31:31.199824
2022-12-01 14:31:31.212744
2022-12-01 14:31:31.220385
2022-12-01 14:31:31.229353
2022-12-01 14:31:31.241334
2022-12-01 14:31:31.249307
2022-12-01 14:31:31.257402
2022-12-01 14:31:31.266258
2022-12-01 14:31:31.277284
2022-12-01 14:31:31.286208
2022-12-01 14:31:31.295294
2022-12-01 14:31:31.306521
2022-12-01 14:31:31.315126
2022-12-01 14:31:31.323602
2022-12-01 14:31:31.331794
2022-12-01 14:31:31.343548
2022-12-01 14:31:31.352237
2022-12-01 14:31:31.360555
2022-12-01 14:31:31.371833
2022-12-01 14:31:31.380451
2022-12-01 14:31:31.388646
2022-12-01 14:31:31.397406
2022-12-01 14:31:31.408375
2022-12-01 14:31:31.417352
2022-12-01 14:31:31.426172
2022-12-01 14:31:31.436966
2022-12-01 14:31:31.446134
2022-12-01 14:31:31.453923
2022-12-01 14:31:31.462898
2022-12-01 14:31:31.474838
2022-12-01 14:31:31.482389
2022-12-01 14:31:31.491476
2022-12-01 14:31:31.503456
2022-12-01 14:31:31.511788
2022-12-01 14:31:31.519272
2022-12-01 14:31:31.528489
2022-12-01 14:31:31.539585
2022-12-01 14:31:31.548431
2022-12-01 14:31:31.556411
2022-12-01 14:31:31.568495
2022-12-01 14:31:31.577355
2022-12-01 14:31:31.585339
2022-12-01 14:31:31.593311
2022-12-01 14:31:31.605391
2022-12-01 14:31:31.614256
2022-12-01 14:31:31.622104
2022-12-01 14:31:31.634214
2022-12-01 14:31:31.643056
2022-12-01 14:31:31.651006
2022-12-01 14:31:31.659231
2022-12-01 14:31:31.670953
2022-12-01 14:31:31.679816
2022-12-01 14:31:31.687908
2022-12-01 14:31:31.700160
2022-12-01 14:31:31.707872
2022-12-01 14:31:31.716305
2022-12-01 14:31:31.725150
2022-12-01 14:31:31.737117
2022-12-01 14:31:31.745172
2022-12-01 14:31:31.753388
2022-12-01 14:31:31.765615
2022-12-01 14:31:31.773903
2022-12-01 14:31:31.781711
2022-12-01 14:31:31.790392
2022-12-01 14:31:31.802147
2022-12-01 14:31:31.810601
2022-12-01 14:31:31.818442
2022-12-01 14:31:31.827258
2022-12-01 14:31:31.839312
2022-12-01 14:31:31.847512
2022-12-01 14:31:31.855508
2022-12-01 14:31:31.868085
2022-12-01 14:31:31.876402
2022-12-01 14:31:31.884875
2022-12-01 14:31:31.892622
2022-12-01 14:31:31.904497
2022-12-01 14:31:31.913594
2022-12-01 14:31:31.921591
2022-12-01 14:31:31.933510
2022-12-01 14:31:31.941957
2022-12-01 14:31:31.949922
2022-12-01 14:31:31.958230
2022-12-01 14:31:31.970420
2022-12-01 14:31:31.978842
2022-12-01 14:31:31.986766
2022-12-01 14:31:31.999045
2022-12-01 14:31:32.007380
2022-12-01 14:31:32.015575
2022-12-01 14:31:32.024296
2022-12-01 14:31:32.036101
2022-12-01 14:31:32.044294
2022-12-01 14:31:32.052174
2022-12-01 14:31:32.064934
2022-12-01 14:31:32.072883
2022-12-01 14:31:32.081230
2022-12-01 14:31:32.089799
2022-12-01 14:31:32.101195
2022-12-01 14:31:32.109778
2022-12-01 14:31:32.118139
2022-12-01 14:31:32.130146
2022-12-01 14:31:32.138656
2022-12-01 14:31:32.146617
2022-12-01 14:31:32.154923
2022-12-01 14:31:32.167070
2022-12-01 14:31:32.175271
2022-12-01 14:31:32.183259
2022-12-01 14:31:32.195866
2022-12-01 14:31:32.204031
2022-12-01 14:31:32.212228
2022-12-01 14:31:32.220177
2022-12-01 14:31:32.232243
2022-12-01 14:31:32.240429
2022-12-01 14:31:32.249200
2022-12-01 14:31:32.261242
2022-12-01 14:31:32.269144
2022-12-01 14:31:32.277132
2022-12-01 14:31:32.286101
2022-12-01 14:31:32.298070
2022-12-01 14:31:32.306045
2022-12-01 14:31:32.314547
2022-12-01 14:31:32.326974
2022-12-01 14:31:32.334749
2022-12-01 14:31:32.343249
2022-12-01 14:31:32.351470
2022-12-01 14:31:32.363694
2022-12-01 14:31:32.371892
2022-12-01 14:31:32.381021
2022-12-01 14:31:32.392052
2022-12-01 14:31:32.399976
2022-12-01 14:31:32.408739
2022-12-01 14:31:32.416937
2022-12-01 14:31:32.429314
2022-12-01 14:31:32.437401
2022-12-01 14:31:32.445726
2022-12-01 14:31:32.457432
2022-12-01 14:31:32.466246
2022-12-01 14:31:32.473990
2022-12-01 14:31:32.482381
2022-12-01 14:31:32.494901
2022-12-01 14:31:32.503154
2022-12-01 14:31:32.511148
2022-12-01 14:31:32.523340
2022-12-01 14:31:32.531576
2022-12-01 14:31:32.539848
2022-12-01 14:31:32.548126
2022-12-01 14:31:32.560075
2022-12-01 14:31:32.568056
2022-12-01 14:31:32.577093
2022-12-01 14:31:32.589158
2022-12-01 14:31:32.597218
2022-12-01 14:31:32.605356
2022-12-01 14:31:32.613332
2022-12-01 14:31:32.626046
2022-12-01 14:31:32.634146
2022-12-01 14:31:32.642706
2022-12-01 14:31:32.654571
2022-12-01 14:31:32.662558
2022-12-01 14:31:32.671036
2022-12-01 14:31:32.679288
2022-12-01 14:31:32.691333
2022-12-01 14:31:32.699598
2022-12-01 14:31:32.707721
2022-12-01 14:31:32.716135
2022-12-01 14:31:32.728416
2022-12-01 14:31:32.736333
2022-12-01 14:31:32.744605
2022-12-01 14:31:32.757033
2022-12-01 14:31:32.765289
2022-12-01 14:31:32.773321
2022-12-01 14:31:32.781336
2022-12-01 14:31:32.793964
2022-12-01 14:31:32.802231
2022-12-01 14:31:32.810164
2022-12-01 14:31:32.822552
2022-12-01 14:31:32.830780
2022-12-01 14:31:32.839003
2022-12-01 14:31:32.846967
2022-12-01 14:31:32.859237
2022-12-01 14:31:32.867543
2022-12-01 14:31:32.875613
2022-12-01 14:31:32.888202
2022-12-01 14:31:32.896245
2022-12-01 14:31:32.904328
2022-12-01 14:31:32.912311
2022-12-01 14:31:32.924681
2022-12-01 14:31:32.933144
2022-12-01 14:31:32.941236
2022-12-01 14:31:32.952774
2022-12-01 14:31:32.961907
2022-12-01 14:31:32.969885
2022-12-01 14:31:32.978115
2022-12-01 14:31:32.990531
2022-12-01 14:31:32.998396
2022-12-01 14:31:33.006768
2022-12-01 14:31:33.018863
2022-12-01 14:31:33.027135
2022-12-01 14:31:33.035172
2022-12-01 14:31:33.044006
2022-12-01 14:31:33.055971
2022-12-01 14:31:33.063959
2022-12-01 14:31:33.072507
2022-12-01 14:31:33.084629
2022-12-01 14:31:33.092390
2022-12-01 14:31:33.101004
2022-12-01 14:31:33.109175
2022-12-01 14:31:33.121237
2022-12-01 14:31:33.129581
2022-12-01 14:31:33.137864
2022-12-01 14:31:33.150298
2022-12-01 14:31:33.158438
2022-12-01 14:31:33.166402
2022-12-01 14:31:33.174751
2022-12-01 14:31:33.187105
2022-12-01 14:31:33.195361
2022-12-01 14:31:33.203339
2022-12-01 14:31:33.215627
2022-12-01 14:31:33.223461
2022-12-01 14:31:33.231684
2022-12-01 14:31:33.240320
2022-12-01 14:31:33.252369
2022-12-01 14:31:33.260551
2022-12-01 14:31:33.269110
2022-12-01 14:31:33.281187
2022-12-01 14:31:33.289285
2022-12-01 14:31:33.297553
2022-12-01 14:31:33.305357
2022-12-01 14:31:33.318355
2022-12-01 14:31:33.326370
2022-12-01 14:31:33.334880
2022-12-01 14:31:33.346561
2022-12-01 14:31:33.354551
2022-12-01 14:31:33.362998
2022-12-01 14:31:33.371353
2022-12-01 14:31:33.383542
2022-12-01 14:31:33.391953
2022-12-01 14:31:33.399902
2022-12-01 14:31:33.411720
2022-12-01 14:31:33.420487
2022-12-01 14:31:33.428825
2022-12-01 14:31:33.436807
2022-12-01 14:31:33.449177
2022-12-01 14:31:33.457372
2022-12-01 14:31:33.465488
2022-12-01 14:31:33.477897
2022-12-01 14:31:33.485930
2022-12-01 14:31:33.493967
2022-12-01 14:31:33.502156
2022-12-01 14:31:33.514838
2022-12-01 14:31:33.522182
2022-12-01 14:31:33.530902
2022-12-01 14:31:33.543391
2022-12-01 14:31:33.551584
2022-12-01 14:31:33.559862
2022-12-01 14:31:33.568879
2022-12-01 14:31:33.580109
2022-12-01 14:31:33.588097
2022-12-01 14:31:33.596418
2022-12-01 14:31:33.604876
2022-12-01 14:31:33.616988
2022-12-01 14:31:33.625185
2022-12-01 14:31:33.633492
2022-12-01 14:31:33.645607
2022-12-01 14:31:33.654096
2022-12-01 14:31:33.662187
2022-12-01 14:31:33.670458
2022-12-01 14:31:33.682560
2022-12-01 14:31:33.691008
2022-12-01 14:31:33.698683
2022-12-01 14:31:33.710650
2022-12-01 14:31:33.719435
2022-12-01 14:31:33.727675
2022-12-01 14:31:33.736012
2022-12-01 14:31:33.748124
2022-12-01 14:31:33.756291
2022-12-01 14:31:33.764513
2022-12-01 14:31:33.776989
2022-12-01 14:31:33.785313
2022-12-01 14:31:33.793223
2022-12-01 14:31:33.801667
2022-12-01 14:31:33.813525
2022-12-01 14:31:33.821925
2022-12-01 14:31:33.829800
2022-12-01 14:31:33.842565
2022-12-01 14:31:33.850560
2022-12-01 14:31:33.858722
2022-12-01 14:31:33.866709
2022-12-01 14:31:33.878338
2022-12-01 14:31:33.887491
2022-12-01 14:31:33.895532
2022-12-01 14:31:33.907508
2022-12-01 14:31:33.915478
2022-12-01 14:31:33.923788
2022-12-01 14:31:33.932506
2022-12-01 14:31:33.944930
2022-12-01 14:31:33.952886
2022-12-01 14:31:33.961092
2022-12-01 14:31:33.973368
2022-12-01 14:31:33.981735
2022-12-01 14:31:33.989569
2022-12-01 14:31:33.997905
2022-12-01 14:31:34.010320
2022-12-01 14:31:34.018869
2022-12-01 14:31:34.026832
2022-12-01 14:31:34.038963
2022-12-01 14:31:34.047597
2022-12-01 14:31:34.055512
2022-12-01 14:31:34.063519
2022-12-01 14:31:34.075882
2022-12-01 14:31:34.083982
2022-12-01 14:31:34.092252
2022-12-01 14:31:34.104528
2022-12-01 14:31:34.112707
2022-12-01 14:31:34.120876
2022-12-01 14:31:34.129259
2022-12-01 14:31:34.141163
2022-12-01 14:31:34.149598
2022-12-01 14:31:34.157873
2022-12-01 14:31:34.170180
2022-12-01 14:31:34.178422
2022-12-01 14:31:34.186307
2022-12-01 14:31:34.194649
2022-12-01 14:31:34.207009
2022-12-01 14:31:34.215034
2022-12-01 14:31:34.223311
2022-12-01 14:31:34.234979
2022-12-01 14:31:34.243919
2022-12-01 14:31:34.252103
2022-12-01 14:31:34.260191
2022-12-01 14:31:34.272529
2022-12-01 14:31:34.279983
2022-12-01 14:31:34.289023
2022-12-01 14:31:34.301137
2022-12-01 14:31:34.309355
2022-12-01 14:31:34.317366
2022-12-01 14:31:34.325499
2022-12-01 14:31:34.337466
2022-12-01 14:31:34.345506
2022-12-01 14:31:34.354540
2022-12-01 14:31:34.366449
2022-12-01 14:31:34.374523
2022-12-01 14:31:34.382423
2022-12-01 14:31:34.391398
2022-12-01 14:31:34.403433
2022-12-01 14:31:34.411755
2022-12-01 14:31:34.419890
2022-12-01 14:31:34.428107
2022-12-01 14:31:34.440527
2022-12-01 14:31:34.448523
2022-12-01 14:31:34.456795
2022-12-01 14:31:34.469004
2022-12-01 14:31:34.477426
2022-12-01 14:31:34.485556
2022-12-01 14:31:34.494743
2022-12-01 14:31:34.506048
2022-12-01 14:31:34.514079
2022-12-01 14:31:34.522262
2022-12-01 14:31:34.534591
2022-12-01 14:31:34.542729
2022-12-01 14:31:34.551157
2022-12-01 14:31:34.559375
2022-12-01 14:31:34.571597
2022-12-01 14:31:34.579567
2022-12-01 14:31:34.587546
2022-12-01 14:31:34.600170
2022-12-01 14:31:34.608356
2022-12-01 14:31:34.617159
2022-12-01 14:31:34.632116
2022-12-01 14:31:34.641090
2022-12-01 14:31:34.645166
2022-12-01 14:31:34.653146
2022-12-01 14:31:34.665473
2022-12-01 14:31:34.673847
2022-12-01 14:31:34.682127
2022-12-01 14:31:34.690265
2022-12-01 14:31:34.702582
2022-12-01 14:31:34.711777
2022-12-01 14:31:34.718833
2022-12-01 14:31:34.731174
2022-12-01 14:31:34.739398
2022-12-01 14:31:34.747387
2022-12-01 14:31:34.756018
2022-12-01 14:31:34.767471
2022-12-01 14:31:34.776441
2022-12-01 14:31:34.784439
2022-12-01 14:31:34.796453
2022-12-01 14:31:34.804551
2022-12-01 14:31:34.813453
2022-12-01 14:31:34.821328
2022-12-01 14:31:34.833526
2022-12-01 14:31:34.841511
2022-12-01 14:31:34.849593
2022-12-01 14:31:34.861455
2022-12-01 14:31:34.870615
2022-12-01 14:31:34.878875
2022-12-01 14:31:34.886586
2022-12-01 14:31:34.899059
2022-12-01 14:31:34.907028
2022-12-01 14:31:34.915694
2022-12-01 14:31:34.927368
2022-12-01 14:31:34.935351
2022-12-01 14:31:34.944319
2022-12-01 14:31:34.952414
2022-12-01 14:31:34.964395
2022-12-01 14:31:34.972309
2022-12-01 14:31:34.981280
2022-12-01 14:31:34.993250
2022-12-01 14:31:35.001227
2022-12-01 14:31:35.009405
2022-12-01 14:31:35.018185
2022-12-01 14:31:35.029716
2022-12-01 14:31:35.037848
2022-12-01 14:31:35.046669
2022-12-01 14:31:35.058701
2022-12-01 14:31:35.066672
2022-12-01 14:31:35.075043
2022-12-01 14:31:35.084022
2022-12-01 14:31:35.095845
2022-12-01 14:31:35.103698
2022-12-01 14:31:35.111665
2022-12-01 14:31:35.123634
2022-12-01 14:31:35.132695
2022-12-01 14:31:35.140498
2022-12-01 14:31:35.149473
2022-12-01 14:31:35.160456
2022-12-01 14:31:35.168842
2022-12-01 14:31:35.177693
2022-12-01 14:31:35.189662
2022-12-01 14:31:35.197640
2022-12-01 14:31:35.206615
2022-12-01 14:31:35.214686
2022-12-01 14:31:35.225647
2022-12-01 14:31:35.234994
2022-12-01 14:31:35.243383
2022-12-01 14:31:35.255531
2022-12-01 14:31:35.263572
2022-12-01 14:31:35.271998
2022-12-01 14:31:35.280295
2022-12-01 14:31:35.292467
2022-12-01 14:31:35.300603
2022-12-01 14:31:35.309480
2022-12-01 14:31:35.317097
2022-12-01 14:31:35.329349
2022-12-01 14:31:35.337354
2022-12-01 14:31:35.345451
2022-12-01 14:31:35.357079
2022-12-01 14:31:35.366085
2022-12-01 14:31:35.374388
2022-12-01 14:31:35.382397
2022-12-01 14:31:35.394800
2022-12-01 14:31:35.403143
2022-12-01 14:31:35.411129
2022-12-01 14:31:35.423094
2022-12-01 14:31:35.431770
2022-12-01 14:31:35.439804
2022-12-01 14:31:35.447947
2022-12-01 14:31:35.460342
2022-12-01 14:31:35.468530
2022-12-01 14:31:35.476843
2022-12-01 14:31:35.489035
2022-12-01 14:31:35.497179
2022-12-01 14:31:35.505519
2022-12-01 14:31:35.513471
2022-12-01 14:31:35.526011
2022-12-01 14:31:35.534196
2022-12-01 14:31:35.542471
2022-12-01 14:31:35.554531
2022-12-01 14:31:35.562714
2022-12-01 14:31:35.570842
2022-12-01 14:31:35.579058
2022-12-01 14:31:35.591286
2022-12-01 14:31:35.599526
2022-12-01 14:31:35.607497
2022-12-01 14:31:35.619100
2022-12-01 14:31:35.628175
2022-12-01 14:31:35.636576
2022-12-01 14:31:35.644260
2022-12-01 14:31:35.656852
2022-12-01 14:31:35.664880
2022-12-01 14:31:35.672824
2022-12-01 14:31:35.684777
2022-12-01 14:31:35.693753
2022-12-01 14:31:35.701773
2022-12-01 14:31:35.710073
2022-12-01 14:31:35.722057
2022-12-01 14:31:35.730368
2022-12-01 14:31:35.738868
2022-12-01 14:31:35.750940
2022-12-01 14:31:35.759245
2022-12-01 14:31:35.767557
2022-12-01 14:31:35.776074
2022-12-01 14:31:35.788032
2022-12-01 14:31:35.796219
2022-12-01 14:31:35.804335
2022-12-01 14:31:35.816850
2022-12-01 14:31:35.824848
2022-12-01 14:31:35.833175
2022-12-01 14:31:35.841242
2022-12-01 14:31:35.853386
2022-12-01 14:31:35.861879
2022-12-01 14:31:35.870049
2022-12-01 14:31:35.882337
2022-12-01 14:31:35.890478
2022-12-01 14:31:35.898381
2022-12-01 14:31:35.907177
2022-12-01 14:31:35.918645
2022-12-01 14:31:35.927429
2022-12-01 14:31:35.935479
2022-12-01 14:31:35.947677
2022-12-01 14:31:35.956005
2022-12-01 14:31:35.963879
2022-12-01 14:31:35.972342
2022-12-01 14:31:35.984671
2022-12-01 14:31:35.992983
2022-12-01 14:31:36.001393
2022-12-01 14:31:36.013198
2022-12-01 14:31:36.021430
2022-12-01 14:31:36.029658
2022-12-01 14:31:36.038725
2022-12-01 14:31:36.050116
2022-12-01 14:31:36.058144
2022-12-01 14:31:36.066530
2022-12-01 14:31:36.078946
2022-12-01 14:31:36.086947
2022-12-01 14:31:36.095287
2022-12-01 14:31:36.103275
2022-12-01 14:31:36.115334
2022-12-01 14:31:36.123887
2022-12-01 14:31:36.132340
2022-12-01 14:31:36.140420
2022-12-01 14:31:36.152648
2022-12-01 14:31:36.161633
2022-12-01 14:31:36.169386
2022-12-01 14:31:36.181113
2022-12-01 14:31:36.189096
2022-12-01 14:31:36.197551
2022-12-01 14:31:36.205794
2022-12-01 14:31:36.218316
2022-12-01 14:31:36.226334
2022-12-01 14:31:36.234484
2022-12-01 14:31:36.246739
2022-12-01 14:31:36.254897
2022-12-01 14:31:36.263156
2022-12-01 14:31:36.271160
2022-12-01 14:31:36.283576
2022-12-01 14:31:36.291908
2022-12-01 14:31:36.299881
2022-12-01 14:31:36.312482
2022-12-01 14:31:36.320251
2022-12-01 14:31:36.329174
2022-12-01 14:31:36.336620
2022-12-01 14:31:36.349151
2022-12-01 14:31:36.357343
2022-12-01 14:31:36.365467
2022-12-01 14:31:36.377922
2022-12-01 14:31:36.386085
2022-12-01 14:31:36.394588
2022-12-01 14:31:36.402429
2022-12-01 14:31:36.414421
2022-12-01 14:31:36.422399
2022-12-01 14:31:36.430771
2022-12-01 14:31:36.442794
2022-12-01 14:31:36.450739
2022-12-01 14:31:36.459705
2022-12-01 14:31:36.467683
2022-12-01 14:31:36.479660
2022-12-01 14:31:36.488629
2022-12-01 14:31:36.496606
2022-12-01 14:31:36.508581
2022-12-01 14:31:36.516554
2022-12-01 14:31:36.525434
2022-12-01 14:31:36.533735
2022-12-01 14:31:36.545701
2022-12-01 14:31:36.553859
2022-12-01 14:31:36.562044
2022-12-01 14:31:36.574853
2022-12-01 14:31:36.582637
2022-12-01 14:31:36.590709
2022-12-01 14:31:36.598695
2022-12-01 14:31:36.611287
2022-12-01 14:31:36.619743
2022-12-01 14:31:36.627676
2022-12-01 14:31:36.639902
2022-12-01 14:31:36.648148
2022-12-01 14:31:36.656264
2022-12-01 14:31:36.664411
2022-12-01 14:31:36.676908
2022-12-01 14:31:36.684905
2022-12-01 14:31:36.693409
2022-12-01 14:31:36.705527
2022-12-01 14:31:36.713583
2022-12-01 14:31:36.722047
2022-12-01 14:31:36.730148
2022-12-01 14:31:36.742452
2022-12-01 14:31:36.750879
2022-12-01 14:31:36.758932
2022-12-01 14:31:36.771031
2022-12-01 14:31:36.779231
2022-12-01 14:31:36.787363
2022-12-01 14:31:36.795558
2022-12-01 14:31:36.807766
2022-12-01 14:31:36.816072
2022-12-01 14:31:36.824253
2022-12-01 14:31:36.836610
2022-12-01 14:31:36.844938
2022-12-01 14:31:36.852660
2022-12-01 14:31:36.861148
2022-12-01 14:31:36.873342
2022-12-01 14:31:36.881589
2022-12-01 14:31:36.889642
2022-12-01 14:31:36.901682
2022-12-01 14:31:36.910484
2022-12-01 14:31:36.918370
2022-12-01 14:31:36.926390
2022-12-01 14:31:36.939058
2022-12-01 14:31:36.947631
2022-12-01 14:31:36.955281
2022-12-01 14:31:36.967532
2022-12-01 14:31:36.975990
2022-12-01 14:31:36.984025
2022-12-01 14:31:36.992299
2022-12-01 14:31:37.004332
2022-12-01 14:31:37.012265
2022-12-01 14:31:37.021019
2022-12-01 14:31:37.029165
2022-12-01 14:31:37.041156
2022-12-01 14:31:37.049342
2022-12-01 14:31:37.057635
2022-12-01 14:31:37.070034
2022-12-01 14:31:37.078196
2022-12-01 14:31:37.086272
2022-12-01 14:31:37.094600
2022-12-01 14:31:37.106875
2022-12-01 14:31:37.115033
2022-12-01 14:31:37.123361
2022-12-01 14:31:37.135127
2022-12-01 14:31:37.143918
2022-12-01 14:31:37.151904
2022-12-01 14:31:37.160150
2022-12-01 14:31:37.172554
2022-12-01 14:31:37.180209
2022-12-01 14:31:37.188642
2022-12-01 14:31:37.201116
2022-12-01 14:31:37.209808
2022-12-01 14:31:37.217570
2022-12-01 14:31:37.226283
2022-12-01 14:31:37.238061
2022-12-01 14:31:37.246274
2022-12-01 14:31:37.254364
2022-12-01 14:31:37.266606
2022-12-01 14:31:37.275074
2022-12-01 14:31:37.283205
2022-12-01 14:31:37.291614
2022-12-01 14:31:37.303235
2022-12-01 14:31:37.311751
2022-12-01 14:31:37.319755
2022-12-01 14:31:37.332019
2022-12-01 14:31:37.340350
2022-12-01 14:31:37.349113
2022-12-01 14:31:37.356917
2022-12-01 14:31:37.369155
2022-12-01 14:31:37.377323
2022-12-01 14:31:37.385311
2022-12-01 14:31:37.397282
2022-12-01 14:31:37.405319
2022-12-01 14:31:37.414243
2022-12-01 14:31:37.422212
2022-12-01 14:31:37.434417
2022-12-01 14:31:37.442334
2022-12-01 14:31:37.450943
2022-12-01 14:31:37.462964
2022-12-01 14:31:37.471212
2022-12-01 14:31:37.479867
2022-12-01 14:31:37.487849
2022-12-01 14:31:37.499811
2022-12-01 14:31:37.507782
2022-12-01 14:31:37.516766
2022-12-01 14:31:37.528738
2022-12-01 14:31:37.536371
2022-12-01 14:31:37.545357
2022-12-01 14:31:37.553547
2022-12-01 14:31:37.565449
2022-12-01 14:31:37.573332
2022-12-01 14:31:37.582246
2022-12-01 14:31:37.594222
2022-12-01 14:31:37.602198
2022-12-01 14:31:37.610179
2022-12-01 14:31:37.619149
2022-12-01 14:31:37.631116
2022-12-01 14:31:37.639270
2022-12-01 14:31:37.647248
2022-12-01 14:31:37.659538
2022-12-01 14:31:37.668194
2022-12-01 14:31:37.676172
2022-12-01 14:31:37.684158
2022-12-01 14:31:37.696118
2022-12-01 14:31:37.704147
2022-12-01 14:31:37.713074
2022-12-01 14:31:37.725041
2022-12-01 14:31:37.733019
2022-12-01 14:31:37.741995
2022-12-01 14:31:37.749974
2022-12-01 14:31:37.761941
2022-12-01 14:31:37.769920
2022-12-01 14:31:37.778895
2022-12-01 14:31:37.790865
2022-12-01 14:31:37.798892
2022-12-01 14:31:37.806821
2022-12-01 14:31:37.815808
2022-12-01 14:31:37.826826
2022-12-01 14:31:37.836087
2022-12-01 14:31:37.844067
2022-12-01 14:31:37.856073
2022-12-01 14:31:37.864007
2022-12-01 14:31:37.872983
2022-12-01 14:31:37.881277
2022-12-01 14:31:37.892979
2022-12-01 14:31:37.900976
2022-12-01 14:31:37.908995
2022-12-01 14:31:37.917963
2022-12-01 14:31:37.930356
2022-12-01 14:31:37.938624
2022-12-01 14:31:37.946839
2022-12-01 14:31:37.959027
2022-12-01 14:31:37.967380
2022-12-01 14:31:37.974978
2022-12-01 14:31:37.983234
2022-12-01 14:31:37.995767
2022-12-01 14:31:38.004118
2022-12-01 14:31:38.012327
2022-12-01 14:31:38.024406
2022-12-01 14:31:38.033451
2022-12-01 14:31:38.040942
2022-12-01 14:31:38.049024
2022-12-01 14:31:38.061327
2022-12-01 14:31:38.069481
2022-12-01 14:31:38.077821
2022-12-01 14:31:38.090018
2022-12-01 14:31:38.098017
2022-12-01 14:31:38.106311
2022-12-01 14:31:38.114303
2022-12-01 14:31:38.126882
2022-12-01 14:31:38.134525
2022-12-01 14:31:38.142937
2022-12-01 14:31:38.155332
2022-12-01 14:31:38.163677
2022-12-01 14:31:38.171889
2022-12-01 14:31:38.180208
2022-12-01 14:31:38.192470
2022-12-01 14:31:38.201191
2022-12-01 14:31:38.209121
2022-12-01 14:31:38.221023
2022-12-01 14:31:38.229276
2022-12-01 14:31:38.237805
2022-12-01 14:31:38.245789
2022-12-01 14:31:38.257751
2022-12-01 14:31:38.266068
2022-12-01 14:31:38.273918
2022-12-01 14:31:38.286410
2022-12-01 14:31:38.295053
2022-12-01 14:31:38.302908
2022-12-01 14:31:38.311574
2022-12-01 14:31:38.322688
2022-12-01 14:31:38.331670
2022-12-01 14:31:38.339725
2022-12-01 14:31:38.352025
2022-12-01 14:31:38.360006
2022-12-01 14:31:38.368250
2022-12-01 14:31:38.377120
2022-12-01 14:31:38.388090
2022-12-01 14:31:38.397066
2022-12-01 14:31:38.405674
2022-12-01 14:31:38.416902
2022-12-01 14:31:38.425909
2022-12-01 14:31:38.433754
2022-12-01 14:31:38.442729
2022-12-01 14:31:38.453700
2022-12-01 14:31:38.462023
2022-12-01 14:31:38.470960
2022-12-01 14:31:38.482864
2022-12-01 14:31:38.491127
2022-12-01 14:31:38.499102
2022-12-01 14:31:38.508198
2022-12-01 14:31:38.519834
2022-12-01 14:31:38.528255
2022-12-01 14:31:38.536746
2022-12-01 14:31:38.548196
2022-12-01 14:31:38.556704
2022-12-01 14:31:38.564693
2022-12-01 14:31:38.573662
2022-12-01 14:31:38.584636
2022-12-01 14:31:38.593612
2022-12-01 14:31:38.601823
2022-12-01 14:31:38.613552
2022-12-01 14:31:38.622530
2022-12-01 14:31:38.630506
2022-12-01 14:31:38.638488
2022-12-01 14:31:38.650458
2022-12-01 14:31:38.659432
2022-12-01 14:31:38.667408
2022-12-01 14:31:38.679756
2022-12-01 14:31:38.687640
2022-12-01 14:31:38.696218
2022-12-01 14:31:38.704293
2022-12-01 14:31:38.715693
2022-12-01 14:31:38.724839
2022-12-01 14:31:38.732855
2022-12-01 14:31:38.741424
2022-12-01 14:31:38.752903
2022-12-01 14:31:38.761582
2022-12-01 14:31:38.770118
2022-12-01 14:31:38.782025
2022-12-01 14:31:38.790168
2022-12-01 14:31:38.798355
2022-12-01 14:31:38.807126
2022-12-01 14:31:38.819091
2022-12-01 14:31:38.827071
2022-12-01 14:31:38.835054
2022-12-01 14:31:38.846956
2022-12-01 14:31:38.855871
2022-12-01 14:31:38.863906
2022-12-01 14:31:38.871828
2022-12-01 14:31:38.884790
2022-12-01 14:31:38.892767
2022-12-01 14:31:38.900752
2022-12-01 14:31:38.912719
2022-12-01 14:31:38.921275
2022-12-01 14:31:38.930522
2022-12-01 14:31:38.937836
2022-12-01 14:31:38.950123
2022-12-01 14:31:38.958331
2022-12-01 14:31:38.966456
2022-12-01 14:31:38.978458
2022-12-01 14:31:38.986992
2022-12-01 14:31:38.995574
2022-12-01 14:31:39.003812
2022-12-01 14:31:39.015573
2022-12-01 14:31:39.023990
2022-12-01 14:31:39.031873
2022-12-01 14:31:39.044354
2022-12-01 14:31:39.053210
2022-12-01 14:31:39.060891
2022-12-01 14:31:39.069151
2022-12-01 14:31:39.081196
2022-12-01 14:31:39.089385
2022-12-01 14:31:39.097652
2022-12-01 14:31:39.109932
2022-12-01 14:31:39.118128
2022-12-01 14:31:39.126414
2022-12-01 14:31:39.134815
2022-12-01 14:31:39.146791
2022-12-01 14:31:39.154977
2022-12-01 14:31:39.163242
2022-12-01 14:31:39.175408
2022-12-01 14:31:39.183489
2022-12-01 14:31:39.191938
2022-12-01 14:31:39.200096
2022-12-01 14:31:39.212279
2022-12-01 14:31:39.220335
2022-12-01 14:31:39.228656
2022-12-01 14:31:39.240306
2022-12-01 14:31:39.248753
2022-12-01 14:31:39.257292
2022-12-01 14:31:39.265201
2022-12-01 14:31:39.278010
2022-12-01 14:31:39.285944
2022-12-01 14:31:39.294182
2022-12-01 14:31:39.306536
2022-12-01 14:31:39.314648
2022-12-01 14:31:39.323007
2022-12-01 14:31:39.330907
2022-12-01 14:31:39.343559
2022-12-01 14:31:39.351574
2022-12-01 14:31:39.360540
2022-12-01 14:31:39.372083
2022-12-01 14:31:39.380324
2022-12-01 14:31:39.388357
2022-12-01 14:31:39.396486
2022-12-01 14:31:39.408744
2022-12-01 14:31:39.417241
2022-12-01 14:31:39.425231
2022-12-01 14:31:39.437250
2022-12-01 14:31:39.445800
2022-12-01 14:31:39.454254
2022-12-01 14:31:39.462290
2022-12-01 14:31:39.474231
2022-12-01 14:31:39.482699
2022-12-01 14:31:39.490753
2022-12-01 14:31:39.503062
2022-12-01 14:31:39.511290
2022-12-01 14:31:39.519282
2022-12-01 14:31:39.527848
2022-12-01 14:31:39.539887
2022-12-01 14:31:39.547982
2022-12-01 14:31:39.556387
2022-12-01 14:31:39.568801
2022-12-01 14:31:39.576861
2022-12-01 14:31:39.585072
2022-12-01 14:31:39.593037
2022-12-01 14:31:39.605483
2022-12-01 14:31:39.613729
2022-12-01 14:31:39.622843
2022-12-01 14:31:39.630172
2022-12-01 14:31:39.642414
2022-12-01 14:31:39.650647
2022-12-01 14:31:39.658831
2022-12-01 14:31:39.670402
2022-12-01 14:31:39.679237
2022-12-01 14:31:39.686973
2022-12-01 14:31:39.695600
2022-12-01 14:31:39.707903
2022-12-01 14:31:39.715933
2022-12-01 14:31:39.724309
2022-12-01 14:31:39.736514
2022-12-01 14:31:39.744756
2022-12-01 14:31:39.753078
2022-12-01 14:31:39.762444
2022-12-01 14:31:39.773407
2022-12-01 14:31:39.782163
2022-12-01 14:31:39.789930
2022-12-01 14:31:39.802139
2022-12-01 14:31:39.810201
2022-12-01 14:31:39.818532
2022-12-01 14:31:39.826516
2022-12-01 14:31:39.839038
2022-12-01 14:31:39.847317
2022-12-01 14:31:39.855207
2022-12-01 14:31:39.867803
2022-12-01 14:31:39.875838
2022-12-01 14:31:39.884003
2022-12-01 14:31:39.892245
2022-12-01 14:31:39.903645
2022-12-01 14:31:39.912815
2022-12-01 14:31:39.920752
2022-12-01 14:31:39.933120
2022-12-01 14:31:39.941338
2022-12-01 14:31:39.949318
2022-12-01 14:31:39.957893
2022-12-01 14:31:39.970319
2022-12-01 14:31:39.978508
2022-12-01 14:31:39.986455
2022-12-01 14:31:39.998466
2022-12-01 14:31:40.007066
2022-12-01 14:31:40.015290
2022-12-01 14:31:40.023332
2022-12-01 14:31:40.035648
2022-12-01 14:31:40.043754
2022-12-01 14:31:40.052154
2022-12-01 14:31:40.064453
2022-12-01 14:31:40.072352
2022-12-01 14:31:40.080653
2022-12-01 14:31:40.088829
2022-12-01 14:31:40.101333
2022-12-01 14:31:40.109008
2022-12-01 14:31:40.117652
2022-12-01 14:31:40.129818
2022-12-01 14:31:40.137600
2022-12-01 14:31:40.146179
2022-12-01 14:31:40.154616
2022-12-01 14:31:40.166659
2022-12-01 14:31:40.175032
2022-12-01 14:31:40.182965
2022-12-01 14:31:40.195273
2022-12-01 14:31:40.203827
2022-12-01 14:31:40.211701
2022-12-01 14:31:40.219948
2022-12-01 14:31:40.232294
2022-12-01 14:31:40.240380
2022-12-01 14:31:40.248623
2022-12-01 14:31:40.260506
2022-12-01 14:31:40.269136
2022-12-01 14:31:40.277258
2022-12-01 14:31:40.286549
2022-12-01 14:31:40.297517
2022-12-01 14:31:40.305497
2022-12-01 14:31:40.314135
2022-12-01 14:31:40.326553
2022-12-01 14:31:40.334507
2022-12-01 14:31:40.342811
2022-12-01 14:31:40.350976
2022-12-01 14:31:40.363185
2022-12-01 14:31:40.371182
2022-12-01 14:31:40.379526
2022-12-01 14:31:40.392135
2022-12-01 14:31:40.400110
2022-12-01 14:31:40.409203
2022-12-01 14:31:40.416764
2022-12-01 14:31:40.428826
2022-12-01 14:31:40.437525
2022-12-01 14:31:40.444880
2022-12-01 14:31:40.457398
2022-12-01 14:31:40.465698
2022-12-01 14:31:40.474174
2022-12-01 14:31:40.482056
2022-12-01 14:31:40.494368
2022-12-01 14:31:40.502429
2022-12-01 14:31:40.510748
2022-12-01 14:31:40.518847
2022-12-01 14:31:40.532009
2022-12-01 14:31:40.539413
2022-12-01 14:31:40.547618
2022-12-01 14:31:40.560082
2022-12-01 14:31:40.568067
2022-12-01 14:31:40.576366
2022-12-01 14:31:40.584484
2022-12-01 14:31:40.596803
2022-12-01 14:31:40.604913
2022-12-01 14:31:40.612868
2022-12-01 14:31:40.625163
2022-12-01 14:31:40.633610
2022-12-01 14:31:40.641542
2022-12-01 14:31:40.649914
2022-12-01 14:31:40.661891
2022-12-01 14:31:40.670868
2022-12-01 14:31:40.678848
2022-12-01 14:31:40.690814
2022-12-01 14:31:40.698798
2022-12-01 14:31:40.707769
2022-12-01 14:31:40.715749
2022-12-01 14:31:40.727720
2022-12-01 14:31:40.735750
2022-12-01 14:31:40.743969
2022-12-01 14:31:40.755946
2022-12-01 14:31:40.764251
2022-12-01 14:31:40.772798
2022-12-01 14:31:40.780913
2022-12-01 14:31:40.793348
2022-12-01 14:31:40.801411
2022-12-01 14:31:40.809771
2022-12-01 14:31:40.822121
2022-12-01 14:31:40.830274
2022-12-01 14:31:40.838217
2022-12-01 14:31:40.846881
2022-12-01 14:31:40.858223
2022-12-01 14:31:40.867220
2022-12-01 14:31:40.875527
2022-12-01 14:31:40.887554
2022-12-01 14:31:40.895798
2022-12-01 14:31:40.904567
2022-12-01 14:31:40.912564
2022-12-01 14:31:40.924338
2022-12-01 14:31:40.932562
2022-12-01 14:31:40.941080
2022-12-01 14:31:40.952198
2022-12-01 14:31:40.961322
2022-12-01 14:31:40.969368
2022-12-01 14:31:40.977827
2022-12-01 14:31:40.990029
2022-12-01 14:31:40.998035
2022-12-01 14:31:41.006450
2022-12-01 14:31:41.018746
2022-12-01 14:31:41.026943
2022-12-01 14:31:41.035120
2022-12-01 14:31:41.044160
2022-12-01 14:31:41.055472
2022-12-01 14:31:41.063459
2022-12-01 14:31:41.071813
2022-12-01 14:31:41.084303
2022-12-01 14:31:41.092319
2022-12-01 14:31:41.100541
2022-12-01 14:31:41.108696
2022-12-01 14:31:41.121896
2022-12-01 14:31:41.129369
2022-12-01 14:31:41.138184
2022-12-01 14:31:41.149554
2022-12-01 14:31:41.157706
2022-12-01 14:31:41.166028
2022-12-01 14:31:41.174270
2022-12-01 14:31:41.185559
2022-12-01 14:31:41.194955
2022-12-01 14:31:41.202956
2022-12-01 14:31:41.214320
2022-12-01 14:31:41.223513
2022-12-01 14:31:41.231518
2022-12-01 14:31:41.239971
2022-12-01 14:31:41.252045
2022-12-01 14:31:41.260373
2022-12-01 14:31:41.268980
2022-12-01 14:31:41.280888
2022-12-01 14:31:41.288901
2022-12-01 14:31:41.297114
2022-12-01 14:31:41.305325
2022-12-01 14:31:41.317779
2022-12-01 14:31:41.326020
2022-12-01 14:31:41.333999
2022-12-01 14:31:41.346347
2022-12-01 14:31:41.354692
2022-12-01 14:31:41.362713
2022-12-01 14:31:41.371128
2022-12-01 14:31:41.383129
2022-12-01 14:31:41.391365
2022-12-01 14:31:41.399452
2022-12-01 14:31:41.407789
2022-12-01 14:31:41.419850
2022-12-01 14:31:41.428423
2022-12-01 14:31:41.436464
2022-12-01 14:31:41.448647
2022-12-01 14:31:41.456592
2022-12-01 14:31:41.464652
2022-12-01 14:31:41.474077
2022-12-01 14:31:41.485564
2022-12-01 14:31:41.493618
2022-12-01 14:31:41.501976
2022-12-01 14:31:41.513978
2022-12-01 14:31:41.522165
2022-12-01 14:31:41.529938
2022-12-01 14:31:41.539068
2022-12-01 14:31:41.550878
2022-12-01 14:31:41.558909
2022-12-01 14:31:41.566845
2022-12-01 14:31:41.579766
2022-12-01 14:31:41.587958
2022-12-01 14:31:41.596245
2022-12-01 14:31:41.604234
2022-12-01 14:31:41.615727
2022-12-01 14:31:41.624875
2022-12-01 14:31:41.632876
2022-12-01 14:31:41.645524
2022-12-01 14:31:41.653462
2022-12-01 14:31:41.662721
2022-12-01 14:31:41.669903
2022-12-01 14:31:41.682003
2022-12-01 14:31:41.690368
2022-12-01 14:31:41.698356
2022-12-01 14:31:41.710620
2022-12-01 14:31:41.718303
2022-12-01 14:31:41.727592
2022-12-01 14:31:41.735845
2022-12-01 14:31:41.747406
2022-12-01 14:31:41.755206
2022-12-01 14:31:41.764552
2022-12-01 14:31:41.776152
2022-12-01 14:31:41.784136
2022-12-01 14:31:41.793103
2022-12-01 14:31:41.801083
2022-12-01 14:31:41.813049
2022-12-01 14:31:41.821113
2022-12-01 14:31:41.829238
2022-12-01 14:31:41.841206
2022-12-01 14:31:41.850275
2022-12-01 14:31:41.858414
2022-12-01 14:31:41.867115
2022-12-01 14:31:41.878251
2022-12-01 14:31:41.886831
2022-12-01 14:31:41.895685
2022-12-01 14:31:41.906674
2022-12-01 14:31:41.915752
2022-12-01 14:31:41.923610
2022-12-01 14:31:41.932589
2022-12-01 14:31:41.943600
2022-12-01 14:31:41.952571
2022-12-01 14:31:41.960549
2022-12-01 14:31:41.972808
2022-12-01 14:31:41.980796
2022-12-01 14:31:41.989766
2022-12-01 14:31:41.997230
2022-12-01 14:31:42.008990
2022-12-01 14:31:42.018201
2022-12-01 14:31:42.025926
2022-12-01 14:31:42.038035
2022-12-01 14:31:42.046080
2022-12-01 14:31:42.055196
2022-12-01 14:31:42.063034
2022-12-01 14:31:42.075116
2022-12-01 14:31:42.083723
2022-12-01 14:31:42.092019
2022-12-01 14:31:42.104047
2022-12-01 14:31:42.112033
2022-12-01 14:31:42.120138
2022-12-01 14:31:42.128980
2022-12-01 14:31:42.139954
2022-12-01 14:31:42.148740
2022-12-01 14:31:42.157675
2022-12-01 14:31:42.168647
2022-12-01 14:31:42.177622
2022-12-01 14:31:42.185400
2022-12-01 14:31:42.194588
2022-12-01 14:31:42.205539
2022-12-01 14:31:42.214496
2022-12-01 14:31:42.222524
2022-12-01 14:31:42.230509
2022-12-01 14:31:42.243074
2022-12-01 14:31:42.251009
2022-12-01 14:31:42.259979
2022-12-01 14:31:42.271947
2022-12-01 14:31:42.279983
2022-12-01 14:31:42.287978
2022-12-01 14:31:42.295964
2022-12-01 14:31:42.308932
2022-12-01 14:31:42.317021
2022-12-01 14:31:42.325337
2022-12-01 14:31:42.337682
2022-12-01 14:31:42.346035
2022-12-01 14:31:42.353582
2022-12-01 14:31:42.361806
2022-12-01 14:31:42.374642
2022-12-01 14:31:42.382605
2022-12-01 14:31:42.390632
2022-12-01 14:31:42.403110
2022-12-01 14:31:42.411410
2022-12-01 14:31:42.419683
2022-12-01 14:31:42.427586
2022-12-01 14:31:42.439831
2022-12-01 14:31:42.448172
2022-12-01 14:31:42.456160
2022-12-01 14:31:42.468582
2022-12-01 14:31:42.476962
2022-12-01 14:31:42.484365
2022-12-01 14:31:42.493409
2022-12-01 14:31:42.505440
2022-12-01 14:31:42.513665
2022-12-01 14:31:42.522070
2022-12-01 14:31:42.534113
2022-12-01 14:31:42.542116
2022-12-01 14:31:42.550836
2022-12-01 14:31:42.559767
2022-12-01 14:31:42.571383
2022-12-01 14:31:42.579381
2022-12-01 14:31:42.587405
2022-12-01 14:31:42.599758
2022-12-01 14:31:42.607765
2022-12-01 14:31:42.616278
2022-12-01 14:31:42.624239
2022-12-01 14:31:42.636682
2022-12-01 14:31:42.644877
2022-12-01 14:31:42.652869
2022-12-01 14:31:42.665265
2022-12-01 14:31:42.673456
2022-12-01 14:31:42.681825
2022-12-01 14:31:42.689813
2022-12-01 14:31:42.701782
2022-12-01 14:31:42.710478
2022-12-01 14:31:42.718466
2022-12-01 14:31:42.730814
2022-12-01 14:31:42.738770
2022-12-01 14:31:42.746809
2022-12-01 14:31:42.755551
2022-12-01 14:31:42.767596
2022-12-01 14:31:42.776411
2022-12-01 14:31:42.783934
2022-12-01 14:31:42.795901
2022-12-01 14:31:42.803889
2022-12-01 14:31:42.812857
2022-12-01 14:31:42.820847
2022-12-01 14:31:42.832868
2022-12-01 14:31:42.840785
2022-12-01 14:31:42.849758
2022-12-01 14:31:42.861725
2022-12-01 14:31:42.869706
2022-12-01 14:31:42.878213
2022-12-01 14:31:42.886379
2022-12-01 14:31:42.898593
2022-12-01 14:31:42.907020
2022-12-01 14:31:42.915008
2022-12-01 14:31:42.926781
2022-12-01 14:31:42.935750
2022-12-01 14:31:42.944095
2022-12-01 14:31:42.951979
2022-12-01 14:31:42.963497
2022-12-01 14:31:42.972463
2022-12-01 14:31:42.980447
2022-12-01 14:31:42.992791
2022-12-01 14:31:43.001063
2022-12-01 14:31:43.009276
2022-12-01 14:31:43.017473
2022-12-01 14:31:43.029913
2022-12-01 14:31:43.038131
2022-12-01 14:31:43.046246
2022-12-01 14:31:43.058022
2022-12-01 14:31:43.066688
2022-12-01 14:31:43.074812
2022-12-01 14:31:43.083068
2022-12-01 14:31:43.095533
2022-12-01 14:31:43.103505
2022-12-01 14:31:43.111761
2022-12-01 14:31:43.119946
2022-12-01 14:31:43.131531
2022-12-01 14:31:43.140483
2022-12-01 14:31:43.148610
2022-12-01 14:31:43.161255
2022-12-01 14:31:43.169119
2022-12-01 14:31:43.177361
2022-12-01 14:31:43.185336
2022-12-01 14:31:43.197547
2022-12-01 14:31:43.205557
2022-12-01 14:31:43.214165
2022-12-01 14:31:43.226369
2022-12-01 14:31:43.234534
2022-12-01 14:31:43.242793
2022-12-01 14:31:43.251104
2022-12-01 14:31:43.263403
2022-12-01 14:31:43.271592
2022-12-01 14:31:43.279649
2022-12-01 14:31:43.292015
2022-12-01 14:31:43.300419
2022-12-01 14:31:43.308335
2022-12-01 14:31:43.316358
2022-12-01 14:31:43.328949
2022-12-01 14:31:43.337152
2022-12-01 14:31:43.344700
2022-12-01 14:31:43.357520
2022-12-01 14:31:43.365762
2022-12-01 14:31:43.374916
2022-12-01 14:31:43.382057
2022-12-01 14:31:43.394191
2022-12-01 14:31:43.402486
2022-12-01 14:31:43.410676
2022-12-01 14:31:43.422470
2022-12-01 14:31:43.431361
2022-12-01 14:31:43.439318
2022-12-01 14:31:43.447577
2022-12-01 14:31:43.460075
2022-12-01 14:31:43.468104
2022-12-01 14:31:43.476350
2022-12-01 14:31:43.488486
2022-12-01 14:31:43.497478
2022-12-01 14:31:43.505075
2022-12-01 14:31:43.512965
2022-12-01 14:31:43.525552
2022-12-01 14:31:43.533537
2022-12-01 14:31:43.541784
2022-12-01 14:31:43.554123
2022-12-01 14:31:43.562271
2022-12-01 14:31:43.570806
2022-12-01 14:31:43.578323
2022-12-01 14:31:43.590917
2022-12-01 14:31:43.599164
2022-12-01 14:31:43.607316
2022-12-01 14:31:43.619238
2022-12-01 14:31:43.627448
2022-12-01 14:31:43.636917
2022-12-01 14:31:43.644722
2022-12-01 14:31:43.656470
2022-12-01 14:31:43.664673
2022-12-01 14:31:43.672469
2022-12-01 14:31:43.684225
2022-12-01 14:31:43.693307
2022-12-01 14:31:43.701194
2022-12-01 14:31:43.709905
2022-12-01 14:31:43.721990
2022-12-01 14:31:43.730600
2022-12-01 14:31:43.738626
2022-12-01 14:31:43.749869
2022-12-01 14:31:43.758868
2022-12-01 14:31:43.766971
2022-12-01 14:31:43.776365
2022-12-01 14:31:43.787573
2022-12-01 14:31:43.795678
2022-12-01 14:31:43.804054
2022-12-01 14:31:43.816030
2022-12-01 14:31:43.824183
2022-12-01 14:31:43.831990
2022-12-01 14:31:43.840968
2022-12-01 14:31:43.853015
2022-12-01 14:31:43.861052
2022-12-01 14:31:43.869971
2022-12-01 14:31:43.880939
2022-12-01 14:31:43.889914
2022-12-01 14:31:43.898396
2022-12-01 14:31:43.906636
2022-12-01 14:31:43.917864
2022-12-01 14:31:43.926843
2022-12-01 14:31:43.934818
2022-12-01 14:31:43.947090
2022-12-01 14:31:43.955076
2022-12-01 14:31:43.964047
2022-12-01 14:31:43.972024
2022-12-01 14:31:43.983462
2022-12-01 14:31:43.992638
2022-12-01 14:31:44.000313
2022-12-01 14:31:44.008290
2022-12-01 14:31:44.020341
2022-12-01 14:31:44.029321
2022-12-01 14:31:44.037358
2022-12-01 14:31:44.049399
2022-12-01 14:31:44.057379
2022-12-01 14:31:44.065419
2022-12-01 14:31:44.074345
2022-12-01 14:31:44.086362
2022-12-01 14:31:44.094279
2022-12-01 14:31:44.103257
2022-12-01 14:31:44.114288
2022-12-01 14:31:44.123198
2022-12-01 14:31:44.131180
2022-12-01 14:31:44.139210
2022-12-01 14:31:44.152127
2022-12-01 14:31:44.160506
2022-12-01 14:31:44.168507
2022-12-01 14:31:44.180545
2022-12-01 14:31:44.188880
2022-12-01 14:31:44.197163
2022-12-01 14:31:44.205968
2022-12-01 14:31:44.217539
2022-12-01 14:31:44.225863
2022-12-01 14:31:44.233874
2022-12-01 14:31:44.245880
2022-12-01 14:31:44.254544
2022-12-01 14:31:44.262718
2022-12-01 14:31:44.271037
2022-12-01 14:31:44.283370
2022-12-01 14:31:44.291247
2022-12-01 14:31:44.299682
2022-12-01 14:31:44.312014
2022-12-01 14:31:44.320104
2022-12-01 14:31:44.328226
2022-12-01 14:31:44.336279
2022-12-01 14:31:44.348822
2022-12-01 14:31:44.356854
2022-12-01 14:31:44.366236
2022-12-01 14:31:44.377521
2022-12-01 14:31:44.385574
2022-12-01 14:31:44.393791
2022-12-01 14:31:44.401872
2022-12-01 14:31:44.414076
2022-12-01 14:31:44.422219
2022-12-01 14:31:44.431053
2022-12-01 14:31:44.442664
2022-12-01 14:31:44.451015
2022-12-01 14:31:44.458877
2022-12-01 14:31:44.467342
2022-12-01 14:31:44.479328
2022-12-01 14:31:44.487300
2022-12-01 14:31:44.496283
2022-12-01 14:31:44.508286
2022-12-01 14:31:44.516691
2022-12-01 14:31:44.524923
2022-12-01 14:31:44.532900
2022-12-01 14:31:44.545358
2022-12-01 14:31:44.553420
2022-12-01 14:31:44.561609
2022-12-01 14:31:44.573975
2022-12-01 14:31:44.582211
2022-12-01 14:31:44.590479
2022-12-01 14:31:44.599722
2022-12-01 14:31:44.610976
2022-12-01 14:31:44.619043
2022-12-01 14:31:44.627178
2022-12-01 14:31:44.639555
2022-12-01 14:31:44.647824
2022-12-01 14:31:44.655777
2022-12-01 14:31:44.663783
2022-12-01 14:31:44.676421
2022-12-01 14:31:44.684567
2022-12-01 14:31:44.693053
2022-12-01 14:31:44.705070
2022-12-01 14:31:44.713031
2022-12-01 14:31:44.721073
2022-12-01 14:31:44.729992
2022-12-01 14:31:44.741862
2022-12-01 14:31:44.750077
2022-12-01 14:31:44.758162
2022-12-01 14:31:44.770667
2022-12-01 14:31:44.778782
2022-12-01 14:31:44.787536
2022-12-01 14:31:44.795378
2022-12-01 14:31:44.807468
2022-12-01 14:31:44.815689
2022-12-01 14:31:44.823967
2022-12-01 14:31:44.836217
2022-12-01 14:31:44.844488
2022-12-01 14:31:44.852726
2022-12-01 14:31:44.860854
2022-12-01 14:31:44.872938
2022-12-01 14:31:44.881279
2022-12-01 14:31:44.889255
2022-12-01 14:31:44.897235
2022-12-01 14:31:44.909978
2022-12-01 14:31:44.918180
2022-12-01 14:31:44.926158
2022-12-01 14:31:44.938171
2022-12-01 14:31:44.946104
2022-12-01 14:31:44.956078
2022-12-01 14:31:44.963137
2022-12-01 14:31:44.975027
2022-12-01 14:31:44.984002
2022-12-01 14:31:44.992095
2022-12-01 14:31:45.003907
2022-12-01 14:31:45.012213
2022-12-01 14:31:45.020315
2022-12-01 14:31:45.028520
2022-12-01 14:31:45.040815
2022-12-01 14:31:45.049282
2022-12-01 14:31:45.057796
2022-12-01 14:31:45.069688
2022-12-01 14:31:45.078544
2022-12-01 14:31:45.086003
2022-12-01 14:31:45.094581
2022-12-01 14:31:45.106527
2022-12-01 14:31:45.114644
2022-12-01 14:31:45.122788
2022-12-01 14:31:45.135136
2022-12-01 14:31:45.143328
2022-12-01 14:31:45.151465
2022-12-01 14:31:45.159510
2022-12-01 14:31:45.171735
2022-12-01 14:31:45.180153
2022-12-01 14:31:45.188079
2022-12-01 14:31:45.201122
2022-12-01 14:31:45.208883
2022-12-01 14:31:45.216932
2022-12-01 14:31:45.224985
2022-12-01 14:31:45.236881
2022-12-01 14:31:45.245785
2022-12-01 14:31:45.253935
2022-12-01 14:31:45.265902
2022-12-01 14:31:45.273656
2022-12-01 14:31:45.282699
2022-12-01 14:31:45.290767
2022-12-01 14:31:45.302779
2022-12-01 14:31:45.310751
2022-12-01 14:31:45.319732
2022-12-01 14:31:45.331396
2022-12-01 14:31:45.339556
2022-12-01 14:31:45.347538
2022-12-01 14:31:45.356704
2022-12-01 14:31:45.367673
2022-12-01 14:31:45.376651
2022-12-01 14:31:45.384678
2022-12-01 14:31:45.396889
2022-12-01 14:31:45.405673
2022-12-01 14:31:45.413552
2022-12-01 14:31:45.421659
2022-12-01 14:31:45.433635
2022-12-01 14:31:45.442473
2022-12-01 14:31:45.450652
2022-12-01 14:31:45.462633
2022-12-01 14:31:45.470785
2022-12-01 14:31:45.479516
2022-12-01 14:31:45.487698
2022-12-01 14:31:45.499011
2022-12-01 14:31:45.507939
2022-12-01 14:31:45.515915
2022-12-01 14:31:45.527885
2022-12-01 14:31:45.536306
2022-12-01 14:31:45.545283
2022-12-01 14:31:45.552904
2022-12-01 14:31:45.564874
2022-12-01 14:31:45.572854
2022-12-01 14:31:45.581830
2022-12-01 14:31:45.593796
2022-12-01 14:31:45.602096
2022-12-01 14:31:45.609982
2022-12-01 14:31:45.618770
2022-12-01 14:31:45.630558
2022-12-01 14:31:45.639111
2022-12-01 14:31:45.647239
2022-12-01 14:31:45.659236
2022-12-01 14:31:45.667579
2022-12-01 14:31:45.676093
2022-12-01 14:31:45.684670
2022-12-01 14:31:45.696159
2022-12-01 14:31:45.704562
2022-12-01 14:31:45.712643
2022-12-01 14:31:45.720954
2022-12-01 14:31:45.733211
2022-12-01 14:31:45.742531
2022-12-01 14:31:45.749491
2022-12-01 14:31:45.761872
2022-12-01 14:31:45.769690
2022-12-01 14:31:45.778049
2022-12-01 14:31:45.786363
2022-12-01 14:31:45.798741
2022-12-01 14:31:45.806729
2022-12-01 14:31:45.815293
2022-12-01 14:31:45.827465
2022-12-01 14:31:45.835527
2022-12-01 14:31:45.843971
2022-12-01 14:31:45.852000
2022-12-01 14:31:45.863960
2022-12-01 14:31:45.872421
2022-12-01 14:31:45.880498
2022-12-01 14:31:45.893045
2022-12-01 14:31:45.901151
2022-12-01 14:31:45.909404
2022-12-01 14:31:45.917773
2022-12-01 14:31:45.929798
2022-12-01 14:31:45.938110
2022-12-01 14:31:45.946105
2022-12-01 14:31:45.958457
2022-12-01 14:31:45.966649
2022-12-01 14:31:45.974881
2022-12-01 14:31:45.983045
2022-12-01 14:31:45.995023
2022-12-01 14:31:46.003580
2022-12-01 14:31:46.011978
2022-12-01 14:31:46.023945
2022-12-01 14:31:46.031981
2022-12-01 14:31:46.039910
2022-12-01 14:31:46.048880
2022-12-01 14:31:46.060862
2022-12-01 14:31:46.068966
2022-12-01 14:31:46.077441
2022-12-01 14:31:46.089565
2022-12-01 14:31:46.097608
2022-12-01 14:31:46.105821
2022-12-01 14:31:46.114155
2022-12-01 14:31:46.126676
2022-12-01 14:31:46.134512
2022-12-01 14:31:46.142642
2022-12-01 14:31:46.154992
2022-12-01 14:31:46.163131
2022-12-01 14:31:46.171130
2022-12-01 14:31:46.179688
2022-12-01 14:31:46.191785
2022-12-01 14:31:46.200237
2022-12-01 14:31:46.208253
2022-12-01 14:31:46.220131
2022-12-01 14:31:46.228840
2022-12-01 14:31:46.237170
2022-12-01 14:31:46.245219
2022-12-01 14:31:46.257481
2022-12-01 14:31:46.265545
2022-12-01 14:31:46.273598
2022-12-01 14:31:46.286115
2022-12-01 14:31:46.294177
2022-12-01 14:31:46.302476
2022-12-01 14:31:46.311445
2022-12-01 14:31:46.323148
2022-12-01 14:31:46.331222
2022-12-01 14:31:46.339450
2022-12-01 14:31:46.351445
2022-12-01 14:31:46.359610
2022-12-01 14:31:46.367928
2022-12-01 14:31:46.375972
2022-12-01 14:31:46.388449
2022-12-01 14:31:46.396758
2022-12-01 14:31:46.404839
2022-12-01 14:31:46.417374
2022-12-01 14:31:46.425392
2022-12-01 14:31:46.434541
2022-12-01 14:31:46.441482
2022-12-01 14:31:46.453083
2022-12-01 14:31:46.462294
2022-12-01 14:31:46.470467
2022-12-01 14:31:46.482365
2022-12-01 14:31:46.491059
2022-12-01 14:31:46.499251
2022-12-01 14:31:46.507348
2022-12-01 14:31:46.519535
2022-12-01 14:31:46.527828
2022-12-01 14:31:46.536138
2022-12-01 14:31:46.548295
2022-12-01 14:31:46.556855
2022-12-01 14:31:46.564656
2022-12-01 14:31:46.572666
2022-12-01 14:31:46.584640
2022-12-01 14:31:46.592667
2022-12-01 14:31:46.601596
2022-12-01 14:31:46.609567
2022-12-01 14:31:46.621544
2022-12-01 14:31:46.629514
2022-12-01 14:31:46.638490
2022-12-01 14:31:46.650664
2022-12-01 14:31:46.658834
2022-12-01 14:31:46.666765
2022-12-01 14:31:46.675416
2022-12-01 14:31:46.687571
2022-12-01 14:31:46.695949
2022-12-01 14:31:46.704019
2022-12-01 14:31:46.716177
2022-12-01 14:31:46.724365
2022-12-01 14:31:46.732359
2022-12-01 14:31:46.740333
2022-12-01 14:31:46.753310
2022-12-01 14:31:46.760858
2022-12-01 14:31:46.769487
2022-12-01 14:31:46.781866
2022-12-01 14:31:46.790528
2022-12-01 14:31:46.798148
2022-12-01 14:31:46.806355
2022-12-01 14:31:46.818448
2022-12-01 14:31:46.826859
2022-12-01 14:31:46.834797
2022-12-01 14:31:46.847499
2022-12-01 14:31:46.855471
2022-12-01 14:31:46.863710
2022-12-01 14:31:46.871697
2022-12-01 14:31:46.883273
2022-12-01 14:31:46.892442
2022-12-01 14:31:46.900590
2022-12-01 14:31:46.912909
2022-12-01 14:31:46.920936
2022-12-01 14:31:46.929076
2022-12-01 14:31:46.937383
2022-12-01 14:31:46.949691
2022-12-01 14:31:46.957690
2022-12-01 14:31:46.966076
2022-12-01 14:31:46.977704
2022-12-01 14:31:46.986377
2022-12-01 14:31:46.994429
2022-12-01 14:31:47.002406
2022-12-01 14:31:47.014310
2022-12-01 14:31:47.023285
2022-12-01 14:31:47.031273
2022-12-01 14:31:47.043231
2022-12-01 14:31:47.052216
2022-12-01 14:31:47.060187
2022-12-01 14:31:47.068972
2022-12-01 14:31:47.080134
2022-12-01 14:31:47.089110
2022-12-01 14:31:47.097088
2022-12-01 14:31:47.109516
2022-12-01 14:31:47.117733
2022-12-01 14:31:47.125874
2022-12-01 14:31:47.133862
2022-12-01 14:31:47.145819
2022-12-01 14:31:47.154292
2022-12-01 14:31:47.162830
2022-12-01 14:31:47.174955
2022-12-01 14:31:47.183213
2022-12-01 14:31:47.192037
2022-12-01 14:31:47.199664
2022-12-01 14:31:47.211910
2022-12-01 14:31:47.220180
2022-12-01 14:31:47.228332
2022-12-01 14:31:47.240131
2022-12-01 14:31:47.248731
2022-12-01 14:31:47.256671
2022-12-01 14:31:47.265276
2022-12-01 14:31:47.277382
2022-12-01 14:31:47.285621
2022-12-01 14:31:47.293799
2022-12-01 14:31:47.306088
2022-12-01 14:31:47.314376
2022-12-01 14:31:47.322825
2022-12-01 14:31:47.331495
2022-12-01 14:31:47.343081
2022-12-01 14:31:47.351271
2022-12-01 14:31:47.359381
2022-12-01 14:31:47.371643
2022-12-01 14:31:47.379720
2022-12-01 14:31:47.388167
2022-12-01 14:31:47.396154
2022-12-01 14:31:47.408356
2022-12-01 14:31:47.416681
2022-12-01 14:31:47.424921
2022-12-01 14:31:47.433221
2022-12-01 14:31:47.445361
2022-12-01 14:31:47.453518
2022-12-01 14:31:47.461835
2022-12-01 14:31:47.473718
2022-12-01 14:31:47.482162
2022-12-01 14:31:47.490293
2022-12-01 14:31:47.498679
2022-12-01 14:31:47.510558
2022-12-01 14:31:47.518529
2022-12-01 14:31:47.527424
2022-12-01 14:31:47.539764
2022-12-01 14:31:47.547669
2022-12-01 14:31:47.555511
2022-12-01 14:31:47.564131
2022-12-01 14:31:47.576455
2022-12-01 14:31:47.584614
2022-12-01 14:31:47.593928
2022-12-01 14:31:47.605266
2022-12-01 14:31:47.613338
2022-12-01 14:31:47.621446
2022-12-01 14:31:47.629755
2022-12-01 14:31:47.641900
2022-12-01 14:31:47.650321
2022-12-01 14:31:47.658267
2022-12-01 14:31:47.670396
2022-12-01 14:31:47.678993
2022-12-01 14:31:47.687057
2022-12-01 14:31:47.695236
2022-12-01 14:31:47.707436
2022-12-01 14:31:47.716735
2022-12-01 14:31:47.724112
2022-12-01 14:31:47.736086
2022-12-01 14:31:47.744358
2022-12-01 14:31:47.752443
2022-12-01 14:31:47.760890
2022-12-01 14:31:47.773072
2022-12-01 14:31:47.781428
2022-12-01 14:31:47.789374
2022-12-01 14:31:47.801697
2022-12-01 14:31:47.810044
2022-12-01 14:31:47.818239
2022-12-01 14:31:47.826075
2022-12-01 14:31:47.838673
2022-12-01 14:31:47.846693
2022-12-01 14:31:47.855771
2022-12-01 14:31:47.867237
2022-12-01 14:31:47.875550
2022-12-01 14:31:47.883266
2022-12-01 14:31:47.891771
2022-12-01 14:31:47.903969
2022-12-01 14:31:47.911971
2022-12-01 14:31:47.920107
2022-12-01 14:31:47.933284
2022-12-01 14:31:47.940836
2022-12-01 14:31:47.949289
2022-12-01 14:31:47.957215
2022-12-01 14:31:47.969506
2022-12-01 14:31:47.977991
2022-12-01 14:31:47.985983
2022-12-01 14:31:47.997948
2022-12-01 14:31:48.006367
2022-12-01 14:31:48.014904
2022-12-01 14:31:48.022889
2022-12-01 14:31:48.034904
2022-12-01 14:31:48.042882
2022-12-01 14:31:48.050807
2022-12-01 14:31:48.063709
2022-12-01 14:31:48.071574
2022-12-01 14:31:48.079556
2022-12-01 14:31:48.088484
2022-12-01 14:31:48.100447
2022-12-01 14:31:48.108426
2022-12-01 14:31:48.116409
2022-12-01 14:31:48.128378
2022-12-01 14:31:48.137369
2022-12-01 14:31:48.145332
2022-12-01 14:31:48.154303
2022-12-01 14:31:48.165935
2022-12-01 14:31:48.174128
2022-12-01 14:31:48.181886
2022-12-01 14:31:48.193855
2022-12-01 14:31:48.202830
2022-12-01 14:31:48.210861
2022-12-01 14:31:48.219786
2022-12-01 14:31:48.230811
2022-12-01 14:31:48.239730
2022-12-01 14:31:48.247718
2022-12-01 14:31:48.259859
2022-12-01 14:31:48.267837
2022-12-01 14:31:48.276549
2022-12-01 14:31:48.285012
2022-12-01 14:31:48.297307
2022-12-01 14:31:48.305559
2022-12-01 14:31:48.313593
2022-12-01 14:31:48.321873
2022-12-01 14:31:48.334181
2022-12-01 14:31:48.342169
2022-12-01 14:31:48.350682
2022-12-01 14:31:48.362914
2022-12-01 14:31:48.370916
2022-12-01 14:31:48.379385
2022-12-01 14:31:48.387390
2022-12-01 14:31:48.400424
2022-12-01 14:31:48.407976
2022-12-01 14:31:48.416038
2022-12-01 14:31:48.428454
2022-12-01 14:31:48.436594
2022-12-01 14:31:48.444919
2022-12-01 14:31:48.452903
2022-12-01 14:31:48.465168
2022-12-01 14:31:48.473940
2022-12-01 14:31:48.481736
2022-12-01 14:31:48.492976
2022-12-01 14:31:48.502155
2022-12-01 14:31:48.510026
2022-12-01 14:31:48.518571
2022-12-01 14:31:48.530891
2022-12-01 14:31:48.539039
2022-12-01 14:31:48.547134
2022-12-01 14:31:48.558494
2022-12-01 14:31:48.567819
2022-12-01 14:31:48.575854
2022-12-01 14:31:48.584019
2022-12-01 14:31:48.596516
2022-12-01 14:31:48.604494
2022-12-01 14:31:48.612814
2022-12-01 14:31:48.625083
2022-12-01 14:31:48.633491
2022-12-01 14:31:48.641298
2022-12-01 14:31:48.649448
2022-12-01 14:31:48.662288
2022-12-01 14:31:48.670009
2022-12-01 14:31:48.677999
2022-12-01 14:31:48.690336
2022-12-01 14:31:48.698720
2022-12-01 14:31:48.707353
2022-12-01 14:31:48.715347
2022-12-01 14:31:48.727332
2022-12-01 14:31:48.735465
2022-12-01 14:31:48.743896
2022-12-01 14:31:48.756020
2022-12-01 14:31:48.764561
2022-12-01 14:31:48.772707
2022-12-01 14:31:48.780676
2022-12-01 14:31:48.792654
2022-12-01 14:31:48.800636
2022-12-01 14:31:48.809675
2022-12-01 14:31:48.821576
2022-12-01 14:31:48.829063
2022-12-01 14:31:48.838000
2022-12-01 14:31:48.846199
2022-12-01 14:31:48.857636
2022-12-01 14:31:48.866621
2022-12-01 14:31:48.874600
2022-12-01 14:31:48.886539
2022-12-01 14:31:48.894524
2022-12-01 14:31:48.903584
2022-12-01 14:31:48.911471
2022-12-01 14:31:48.923566
2022-12-01 14:31:48.931545
2022-12-01 14:31:48.940545
2022-12-01 14:31:48.952259
2022-12-01 14:31:48.960751
2022-12-01 14:31:48.968384
2022-12-01 14:31:48.977362
2022-12-01 14:31:48.989327
2022-12-01 14:31:48.997309
2022-12-01 14:31:49.006283
2022-12-01 14:31:49.017257
2022-12-01 14:31:49.026230
2022-12-01 14:31:49.034310
2022-12-01 14:31:49.042161
2022-12-01 14:31:49.054578
2022-12-01 14:31:49.063346
2022-12-01 14:31:49.071666
2022-12-01 14:31:49.083107
2022-12-01 14:31:49.091320
2022-12-01 14:31:49.100244
2022-12-01 14:31:49.108392
2022-12-01 14:31:49.120440
2022-12-01 14:31:49.128337
2022-12-01 14:31:49.136316
2022-12-01 14:31:49.149229
2022-12-01 14:31:49.157260
2022-12-01 14:31:49.165317
2022-12-01 14:31:49.174215
2022-12-01 14:31:49.185190
2022-12-01 14:31:49.194472
2022-12-01 14:31:49.202139
2022-12-01 14:31:49.210173
2022-12-01 14:31:49.223086
2022-12-01 14:31:49.231067
2022-12-01 14:31:49.239044
2022-12-01 14:31:49.251616
2022-12-01 14:31:49.259753
2022-12-01 14:31:49.267750
2022-12-01 14:31:49.276396
2022-12-01 14:31:49.288581
2022-12-01 14:31:49.296569
2022-12-01 14:31:49.304980
2022-12-01 14:31:49.317186
2022-12-01 14:31:49.326021
2022-12-01 14:31:49.333775
2022-12-01 14:31:49.341632
2022-12-01 14:31:49.354030
2022-12-01 14:31:49.361737
2022-12-01 14:31:49.370267
2022-12-01 14:31:49.382779
2022-12-01 14:31:49.391269
2022-12-01 14:31:49.399271
2022-12-01 14:31:49.407103
2022-12-01 14:31:49.418809
2022-12-01 14:31:49.428182
2022-12-01 14:31:49.435929
2022-12-01 14:31:49.448378
2022-12-01 14:31:49.456500
2022-12-01 14:31:49.464559
2022-12-01 14:31:49.473039
2022-12-01 14:31:49.485283
2022-12-01 14:31:49.493338
2022-12-01 14:31:49.501469
2022-12-01 14:31:49.513410
2022-12-01 14:31:49.522181
2022-12-01 14:31:49.530169
2022-12-01 14:31:49.538424
2022-12-01 14:31:49.550664
2022-12-01 14:31:49.558677
2022-12-01 14:31:49.566872
2022-12-01 14:31:49.579241
2022-12-01 14:31:49.587671
2022-12-01 14:31:49.595939
2022-12-01 14:31:49.603946
2022-12-01 14:31:49.616216
2022-12-01 14:31:49.624430
2022-12-01 14:31:49.633785
2022-12-01 14:31:49.644908
2022-12-01 14:31:49.652853
2022-12-01 14:31:49.661231
2022-12-01 14:31:49.669172
2022-12-01 14:31:49.681693
2022-12-01 14:31:49.689951
2022-12-01 14:31:49.698083
2022-12-01 14:31:49.709862
2022-12-01 14:31:49.718638
2022-12-01 14:31:49.726888
2022-12-01 14:31:49.735027
2022-12-01 14:31:49.747260
2022-12-01 14:31:49.755923
2022-12-01 14:31:49.763665
2022-12-01 14:31:49.775909
2022-12-01 14:31:49.783750
2022-12-01 14:31:49.792407
2022-12-01 14:31:49.800918
2022-12-01 14:31:49.813012
2022-12-01 14:31:49.820253
2022-12-01 14:31:49.829337
2022-12-01 14:31:49.841434
2022-12-01 14:31:49.849836
2022-12-01 14:31:49.858043
2022-12-01 14:31:49.866093
2022-12-01 14:31:49.878450
2022-12-01 14:31:49.886487
2022-12-01 14:31:49.894920
2022-12-01 14:31:49.906881
2022-12-01 14:31:49.915264
2022-12-01 14:31:49.923944
2022-12-01 14:31:49.931605
2022-12-01 14:31:49.943157
2022-12-01 14:31:49.952291
2022-12-01 14:31:49.960473
2022-12-01 14:31:49.972515
2022-12-01 14:31:49.980748
2022-12-01 14:31:49.989011
2022-12-01 14:31:49.997207
2022-12-01 14:31:50.009247
2022-12-01 14:31:50.017660
2022-12-01 14:31:50.025788
2022-12-01 14:31:50.038068
2022-12-01 14:31:50.046330
2022-12-01 14:31:50.054519
2022-12-01 14:31:50.062697
2022-12-01 14:31:50.075086
2022-12-01 14:31:50.083282
2022-12-01 14:31:50.091296
2022-12-01 14:31:50.099845
2022-12-01 14:31:50.111849
2022-12-01 14:31:50.120142
2022-12-01 14:31:50.128131
2022-12-01 14:31:50.140406
2022-12-01 14:31:50.148732
2022-12-01 14:31:50.157644
2022-12-01 14:31:50.165224
2022-12-01 14:31:50.177452
2022-12-01 14:31:50.185942
2022-12-01 14:31:50.193780
2022-12-01 14:31:50.205109
2022-12-01 14:31:50.214078
2022-12-01 14:31:50.222065
2022-12-01 14:31:50.230041
2022-12-01 14:31:50.243004
2022-12-01 14:31:50.250978
2022-12-01 14:31:50.259022
2022-12-01 14:31:50.271302
2022-12-01 14:31:50.279284
2022-12-01 14:31:50.287260
2022-12-01 14:31:50.297235
2022-12-01 14:31:50.308370
2022-12-01 14:31:50.316485
2022-12-01 14:31:50.324352
2022-12-01 14:31:50.336371
2022-12-01 14:31:50.345296
2022-12-01 14:31:50.353346
2022-12-01 14:31:50.361898
2022-12-01 14:31:50.373868
2022-12-01 14:31:50.381848
2022-12-01 14:31:50.390819
2022-12-01 14:31:50.402956
2022-12-01 14:31:50.410766
2022-12-01 14:31:50.418742
2022-12-01 14:31:50.426721
2022-12-01 14:31:50.438663
2022-12-01 14:31:50.447667
2022-12-01 14:31:50.455643
2022-12-01 14:31:50.467990
2022-12-01 14:31:50.476031
2022-12-01 14:31:50.484952
2022-12-01 14:31:50.492923
2022-12-01 14:31:50.504958
2022-12-01 14:31:50.512870
2022-12-01 14:31:50.521845
2022-12-01 14:31:50.533372
2022-12-01 14:31:50.541793
2022-12-01 14:31:50.549770
2022-12-01 14:31:50.558752
2022-12-01 14:31:50.570552
2022-12-01 14:31:50.578474
2022-12-01 14:31:50.587068
2022-12-01 14:31:50.599458
2022-12-01 14:31:50.607338
2022-12-01 14:31:50.615642
2022-12-01 14:31:50.623538
2022-12-01 14:31:50.636301
2022-12-01 14:31:50.644334
2022-12-01 14:31:50.653513
2022-12-01 14:31:50.664951
2022-12-01 14:31:50.672982
2022-12-01 14:31:50.681176
2022-12-01 14:31:50.689164
2022-12-01 14:31:50.701782
2022-12-01 14:31:50.709867
2022-12-01 14:31:50.717855
2022-12-01 14:31:50.730339
2022-12-01 14:31:50.738529
2022-12-01 14:31:50.746826
2022-12-01 14:31:50.754847
2022-12-01 14:31:50.767223
2022-12-01 14:31:50.775459
2022-12-01 14:31:50.783606
2022-12-01 14:31:50.795592
2022-12-01 14:31:50.803577
2022-12-01 14:31:50.811551
2022-12-01 14:31:50.820748
2022-12-01 14:31:50.832855
2022-12-01 14:31:50.841036
2022-12-01 14:31:50.849290
2022-12-01 14:31:50.861434
2022-12-01 14:31:50.869936
2022-12-01 14:31:50.877727
2022-12-01 14:31:50.885867
2022-12-01 14:31:50.898192
2022-12-01 14:31:50.906245
2022-12-01 14:31:50.915466
2022-12-01 14:31:50.922850
2022-12-01 14:31:50.935425
2022-12-01 14:31:50.943428
2022-12-01 14:31:50.951531
2022-12-01 14:31:50.963037
2022-12-01 14:31:50.972112
2022-12-01 14:31:50.980508
2022-12-01 14:31:50.988522
2022-12-01 14:31:51.000771
2022-12-01 14:31:51.008610
2022-12-01 14:31:51.017076
2022-12-01 14:31:51.029258
2022-12-01 14:31:51.037503
2022-12-01 14:31:51.045747
2022-12-01 14:31:51.054839
2022-12-01 14:31:51.066243
2022-12-01 14:31:51.074254
2022-12-01 14:31:51.082275
2022-12-01 14:31:51.095025
2022-12-01 14:31:51.103038
2022-12-01 14:31:51.111377
2022-12-01 14:31:51.119365
2022-12-01 14:31:51.130864
2022-12-01 14:31:51.139933
2022-12-01 14:31:51.148030
2022-12-01 14:31:51.160703
2022-12-01 14:31:51.168657
2022-12-01 14:31:51.176852
2022-12-01 14:31:51.185574
2022-12-01 14:31:51.197368
2022-12-01 14:31:51.205513
2022-12-01 14:31:51.213794
2022-12-01 14:31:51.225919
2022-12-01 14:31:51.234201
2022-12-01 14:31:51.242486
2022-12-01 14:31:51.250225
2022-12-01 14:31:51.262141
2022-12-01 14:31:51.271267
2022-12-01 14:31:51.279247
2022-12-01 14:31:51.291211
2022-12-01 14:31:51.299422
2022-12-01 14:31:51.307169
2022-12-01 14:31:51.316148
2022-12-01 14:31:51.328118
2022-12-01 14:31:51.336498
2022-12-01 14:31:51.345711
2022-12-01 14:31:51.357049
2022-12-01 14:31:51.365176
2022-12-01 14:31:51.373544
2022-12-01 14:31:51.381287
2022-12-01 14:31:51.393836
2022-12-01 14:31:51.402129
2022-12-01 14:31:51.410471
2022-12-01 14:31:51.422552
2022-12-01 14:31:51.430814
2022-12-01 14:31:51.438819
2022-12-01 14:31:51.447315
2022-12-01 14:31:51.459403
2022-12-01 14:31:51.467657
2022-12-01 14:31:51.475949
2022-12-01 14:31:51.488161
2022-12-01 14:31:51.496306
2022-12-01 14:31:51.504460
2022-12-01 14:31:51.512860
2022-12-01 14:31:51.524700
2022-12-01 14:31:51.533407
2022-12-01 14:31:51.540937
2022-12-01 14:31:51.553476
2022-12-01 14:31:51.561191
2022-12-01 14:31:51.569989
2022-12-01 14:31:51.577948
2022-12-01 14:31:51.590548
2022-12-01 14:31:51.598849
2022-12-01 14:31:51.607225
2022-12-01 14:31:51.619249
2022-12-01 14:31:51.627316
2022-12-01 14:31:51.635556
2022-12-01 14:31:51.643826
2022-12-01 14:31:51.655962
2022-12-01 14:31:51.664365
2022-12-01 14:31:51.672543
2022-12-01 14:31:51.684510
2022-12-01 14:31:51.692540
2022-12-01 14:31:51.700788
2022-12-01 14:31:51.709444
2022-12-01 14:31:51.721412
2022-12-01 14:31:51.729448
2022-12-01 14:31:51.737424
2022-12-01 14:31:51.750211
2022-12-01 14:31:51.758518
2022-12-01 14:31:51.766316
2022-12-01 14:31:51.774793
2022-12-01 14:31:51.786948
2022-12-01 14:31:51.795079
2022-12-01 14:31:51.803404
2022-12-01 14:31:51.811141
2022-12-01 14:31:51.824186
2022-12-01 14:31:51.832277
2022-12-01 14:31:51.841507
2022-12-01 14:31:51.852691
2022-12-01 14:31:51.860857
2022-12-01 14:31:51.869143
2022-12-01 14:31:51.877214
2022-12-01 14:31:51.889420
2022-12-01 14:31:51.897880
2022-12-01 14:31:51.905871
2022-12-01 14:31:51.917791
2022-12-01 14:31:51.926387
2022-12-01 14:31:51.934367
2022-12-01 14:31:51.942728
2022-12-01 14:31:51.954928
2022-12-01 14:31:51.963446
2022-12-01 14:31:51.971425
2022-12-01 14:31:51.983654
2022-12-01 14:31:51.991726
2022-12-01 14:31:52.000134
2022-12-01 14:31:52.008818
2022-12-01 14:31:52.020550
2022-12-01 14:31:52.028707
2022-12-01 14:31:52.036690
2022-12-01 14:31:52.048651
2022-12-01 14:31:52.057677
2022-12-01 14:31:52.065598
2022-12-01 14:31:52.075509
2022-12-01 14:31:52.086310
2022-12-01 14:31:52.094260
2022-12-01 14:31:52.102557
2022-12-01 14:31:52.114737
2022-12-01 14:31:52.122972
2022-12-01 14:31:52.131195
2022-12-01 14:31:52.139183
2022-12-01 14:31:52.151561
2022-12-01 14:31:52.159984
2022-12-01 14:31:52.167970
2022-12-01 14:31:52.180396
2022-12-01 14:31:52.188582
2022-12-01 14:31:52.197176
2022-12-01 14:31:52.204884
2022-12-01 14:31:52.216361
2022-12-01 14:31:52.225514
2022-12-01 14:31:52.233313
2022-12-01 14:31:52.245282
2022-12-01 14:31:52.253260
2022-12-01 14:31:52.262315
2022-12-01 14:31:52.270683
2022-12-01 14:31:52.282647
2022-12-01 14:31:52.290643
2022-12-01 14:31:52.299470
2022-12-01 14:31:52.310983
2022-12-01 14:31:52.319002
2022-12-01 14:31:52.327937
2022-12-01 14:31:52.336197
2022-12-01 14:31:52.348043
2022-12-01 14:31:52.356028
2022-12-01 14:31:52.364842
2022-12-01 14:31:52.376353
2022-12-01 14:31:52.385281
2022-12-01 14:31:52.393157
2022-12-01 14:31:52.402134
2022-12-01 14:31:52.413104
2022-12-01 14:31:52.422081
2022-12-01 14:31:52.430061
2022-12-01 14:31:52.442454
2022-12-01 14:31:52.450451
2022-12-01 14:31:52.458410
2022-12-01 14:31:52.466976
2022-12-01 14:31:52.478949
2022-12-01 14:31:52.486989
2022-12-01 14:31:52.496023
2022-12-01 14:31:52.507081
2022-12-01 14:31:52.515462
2022-12-01 14:31:52.524444
2022-12-01 14:31:52.532233
2022-12-01 14:31:52.544110
2022-12-01 14:31:52.552509
2022-12-01 14:31:52.561085
2022-12-01 14:31:52.572934
2022-12-01 14:31:52.581528
2022-12-01 14:31:52.589886
2022-12-01 14:31:52.597866
2022-12-01 14:31:52.610264
2022-12-01 14:31:52.618681
2022-12-01 14:31:52.627510
2022-12-01 14:31:52.638971
2022-12-01 14:31:52.646951
2022-12-01 14:31:52.654933
2022-12-01 14:31:52.663906
2022-12-01 14:31:52.675152
2022-12-01 14:31:52.683978
2022-12-01 14:31:52.692105
2022-12-01 14:31:52.700210
2022-12-01 14:31:52.712948
2022-12-01 14:31:52.720912
2022-12-01 14:31:52.729403
2022-12-01 14:31:52.741479
2022-12-01 14:31:52.750441
2022-12-01 14:31:52.757963
2022-12-01 14:31:52.765990
2022-12-01 14:31:52.778550
2022-12-01 14:31:52.786673
2022-12-01 14:31:52.794741
2022-12-01 14:31:52.807039
2022-12-01 14:31:52.815273
2022-12-01 14:31:52.823509
2022-12-01 14:31:52.831812
2022-12-01 14:31:52.843468
2022-12-01 14:31:52.852089
2022-12-01 14:31:52.860374
2022-12-01 14:31:52.872595
2022-12-01 14:31:52.880787
2022-12-01 14:31:52.890150
2022-12-01 14:31:52.897791
2022-12-01 14:31:52.909379
2022-12-01 14:31:52.917664
2022-12-01 14:31:52.925670
2022-12-01 14:31:52.937986
2022-12-01 14:31:52.946406
2022-12-01 14:31:52.954454
2022-12-01 14:31:52.962672
2022-12-01 14:31:52.974860
2022-12-01 14:31:52.983144
2022-12-01 14:31:52.991930
2022-12-01 14:31:53.003757
2022-12-01 14:31:53.012532
2022-12-01 14:31:53.020066
2022-12-01 14:31:53.027990
2022-12-01 14:31:53.040568
2022-12-01 14:31:53.048667
2022-12-01 14:31:53.057181
2022-12-01 14:31:53.069374
2022-12-01 14:31:53.077288
2022-12-01 14:31:53.085588
2022-12-01 14:31:53.093653
2022-12-01 14:31:53.105125
2022-12-01 14:31:53.114357
2022-12-01 14:31:53.122660
2022-12-01 14:31:53.134647
2022-12-01 14:31:53.143010
2022-12-01 14:31:53.151275
2022-12-01 14:31:53.159040
2022-12-01 14:31:53.171583
2022-12-01 14:31:53.179958
2022-12-01 14:31:53.187903
2022-12-01 14:31:53.200188
2022-12-01 14:31:53.208301
2022-12-01 14:31:53.216673
2022-12-01 14:31:53.225013
2022-12-01 14:31:53.237284
2022-12-01 14:31:53.244996
2022-12-01 14:31:53.253472
2022-12-01 14:31:53.265629
2022-12-01 14:31:53.274031
2022-12-01 14:31:53.281997
2022-12-01 14:31:53.291467
2022-12-01 14:31:53.302824
2022-12-01 14:31:53.310835
2022-12-01 14:31:53.319033
2022-12-01 14:31:53.331434
2022-12-01 14:31:53.339657
2022-12-01 14:31:53.347629
2022-12-01 14:31:53.355611
2022-12-01 14:31:53.367576
2022-12-01 14:31:53.375803
2022-12-01 14:31:53.384984
2022-12-01 14:31:53.396500
2022-12-01 14:31:53.404478
2022-12-01 14:31:53.413457
2022-12-01 14:31:53.421433
2022-12-01 14:31:53.433670
2022-12-01 14:31:53.442125
2022-12-01 14:31:53.450516
2022-12-01 14:31:53.462505
2022-12-01 14:31:53.470573
2022-12-01 14:31:53.478886
2022-12-01 14:31:53.487178
2022-12-01 14:31:53.499294
2022-12-01 14:31:53.507282
2022-12-01 14:31:53.515415
2022-12-01 14:31:53.523952
2022-12-01 14:31:53.536180
2022-12-01 14:31:53.544046
2022-12-01 14:31:53.552028
2022-12-01 14:31:53.564847
2022-12-01 14:31:53.572252
2022-12-01 14:31:53.581387
2022-12-01 14:31:53.589345
2022-12-01 14:31:53.601493
2022-12-01 14:31:53.609926
2022-12-01 14:31:53.618049
2022-12-01 14:31:53.630364
2022-12-01 14:31:53.638515
2022-12-01 14:31:53.646917
2022-12-01 14:31:53.654860
2022-12-01 14:31:53.667110
2022-12-01 14:31:53.675314
2022-12-01 14:31:53.683596
2022-12-01 14:31:53.695334
2022-12-01 14:31:53.704140
2022-12-01 14:31:53.712128
2022-12-01 14:31:53.720562
2022-12-01 14:31:53.732848
2022-12-01 14:31:53.741340
2022-12-01 14:31:53.749088
2022-12-01 14:31:53.761291
2022-12-01 14:31:53.769492
2022-12-01 14:31:53.777573
2022-12-01 14:31:53.786026
2022-12-01 14:31:53.798423
2022-12-01 14:31:53.806458
2022-12-01 14:31:53.814667
2022-12-01 14:31:53.826887
2022-12-01 14:31:53.835865
2022-12-01 14:31:53.843256
2022-12-01 14:31:53.851475
2022-12-01 14:31:53.863817
2022-12-01 14:31:53.872448
2022-12-01 14:31:53.880394
2022-12-01 14:31:53.892372
2022-12-01 14:31:53.900915
2022-12-01 14:31:53.908595
2022-12-01 14:31:53.917588
2022-12-01 14:31:53.928560
2022-12-01 14:31:53.937533
2022-12-01 14:31:53.945514
2022-12-01 14:31:53.957479
2022-12-01 14:31:53.966132
2022-12-01 14:31:53.974805
2022-12-01 14:31:53.982689
2022-12-01 14:31:53.994751
2022-12-01 14:31:54.003227
2022-12-01 14:31:54.011262
2022-12-01 14:31:54.023506
2022-12-01 14:31:54.031962
2022-12-01 14:31:54.039849
2022-12-01 14:31:54.048161
2022-12-01 14:31:54.060463
2022-12-01 14:31:54.068508
2022-12-01 14:31:54.076809
2022-12-01 14:31:54.089229
2022-12-01 14:31:54.097339
2022-12-01 14:31:54.105475
2022-12-01 14:31:54.113911
2022-12-01 14:31:54.125875
2022-12-01 14:31:54.134196
2022-12-01 14:31:54.142170
2022-12-01 14:31:54.154313
2022-12-01 14:31:54.162739
2022-12-01 14:31:54.171448
2022-12-01 14:31:54.179634
2022-12-01 14:31:54.191408
2022-12-01 14:31:54.199738
2022-12-01 14:31:54.207761
2022-12-01 14:31:54.220341
2022-12-01 14:31:54.228361
2022-12-01 14:31:54.237549
2022-12-01 14:31:54.244868
2022-12-01 14:31:54.256925
2022-12-01 14:31:54.265331
2022-12-01 14:31:54.273440
2022-12-01 14:31:54.285620
2022-12-01 14:31:54.293981
2022-12-01 14:31:54.302228
2022-12-01 14:31:54.310294
2022-12-01 14:31:54.322612
2022-12-01 14:31:54.330602
2022-12-01 14:31:54.339101
2022-12-01 14:31:54.351455
2022-12-01 14:31:54.359918
2022-12-01 14:31:54.367721
2022-12-01 14:31:54.376137
2022-12-01 14:31:54.388101
2022-12-01 14:31:54.396309
2022-12-01 14:31:54.404319
2022-12-01 14:31:54.412507
2022-12-01 14:31:54.424908
2022-12-01 14:31:54.433155
2022-12-01 14:31:54.441263
2022-12-01 14:31:54.452669
2022-12-01 14:31:54.462033
2022-12-01 14:31:54.470151
2022-12-01 14:31:54.478259
2022-12-01 14:31:54.490512
2022-12-01 14:31:54.498879
2022-12-01 14:31:54.506931
2022-12-01 14:31:54.519118
2022-12-01 14:31:54.527420
2022-12-01 14:31:54.535561
2022-12-01 14:31:54.544770
2022-12-01 14:31:54.555775
2022-12-01 14:31:54.564239
2022-12-01 14:31:54.572483
2022-12-01 14:31:54.584878
2022-12-01 14:31:54.593099
2022-12-01 14:31:54.601107
2022-12-01 14:31:54.609512
2022-12-01 14:31:54.621351
2022-12-01 14:31:54.629773
2022-12-01 14:31:54.638805
2022-12-01 14:31:54.650463
2022-12-01 14:31:54.658584
2022-12-01 14:31:54.666654
2022-12-01 14:31:54.674947
2022-12-01 14:31:54.687109
2022-12-01 14:31:54.695331
2022-12-01 14:31:54.703820
2022-12-01 14:31:54.715810
2022-12-01 14:31:54.723992
2022-12-01 14:31:54.732135
2022-12-01 14:31:54.740379
2022-12-01 14:31:54.752674
2022-12-01 14:31:54.760835
2022-12-01 14:31:54.768991
2022-12-01 14:31:54.781293
2022-12-01 14:31:54.789507
2022-12-01 14:31:54.797495
2022-12-01 14:31:54.805852
2022-12-01 14:31:54.817908
2022-12-01 14:31:54.826380
2022-12-01 14:31:54.834668
2022-12-01 14:31:54.846883
2022-12-01 14:31:54.854527
2022-12-01 14:31:54.863514
2022-12-01 14:31:54.871640
2022-12-01 14:31:54.883775
2022-12-01 14:31:54.891764
2022-12-01 14:31:54.900146
2022-12-01 14:31:54.912443
2022-12-01 14:31:54.920532
2022-12-01 14:31:54.928817
2022-12-01 14:31:54.936805
2022-12-01 14:31:54.949225
2022-12-01 14:31:54.957544
2022-12-01 14:31:54.965630
2022-12-01 14:31:54.978034
2022-12-01 14:31:54.986164
2022-12-01 14:31:54.994605
2022-12-01 14:31:55.002504
2022-12-01 14:31:55.014835
2022-12-01 14:31:55.023145
2022-12-01 14:31:55.031268
2022-12-01 14:31:55.043271
2022-12-01 14:31:55.051158
2022-12-01 14:31:55.060138
2022-12-01 14:31:55.068206
2022-12-01 14:31:55.080383
2022-12-01 14:31:55.088437
2022-12-01 14:31:55.096738
2022-12-01 14:31:55.108387
2022-12-01 14:31:55.117212
2022-12-01 14:31:55.125347
2022-12-01 14:31:55.134708
2022-12-01 14:31:55.145906
2022-12-01 14:31:55.153894
2022-12-01 14:31:55.162255
2022-12-01 14:31:55.174493
2022-12-01 14:31:55.182560
2022-12-01 14:31:55.190927
2022-12-01 14:31:55.199064
2022-12-01 14:31:55.211345
2022-12-01 14:31:55.219805
2022-12-01 14:31:55.227698
2022-12-01 14:31:55.240250
2022-12-01 14:31:55.248428
2022-12-01 14:31:55.257221
2022-12-01 14:31:55.264746
2022-12-01 14:31:55.276683
2022-12-01 14:31:55.285331
2022-12-01 14:31:55.293021
2022-12-01 14:31:55.300889
2022-12-01 14:31:55.313980
2022-12-01 14:31:55.321931
2022-12-01 14:31:55.330215
2022-12-01 14:31:55.342637
2022-12-01 14:31:55.350742
2022-12-01 14:31:55.358867
2022-12-01 14:31:55.366907
2022-12-01 14:31:55.380161
2022-12-01 14:31:55.387559
2022-12-01 14:31:55.395897
2022-12-01 14:31:55.408050
2022-12-01 14:31:55.416341
2022-12-01 14:31:55.424497
2022-12-01 14:31:55.432707
2022-12-01 14:31:55.444862
2022-12-01 14:31:55.452841
2022-12-01 14:31:55.460820
2022-12-01 14:31:55.472840
2022-12-01 14:31:55.481592
2022-12-01 14:31:55.489620
2022-12-01 14:31:55.497601
2022-12-01 14:31:55.509753
2022-12-01 14:31:55.518542
2022-12-01 14:31:55.526580
2022-12-01 14:31:55.538493
2022-12-01 14:31:55.547321
2022-12-01 14:31:55.555463
2022-12-01 14:31:55.563702
2022-12-01 14:31:55.575910
2022-12-01 14:31:55.584330
2022-12-01 14:31:55.592182
2022-12-01 14:31:55.604658
2022-12-01 14:31:55.613585
2022-12-01 14:31:55.621036
2022-12-01 14:31:55.629674
2022-12-01 14:31:55.641549
2022-12-01 14:31:55.649720
2022-12-01 14:31:55.658050
2022-12-01 14:31:55.670359
2022-12-01 14:31:55.678348
2022-12-01 14:31:55.686543
2022-12-01 14:31:55.694649
2022-12-01 14:31:55.706133
2022-12-01 14:31:55.715105
2022-12-01 14:31:55.723094
2022-12-01 14:31:55.735453
2022-12-01 14:31:55.743432
2022-12-01 14:31:55.752405
2022-12-01 14:31:55.759960
2022-12-01 14:31:55.772280
2022-12-01 14:31:55.780889
2022-12-01 14:31:55.788697
2022-12-01 14:31:55.800751
2022-12-01 14:31:55.808664
2022-12-01 14:31:55.817622
2022-12-01 14:31:55.825842
2022-12-01 14:31:55.837411
2022-12-01 14:31:55.846116
2022-12-01 14:31:55.854095
2022-12-01 14:31:55.866064
2022-12-01 14:31:55.875040
2022-12-01 14:31:55.883016
2022-12-01 14:31:55.891994
2022-12-01 14:31:55.903100
2022-12-01 14:31:55.912078
2022-12-01 14:31:55.919791
2022-12-01 14:31:55.932119
2022-12-01 14:31:55.940681
2022-12-01 14:31:55.948657
2022-12-01 14:31:55.956640
2022-12-01 14:31:55.968604
2022-12-01 14:31:55.977276
2022-12-01 14:31:55.985254
2022-12-01 14:31:55.997343
2022-12-01 14:31:56.006201
2022-12-01 14:31:56.014180
2022-12-01 14:31:56.022164
2022-12-01 14:31:56.034450
2022-12-01 14:31:56.042442
2022-12-01 14:31:56.051095
2022-12-01 14:31:56.063397
2022-12-01 14:31:56.071375
2022-12-01 14:31:56.079360
2022-12-01 14:31:56.088334
2022-12-01 14:31:56.100180
2022-12-01 14:31:56.108156
2022-12-01 14:31:56.116923
2022-12-01 14:31:56.128894
2022-12-01 14:31:56.136887
2022-12-01 14:31:56.144866
2022-12-01 14:31:56.154021
2022-12-01 14:31:56.164813
2022-12-01 14:31:56.173784
2022-12-01 14:31:56.182134
2022-12-01 14:31:56.190744
2022-12-01 14:31:56.202786
2022-12-01 14:31:56.210818
2022-12-01 14:31:56.218894
2022-12-01 14:31:56.230764
2022-12-01 14:31:56.239468
2022-12-01 14:31:56.247466
2022-12-01 14:31:56.255853
2022-12-01 14:31:56.268189
2022-12-01 14:31:56.276146
2022-12-01 14:31:56.284389
2022-12-01 14:31:56.296834
2022-12-01 14:31:56.305091
2022-12-01 14:31:56.313329
2022-12-01 14:31:56.321545
2022-12-01 14:31:56.333744
2022-12-01 14:31:56.341829
2022-12-01 14:31:56.350308
2022-12-01 14:31:56.362213
2022-12-01 14:31:56.371395
2022-12-01 14:31:56.378458
2022-12-01 14:31:56.386774
2022-12-01 14:31:56.399361
2022-12-01 14:31:56.407515
2022-12-01 14:31:56.415708
2022-12-01 14:31:56.428058
2022-12-01 14:31:56.436211
2022-12-01 14:31:56.444282
2022-12-01 14:31:56.452272
2022-12-01 14:31:56.464030
2022-12-01 14:31:56.473120
2022-12-01 14:31:56.481235
2022-12-01 14:31:56.493830
2022-12-01 14:31:56.501699
2022-12-01 14:31:56.509984
2022-12-01 14:31:56.518231
2022-12-01 14:31:56.530358
2022-12-01 14:31:56.538461
2022-12-01 14:31:56.546667
2022-12-01 14:31:56.558068
2022-12-01 14:31:56.567035
2022-12-01 14:31:56.575015
2022-12-01 14:31:56.583762
2022-12-01 14:31:56.595889
2022-12-01 14:31:56.603957
2022-12-01 14:31:56.612213
2022-12-01 14:31:56.624367
2022-12-01 14:31:56.632291
2022-12-01 14:31:56.640271
2022-12-01 14:31:56.649239
2022-12-01 14:31:56.661205
2022-12-01 14:31:56.669463
2022-12-01 14:31:56.678169
2022-12-01 14:31:56.690130
2022-12-01 14:31:56.698108
2022-12-01 14:31:56.706496
2022-12-01 14:31:56.714122
2022-12-01 14:31:56.726942
2022-12-01 14:31:56.734970
2022-12-01 14:31:56.742899
2022-12-01 14:31:56.754914
2022-12-01 14:31:56.763839
2022-12-01 14:31:56.771991
2022-12-01 14:31:56.780037
2022-12-01 14:31:56.792005
2022-12-01 14:31:56.800036
2022-12-01 14:31:56.808960
2022-12-01 14:31:56.821007
2022-12-01 14:31:56.828907
2022-12-01 14:31:56.837885
2022-12-01 14:31:56.845861
2022-12-01 14:31:56.857885
2022-12-01 14:31:56.865859
2022-12-01 14:31:56.874784
2022-12-01 14:31:56.885844
2022-12-01 14:31:56.894818
2022-12-01 14:31:56.902797
2022-12-01 14:31:56.911007
2022-12-01 14:31:56.922747
2022-12-01 14:31:56.931720
2022-12-01 14:31:56.939809
2022-12-01 14:31:56.951673
2022-12-01 14:31:56.960642
2022-12-01 14:31:56.968621
2022-12-01 14:31:56.976810
2022-12-01 14:31:56.988723
2022-12-01 14:31:56.997291
2022-12-01 14:31:57.005451
2022-12-01 14:31:57.013570
2022-12-01 14:31:57.025547
2022-12-01 14:31:57.034074
2022-12-01 14:31:57.042180
2022-12-01 14:31:57.054581
2022-12-01 14:31:57.063003
2022-12-01 14:31:57.071116
2022-12-01 14:31:57.079302
2022-12-01 14:31:57.091506
2022-12-01 14:31:57.099581
2022-12-01 14:31:57.108048
2022-12-01 14:31:57.120261
2022-12-01 14:31:57.128746
2022-12-01 14:31:57.136971
2022-12-01 14:31:57.145777
2022-12-01 14:31:57.156863
2022-12-01 14:31:57.165201
2022-12-01 14:31:57.173477
2022-12-01 14:31:57.185873
2022-12-01 14:31:57.194057
2022-12-01 14:31:57.201899
2022-12-01 14:31:57.209944
2022-12-01 14:31:57.222504
2022-12-01 14:31:57.230772
2022-12-01 14:31:57.238870
2022-12-01 14:31:57.251434
2022-12-01 14:31:57.259444
2022-12-01 14:31:57.268204
2022-12-01 14:31:57.276276
2022-12-01 14:31:57.287908
2022-12-01 14:31:57.296220
2022-12-01 14:31:57.304541
2022-12-01 14:31:57.315864
2022-12-01 14:31:57.324944
2022-12-01 14:31:57.333210
2022-12-01 14:31:57.341490
2022-12-01 14:31:57.353837
2022-12-01 14:31:57.361841
2022-12-01 14:31:57.370064
2022-12-01 14:31:57.382424
2022-12-01 14:31:57.390124
2022-12-01 14:31:57.398756
2022-12-01 14:31:57.406739
2022-12-01 14:31:57.419385
2022-12-01 14:31:57.427200
2022-12-01 14:31:57.435676
2022-12-01 14:31:57.447622
2022-12-01 14:31:57.455969
2022-12-01 14:31:57.464222
2022-12-01 14:31:57.472184
2022-12-01 14:31:57.484044
2022-12-01 14:31:57.492985
2022-12-01 14:31:57.500664
2022-12-01 14:31:57.513434
2022-12-01 14:31:57.521408
2022-12-01 14:31:57.530476
2022-12-01 14:31:57.537940
2022-12-01 14:31:57.549593
2022-12-01 14:31:57.558571
2022-12-01 14:31:57.566547
2022-12-01 14:31:57.578517
2022-12-01 14:31:57.586568
2022-12-01 14:31:57.595554
2022-12-01 14:31:57.603543
2022-12-01 14:31:57.615509
2022-12-01 14:31:57.623485
2022-12-01 14:31:57.631518
2022-12-01 14:31:57.644440
2022-12-01 14:31:57.652655
2022-12-01 14:31:57.660950
2022-12-01 14:31:57.670215
2022-12-01 14:31:57.681466
2022-12-01 14:31:57.689429
2022-12-01 14:31:57.697727
2022-12-01 14:31:57.709881
2022-12-01 14:31:57.718528
2022-12-01 14:31:57.726941
2022-12-01 14:31:57.734475
2022-12-01 14:31:57.746888
2022-12-01 14:31:57.755058
2022-12-01 14:31:57.764045
2022-12-01 14:31:57.775547
2022-12-01 14:31:57.783782
2022-12-01 14:31:57.792068
2022-12-01 14:31:57.800056
2022-12-01 14:31:57.812035
2022-12-01 14:31:57.820624
2022-12-01 14:31:57.828802
2022-12-01 14:31:57.841187
2022-12-01 14:31:57.849285
2022-12-01 14:31:57.857561
2022-12-01 14:31:57.865827
2022-12-01 14:31:57.877893
2022-12-01 14:31:57.886136
2022-12-01 14:31:57.894326
2022-12-01 14:31:57.902308
2022-12-01 14:31:57.914791
2022-12-01 14:31:57.922982
2022-12-01 14:31:57.931349
2022-12-01 14:31:57.943442
2022-12-01 14:31:57.951578
2022-12-01 14:31:57.959742
2022-12-01 14:31:57.967975
2022-12-01 14:31:57.980442
2022-12-01 14:31:57.988583
2022-12-01 14:31:57.997189
2022-12-01 14:31:58.008517
2022-12-01 14:31:58.017026
2022-12-01 14:31:58.025391
2022-12-01 14:31:58.033498
2022-12-01 14:31:58.045945
2022-12-01 14:31:58.054259
2022-12-01 14:31:58.062139
2022-12-01 14:31:58.074167
2022-12-01 14:31:58.082793
2022-12-01 14:31:58.091512
2022-12-01 14:31:58.099217
2022-12-01 14:31:58.111208
2022-12-01 14:31:58.119812
2022-12-01 14:31:58.127747
2022-12-01 14:31:58.139227
2022-12-01 14:31:58.148484
2022-12-01 14:31:58.156435
2022-12-01 14:31:58.164667
2022-12-01 14:31:58.176839
2022-12-01 14:31:58.185346
2022-12-01 14:31:58.193120
2022-12-01 14:31:58.205403
2022-12-01 14:31:58.213883
2022-12-01 14:31:58.222024
2022-12-01 14:31:58.231360
2022-12-01 14:31:58.242330
2022-12-01 14:31:58.250709
2022-12-01 14:31:58.259067
2022-12-01 14:31:58.271364
2022-12-01 14:31:58.279288
2022-12-01 14:31:58.287536
2022-12-01 14:31:58.295549
2022-12-01 14:31:58.307818
2022-12-01 14:31:58.316253
2022-12-01 14:31:58.324320
2022-12-01 14:31:58.336878
2022-12-01 14:31:58.344923
2022-12-01 14:31:58.353800
2022-12-01 14:31:58.361328
2022-12-01 14:31:58.373507
2022-12-01 14:31:58.381850
2022-12-01 14:31:58.389870
2022-12-01 14:31:58.402358
2022-12-01 14:31:58.410276
2022-12-01 14:31:58.418112
2022-12-01 14:31:58.426508
2022-12-01 14:31:58.439119
2022-12-01 14:31:58.447522
2022-12-01 14:31:58.455546
2022-12-01 14:31:58.467772
2022-12-01 14:31:58.476121
2022-12-01 14:31:58.484090
2022-12-01 14:31:58.493643
2022-12-01 14:31:58.504654
2022-12-01 14:31:58.512592
2022-12-01 14:31:58.521199
2022-12-01 14:31:58.533375
2022-12-01 14:31:58.541411
2022-12-01 14:31:58.549839
2022-12-01 14:31:58.558052
2022-12-01 14:31:58.570187
2022-12-01 14:31:58.578350
2022-12-01 14:31:58.586473
2022-12-01 14:31:58.598875
2022-12-01 14:31:58.606995
2022-12-01 14:31:58.615738
2022-12-01 14:31:58.623740
2022-12-01 14:31:58.635737
2022-12-01 14:31:58.643682
2022-12-01 14:31:58.651893
2022-12-01 14:31:58.664117
2022-12-01 14:31:58.672950
2022-12-01 14:31:58.680942
2022-12-01 14:31:58.688942
2022-12-01 14:31:58.700926
2022-12-01 14:31:58.709373
2022-12-01 14:31:58.717665
2022-12-01 14:31:58.729923
2022-12-01 14:31:58.738289
2022-12-01 14:31:58.746390
2022-12-01 14:31:58.755564
2022-12-01 14:31:58.766816
2022-12-01 14:31:58.775041
2022-12-01 14:31:58.783266
2022-12-01 14:31:58.791418
2022-12-01 14:31:58.803534
2022-12-01 14:31:58.811946
2022-12-01 14:31:58.820144
2022-12-01 14:31:58.831994
2022-12-01 14:31:58.840571
2022-12-01 14:31:58.848607
2022-12-01 14:31:58.856810
2022-12-01 14:31:58.869289
2022-12-01 14:31:58.877280
2022-12-01 14:31:58.885702
2022-12-01 14:31:58.897779
2022-12-01 14:31:58.906068
2022-12-01 14:31:58.914255
2022-12-01 14:31:58.922469
2022-12-01 14:31:58.934302
2022-12-01 14:31:58.942275
2022-12-01 14:31:58.951255
2022-12-01 14:31:58.963301
2022-12-01 14:31:58.971711
2022-12-01 14:31:58.979940
2022-12-01 14:31:58.987718
2022-12-01 14:31:59.000228
2022-12-01 14:31:59.009147
2022-12-01 14:31:59.017867
2022-12-01 14:31:59.028947
2022-12-01 14:31:59.036935
2022-12-01 14:31:59.045332
2022-12-01 14:31:59.053544
2022-12-01 14:31:59.065785
2022-12-01 14:31:59.073956
2022-12-01 14:31:59.082046
2022-12-01 14:31:59.094200
2022-12-01 14:31:59.102858
2022-12-01 14:31:59.110290
2022-12-01 14:31:59.119163
2022-12-01 14:31:59.131493
2022-12-01 14:31:59.139487
2022-12-01 14:31:59.147809
2022-12-01 14:31:59.159833
2022-12-01 14:31:59.168382
2022-12-01 14:31:59.176621
2022-12-01 14:31:59.185722
2022-12-01 14:31:59.197059
2022-12-01 14:31:59.205180
2022-12-01 14:31:59.213218
2022-12-01 14:31:59.225404
2022-12-01 14:31:59.233176
2022-12-01 14:31:59.241595
2022-12-01 14:31:59.250571
2022-12-01 14:31:59.262124
2022-12-01 14:31:59.270464
2022-12-01 14:31:59.278445
2022-12-01 14:31:59.290680
2022-12-01 14:31:59.298956
2022-12-01 14:31:59.307323
2022-12-01 14:31:59.315266
2022-12-01 14:31:59.327236
2022-12-01 14:31:59.336206
2022-12-01 14:31:59.344182
2022-12-01 14:31:59.356150
2022-12-01 14:31:59.364131
2022-12-01 14:31:59.372657
2022-12-01 14:31:59.381509
2022-12-01 14:31:59.392482
2022-12-01 14:31:59.401571
2022-12-01 14:31:59.409436
2022-12-01 14:31:59.422081
2022-12-01 14:31:59.430293
2022-12-01 14:31:59.438270
2022-12-01 14:31:59.446638
2022-12-01 14:31:59.458653
2022-12-01 14:31:59.466587
2022-12-01 14:31:59.475209
2022-12-01 14:31:59.487294
2022-12-01 14:31:59.495272
2022-12-01 14:31:59.504250
2022-12-01 14:31:59.512227
2022-12-01 14:31:59.524199
2022-12-01 14:31:59.532901
2022-12-01 14:31:59.540875
2022-12-01 14:31:59.552963
2022-12-01 14:31:59.561567
2022-12-01 14:31:59.569214
2022-12-01 14:31:59.578189
2022-12-01 14:31:59.589463
2022-12-01 14:31:59.598432
2022-12-01 14:31:59.606639
2022-12-01 14:31:59.618370
2022-12-01 14:31:59.626823
2022-12-01 14:31:59.634705
2022-12-01 14:31:59.642878
2022-12-01 14:31:59.654845
2022-12-01 14:31:59.663820
2022-12-01 14:31:59.671995
2022-12-01 14:31:59.680776
2022-12-01 14:31:59.692108
2022-12-01 14:31:59.700142
2022-12-01 14:31:59.709057
2022-12-01 14:31:59.721024
2022-12-01 14:31:59.729004
2022-12-01 14:31:59.737038
2022-12-01 14:31:59.746312
2022-12-01 14:31:59.757923
2022-12-01 14:31:59.766083
2022-12-01 14:31:59.774324
2022-12-01 14:31:59.786560
2022-12-01 14:31:59.794660
2022-12-01 14:31:59.804074
2022-12-01 14:31:59.811132
2022-12-01 14:31:59.823301
2022-12-01 14:31:59.831938
2022-12-01 14:31:59.839807
2022-12-01 14:31:59.852062
2022-12-01 14:31:59.860270
2022-12-01 14:31:59.868595
2022-12-01 14:31:59.877287
2022-12-01 14:31:59.889244
2022-12-01 14:31:59.897175
2022-12-01 14:31:59.905292
2022-12-01 14:31:59.917392
2022-12-01 14:31:59.926373
2022-12-01 14:31:59.934225
2022-12-01 14:31:59.942775
2022-12-01 14:31:59.954835
2022-12-01 14:31:59.962797
2022-12-01 14:31:59.971902
2022-12-01 14:31:59.983477
2022-12-01 14:31:59.991500
2022-12-01 14:31:59.999763
2022-12-01 14:32:00.008049
2022-12-01 14:32:00.019721
2022-12-01 14:32:00.028699
2022-12-01 14:32:00.036679
2022-12-01 14:32:00.048643
2022-12-01 14:32:00.057626
2022-12-01 14:32:00.065598
2022-12-01 14:32:00.073574
2022-12-01 14:32:00.085543
2022-12-01 14:32:00.093171
2022-12-01 14:32:00.102124
2022-12-01 14:32:00.114417
2022-12-01 14:32:00.122324
2022-12-01 14:32:00.131050
2022-12-01 14:32:00.139025
2022-12-01 14:32:00.150996
2022-12-01 14:32:00.158972
2022-12-01 14:32:00.166948
2022-12-01 14:32:00.179914
2022-12-01 14:32:00.187891
2022-12-01 14:32:00.195921
2022-12-01 14:32:00.204037
2022-12-01 14:32:00.215817
2022-12-01 14:32:00.224794
2022-12-01 14:32:00.232840
2022-12-01 14:32:00.244740
2022-12-01 14:32:00.252716
2022-12-01 14:32:00.262055
2022-12-01 14:32:00.269885
2022-12-01 14:32:00.282127
2022-12-01 14:32:00.290513
2022-12-01 14:32:00.298179
2022-12-01 14:32:00.310792
2022-12-01 14:32:00.319233
2022-12-01 14:32:00.327616
2022-12-01 14:32:00.335605
2022-12-01 14:32:00.347965
2022-12-01 14:32:00.356178
2022-12-01 14:32:00.364352
2022-12-01 14:32:00.376464
2022-12-01 14:32:00.384750
2022-12-01 14:32:00.392775
2022-12-01 14:32:00.400783
2022-12-01 14:32:00.413386
2022-12-01 14:32:00.421851
2022-12-01 14:32:00.429912
2022-12-01 14:32:00.441995
2022-12-01 14:32:00.450707
2022-12-01 14:32:00.458423
2022-12-01 14:32:00.466672
2022-12-01 14:32:00.479020
2022-12-01 14:32:00.487301
2022-12-01 14:32:00.495237
2022-12-01 14:32:00.503232
2022-12-01 14:32:00.515438
2022-12-01 14:32:00.523480
2022-12-01 14:32:00.531958
2022-12-01 14:32:00.543873
2022-12-01 14:32:00.552658
2022-12-01 14:32:00.560680
2022-12-01 14:32:00.569210
2022-12-01 14:32:00.581300
2022-12-01 14:32:00.589526
2022-12-01 14:32:00.597706
2022-12-01 14:32:00.609332
2022-12-01 14:32:00.618198
2022-12-01 14:32:00.626185
2022-12-01 14:32:00.634659
2022-12-01 14:32:00.646922
2022-12-01 14:32:00.654898
2022-12-01 14:32:00.663382
2022-12-01 14:32:00.675461
2022-12-01 14:32:00.683915
2022-12-01 14:32:00.691863
2022-12-01 14:32:00.700009
2022-12-01 14:32:00.712422
2022-12-01 14:32:00.720593
2022-12-01 14:32:00.729493
2022-12-01 14:32:00.741173
2022-12-01 14:32:00.749160
2022-12-01 14:32:00.757426
2022-12-01 14:32:00.765626
2022-12-01 14:32:00.777415
2022-12-01 14:32:00.786359
2022-12-01 14:32:00.794571
2022-12-01 14:32:00.806500
2022-12-01 14:32:00.814806
2022-12-01 14:32:00.822822
2022-12-01 14:32:00.831186
2022-12-01 14:32:00.843511
2022-12-01 14:32:00.852323
2022-12-01 14:32:00.859989
2022-12-01 14:32:00.872273
2022-12-01 14:32:00.880405
2022-12-01 14:32:00.888561
2022-12-01 14:32:00.896751
2022-12-01 14:32:00.909173
2022-12-01 14:32:00.916406
2022-12-01 14:32:00.925317
2022-12-01 14:32:00.937442
2022-12-01 14:32:00.946055
2022-12-01 14:32:00.954120
2022-12-01 14:32:00.962101
2022-12-01 14:32:00.974487
2022-12-01 14:32:00.982709
2022-12-01 14:32:00.991942
2022-12-01 14:32:01.003241
2022-12-01 14:32:01.011228
2022-12-01 14:32:01.019809
2022-12-01 14:32:01.027563
2022-12-01 14:32:01.039908
2022-12-01 14:32:01.048456
2022-12-01 14:32:01.056444
2022-12-01 14:32:01.068312
2022-12-01 14:32:01.076999
2022-12-01 14:32:01.085539
2022-12-01 14:32:01.092970
2022-12-01 14:32:01.104928
2022-12-01 14:32:01.114304
2022-12-01 14:32:01.122160
2022-12-01 14:32:01.134315
2022-12-01 14:32:01.142493
2022-12-01 14:32:01.150636
2022-12-01 14:32:01.158890
2022-12-01 14:32:01.170742
2022-12-01 14:32:01.179508
2022-12-01 14:32:01.187031
2022-12-01 14:32:01.199971
2022-12-01 14:32:01.208487
2022-12-01 14:32:01.216380
2022-12-01 14:32:01.224406
2022-12-01 14:32:01.236714
2022-12-01 14:32:01.244866
2022-12-01 14:32:01.254264
2022-12-01 14:32:01.265383
2022-12-01 14:32:01.273370
2022-12-01 14:32:01.281953
2022-12-01 14:32:01.290093
2022-12-01 14:32:01.301278
2022-12-01 14:32:01.310777
2022-12-01 14:32:01.318592
2022-12-01 14:32:01.330331
2022-12-01 14:32:01.339247
2022-12-01 14:32:01.346922
2022-12-01 14:32:01.355553
2022-12-01 14:32:01.367884
2022-12-01 14:32:01.376417
2022-12-01 14:32:01.384144
2022-12-01 14:32:01.392435
2022-12-01 14:32:01.404810
2022-12-01 14:32:01.412754
2022-12-01 14:32:01.421045
2022-12-01 14:32:01.433505
2022-12-01 14:32:01.441722
2022-12-01 14:32:01.449887
2022-12-01 14:32:01.457830
2022-12-01 14:32:01.470048
2022-12-01 14:32:01.478332
2022-12-01 14:32:01.486271
2022-12-01 14:32:01.498875
2022-12-01 14:32:01.507043
2022-12-01 14:32:01.516344
2022-12-01 14:32:01.523388
2022-12-01 14:32:01.535423
2022-12-01 14:32:01.544529
2022-12-01 14:32:01.552091
2022-12-01 14:32:01.564085
2022-12-01 14:32:01.572640
2022-12-01 14:32:01.580803
2022-12-01 14:32:01.588912
2022-12-01 14:32:01.601339
2022-12-01 14:32:01.609234
2022-12-01 14:32:01.617668
2022-12-01 14:32:01.629843
2022-12-01 14:32:01.638295
2022-12-01 14:32:01.646386
2022-12-01 14:32:01.655559
2022-12-01 14:32:01.666982
2022-12-01 14:32:01.674931
2022-12-01 14:32:01.683166
2022-12-01 14:32:01.695456
2022-12-01 14:32:01.703562
2022-12-01 14:32:01.711786
2022-12-01 14:32:01.720409
2022-12-01 14:32:01.732329
2022-12-01 14:32:01.740478
2022-12-01 14:32:01.748468
2022-12-01 14:32:01.760956
2022-12-01 14:32:01.768959
2022-12-01 14:32:01.777436
2022-12-01 14:32:01.784925
2022-12-01 14:32:01.797509
2022-12-01 14:32:01.805545
2022-12-01 14:32:01.814458
2022-12-01 14:32:01.826424
2022-12-01 14:32:01.834411
2022-12-01 14:32:01.842452
2022-12-01 14:32:01.851592
2022-12-01 14:32:01.863326
2022-12-01 14:32:01.871310
2022-12-01 14:32:01.879291
2022-12-01 14:32:01.891319
2022-12-01 14:32:01.900297
2022-12-01 14:32:01.908269
2022-12-01 14:32:01.916306
2022-12-01 14:32:01.928225
2022-12-01 14:32:01.937197
2022-12-01 14:32:01.945389
2022-12-01 14:32:01.957475
2022-12-01 14:32:01.965699
2022-12-01 14:32:01.973932
2022-12-01 14:32:01.981920
2022-12-01 14:32:01.994422
2022-12-01 14:32:02.002654
2022-12-01 14:32:02.011165
2022-12-01 14:32:02.023319
2022-12-01 14:32:02.031324
2022-12-01 14:32:02.039543
2022-12-01 14:32:02.047736
2022-12-01 14:32:02.059067
2022-12-01 14:32:02.068615
2022-12-01 14:32:02.075993
2022-12-01 14:32:02.088409
2022-12-01 14:32:02.096906
2022-12-01 14:32:02.105078
2022-12-01 14:32:02.113204
2022-12-01 14:32:02.125578
2022-12-01 14:32:02.134594
2022-12-01 14:32:02.141887
2022-12-01 14:32:02.154060
2022-12-01 14:32:02.162486
2022-12-01 14:32:02.170939
2022-12-01 14:32:02.178874
2022-12-01 14:32:02.190893
2022-12-01 14:32:02.199210
2022-12-01 14:32:02.207323
2022-12-01 14:32:02.219903
2022-12-01 14:32:02.228114
2022-12-01 14:32:02.236174
2022-12-01 14:32:02.244474
2022-12-01 14:32:02.256813
2022-12-01 14:32:02.264820
2022-12-01 14:32:02.274114
2022-12-01 14:32:02.281338
2022-12-01 14:32:02.293666
2022-12-01 14:32:02.301768
2022-12-01 14:32:02.309925
2022-12-01 14:32:02.322054
2022-12-01 14:32:02.330486
2022-12-01 14:32:02.338574
2022-12-01 14:32:02.346704
2022-12-01 14:32:02.358835
2022-12-01 14:32:02.367056
2022-12-01 14:32:02.375463
2022-12-01 14:32:02.387787
2022-12-01 14:32:02.396077
2022-12-01 14:32:02.404087
2022-12-01 14:32:02.413351
2022-12-01 14:32:02.424358
2022-12-01 14:32:02.432701
2022-12-01 14:32:02.440710
2022-12-01 14:32:02.453370
2022-12-01 14:32:02.461314
2022-12-01 14:32:02.469647
2022-12-01 14:32:02.477824
2022-12-01 14:32:02.490085
2022-12-01 14:32:02.498285
2022-12-01 14:32:02.507306
2022-12-01 14:32:02.518955
2022-12-01 14:32:02.526948
2022-12-01 14:32:02.535276
2022-12-01 14:32:02.543390
2022-12-01 14:32:02.555587
2022-12-01 14:32:02.563801
2022-12-01 14:32:02.572012
2022-12-01 14:32:02.584330
2022-12-01 14:32:02.592494
2022-12-01 14:32:02.600574
2022-12-01 14:32:02.608615
2022-12-01 14:32:02.620525
2022-12-01 14:32:02.629595
2022-12-01 14:32:02.637574
2022-12-01 14:32:02.649591
2022-12-01 14:32:02.657829
2022-12-01 14:32:02.666252
2022-12-01 14:32:02.674145
2022-12-01 14:32:02.686834
2022-12-01 14:32:02.695066
2022-12-01 14:32:02.703067
2022-12-01 14:32:02.714824
2022-12-01 14:32:02.722797
2022-12-01 14:32:02.731877
2022-12-01 14:32:02.739755
2022-12-01 14:32:02.751927
2022-12-01 14:32:02.760589
2022-12-01 14:32:02.768126
2022-12-01 14:32:02.780312
2022-12-01 14:32:02.789057
2022-12-01 14:32:02.797047
2022-12-01 14:32:02.805026
2022-12-01 14:32:02.816993
2022-12-01 14:32:02.825968
2022-12-01 14:32:02.834199
2022-12-01 14:32:02.845492
2022-12-01 14:32:02.854464
2022-12-01 14:32:02.862446
2022-12-01 14:32:02.870431
2022-12-01 14:32:02.882398
2022-12-01 14:32:02.891303
2022-12-01 14:32:02.899278
2022-12-01 14:32:02.911609
2022-12-01 14:32:02.920220
2022-12-01 14:32:02.928868
2022-12-01 14:32:02.936176
2022-12-01 14:32:02.948483
2022-12-01 14:32:02.957122
2022-12-01 14:32:02.965338
2022-12-01 14:32:02.977067
2022-12-01 14:32:02.986044
2022-12-01 14:32:02.993125
2022-12-01 14:32:03.002105
2022-12-01 14:32:03.014070
2022-12-01 14:32:03.022049
2022-12-01 14:32:03.030028
2022-12-01 14:32:03.041994
2022-12-01 14:32:03.051293
2022-12-01 14:32:03.059718
2022-12-01 14:32:03.067928
2022-12-01 14:32:03.079894
2022-12-01 14:32:03.087876
2022-12-01 14:32:03.096018
2022-12-01 14:32:03.105153
2022-12-01 14:32:03.116868
2022-12-01 14:32:03.124995
2022-12-01 14:32:03.132819
2022-12-01 14:32:03.144790
2022-12-01 14:32:03.152768
2022-12-01 14:32:03.162065
2022-12-01 14:32:03.169719
2022-12-01 14:32:03.181690
2022-12-01 14:32:03.190238
2022-12-01 14:32:03.198231
2022-12-01 14:32:03.210206
2022-12-01 14:32:03.219175
2022-12-01 14:32:03.227150
2022-12-01 14:32:03.235129
2022-12-01 14:32:03.247283
2022-12-01 14:32:03.256080
2022-12-01 14:32:03.264053
2022-12-01 14:32:03.276096
2022-12-01 14:32:03.283999
2022-12-01 14:32:03.292589
2022-12-01 14:32:03.300562
2022-12-01 14:32:03.312719
2022-12-01 14:32:03.321506
2022-12-01 14:32:03.329494
2022-12-01 14:32:03.341454
2022-12-01 14:32:03.350429
2022-12-01 14:32:03.358407
2022-12-01 14:32:03.366449
2022-12-01 14:32:03.378410
2022-12-01 14:32:03.387332
2022-12-01 14:32:03.395312
2022-12-01 14:32:03.407331
2022-12-01 14:32:03.415312
2022-12-01 14:32:03.424007
2022-12-01 14:32:03.431979
2022-12-01 14:32:03.444501
2022-12-01 14:32:03.452638
2022-12-01 14:32:03.460990
2022-12-01 14:32:03.473331
2022-12-01 14:32:03.481105
2022-12-01 14:32:03.489540
2022-12-01 14:32:03.497924
2022-12-01 14:32:03.510009
2022-12-01 14:32:03.518173
2022-12-01 14:32:03.526266
2022-12-01 14:32:03.538778
2022-12-01 14:32:03.546835
2022-12-01 14:32:03.555101
2022-12-01 14:32:03.563210
2022-12-01 14:32:03.574548
2022-12-01 14:32:03.583892
2022-12-01 14:32:03.592215
2022-12-01 14:32:03.603405
2022-12-01 14:32:03.612389
2022-12-01 14:32:03.620412
2022-12-01 14:32:03.628779
2022-12-01 14:32:03.641214
2022-12-01 14:32:03.648982
2022-12-01 14:32:03.657507
2022-12-01 14:32:03.669058
2022-12-01 14:32:03.678067
2022-12-01 14:32:03.686257
2022-12-01 14:32:03.695141
2022-12-01 14:32:03.706768
2022-12-01 14:32:03.714746
2022-12-01 14:32:03.722902
2022-12-01 14:32:03.735477
2022-12-01 14:32:03.743454
2022-12-01 14:32:03.751688
2022-12-01 14:32:03.759677
2022-12-01 14:32:03.771481
2022-12-01 14:32:03.780286
2022-12-01 14:32:03.787936
2022-12-01 14:32:03.801005
2022-12-01 14:32:03.808967
2022-12-01 14:32:03.817918
2022-12-01 14:32:03.825092
2022-12-01 14:32:03.837650
2022-12-01 14:32:03.845690
2022-12-01 14:32:03.853807
2022-12-01 14:32:03.866337
2022-12-01 14:32:03.874314
2022-12-01 14:32:03.882605
2022-12-01 14:32:03.890272
2022-12-01 14:32:03.902305
2022-12-01 14:32:03.911220
2022-12-01 14:32:03.919631
2022-12-01 14:32:03.931222
2022-12-01 14:32:03.940150
2022-12-01 14:32:03.948353
2022-12-01 14:32:03.956160
2022-12-01 14:32:03.968776
2022-12-01 14:32:03.976853
2022-12-01 14:32:03.985300
2022-12-01 14:32:03.993396
2022-12-01 14:32:04.006509
2022-12-01 14:32:04.013741
2022-12-01 14:32:04.022195
2022-12-01 14:32:04.034316
2022-12-01 14:32:04.042423
2022-12-01 14:32:04.050680
2022-12-01 14:32:04.058797
2022-12-01 14:32:04.071100
2022-12-01 14:32:04.079236
2022-12-01 14:32:04.087544
2022-12-01 14:32:04.099524
2022-12-01 14:32:04.107505
2022-12-01 14:32:04.116481
2022-12-01 14:32:04.124454
2022-12-01 14:32:04.136426
2022-12-01 14:32:04.145056
2022-12-01 14:32:04.153054
2022-12-01 14:32:04.165321
2022-12-01 14:32:04.173573
2022-12-01 14:32:04.181817
2022-12-01 14:32:04.191073
2022-12-01 14:32:04.202321
2022-12-01 14:32:04.210037
2022-12-01 14:32:04.218642
2022-12-01 14:32:04.230892
2022-12-01 14:32:04.239168
2022-12-01 14:32:04.247428
2022-12-01 14:32:04.255453
2022-12-01 14:32:04.267643
2022-12-01 14:32:04.275969
2022-12-01 14:32:04.283997
2022-12-01 14:32:04.296452
2022-12-01 14:32:04.304542
2022-12-01 14:32:04.312891
2022-12-01 14:32:04.320992
2022-12-01 14:32:04.332917
2022-12-01 14:32:04.340943
2022-12-01 14:32:04.349856
2022-12-01 14:32:04.361872
2022-12-01 14:32:04.370150
2022-12-01 14:32:04.378295
2022-12-01 14:32:04.386591
2022-12-01 14:32:04.398866
2022-12-01 14:32:04.406921
2022-12-01 14:32:04.415533
2022-12-01 14:32:04.427444
2022-12-01 14:32:04.435818
2022-12-01 14:32:04.444032
2022-12-01 14:32:04.452177
2022-12-01 14:32:04.464368
2022-12-01 14:32:04.472355
2022-12-01 14:32:04.480832
2022-12-01 14:32:04.493188
2022-12-01 14:32:04.501200
2022-12-01 14:32:04.509389
2022-12-01 14:32:04.517643
2022-12-01 14:32:04.528922
2022-12-01 14:32:04.538304
2022-12-01 14:32:04.545853
2022-12-01 14:32:04.558181
2022-12-01 14:32:04.566917
2022-12-01 14:32:04.575030
2022-12-01 14:32:04.583079
2022-12-01 14:32:04.594916
2022-12-01 14:32:04.603776
2022-12-01 14:32:04.612003
2022-12-01 14:32:04.623171
2022-12-01 14:32:04.632496
2022-12-01 14:32:04.640656
2022-12-01 14:32:04.649164
2022-12-01 14:32:04.660990
2022-12-01 14:32:04.669063
2022-12-01 14:32:04.677509
2022-12-01 14:32:04.689771
2022-12-01 14:32:04.698478
2022-12-01 14:32:04.706067
2022-12-01 14:32:04.714069
2022-12-01 14:32:04.726334
2022-12-01 14:32:04.734754
2022-12-01 14:32:04.743044
2022-12-01 14:32:04.755165
2022-12-01 14:32:04.763225
2022-12-01 14:32:04.771623
2022-12-01 14:32:04.779616
2022-12-01 14:32:04.791760
2022-12-01 14:32:04.800264
2022-12-01 14:32:04.808474
2022-12-01 14:32:04.820918
2022-12-01 14:32:04.828906
2022-12-01 14:32:04.837299
2022-12-01 14:32:04.845171
2022-12-01 14:32:04.857527
2022-12-01 14:32:04.865940
2022-12-01 14:32:04.874152
2022-12-01 14:32:04.882512
2022-12-01 14:32:04.894420
2022-12-01 14:32:04.902578
2022-12-01 14:32:04.911010
2022-12-01 14:32:04.923271
2022-12-01 14:32:04.931222
2022-12-01 14:32:04.939537
2022-12-01 14:32:04.947718
2022-12-01 14:32:04.959839
2022-12-01 14:32:04.968284
2022-12-01 14:32:04.976469
2022-12-01 14:32:04.988807
2022-12-01 14:32:04.996670
2022-12-01 14:32:05.005065
2022-12-01 14:32:05.013053
2022-12-01 14:32:05.025024
2022-12-01 14:32:05.033730
2022-12-01 14:32:05.042133
2022-12-01 14:32:05.054398
2022-12-01 14:32:05.062215
2022-12-01 14:32:05.071368
2022-12-01 14:32:05.079227
2022-12-01 14:32:05.091127
2022-12-01 14:32:05.099248
2022-12-01 14:32:05.107384
2022-12-01 14:32:05.119566
2022-12-01 14:32:05.128017
2022-12-01 14:32:05.135899
2022-12-01 14:32:05.144285
2022-12-01 14:32:05.156642
2022-12-01 14:32:05.164862
2022-12-01 14:32:05.173081
2022-12-01 14:32:05.185399
2022-12-01 14:32:05.193730
2022-12-01 14:32:05.201448
2022-12-01 14:32:05.209683
2022-12-01 14:32:05.222228
2022-12-01 14:32:05.230312
2022-12-01 14:32:05.238661
2022-12-01 14:32:05.250956
2022-12-01 14:32:05.258960
2022-12-01 14:32:05.267164
2022-12-01 14:32:05.275760
2022-12-01 14:32:05.286758
2022-12-01 14:32:05.296277
2022-12-01 14:32:05.303915
2022-12-01 14:32:05.316398
2022-12-01 14:32:05.324667
2022-12-01 14:32:05.333036
2022-12-01 14:32:05.341113
2022-12-01 14:32:05.353229
2022-12-01 14:32:05.361345
2022-12-01 14:32:05.369428
2022-12-01 14:32:05.381864
2022-12-01 14:32:05.390151
2022-12-01 14:32:05.398556
2022-12-01 14:32:05.406535
2022-12-01 14:32:05.418920
2022-12-01 14:32:05.426996
2022-12-01 14:32:05.435115
2022-12-01 14:32:05.447444
2022-12-01 14:32:05.456465
2022-12-01 14:32:05.463886
2022-12-01 14:32:05.472352
2022-12-01 14:32:05.484279
2022-12-01 14:32:05.492409
2022-12-01 14:32:05.500715
2022-12-01 14:32:05.512732
2022-12-01 14:32:05.521088
2022-12-01 14:32:05.529075
2022-12-01 14:32:05.537539
2022-12-01 14:32:05.549096
2022-12-01 14:32:05.558067
2022-12-01 14:32:05.566123
2022-12-01 14:32:05.578493
2022-12-01 14:32:05.586798
2022-12-01 14:32:05.594929
2022-12-01 14:32:05.603121
2022-12-01 14:32:05.615311
2022-12-01 14:32:05.623621
2022-12-01 14:32:05.631609
2022-12-01 14:32:05.643581
2022-12-01 14:32:05.652395
2022-12-01 14:32:05.660383
2022-12-01 14:32:05.668806
2022-12-01 14:32:05.680916
2022-12-01 14:32:05.689148
2022-12-01 14:32:05.697125
2022-12-01 14:32:05.705331
2022-12-01 14:32:05.717551
2022-12-01 14:32:05.725884
2022-12-01 14:32:05.733995
2022-12-01 14:32:05.746223
2022-12-01 14:32:05.754609
2022-12-01 14:32:05.762787
2022-12-01 14:32:05.771041
2022-12-01 14:32:05.783423
2022-12-01 14:32:05.791542
2022-12-01 14:32:05.799685
2022-12-01 14:32:05.811007
2022-12-01 14:32:05.820341
2022-12-01 14:32:05.828296
2022-12-01 14:32:05.836662
2022-12-01 14:32:05.848977
2022-12-01 14:32:05.857093
2022-12-01 14:32:05.864950
2022-12-01 14:32:05.877437
2022-12-01 14:32:05.885755
2022-12-01 14:32:05.893863
2022-12-01 14:32:05.903421
2022-12-01 14:32:05.914288
2022-12-01 14:32:05.922152
2022-12-01 14:32:05.930727
2022-12-01 14:32:05.943174
2022-12-01 14:32:05.950495
2022-12-01 14:32:05.959426
2022-12-01 14:32:05.967690
2022-12-01 14:32:05.979655
2022-12-01 14:32:05.987700
2022-12-01 14:32:05.996613
2022-12-01 14:32:06.008184
2022-12-01 14:32:06.017108
2022-12-01 14:32:06.025085
2022-12-01 14:32:06.033052
2022-12-01 14:32:06.045021
2022-12-01 14:32:06.053005
2022-12-01 14:32:06.062046
2022-12-01 14:32:06.074163
2022-12-01 14:32:06.082430
2022-12-01 14:32:06.090452
2022-12-01 14:32:06.098647
2022-12-01 14:32:06.111139
2022-12-01 14:32:06.119207
2022-12-01 14:32:06.127194
2022-12-01 14:32:06.139480
2022-12-01 14:32:06.147915
2022-12-01 14:32:06.156023
2022-12-01 14:32:06.164187
2022-12-01 14:32:06.176465
2022-12-01 14:32:06.184508
2022-12-01 14:32:06.193129
2022-12-01 14:32:06.204842
2022-12-01 14:32:06.212819
2022-12-01 14:32:06.221797
2022-12-01 14:32:06.230007
2022-12-01 14:32:06.241252
2022-12-01 14:32:06.250228
2022-12-01 14:32:06.259371
2022-12-01 14:32:06.270549
2022-12-01 14:32:06.279408
2022-12-01 14:32:06.286388
2022-12-01 14:32:06.295373
2022-12-01 14:32:06.307206
2022-12-01 14:32:06.315855
2022-12-01 14:32:06.323993
2022-12-01 14:32:06.335800
2022-12-01 14:32:06.343783
2022-12-01 14:32:06.352768
2022-12-01 14:32:06.360981
2022-12-01 14:32:06.372950
2022-12-01 14:32:06.381125
2022-12-01 14:32:06.389287
2022-12-01 14:32:06.401110
2022-12-01 14:32:06.410239
2022-12-01 14:32:06.418055
2022-12-01 14:32:06.426820
2022-12-01 14:32:06.437895
2022-12-01 14:32:06.446750
2022-12-01 14:32:06.455075
2022-12-01 14:32:06.466395
2022-12-01 14:32:06.475005
2022-12-01 14:32:06.483981
2022-12-01 14:32:06.491952
2022-12-01 14:32:06.504032
2022-12-01 14:32:06.512424
2022-12-01 14:32:06.519993
2022-12-01 14:32:06.532682
2022-12-01 14:32:06.541276
2022-12-01 14:32:06.548866
2022-12-01 14:32:06.557815
2022-12-01 14:32:06.568912
2022-12-01 14:32:06.577667
2022-12-01 14:32:06.585645
2022-12-01 14:32:06.594004
2022-12-01 14:32:06.605971
2022-12-01 14:32:06.614950
2022-12-01 14:32:06.622996
2022-12-01 14:32:06.634894
2022-12-01 14:32:06.642876
2022-12-01 14:32:06.651224
2022-12-01 14:32:06.660212
2022-12-01 14:32:06.672166
2022-12-01 14:32:06.680144
2022-12-01 14:32:06.688469
2022-12-01 14:32:06.700948
2022-12-01 14:32:06.708934
2022-12-01 14:32:06.717172
2022-12-01 14:32:06.726158
2022-12-01 14:32:06.737031
2022-12-01 14:32:06.746375
2022-12-01 14:32:06.754288
2022-12-01 14:32:06.766549
2022-12-01 14:32:06.774510
2022-12-01 14:32:06.782455
2022-12-01 14:32:06.791107
2022-12-01 14:32:06.803216
2022-12-01 14:32:06.811485
2022-12-01 14:32:06.819717
2022-12-01 14:32:06.831823
2022-12-01 14:32:06.840110
2022-12-01 14:32:06.848111
2022-12-01 14:32:06.856545
2022-12-01 14:32:06.868846
2022-12-01 14:32:06.876834
2022-12-01 14:32:06.885295
2022-12-01 14:32:06.897402
2022-12-01 14:32:06.905612
2022-12-01 14:32:06.913408
2022-12-01 14:32:06.921996
2022-12-01 14:32:06.934297
2022-12-01 14:32:06.942114
2022-12-01 14:32:06.950099
2022-12-01 14:32:06.962067
2022-12-01 14:32:06.971037
2022-12-01 14:32:06.979096
2022-12-01 14:32:06.987132
2022-12-01 14:32:06.999043
2022-12-01 14:32:07.008142
2022-12-01 14:32:07.016105
2022-12-01 14:32:07.028518
2022-12-01 14:32:07.036369
2022-12-01 14:32:07.044292
2022-12-01 14:32:07.053268
2022-12-01 14:32:07.064426
2022-12-01 14:32:07.073584
2022-12-01 14:32:07.081744
2022-12-01 14:32:07.093174
2022-12-01 14:32:07.102393
2022-12-01 14:32:07.110654
2022-12-01 14:32:07.118644
2022-12-01 14:32:07.131013
2022-12-01 14:32:07.139380
2022-12-01 14:32:07.147128
2022-12-01 14:32:07.159096
2022-12-01 14:32:07.167931
2022-12-01 14:32:07.175940
2022-12-01 14:32:07.184187
2022-12-01 14:32:07.196342
2022-12-01 14:32:07.204595
2022-12-01 14:32:07.212626
2022-12-01 14:32:07.225296
2022-12-01 14:32:07.233656
