2022-12-01 14:31:25.662688, 1.43695
2022-12-01 14:31:25.675046, 1.43695
2022-12-01 14:31:25.683368, 1.46628
2022-12-01 14:31:25.691228, 1.47116
2022-12-01 14:31:25.699626, 1.49071
2022-12-01 14:31:25.710823, 1.51515
2022-12-01 14:31:25.719906, 1.53470
2022-12-01 14:31:25.727950, 1.55425
2022-12-01 14:31:25.736310, 1.57380
2022-12-01 14:31:25.748612, 1.58358
2022-12-01 14:31:25.756236, 1.58847
2022-12-01 14:31:25.764992, 1.59335
2022-12-01 14:31:25.777086, 1.58358
2022-12-01 14:31:25.785583, 1.57869
2022-12-01 14:31:25.793333, 1.56403
2022-12-01 14:31:25.802145, 1.55425
2022-12-01 14:31:25.814323, 1.52981
2022-12-01 14:31:25.822313, 1.52004
2022-12-01 14:31:25.830586, 1.49071
2022-12-01 14:31:25.842618, 1.46628
2022-12-01 14:31:25.851066, 1.44673
2022-12-01 14:31:25.859041, 1.42717
2022-12-01 14:31:25.867320, 1.41251
2022-12-01 14:31:25.878988, 1.39296
2022-12-01 14:31:25.887966, 1.38319
2022-12-01 14:31:25.896528, 1.35875
2022-12-01 14:31:25.907558, 1.36852
2022-12-01 14:31:25.916710, 1.33431
2022-12-01 14:31:25.924511, 1.31965
2022-12-01 14:31:25.932490, 1.30499
2022-12-01 14:31:25.944587, 1.30010
2022-12-01 14:31:25.953536, 1.29032
2022-12-01 14:31:25.961525, 1.28543
2022-12-01 14:31:25.973082, 1.27566
2022-12-01 14:31:25.982093, 1.27077
2022-12-01 14:31:25.990181, 1.26588
2022-12-01 14:31:25.998946, 1.26100
2022-12-01 14:31:26.010513, 1.27077
2022-12-01 14:31:26.018910, 1.25611
2022-12-01 14:31:26.027039, 1.27077
2022-12-01 14:31:26.039355, 1.25122
2022-12-01 14:31:26.047759, 1.26100
2022-12-01 14:31:26.055747, 1.25122
2022-12-01 14:31:26.064108, 1.26100
2022-12-01 14:31:26.076269, 1.29521
2022-12-01 14:31:26.084649, 1.35386
2022-12-01 14:31:26.092818, 1.46139
2022-12-01 14:31:26.104933, 1.58847
2022-12-01 14:31:26.113020, 1.77908
2022-12-01 14:31:26.121519, 1.93548
2022-12-01 14:31:26.129476, 2.11144
2022-12-01 14:31:26.141838, 2.26784
2022-12-01 14:31:26.149749, 2.38514
2022-12-01 14:31:26.159307, 2.47312
2022-12-01 14:31:26.170515, 2.50244
2022-12-01 14:31:26.178963, 2.49756
2022-12-01 14:31:26.186972, 2.45846
2022-12-01 14:31:26.195019, 2.39980
2022-12-01 14:31:26.206712, 2.32160
2022-12-01 14:31:26.214697, 2.23851
2022-12-01 14:31:26.223666, 2.15543
2022-12-01 14:31:26.235687, 2.06745
2022-12-01 14:31:26.243612, 1.97947
2022-12-01 14:31:26.252595, 1.90127
2022-12-01 14:31:26.260567, 1.85239
2022-12-01 14:31:26.272535, 1.74976
2022-12-01 14:31:26.281116, 1.68622
2022-12-01 14:31:26.289289, 1.61779
2022-12-01 14:31:26.301486, 1.56403
2022-12-01 14:31:26.309517, 1.52004
2022-12-01 14:31:26.317898, 1.48094
2022-12-01 14:31:26.326168, 1.45650
2022-12-01 14:31:26.338537, 1.43695
2022-12-01 14:31:26.346770, 1.43206
2022-12-01 14:31:26.354752, 1.43695
2022-12-01 14:31:26.366958, 1.47605
2022-12-01 14:31:26.375306, 1.46139
2022-12-01 14:31:26.383220, 1.48583
2022-12-01 14:31:26.391686, 1.51026
2022-12-01 14:31:26.404378, 1.53470
2022-12-01 14:31:26.412158, 1.55914
2022-12-01 14:31:26.421130, 1.57380
2022-12-01 14:31:26.432653, 1.58847
2022-12-01 14:31:26.440776, 1.59335
2022-12-01 14:31:26.449361, 1.59824
2022-12-01 14:31:26.457310, 1.59335
2022-12-01 14:31:26.468579, 1.58847
2022-12-01 14:31:26.477553, 1.57380
2022-12-01 14:31:26.486163, 1.58358
2022-12-01 14:31:26.498087, 1.53959
2022-12-01 14:31:26.506319, 1.52493
2022-12-01 14:31:26.514723, 1.50538
2022-12-01 14:31:26.523733, 1.48583
2022-12-01 14:31:26.535021, 1.46628
2022-12-01 14:31:26.543263, 1.44184
2022-12-01 14:31:26.551481, 1.42229
2022-12-01 14:31:26.563614, 1.40762
2022-12-01 14:31:26.571923, 1.38807
2022-12-01 14:31:26.580343, 1.37341
2022-12-01 14:31:26.588426, 1.35386
2022-12-01 14:31:26.600411, 1.33920
2022-12-01 14:31:26.608532, 1.32942
2022-12-01 14:31:26.616717, 1.31476
2022-12-01 14:31:26.625274, 1.30499
2022-12-01 14:31:26.637503, 1.29521
2022-12-01 14:31:26.645518, 1.28543
2022-12-01 14:31:26.653515, 1.27566
2022-12-01 14:31:26.666534, 1.27077
2022-12-01 14:31:26.674443, 1.26588
2022-12-01 14:31:26.682702, 1.28055
2022-12-01 14:31:26.690706, 1.25611
2022-12-01 14:31:26.702993, 1.25122
2022-12-01 14:31:26.711065, 1.25122
2022-12-01 14:31:26.719349, 1.24633
2022-12-01 14:31:26.731441, 1.24633
2022-12-01 14:31:26.739925, 1.24633
2022-12-01 14:31:26.747989, 1.26588
2022-12-01 14:31:26.756212, 1.29032
2022-12-01 14:31:26.768491, 1.34409
2022-12-01 14:31:26.776946, 1.43695
2022-12-01 14:31:26.784992, 1.57380
2022-12-01 14:31:26.797209, 1.73509
2022-12-01 14:31:26.805503, 1.91593
2022-12-01 14:31:26.813521, 2.12610
2022-12-01 14:31:26.821986, 2.25806
2022-12-01 14:31:26.834226, 2.38514
2022-12-01 14:31:26.842179, 2.47801
2022-12-01 14:31:26.850215, 2.52199
2022-12-01 14:31:26.862866, 2.54154
2022-12-01 14:31:26.870854, 2.49267
2022-12-01 14:31:26.878833, 2.43891
2022-12-01 14:31:26.886819, 2.36559
2022-12-01 14:31:26.899325, 2.28250
2022-12-01 14:31:26.907701, 2.19453
2022-12-01 14:31:26.915674, 2.11144
2022-12-01 14:31:26.927648, 2.03324
2022-12-01 14:31:26.935621, 1.94526
2022-12-01 14:31:26.944534, 1.86706
2022-12-01 14:31:26.952853, 1.81818
2022-12-01 14:31:26.964848, 1.72532
2022-12-01 14:31:26.973487, 1.66178
2022-12-01 14:31:26.981193, 1.63245
2022-12-01 14:31:26.993822, 1.55425
2022-12-01 14:31:27.001812, 1.51515
2022-12-01 14:31:27.009803, 1.48583
2022-12-01 14:31:27.018330, 1.46139
2022-12-01 14:31:27.030838, 1.45161
2022-12-01 14:31:27.038148, 1.45161
2022-12-01 14:31:27.047011, 1.46628
2022-12-01 14:31:27.059317, 1.48094
2022-12-01 14:31:27.068089, 1.50538
2022-12-01 14:31:27.075877, 1.52493
2022-12-01 14:31:27.083813, 1.54936
2022-12-01 14:31:27.096331, 1.56891
2022-12-01 14:31:27.104320, 1.61290
2022-12-01 14:31:27.112617, 1.60313
2022-12-01 14:31:27.124900, 1.60802
2022-12-01 14:31:27.133115, 1.61290
2022-12-01 14:31:27.141385, 1.61290
2022-12-01 14:31:27.149771, 1.61779
2022-12-01 14:31:27.161617, 1.59335
2022-12-01 14:31:27.170354, 1.57869
2022-12-01 14:31:27.178144, 1.55914
2022-12-01 14:31:27.190790, 1.53959
2022-12-01 14:31:27.198636, 1.52004
2022-12-01 14:31:27.206603, 1.49560
2022-12-01 14:31:27.215170, 1.49071
2022-12-01 14:31:27.227368, 1.45161
2022-12-01 14:31:27.235431, 1.45161
2022-12-01 14:31:27.243740, 1.41251
2022-12-01 14:31:27.256009, 1.39296
2022-12-01 14:31:27.264272, 1.37341
2022-12-01 14:31:27.272261, 1.35875
2022-12-01 14:31:27.280584, 1.35386
2022-12-01 14:31:27.292843, 1.32942
2022-12-01 14:31:27.301029, 1.32454
2022-12-01 14:31:27.309290, 1.30499
2022-12-01 14:31:27.321515, 1.32454
2022-12-01 14:31:27.329544, 1.28543
2022-12-01 14:31:27.338015, 1.30987
2022-12-01 14:31:27.345988, 1.27566
2022-12-01 14:31:27.358355, 1.29521
2022-12-01 14:31:27.366523, 1.26100
2022-12-01 14:31:27.375630, 1.25611
2022-12-01 14:31:27.387063, 1.25611
2022-12-01 14:31:27.395167, 1.25122
2022-12-01 14:31:27.403407, 1.26588
2022-12-01 14:31:27.411362, 1.24633
2022-12-01 14:31:27.423979, 1.24633
2022-12-01 14:31:27.432038, 1.26100
2022-12-01 14:31:27.440218, 1.30499
2022-12-01 14:31:27.448456, 1.37830
2022-12-01 14:31:27.460745, 1.48094
2022-12-01 14:31:27.468975, 1.64223
2022-12-01 14:31:27.477319, 1.79863
2022-12-01 14:31:27.489450, 1.97947
2022-12-01 14:31:27.497701, 2.15054
2022-12-01 14:31:27.505894, 2.29717
2022-12-01 14:31:27.515031, 2.40958
2022-12-01 14:31:27.526290, 2.48289
2022-12-01 14:31:27.534277, 2.50733
2022-12-01 14:31:27.542840, 2.52688
2022-12-01 14:31:27.554980, 2.45846
2022-12-01 14:31:27.563008, 2.39492
2022-12-01 14:31:27.571530, 2.31672
2022-12-01 14:31:27.579671, 2.24340
2022-12-01 14:31:27.591934, 2.15054
2022-12-01 14:31:27.599985, 2.06745
2022-12-01 14:31:27.608047, 1.98436
2022-12-01 14:31:27.620091, 1.90616
2022-12-01 14:31:27.628633, 1.84751
2022-12-01 14:31:27.637652, 1.75953
2022-12-01 14:31:27.645228, 1.69110
2022-12-01 14:31:27.657415, 1.63734
2022-12-01 14:31:27.665576, 1.57869
2022-12-01 14:31:27.673758, 1.55914
2022-12-01 14:31:27.685974, 1.49071
2022-12-01 14:31:27.694178, 1.46628
2022-12-01 14:31:27.702170, 1.44673
2022-12-01 14:31:27.710368, 1.44184
2022-12-01 14:31:27.722909, 1.44673
2022-12-01 14:31:27.730968, 1.45161
2022-12-01 14:31:27.739448, 1.49560
2022-12-01 14:31:27.751495, 1.48583
2022-12-01 14:31:27.760395, 1.53470
2022-12-01 14:31:27.767740, 1.52981
2022-12-01 14:31:27.776700, 1.54936
2022-12-01 14:31:27.788024, 1.56403
2022-12-01 14:31:27.796735, 1.57380
2022-12-01 14:31:27.805126, 1.58847
2022-12-01 14:31:27.816091, 1.57869
2022-12-01 14:31:27.825092, 1.58847
2022-12-01 14:31:27.833047, 1.56891
2022-12-01 14:31:27.842008, 1.55914
2022-12-01 14:31:27.853955, 1.54448
2022-12-01 14:31:27.861930, 1.52493
2022-12-01 14:31:27.869913, 1.50538
2022-12-01 14:31:27.882497, 1.48583
2022-12-01 14:31:27.890854, 1.46139
2022-12-01 14:31:27.899830, 1.44673
2022-12-01 14:31:27.907812, 1.42229
2022-12-01 14:31:27.919456, 1.41251
2022-12-01 14:31:27.927292, 1.38319
2022-12-01 14:31:27.936269, 1.36364
2022-12-01 14:31:27.947510, 1.34897
2022-12-01 14:31:27.956490, 1.33431
2022-12-01 14:31:27.964464, 1.33920
2022-12-01 14:31:27.972443, 1.30499
2022-12-01 14:31:27.984412, 1.30010
2022-12-01 14:31:27.993387, 1.29032
2022-12-01 14:31:28.001365, 1.28055
2022-12-01 14:31:28.013502, 1.27566
2022-12-01 14:31:28.021488, 1.26588
2022-12-01 14:31:28.030459, 1.28543
2022-12-01 14:31:28.038438, 1.25611
2022-12-01 14:31:28.050403, 1.25122
2022-12-01 14:31:28.058384, 1.25122
2022-12-01 14:31:28.066729, 1.24633
2022-12-01 14:31:28.079086, 1.24633
2022-12-01 14:31:28.087306, 1.23656
2022-12-01 14:31:28.095528, 1.24633
2022-12-01 14:31:28.104291, 1.24145
2022-12-01 14:31:28.115343, 1.27077
2022-12-01 14:31:28.124326, 1.29521
2022-12-01 14:31:28.132298, 1.36852
2022-12-01 14:31:28.144612, 1.48583
2022-12-01 14:31:28.152589, 1.63245
2022-12-01 14:31:28.161265, 1.80841
2022-12-01 14:31:28.169576, 1.98925
2022-12-01 14:31:28.181068, 2.16520
2022-12-01 14:31:28.189045, 2.31183
2022-12-01 14:31:28.198256, 2.43402
2022-12-01 14:31:28.209868, 2.49756
2022-12-01 14:31:28.218370, 2.51711
2022-12-01 14:31:28.226350, 2.50733
2022-12-01 14:31:28.235331, 2.46823
2022-12-01 14:31:28.247075, 2.39980
2022-12-01 14:31:28.255775, 2.34115
2022-12-01 14:31:28.263544, 2.23363
2022-12-01 14:31:28.275608, 2.14565
2022-12-01 14:31:28.283752, 2.06256
2022-12-01 14:31:28.292237, 2.00391
2022-12-01 14:31:28.300541, 1.90127
2022-12-01 14:31:28.312611, 1.82307
2022-12-01 14:31:28.320888, 1.75464
2022-12-01 14:31:28.329601, 1.68622
2022-12-01 14:31:28.337592, 1.62268
2022-12-01 14:31:28.349427, 1.57869
2022-12-01 14:31:28.357802, 1.52004
2022-12-01 14:31:28.365789, 1.50049
2022-12-01 14:31:28.377802, 1.45650
2022-12-01 14:31:28.386417, 1.44184
2022-12-01 14:31:28.395060, 1.43206
2022-12-01 14:31:28.402646, 1.43695
2022-12-01 14:31:28.415171, 1.45161
2022-12-01 14:31:28.423336, 1.46628
2022-12-01 14:31:28.431388, 1.51026
2022-12-01 14:31:28.443872, 1.51026
2022-12-01 14:31:28.451941, 1.56403
2022-12-01 14:31:28.460114, 1.54936
2022-12-01 14:31:28.469247, 1.56891
2022-12-01 14:31:28.480655, 1.58358
2022-12-01 14:31:28.488485, 1.58847
2022-12-01 14:31:28.497458, 1.58847
2022-12-01 14:31:28.509341, 1.58358
2022-12-01 14:31:28.518188, 1.58358
2022-12-01 14:31:28.525825, 1.56403
2022-12-01 14:31:28.533822, 1.54448
2022-12-01 14:31:28.546320, 1.52493
2022-12-01 14:31:28.554309, 1.50538
2022-12-01 14:31:28.562535, 1.48583
2022-12-01 14:31:28.574856, 1.46139
2022-12-01 14:31:28.582785, 1.44673
2022-12-01 14:31:28.591447, 1.42229
2022-12-01 14:31:28.599430, 1.41251
2022-12-01 14:31:28.611410, 1.38319
2022-12-01 14:31:28.620051, 1.36852
2022-12-01 14:31:28.628142, 1.35386
2022-12-01 14:31:28.640573, 1.33431
2022-12-01 14:31:28.648605, 1.32454
2022-12-01 14:31:28.656656, 1.30987
2022-12-01 14:31:28.665165, 1.30987
2022-12-01 14:31:28.677388, 1.29032
2022-12-01 14:31:28.685384, 1.28055
2022-12-01 14:31:28.693779, 1.27077
2022-12-01 14:31:28.705918, 1.26588
2022-12-01 14:31:28.714117, 1.26100
2022-12-01 14:31:28.721953, 1.25122
2022-12-01 14:31:28.730526, 1.25122
2022-12-01 14:31:28.742824, 1.24633
2022-12-01 14:31:28.751177, 1.26100
2022-12-01 14:31:28.759337, 1.24145
2022-12-01 14:31:28.771505, 1.23656
2022-12-01 14:31:28.780124, 1.24145
2022-12-01 14:31:28.788332, 1.24145
2022-12-01 14:31:28.796225, 1.25611
2022-12-01 14:31:28.808319, 1.28543
2022-12-01 14:31:28.816492, 1.35875
2022-12-01 14:31:28.824893, 1.46139
2022-12-01 14:31:28.837168, 1.60313
2022-12-01 14:31:28.845143, 1.77419
2022-12-01 14:31:28.853354, 1.95015
2022-12-01 14:31:28.861342, 2.15543
2022-12-01 14:31:28.872934, 2.28250
2022-12-01 14:31:28.882144, 2.39980
2022-12-01 14:31:28.890219, 2.47801
2022-12-01 14:31:28.902668, 2.50733
2022-12-01 14:31:28.910748, 2.50244
2022-12-01 14:31:28.918906, 2.45846
2022-12-01 14:31:28.927304, 2.40469
2022-12-01 14:31:28.939377, 2.32160
2022-12-01 14:31:28.947689, 2.23851
2022-12-01 14:31:28.955899, 2.17986
2022-12-01 14:31:28.968039, 2.07234
2022-12-01 14:31:28.976284, 1.98436
2022-12-01 14:31:28.984274, 1.93060
2022-12-01 14:31:28.992852, 1.82796
2022-12-01 14:31:29.004987, 1.76442
2022-12-01 14:31:29.013092, 1.68622
2022-12-01 14:31:29.021522, 1.62757
2022-12-01 14:31:29.033624, 1.56891
2022-12-01 14:31:29.041906, 1.52004
2022-12-01 14:31:29.050265, 1.48583
2022-12-01 14:31:29.058066, 1.45161
2022-12-01 14:31:29.070545, 1.43695
2022-12-01 14:31:29.078587, 1.42717
2022-12-01 14:31:29.087479, 1.43695
2022-12-01 14:31:29.099015, 1.44184
2022-12-01 14:31:29.107372, 1.48094
2022-12-01 14:31:29.115539, 1.48583
2022-12-01 14:31:29.123852, 1.51026
2022-12-01 14:31:29.135954, 1.53470
2022-12-01 14:31:29.144232, 1.55425
2022-12-01 14:31:29.152219, 1.57380
2022-12-01 14:31:29.164219, 1.58358
2022-12-01 14:31:29.172915, 1.59824
2022-12-01 14:31:29.181022, 1.58847
2022-12-01 14:31:29.189465, 1.58358
2022-12-01 14:31:29.201466, 1.57869
2022-12-01 14:31:29.210550, 1.56403
2022-12-01 14:31:29.217732, 1.54936
2022-12-01 14:31:29.226281, 1.53470
2022-12-01 14:31:29.238539, 1.52004
2022-12-01 14:31:29.246624, 1.49560
2022-12-01 14:31:29.254825, 1.49071
2022-12-01 14:31:29.267087, 1.45161
2022-12-01 14:31:29.275255, 1.45650
2022-12-01 14:31:29.283709, 1.40762
2022-12-01 14:31:29.291696, 1.38807
2022-12-01 14:31:29.303625, 1.36852
2022-12-01 14:31:29.312240, 1.35386
2022-12-01 14:31:29.320363, 1.33920
2022-12-01 14:31:29.332635, 1.32454
2022-12-01 14:31:29.340869, 1.31476
2022-12-01 14:31:29.349158, 1.30010
2022-12-01 14:31:29.357312, 1.30499
2022-12-01 14:31:29.369449, 1.28055
2022-12-01 14:31:29.377434, 1.27077
2022-12-01 14:31:29.386403, 1.26100
2022-12-01 14:31:29.397590, 1.26100
2022-12-01 14:31:29.406364, 1.26100
2022-12-01 14:31:29.414965, 1.25122
2022-12-01 14:31:29.422900, 1.24633
2022-12-01 14:31:29.434938, 1.24145
2022-12-01 14:31:29.443257, 1.23656
2022-12-01 14:31:29.451348, 1.23656
2022-12-01 14:31:29.463584, 1.23167
2022-12-01 14:31:29.472062, 1.26100
2022-12-01 14:31:29.480175, 1.25122
2022-12-01 14:31:29.488354, 1.28543
2022-12-01 14:31:29.500342, 1.35875
2022-12-01 14:31:29.508313, 1.46139
2022-12-01 14:31:29.516924, 1.60313
2022-12-01 14:31:29.528861, 1.77419
2022-12-01 14:31:29.536844, 1.95503
2022-12-01 14:31:29.546113, 2.14076
2022-12-01 14:31:29.553796, 2.28739
2022-12-01 14:31:29.566134, 2.41935
2022-12-01 14:31:29.574228, 2.47801
2022-12-01 14:31:29.583682, 2.50733
2022-12-01 14:31:29.594865, 2.50244
2022-12-01 14:31:29.602852, 2.45357
2022-12-01 14:31:29.611068, 2.39003
2022-12-01 14:31:29.619044, 2.31183
2022-12-01 14:31:29.631547, 2.23363
2022-12-01 14:31:29.639531, 2.14076
2022-12-01 14:31:29.648500, 2.05279
2022-12-01 14:31:29.659470, 1.96970
2022-12-01 14:31:29.668482, 1.89150
2022-12-01 14:31:29.676592, 1.82796
2022-12-01 14:31:29.684894, 1.74487
2022-12-01 14:31:29.696978, 1.70577
2022-12-01 14:31:29.705599, 1.61290
2022-12-01 14:31:29.714027, 1.55914
2022-12-01 14:31:29.725676, 1.52004
2022-12-01 14:31:29.734298, 1.47605
2022-12-01 14:31:29.742206, 1.45161
2022-12-01 14:31:29.750533, 1.43695
2022-12-01 14:31:29.762811, 1.43206
2022-12-01 14:31:29.770844, 1.45161
2022-12-01 14:31:29.779199, 1.45161
2022-12-01 14:31:29.791533, 1.47116
2022-12-01 14:31:29.799418, 1.49560
2022-12-01 14:31:29.807778, 1.52004
2022-12-01 14:31:29.815332, 1.56891
2022-12-01 14:31:29.828438, 1.56403
2022-12-01 14:31:29.836444, 1.57869
2022-12-01 14:31:29.845636, 1.59824
2022-12-01 14:31:29.857025, 1.59824
2022-12-01 14:31:29.865500, 1.61779
2022-12-01 14:31:29.873314, 1.59824
2022-12-01 14:31:29.881474, 1.59824
2022-12-01 14:31:29.893871, 1.57869
2022-12-01 14:31:29.901910, 1.56403
2022-12-01 14:31:29.909905, 1.54936
2022-12-01 14:31:29.922111, 1.52493
2022-12-01 14:31:29.930460, 1.52004
2022-12-01 14:31:29.938549, 1.48583
2022-12-01 14:31:29.947033, 1.46628
2022-12-01 14:31:29.959324, 1.44673
2022-12-01 14:31:29.968120, 1.42717
2022-12-01 14:31:29.975784, 1.40762
2022-12-01 14:31:29.987981, 1.39296
2022-12-01 14:31:29.996300, 1.40274
2022-12-01 14:31:30.004477, 1.35875
2022-12-01 14:31:30.012505, 1.34897
2022-12-01 14:31:30.024879, 1.33431
2022-12-01 14:31:30.033303, 1.32454
2022-12-01 14:31:30.041399, 1.33920
2022-12-01 14:31:30.053496, 1.30499
2022-12-01 14:31:30.061940, 1.29521
2022-12-01 14:31:30.070078, 1.29521
2022-12-01 14:31:30.078223, 1.28543
2022-12-01 14:31:30.090319, 1.28543
2022-12-01 14:31:30.098683, 1.27566
2022-12-01 14:31:30.106834, 1.27566
2022-12-01 14:31:30.114805, 1.27077
2022-12-01 14:31:30.126930, 1.26588
2022-12-01 14:31:30.134917, 1.26588
2022-12-01 14:31:30.143895, 1.26100
2022-12-01 14:31:30.155861, 1.28055
2022-12-01 14:31:30.163842, 1.29521
2022-12-01 14:31:30.171968, 1.34409
2022-12-01 14:31:30.180796, 1.43206
2022-12-01 14:31:30.192763, 1.55425
2022-12-01 14:31:30.200742, 1.73998
2022-12-01 14:31:30.210028, 1.88172
2022-12-01 14:31:30.221472, 2.05767
2022-12-01 14:31:30.229539, 2.21896
2022-12-01 14:31:30.237883, 2.35093
2022-12-01 14:31:30.245936, 2.44379
2022-12-01 14:31:30.258682, 2.49756
2022-12-01 14:31:30.266565, 2.50733
2022-12-01 14:31:30.274576, 2.48289
2022-12-01 14:31:30.287009, 2.42913
2022-12-01 14:31:30.295209, 2.36070
2022-12-01 14:31:30.303432, 2.27761
2022-12-01 14:31:30.311644, 2.20430
2022-12-01 14:31:30.323848, 2.11144
2022-12-01 14:31:30.332251, 2.02346
2022-12-01 14:31:30.340238, 1.94037
2022-12-01 14:31:30.352363, 1.86217
2022-12-01 14:31:30.360750, 1.79374
2022-12-01 14:31:30.368937, 1.71554
2022-12-01 14:31:30.377830, 1.65200
2022-12-01 14:31:30.389436, 1.61290
2022-12-01 14:31:30.398134, 1.54448
2022-12-01 14:31:30.405994, 1.50049
2022-12-01 14:31:30.418279, 1.47605
2022-12-01 14:31:30.426280, 1.45161
2022-12-01 14:31:30.434497, 1.44673
2022-12-01 14:31:30.443403, 1.44673
2022-12-01 14:31:30.455146, 1.47605
2022-12-01 14:31:30.463141, 1.47605
2022-12-01 14:31:30.471407, 1.50049
2022-12-01 14:31:30.483677, 1.52493
2022-12-01 14:31:30.491910, 1.54936
2022-12-01 14:31:30.500006, 1.56891
2022-12-01 14:31:30.508655, 1.58847
2022-12-01 14:31:30.520182, 1.61779
2022-12-01 14:31:30.528149, 1.61290
2022-12-01 14:31:30.537238, 1.61779
2022-12-01 14:31:30.549199, 1.62268
2022-12-01 14:31:30.557331, 1.61290
2022-12-01 14:31:30.565546, 1.59824
2022-12-01 14:31:30.573846, 1.58358
2022-12-01 14:31:30.585916, 1.56403
2022-12-01 14:31:30.594214, 1.56891
2022-12-01 14:31:30.602201, 1.52493
2022-12-01 14:31:30.613696, 1.50049
2022-12-01 14:31:30.622976, 1.48583
2022-12-01 14:31:30.631238, 1.46139
2022-12-01 14:31:30.639455, 1.45650
2022-12-01 14:31:30.651525, 1.41740
2022-12-01 14:31:30.659307, 1.40274
2022-12-01 14:31:30.668179, 1.39785
2022-12-01 14:31:30.680218, 1.36852
2022-12-01 14:31:30.688474, 1.35386
2022-12-01 14:31:30.696572, 1.33920
2022-12-01 14:31:30.705684, 1.32942
2022-12-01 14:31:30.717037, 1.31965
2022-12-01 14:31:30.725450, 1.31476
2022-12-01 14:31:30.733482, 1.30987
2022-12-01 14:31:30.745570, 1.30010
2022-12-01 14:31:30.753751, 1.30987
2022-12-01 14:31:30.762549, 1.29032
2022-12-01 14:31:30.770348, 1.29032
2022-12-01 14:31:30.782032, 1.28543
2022-12-01 14:31:30.790981, 1.28055
2022-12-01 14:31:30.799063, 1.29521
2022-12-01 14:31:30.811374, 1.27566
2022-12-01 14:31:30.819483, 1.27566
2022-12-01 14:31:30.828396, 1.29032
2022-12-01 14:31:30.835821, 1.32454
2022-12-01 14:31:30.848095, 1.40274
2022-12-01 14:31:30.856883, 1.49071
2022-12-01 14:31:30.863880, 1.62757
2022-12-01 14:31:30.876904, 1.79863
2022-12-01 14:31:30.884878, 1.97458
2022-12-01 14:31:30.892859, 2.15543
2022-12-01 14:31:30.901208, 2.29717
2022-12-01 14:31:30.913678, 2.41935
2022-12-01 14:31:30.922377, 2.49756
2022-12-01 14:31:30.930111, 2.53177
2022-12-01 14:31:30.938097, 2.52688
2022-12-01 14:31:30.950676, 2.48778
2022-12-01 14:31:30.958412, 2.43402
2022-12-01 14:31:30.966984, 2.35093
2022-12-01 14:31:30.979030, 2.27273
2022-12-01 14:31:30.986943, 2.18964
2022-12-01 14:31:30.994927, 2.10655
2022-12-01 14:31:31.003898, 2.02346
2022-12-01 14:31:31.015868, 1.94526
2022-12-01 14:31:31.023915, 1.86706
2022-12-01 14:31:31.032887, 1.79374
2022-12-01 14:31:31.043862, 1.72532
2022-12-01 14:31:31.052831, 1.68622
2022-12-01 14:31:31.061387, 1.60802
2022-12-01 14:31:31.069129, 1.56403
2022-12-01 14:31:31.081098, 1.52981
2022-12-01 14:31:31.089123, 1.50538
2022-12-01 14:31:31.098291, 1.48583
2022-12-01 14:31:31.110020, 1.48583
2022-12-01 14:31:31.118059, 1.49071
2022-12-01 14:31:31.126974, 1.50538
2022-12-01 14:31:31.134961, 1.52004
2022-12-01 14:31:31.146963, 1.53959
2022-12-01 14:31:31.154906, 1.56403
2022-12-01 14:31:31.162938, 1.58847
2022-12-01 14:31:31.174849, 1.61290
2022-12-01 14:31:31.183867, 1.63245
2022-12-01 14:31:31.191804, 1.66178
2022-12-01 14:31:31.199824, 1.65200
2022-12-01 14:31:31.212744, 1.65200
2022-12-01 14:31:31.220385, 1.65200
2022-12-01 14:31:31.229353, 1.64223
2022-12-01 14:31:31.241334, 1.63245
2022-12-01 14:31:31.249307, 1.61779
2022-12-01 14:31:31.257402, 1.60313
2022-12-01 14:31:31.266258, 1.58358
2022-12-01 14:31:31.277284, 1.56403
2022-12-01 14:31:31.286208, 1.54936
2022-12-01 14:31:31.295294, 1.52981
2022-12-01 14:31:31.306521, 1.52981
2022-12-01 14:31:31.315126, 1.50049
2022-12-01 14:31:31.323602, 1.49071
2022-12-01 14:31:31.331794, 1.50049
2022-12-01 14:31:31.343548, 1.49071
2022-12-01 14:31:31.352237, 1.50049
2022-12-01 14:31:31.360555, 1.52004
2022-12-01 14:31:31.371833, 1.54448
2022-12-01 14:31:31.380451, 1.59824
2022-12-01 14:31:31.388646, 1.62268
2022-12-01 14:31:31.397406, 1.67155
2022-12-01 14:31:31.408375, 1.73021
2022-12-01 14:31:31.417352, 1.78397
2022-12-01 14:31:31.426172, 1.86217
2022-12-01 14:31:31.436966, 1.88661
2022-12-01 14:31:31.446134, 1.91593
2022-12-01 14:31:31.453923, 1.93548
2022-12-01 14:31:31.462898, 1.93548
2022-12-01 14:31:31.474838, 1.92571
2022-12-01 14:31:31.482389, 1.91105
2022-12-01 14:31:31.491476, 1.90127
2022-12-01 14:31:31.503456, 1.90127
2022-12-01 14:31:31.511788, 1.93060
2022-12-01 14:31:31.519272, 1.96970
2022-12-01 14:31:31.528489, 2.03812
2022-12-01 14:31:31.539585, 2.13099
2022-12-01 14:31:31.548431, 2.23851
2022-12-01 14:31:31.556411, 2.35093
2022-12-01 14:31:31.568495, 2.42913
2022-12-01 14:31:31.577355, 2.51711
2022-12-01 14:31:31.585339, 2.52199
2022-12-01 14:31:31.593311, 2.52688
2022-12-01 14:31:31.605391, 2.49267
2022-12-01 14:31:31.614256, 2.44379
2022-12-01 14:31:31.622104, 2.37048
2022-12-01 14:31:31.634214, 2.28739
2022-12-01 14:31:31.643056, 2.20430
2022-12-01 14:31:31.651006, 2.11632
2022-12-01 14:31:31.659231, 2.02835
2022-12-01 14:31:31.670953, 1.94526
2022-12-01 14:31:31.679816, 1.86217
2022-12-01 14:31:31.687908, 1.79374
2022-12-01 14:31:31.700160, 1.72043
2022-12-01 14:31:31.707872, 1.65200
2022-12-01 14:31:31.716305, 1.58847
2022-12-01 14:31:31.725150, 1.53470
2022-12-01 14:31:31.737117, 1.49071
2022-12-01 14:31:31.745172, 1.45161
2022-12-01 14:31:31.753388, 1.44673
2022-12-01 14:31:31.765615, 1.40762
2022-12-01 14:31:31.773903, 1.41740
2022-12-01 14:31:31.781711, 1.40762
2022-12-01 14:31:31.790392, 1.42229
2022-12-01 14:31:31.802147, 1.44184
2022-12-01 14:31:31.810601, 1.46139
2022-12-01 14:31:31.818442, 1.50049
2022-12-01 14:31:31.827258, 1.50049
2022-12-01 14:31:31.839312, 1.51515
2022-12-01 14:31:31.847512, 1.52493
2022-12-01 14:31:31.855508, 1.53470
2022-12-01 14:31:31.868085, 1.54936
2022-12-01 14:31:31.876402, 1.52493
2022-12-01 14:31:31.884875, 1.51515
2022-12-01 14:31:31.892622, 1.51026
2022-12-01 14:31:31.904497, 1.49071
2022-12-01 14:31:31.913594, 1.50049
2022-12-01 14:31:31.921591, 1.45161
2022-12-01 14:31:31.933510, 1.43695
2022-12-01 14:31:31.941957, 1.41740
2022-12-01 14:31:31.949922, 1.39296
2022-12-01 14:31:31.958230, 1.38319
2022-12-01 14:31:31.970420, 1.35386
2022-12-01 14:31:31.978842, 1.33920
2022-12-01 14:31:31.986766, 1.32942
2022-12-01 14:31:31.999045, 1.30499
2022-12-01 14:31:32.007380, 1.32454
2022-12-01 14:31:32.015575, 1.28055
2022-12-01 14:31:32.024296, 1.27077
2022-12-01 14:31:32.036101, 1.26588
2022-12-01 14:31:32.044294, 1.25611
2022-12-01 14:31:32.052174, 1.27566
2022-12-01 14:31:32.064934, 1.23656
2022-12-01 14:31:32.072883, 1.23656
2022-12-01 14:31:32.081230, 1.23167
2022-12-01 14:31:32.089799, 1.22678
2022-12-01 14:31:32.101195, 1.24633
2022-12-01 14:31:32.109778, 1.21701
2022-12-01 14:31:32.118139, 1.21212
2022-12-01 14:31:32.130146, 1.21212
2022-12-01 14:31:32.138656, 1.20723
2022-12-01 14:31:32.146617, 1.24145
2022-12-01 14:31:32.154923, 1.23656
2022-12-01 14:31:32.167070, 1.28543
2022-12-01 14:31:32.175271, 1.36852
2022-12-01 14:31:32.183259, 1.48583
2022-12-01 14:31:32.195866, 1.63734
2022-12-01 14:31:32.204031, 1.81329
2022-12-01 14:31:32.212228, 1.98436
2022-12-01 14:31:32.220177, 2.17009
2022-12-01 14:31:32.232243, 2.28250
2022-12-01 14:31:32.240429, 2.38025
2022-12-01 14:31:32.249200, 2.43402
2022-12-01 14:31:32.261242, 2.44868
2022-12-01 14:31:32.269144, 2.42913
2022-12-01 14:31:32.277132, 2.38514
2022-12-01 14:31:32.286101, 2.31672
2022-12-01 14:31:32.298070, 2.24340
2022-12-01 14:31:32.306045, 2.17009
2022-12-01 14:31:32.314547, 2.09189
2022-12-01 14:31:32.326974, 2.00880
2022-12-01 14:31:32.334749, 1.94037
2022-12-01 14:31:32.343249, 1.86706
2022-12-01 14:31:32.351470, 1.80841
2022-12-01 14:31:32.363694, 1.73509
2022-12-01 14:31:32.371892, 1.67644
2022-12-01 14:31:32.381021, 1.62268
2022-12-01 14:31:32.392052, 1.57380
2022-12-01 14:31:32.399976, 1.55425
2022-12-01 14:31:32.408739, 1.50538
2022-12-01 14:31:32.416937, 1.48583
2022-12-01 14:31:32.429314, 1.48583
2022-12-01 14:31:32.437401, 1.48094
2022-12-01 14:31:32.445726, 1.49071
2022-12-01 14:31:32.457432, 1.50538
2022-12-01 14:31:32.466246, 1.52493
2022-12-01 14:31:32.473990, 1.55425
2022-12-01 14:31:32.482381, 1.56403
2022-12-01 14:31:32.494901, 1.57869
2022-12-01 14:31:32.503154, 1.59335
2022-12-01 14:31:32.511148, 1.59824
2022-12-01 14:31:32.523340, 1.61779
2022-12-01 14:31:32.531576, 1.59335
2022-12-01 14:31:32.539848, 1.58358
2022-12-01 14:31:32.548126, 1.57869
2022-12-01 14:31:32.560075, 1.55914
2022-12-01 14:31:32.568056, 1.53959
2022-12-01 14:31:32.577093, 1.52004
2022-12-01 14:31:32.589158, 1.49560
2022-12-01 14:31:32.597218, 1.49560
2022-12-01 14:31:32.605356, 1.45650
2022-12-01 14:31:32.613332, 1.43695
2022-12-01 14:31:32.626046, 1.42229
2022-12-01 14:31:32.634146, 1.40274
2022-12-01 14:31:32.642706, 1.38807
2022-12-01 14:31:32.654571, 1.37341
2022-12-01 14:31:32.662558, 1.35875
2022-12-01 14:31:32.671036, 1.34409
2022-12-01 14:31:32.679288, 1.32942
2022-12-01 14:31:32.691333, 1.32454
2022-12-01 14:31:32.699598, 1.33920
2022-12-01 14:31:32.707721, 1.30499
2022-12-01 14:31:32.716135, 1.30010
2022-12-01 14:31:32.728416, 1.30987
2022-12-01 14:31:32.736333, 1.29032
2022-12-01 14:31:32.744605, 1.28055
2022-12-01 14:31:32.757033, 1.27566
2022-12-01 14:31:32.765289, 1.27077
2022-12-01 14:31:32.773321, 1.27566
2022-12-01 14:31:32.781336, 1.26100
2022-12-01 14:31:32.793964, 1.25611
2022-12-01 14:31:32.802231, 1.25122
2022-12-01 14:31:32.810164, 1.26588
2022-12-01 14:31:32.822552, 1.29032
2022-12-01 14:31:32.830780, 1.33920
2022-12-01 14:31:32.839003, 1.43695
2022-12-01 14:31:32.846967, 1.54448
2022-12-01 14:31:32.859237, 1.69599
2022-12-01 14:31:32.867543, 1.87195
2022-12-01 14:31:32.875613, 2.03812
2022-12-01 14:31:32.888202, 2.18964
2022-12-01 14:31:32.896245, 2.32649
2022-12-01 14:31:32.904328, 2.39980
2022-12-01 14:31:32.912311, 2.46334
2022-12-01 14:31:32.924681, 2.45357
2022-12-01 14:31:32.933144, 2.42424
2022-12-01 14:31:32.941236, 2.37537
2022-12-01 14:31:32.952774, 2.30205
2022-12-01 14:31:32.961907, 2.22874
2022-12-01 14:31:32.969885, 2.15543
2022-12-01 14:31:32.978115, 2.07234
2022-12-01 14:31:32.990531, 1.99902
2022-12-01 14:31:32.998396, 1.93060
2022-12-01 14:31:33.006768, 1.85728
2022-12-01 14:31:33.018863, 1.79374
2022-12-01 14:31:33.027135, 1.73021
2022-12-01 14:31:33.035172, 1.67155
2022-12-01 14:31:33.044006, 1.62268
2022-12-01 14:31:33.055971, 1.57380
2022-12-01 14:31:33.063959, 1.53959
2022-12-01 14:31:33.072507, 1.52004
2022-12-01 14:31:33.084629, 1.50049
2022-12-01 14:31:33.092390, 1.50049
2022-12-01 14:31:33.101004, 1.50049
2022-12-01 14:31:33.109175, 1.52493
2022-12-01 14:31:33.121237, 1.52493
2022-12-01 14:31:33.129581, 1.54448
2022-12-01 14:31:33.137864, 1.56891
2022-12-01 14:31:33.150298, 1.57869
2022-12-01 14:31:33.158438, 1.59335
2022-12-01 14:31:33.166402, 1.60313
2022-12-01 14:31:33.174751, 1.60802
2022-12-01 14:31:33.187105, 1.63734
2022-12-01 14:31:33.195361, 1.60313
2022-12-01 14:31:33.203339, 1.59335
2022-12-01 14:31:33.215627, 1.57869
2022-12-01 14:31:33.223461, 1.56403
2022-12-01 14:31:33.231684, 1.54448
2022-12-01 14:31:33.240320, 1.52493
2022-12-01 14:31:33.252369, 1.50049
2022-12-01 14:31:33.260551, 1.50538
2022-12-01 14:31:33.269110, 1.46628
2022-12-01 14:31:33.281187, 1.44673
2022-12-01 14:31:33.289285, 1.43206
2022-12-01 14:31:33.297553, 1.40762
2022-12-01 14:31:33.305357, 1.39296
2022-12-01 14:31:33.318355, 1.37830
2022-12-01 14:31:33.326370, 1.36364
2022-12-01 14:31:33.334880, 1.34897
2022-12-01 14:31:33.346561, 1.34409
2022-12-01 14:31:33.354551, 1.32942
2022-12-01 14:31:33.362998, 1.34897
2022-12-01 14:31:33.371353, 1.31476
2022-12-01 14:31:33.383542, 1.30499
2022-12-01 14:31:33.391953, 1.30010
2022-12-01 14:31:33.399902, 1.29521
2022-12-01 14:31:33.411720, 1.29032
2022-12-01 14:31:33.420487, 1.28055
2022-12-01 14:31:33.428825, 1.28055
2022-12-01 14:31:33.436807, 1.28055
2022-12-01 14:31:33.449177, 1.26588
2022-12-01 14:31:33.457372, 1.26588
2022-12-01 14:31:33.465488, 1.27077
2022-12-01 14:31:33.477897, 1.27566
2022-12-01 14:31:33.485930, 1.30499
2022-12-01 14:31:33.493967, 1.36364
2022-12-01 14:31:33.502156, 1.45161
2022-12-01 14:31:33.514838, 1.60802
2022-12-01 14:31:33.522182, 1.73509
2022-12-01 14:31:33.530902, 1.90616
2022-12-01 14:31:33.543391, 2.07722
2022-12-01 14:31:33.551584, 2.22385
2022-12-01 14:31:33.559862, 2.34115
2022-12-01 14:31:33.568879, 2.42424
2022-12-01 14:31:33.580109, 2.45846
2022-12-01 14:31:33.588097, 2.45357
2022-12-01 14:31:33.596418, 2.41935
2022-12-01 14:31:33.604876, 2.39492
2022-12-01 14:31:33.616988, 2.29717
2022-12-01 14:31:33.625185, 2.21896
2022-12-01 14:31:33.633492, 2.13587
2022-12-01 14:31:33.645607, 2.06256
2022-12-01 14:31:33.654096, 1.98436
2022-12-01 14:31:33.662187, 1.90616
2022-12-01 14:31:33.670458, 1.83284
2022-12-01 14:31:33.682560, 1.78886
2022-12-01 14:31:33.691008, 1.71065
2022-12-01 14:31:33.698683, 1.65200
2022-12-01 14:31:33.710650, 1.59824
2022-12-01 14:31:33.719435, 1.55914
2022-12-01 14:31:33.727675, 1.52493
2022-12-01 14:31:33.736012, 1.50538
2022-12-01 14:31:33.748124, 1.49560
2022-12-01 14:31:33.756291, 1.49071
2022-12-01 14:31:33.764513, 1.49560
2022-12-01 14:31:33.776989, 1.51026
2022-12-01 14:31:33.785313, 1.53959
2022-12-01 14:31:33.793223, 1.54448
2022-12-01 14:31:33.801667, 1.56403
2022-12-01 14:31:33.813525, 1.58358
2022-12-01 14:31:33.821925, 1.59335
2022-12-01 14:31:33.829800, 1.62757
2022-12-01 14:31:33.842565, 1.60313
2022-12-01 14:31:33.850560, 1.60313
2022-12-01 14:31:33.858722, 1.59824
2022-12-01 14:31:33.866709, 1.58847
2022-12-01 14:31:33.878338, 1.57380
2022-12-01 14:31:33.887491, 1.55425
2022-12-01 14:31:33.895532, 1.53470
2022-12-01 14:31:33.907508, 1.51515
2022-12-01 14:31:33.915478, 1.49560
2022-12-01 14:31:33.923788, 1.47605
2022-12-01 14:31:33.932506, 1.45650
2022-12-01 14:31:33.944930, 1.43695
2022-12-01 14:31:33.952886, 1.41740
2022-12-01 14:31:33.961092, 1.39785
2022-12-01 14:31:33.973368, 1.39785
2022-12-01 14:31:33.981735, 1.36852
2022-12-01 14:31:33.989569, 1.35386
2022-12-01 14:31:33.997905, 1.34897
2022-12-01 14:31:34.010320, 1.33431
2022-12-01 14:31:34.018869, 1.32454
2022-12-01 14:31:34.026832, 1.31965
2022-12-01 14:31:34.038963, 1.30987
2022-12-01 14:31:34.047597, 1.32454
2022-12-01 14:31:34.055512, 1.29521
2022-12-01 14:31:34.063519, 1.29032
2022-12-01 14:31:34.075882, 1.29032
2022-12-01 14:31:34.083982, 1.28055
2022-12-01 14:31:34.092252, 1.27566
2022-12-01 14:31:34.104528, 1.27077
2022-12-01 14:31:34.112707, 1.27077
2022-12-01 14:31:34.120876, 1.26588
2022-12-01 14:31:34.129259, 1.26588
2022-12-01 14:31:34.141163, 1.27566
2022-12-01 14:31:34.149598, 1.30987
2022-12-01 14:31:34.157873, 1.36364
2022-12-01 14:31:34.170180, 1.45650
2022-12-01 14:31:34.178422, 1.58847
2022-12-01 14:31:34.186307, 1.73998
2022-12-01 14:31:34.194649, 1.91105
2022-12-01 14:31:34.207009, 2.08211
2022-12-01 14:31:34.215034, 2.22874
2022-12-01 14:31:34.223311, 2.36070
2022-12-01 14:31:34.234979, 2.42913
2022-12-01 14:31:34.243919, 2.46334
2022-12-01 14:31:34.252103, 2.48289
2022-12-01 14:31:34.260191, 2.42913
2022-12-01 14:31:34.272529, 2.37537
2022-12-01 14:31:34.279983, 2.30694
2022-12-01 14:31:34.289023, 2.22874
2022-12-01 14:31:34.301137, 2.15054
2022-12-01 14:31:34.309355, 2.07722
2022-12-01 14:31:34.317366, 2.00880
2022-12-01 14:31:34.325499, 1.93060
2022-12-01 14:31:34.337466, 1.88172
2022-12-01 14:31:34.345506, 1.79374
2022-12-01 14:31:34.354540, 1.73021
2022-12-01 14:31:34.366449, 1.67155
2022-12-01 14:31:34.374523, 1.61779
2022-12-01 14:31:34.382423, 1.57380
2022-12-01 14:31:34.391398, 1.53470
2022-12-01 14:31:34.403433, 1.51026
2022-12-01 14:31:34.411755, 1.49560
2022-12-01 14:31:34.419890, 1.48583
2022-12-01 14:31:34.428107, 1.49071
2022-12-01 14:31:34.440527, 1.50049
2022-12-01 14:31:34.448523, 1.51515
2022-12-01 14:31:34.456795, 1.53959
2022-12-01 14:31:34.469004, 1.55425
2022-12-01 14:31:34.477426, 1.56891
2022-12-01 14:31:34.485556, 1.58847
2022-12-01 14:31:34.494743, 1.59335
2022-12-01 14:31:34.506048, 1.59824
2022-12-01 14:31:34.514079, 1.60313
2022-12-01 14:31:34.522262, 1.59335
2022-12-01 14:31:34.534591, 1.58358
2022-12-01 14:31:34.542729, 1.57380
2022-12-01 14:31:34.551157, 1.55914
2022-12-01 14:31:34.559375, 1.56891
2022-12-01 14:31:34.571597, 1.52493
2022-12-01 14:31:34.579567, 1.50049
2022-12-01 14:31:34.587546, 1.51026
2022-12-01 14:31:34.600170, 1.45650
2022-12-01 14:31:34.608356, 1.43695
2022-12-01 14:31:34.617159, 1.43206
2022-12-01 14:31:34.632116, 1.40274
2022-12-01 14:31:34.641090, 1.38319
2022-12-01 14:31:34.645166, 1.36852
2022-12-01 14:31:34.653146, 1.35386
2022-12-01 14:31:34.665473, 1.33920
2022-12-01 14:31:34.673847, 1.32942
2022-12-01 14:31:34.682127, 1.31965
2022-12-01 14:31:34.690265, 1.30987
2022-12-01 14:31:34.702582, 1.30499
2022-12-01 14:31:34.711777, 1.29521
2022-12-01 14:31:34.718833, 1.29032
2022-12-01 14:31:34.731174, 1.28543
2022-12-01 14:31:34.739398, 1.28055
2022-12-01 14:31:34.747387, 1.29521
2022-12-01 14:31:34.756018, 1.27077
2022-12-01 14:31:34.767471, 1.26588
2022-12-01 14:31:34.776441, 1.26588
2022-12-01 14:31:34.784439, 1.25611
2022-12-01 14:31:34.796453, 1.26100
2022-12-01 14:31:34.804551, 1.27566
2022-12-01 14:31:34.813453, 1.30499
2022-12-01 14:31:34.821328, 1.39785
2022-12-01 14:31:34.833526, 1.46628
2022-12-01 14:31:34.841511, 1.60313
2022-12-01 14:31:34.849593, 1.76931
2022-12-01 14:31:34.861455, 1.93548
2022-12-01 14:31:34.870615, 2.10166
2022-12-01 14:31:34.878875, 2.26295
2022-12-01 14:31:34.886586, 2.36559
2022-12-01 14:31:34.899059, 2.43402
2022-12-01 14:31:34.907028, 2.47312
2022-12-01 14:31:34.915694, 2.45846
2022-12-01 14:31:34.927368, 2.42424
2022-12-01 14:31:34.935351, 2.36070
2022-12-01 14:31:34.944319, 2.28739
2022-12-01 14:31:34.952414, 2.22874
2022-12-01 14:31:34.964395, 2.13099
2022-12-01 14:31:34.972309, 2.05279
2022-12-01 14:31:34.981280, 1.97947
2022-12-01 14:31:34.993250, 1.90616
2022-12-01 14:31:35.001227, 1.83773
2022-12-01 14:31:35.009405, 1.77908
2022-12-01 14:31:35.018185, 1.70577
2022-12-01 14:31:35.029716, 1.65200
2022-12-01 14:31:35.037848, 1.60802
2022-12-01 14:31:35.046669, 1.55425
2022-12-01 14:31:35.058701, 1.52004
2022-12-01 14:31:35.066672, 1.49560
2022-12-01 14:31:35.075043, 1.47605
2022-12-01 14:31:35.084022, 1.47116
2022-12-01 14:31:35.095845, 1.47116
2022-12-01 14:31:35.103698, 1.48094
2022-12-01 14:31:35.111665, 1.50538
2022-12-01 14:31:35.123634, 1.51026
2022-12-01 14:31:35.132695, 1.52493
2022-12-01 14:31:35.140498, 1.54448
2022-12-01 14:31:35.149473, 1.55425
2022-12-01 14:31:35.160456, 1.55914
2022-12-01 14:31:35.168842, 1.56891
2022-12-01 14:31:35.177693, 1.56403
2022-12-01 14:31:35.189662, 1.57380
2022-12-01 14:31:35.197640, 1.54936
2022-12-01 14:31:35.206615, 1.53470
2022-12-01 14:31:35.214686, 1.52493
2022-12-01 14:31:35.225647, 1.49560
2022-12-01 14:31:35.234994, 1.47605
2022-12-01 14:31:35.243383, 1.45650
2022-12-01 14:31:35.255531, 1.43206
2022-12-01 14:31:35.263572, 1.44184
2022-12-01 14:31:35.271998, 1.39296
2022-12-01 14:31:35.280295, 1.37341
2022-12-01 14:31:35.292467, 1.36364
2022-12-01 14:31:35.300603, 1.33431
2022-12-01 14:31:35.309480, 1.32454
2022-12-01 14:31:35.317097, 1.30987
2022-12-01 14:31:35.329349, 1.29521
2022-12-01 14:31:35.337354, 1.30987
2022-12-01 14:31:35.345451, 1.27077
2022-12-01 14:31:35.357079, 1.26100
2022-12-01 14:31:35.366085, 1.25611
2022-12-01 14:31:35.374388, 1.25122
2022-12-01 14:31:35.382397, 1.24145
2022-12-01 14:31:35.394800, 1.24145
2022-12-01 14:31:35.403143, 1.23167
2022-12-01 14:31:35.411129, 1.22678
2022-12-01 14:31:35.423094, 1.22678
2022-12-01 14:31:35.431770, 1.22190
2022-12-01 14:31:35.439804, 1.22678
2022-12-01 14:31:35.447947, 1.21701
2022-12-01 14:31:35.460342, 1.21701
2022-12-01 14:31:35.468530, 1.22678
2022-12-01 14:31:35.476843, 1.24633
2022-12-01 14:31:35.489035, 1.29521
2022-12-01 14:31:35.497179, 1.38319
2022-12-01 14:31:35.505519, 1.50049
2022-12-01 14:31:35.513471, 1.65200
2022-12-01 14:31:35.526011, 1.82796
2022-12-01 14:31:35.534196, 1.99413
2022-12-01 14:31:35.542471, 2.15054
2022-12-01 14:31:35.554531, 2.28250
2022-12-01 14:31:35.562714, 2.36559
2022-12-01 14:31:35.570842, 2.40958
2022-12-01 14:31:35.579058, 2.43891
2022-12-01 14:31:35.591286, 2.39003
2022-12-01 14:31:35.599526, 2.33627
2022-12-01 14:31:35.607497, 2.27761
2022-12-01 14:31:35.619100, 2.19453
2022-12-01 14:31:35.628175, 2.11632
2022-12-01 14:31:35.636576, 2.03812
2022-12-01 14:31:35.644260, 1.96481
2022-12-01 14:31:35.656852, 1.91593
2022-12-01 14:31:35.664880, 1.82307
2022-12-01 14:31:35.672824, 1.75953
2022-12-01 14:31:35.684777, 1.69599
2022-12-01 14:31:35.693753, 1.66667
2022-12-01 14:31:35.701773, 1.58358
2022-12-01 14:31:35.710073, 1.53470
2022-12-01 14:31:35.722057, 1.49560
2022-12-01 14:31:35.730368, 1.46139
2022-12-01 14:31:35.738868, 1.43695
2022-12-01 14:31:35.750940, 1.42717
2022-12-01 14:31:35.759245, 1.42229
2022-12-01 14:31:35.767557, 1.42717
2022-12-01 14:31:35.776074, 1.44184
2022-12-01 14:31:35.788032, 1.45650
2022-12-01 14:31:35.796219, 1.50049
2022-12-01 14:31:35.804335, 1.48583
2022-12-01 14:31:35.816850, 1.50538
2022-12-01 14:31:35.824848, 1.52004
2022-12-01 14:31:35.833175, 1.52493
2022-12-01 14:31:35.841242, 1.52493
2022-12-01 14:31:35.853386, 1.52493
2022-12-01 14:31:35.861879, 1.51515
2022-12-01 14:31:35.870049, 1.50049
2022-12-01 14:31:35.882337, 1.49071
2022-12-01 14:31:35.890478, 1.47116
2022-12-01 14:31:35.898381, 1.45161
2022-12-01 14:31:35.907177, 1.45161
2022-12-01 14:31:35.918645, 1.40762
2022-12-01 14:31:35.927429, 1.39296
2022-12-01 14:31:35.935479, 1.39785
2022-12-01 14:31:35.947677, 1.35386
2022-12-01 14:31:35.956005, 1.33431
2022-12-01 14:31:35.963879, 1.33920
2022-12-01 14:31:35.972342, 1.30010
2022-12-01 14:31:35.984671, 1.29032
2022-12-01 14:31:35.992983, 1.30499
2022-12-01 14:31:36.001393, 1.26100
2022-12-01 14:31:36.013198, 1.25122
2022-12-01 14:31:36.021430, 1.24145
2022-12-01 14:31:36.029658, 1.22678
2022-12-01 14:31:36.038725, 1.22190
2022-12-01 14:31:36.050116, 1.21212
2022-12-01 14:31:36.058144, 1.21212
2022-12-01 14:31:36.066530, 1.21212
2022-12-01 14:31:36.078946, 1.19746
2022-12-01 14:31:36.086947, 1.19746
2022-12-01 14:31:36.095287, 1.19746
2022-12-01 14:31:36.103275, 1.19257
2022-12-01 14:31:36.115334, 1.18768
2022-12-01 14:31:36.123887, 1.18768
2022-12-01 14:31:36.132340, 1.18768
2022-12-01 14:31:36.140420, 1.20235
2022-12-01 14:31:36.152648, 1.22678
2022-12-01 14:31:36.161633, 1.28055
2022-12-01 14:31:36.169386, 1.37830
2022-12-01 14:31:36.181113, 1.50049
2022-12-01 14:31:36.189096, 1.66178
2022-12-01 14:31:36.197551, 1.84262
2022-12-01 14:31:36.205794, 2.01369
2022-12-01 14:31:36.218316, 2.16520
2022-12-01 14:31:36.226334, 2.29717
2022-12-01 14:31:36.234484, 2.37537
2022-12-01 14:31:36.246739, 2.41447
2022-12-01 14:31:36.254897, 2.41447
2022-12-01 14:31:36.263156, 2.37537
2022-12-01 14:31:36.271160, 2.31672
2022-12-01 14:31:36.283576, 2.25318
2022-12-01 14:31:36.291908, 2.16520
2022-12-01 14:31:36.299881, 2.08700
2022-12-01 14:31:36.312482, 2.00391
2022-12-01 14:31:36.320251, 1.92571
2022-12-01 14:31:36.329174, 1.85728
2022-12-01 14:31:36.336620, 1.79863
2022-12-01 14:31:36.349151, 1.72043
2022-12-01 14:31:36.357343, 1.65200
2022-12-01 14:31:36.365467, 1.60313
2022-12-01 14:31:36.377922, 1.54448
2022-12-01 14:31:36.386085, 1.49560
2022-12-01 14:31:36.394588, 1.48583
2022-12-01 14:31:36.402429, 1.42229
2022-12-01 14:31:36.414421, 1.40762
2022-12-01 14:31:36.422399, 1.40274
2022-12-01 14:31:36.430771, 1.40274
2022-12-01 14:31:36.442794, 1.41740
2022-12-01 14:31:36.450739, 1.42717
2022-12-01 14:31:36.459705, 1.44184
2022-12-01 14:31:36.467683, 1.48583
2022-12-01 14:31:36.479660, 1.48583
2022-12-01 14:31:36.488629, 1.50049
2022-12-01 14:31:36.496606, 1.53959
2022-12-01 14:31:36.508581, 1.52493
2022-12-01 14:31:36.516554, 1.52493
2022-12-01 14:31:36.525434, 1.54936
2022-12-01 14:31:36.533735, 1.51026
2022-12-01 14:31:36.545701, 1.50538
2022-12-01 14:31:36.553859, 1.51515
2022-12-01 14:31:36.562044, 1.47116
2022-12-01 14:31:36.574853, 1.45161
2022-12-01 14:31:36.582637, 1.44673
2022-12-01 14:31:36.590709, 1.41251
2022-12-01 14:31:36.598695, 1.39296
2022-12-01 14:31:36.611287, 1.37341
2022-12-01 14:31:36.619743, 1.35875
2022-12-01 14:31:36.627676, 1.33431
2022-12-01 14:31:36.639902, 1.31965
2022-12-01 14:31:36.648148, 1.30499
2022-12-01 14:31:36.656264, 1.28543
2022-12-01 14:31:36.664411, 1.27566
2022-12-01 14:31:36.676908, 1.26100
2022-12-01 14:31:36.684905, 1.25122
2022-12-01 14:31:36.693409, 1.25611
2022-12-01 14:31:36.705527, 1.23656
2022-12-01 14:31:36.713583, 1.22678
2022-12-01 14:31:36.722047, 1.22190
2022-12-01 14:31:36.730148, 1.21212
2022-12-01 14:31:36.742452, 1.20723
2022-12-01 14:31:36.750879, 1.20235
2022-12-01 14:31:36.758932, 1.19746
2022-12-01 14:31:36.771031, 1.22190
2022-12-01 14:31:36.779231, 1.19257
2022-12-01 14:31:36.787363, 1.19257
2022-12-01 14:31:36.795558, 1.21701
2022-12-01 14:31:36.807766, 1.18280
2022-12-01 14:31:36.816072, 1.19257
2022-12-01 14:31:36.824253, 1.21212
2022-12-01 14:31:36.836610, 1.24145
2022-12-01 14:31:36.844938, 1.31965
2022-12-01 14:31:36.852660, 1.45650
2022-12-01 14:31:36.861148, 1.57380
2022-12-01 14:31:36.873342, 1.73998
2022-12-01 14:31:36.881589, 1.93548
2022-12-01 14:31:36.889642, 2.08211
2022-12-01 14:31:36.901682, 2.22385
2022-12-01 14:31:36.910484, 2.33627
2022-12-01 14:31:36.918370, 2.39980
2022-12-01 14:31:36.926390, 2.41935
2022-12-01 14:31:36.939058, 2.40469
2022-12-01 14:31:36.947631, 2.36070
2022-12-01 14:31:36.955281, 2.29228
2022-12-01 14:31:36.967532, 2.21408
2022-12-01 14:31:36.975990, 2.15543
2022-12-01 14:31:36.984025, 2.05279
2022-12-01 14:31:36.992299, 1.97458
2022-12-01 14:31:37.004332, 1.89150
2022-12-01 14:31:37.012265, 1.82307
2022-12-01 14:31:37.021019, 1.74976
2022-12-01 14:31:37.029165, 1.68622
2022-12-01 14:31:37.041156, 1.61779
2022-12-01 14:31:37.049342, 1.55914
2022-12-01 14:31:37.057635, 1.52004
2022-12-01 14:31:37.070034, 1.46139
2022-12-01 14:31:37.078196, 1.43206
2022-12-01 14:31:37.086272, 1.40762
2022-12-01 14:31:37.094600, 1.38807
2022-12-01 14:31:37.106875, 1.38807
2022-12-01 14:31:37.115033, 1.38807
2022-12-01 14:31:37.123361, 1.40274
2022-12-01 14:31:37.135127, 1.45161
2022-12-01 14:31:37.143918, 1.44184
2022-12-01 14:31:37.151904, 1.46628
2022-12-01 14:31:37.160150, 1.49071
2022-12-01 14:31:37.172554, 1.50538
2022-12-01 14:31:37.180209, 1.52004
2022-12-01 14:31:37.188642, 1.53470
2022-12-01 14:31:37.201116, 1.52981
2022-12-01 14:31:37.209808, 1.52981
2022-12-01 14:31:37.217570, 1.52493
2022-12-01 14:31:37.226283, 1.51515
2022-12-01 14:31:37.238061, 1.52493
2022-12-01 14:31:37.246274, 1.48094
2022-12-01 14:31:37.254364, 1.46139
2022-12-01 14:31:37.266606, 1.44184
2022-12-01 14:31:37.275074, 1.42229
2022-12-01 14:31:37.283205, 1.40274
2022-12-01 14:31:37.291614, 1.37830
2022-12-01 14:31:37.303235, 1.37341
2022-12-01 14:31:37.311751, 1.34409
2022-12-01 14:31:37.319755, 1.32942
2022-12-01 14:31:37.332019, 1.31965
2022-12-01 14:31:37.340350, 1.30010
2022-12-01 14:31:37.349113, 1.28543
2022-12-01 14:31:37.356917, 1.27077
2022-12-01 14:31:37.369155, 1.26100
2022-12-01 14:31:37.377323, 1.27077
2022-12-01 14:31:37.385311, 1.24145
2022-12-01 14:31:37.397282, 1.23167
2022-12-01 14:31:37.405319, 1.22190
2022-12-01 14:31:37.414243, 1.22190
2022-12-01 14:31:37.422212, 1.20723
2022-12-01 14:31:37.434417, 1.20723
2022-12-01 14:31:37.442334, 1.20235
2022-12-01 14:31:37.450943, 1.19746
2022-12-01 14:31:37.462964, 1.19746
2022-12-01 14:31:37.471212, 1.20723
2022-12-01 14:31:37.479867, 1.19257
2022-12-01 14:31:37.487849, 1.18768
2022-12-01 14:31:37.499811, 1.21701
2022-12-01 14:31:37.507782, 1.21212
2022-12-01 14:31:37.516766, 1.26100
2022-12-01 14:31:37.528738, 1.37341
2022-12-01 14:31:37.536371, 1.46628
2022-12-01 14:31:37.545357, 1.61779
2022-12-01 14:31:37.553547, 1.78886
2022-12-01 14:31:37.565449, 1.96481
2022-12-01 14:31:37.573332, 2.13099
2022-12-01 14:31:37.582246, 2.26784
2022-12-01 14:31:37.594222, 2.37048
2022-12-01 14:31:37.602198, 2.41935
2022-12-01 14:31:37.610179, 2.43402
2022-12-01 14:31:37.619149, 2.41447
2022-12-01 14:31:37.631116, 2.36070
2022-12-01 14:31:37.639270, 2.29228
2022-12-01 14:31:37.647248, 2.21408
2022-12-01 14:31:37.659538, 2.13099
2022-12-01 14:31:37.668194, 2.04301
2022-12-01 14:31:37.676172, 1.96481
2022-12-01 14:31:37.684158, 1.88172
2022-12-01 14:31:37.696118, 1.80841
2022-12-01 14:31:37.704147, 1.75464
2022-12-01 14:31:37.713074, 1.66667
2022-12-01 14:31:37.725041, 1.60802
2022-12-01 14:31:37.733019, 1.54936
2022-12-01 14:31:37.741995, 1.50049
2022-12-01 14:31:37.749974, 1.45650
2022-12-01 14:31:37.761941, 1.42717
2022-12-01 14:31:37.769920, 1.40762
2022-12-01 14:31:37.778895, 1.39296
2022-12-01 14:31:37.790865, 1.41251
2022-12-01 14:31:37.798892, 1.39296
2022-12-01 14:31:37.806821, 1.40762
2022-12-01 14:31:37.815808, 1.44184
2022-12-01 14:31:37.826826, 1.44673
2022-12-01 14:31:37.836087, 1.47116
2022-12-01 14:31:37.844067, 1.49560
2022-12-01 14:31:37.856073, 1.51026
2022-12-01 14:31:37.864007, 1.52493
2022-12-01 14:31:37.872983, 1.53959
2022-12-01 14:31:37.881277, 1.54448
2022-12-01 14:31:37.892979, 1.54448
2022-12-01 14:31:37.900976, 1.54936
2022-12-01 14:31:37.908995, 1.53470
2022-12-01 14:31:37.917963, 1.52004
2022-12-01 14:31:37.930356, 1.50538
2022-12-01 14:31:37.938624, 1.48094
2022-12-01 14:31:37.946839, 1.48094
2022-12-01 14:31:37.959027, 1.44673
2022-12-01 14:31:37.967380, 1.42717
2022-12-01 14:31:37.974978, 1.41251
2022-12-01 14:31:37.983234, 1.38807
2022-12-01 14:31:37.995767, 1.37830
2022-12-01 14:31:38.004118, 1.35875
2022-12-01 14:31:38.012327, 1.34897
2022-12-01 14:31:38.024406, 1.32942
2022-12-01 14:31:38.033451, 1.31476
2022-12-01 14:31:38.040942, 1.30987
2022-12-01 14:31:38.049024, 1.29032
2022-12-01 14:31:38.061327, 1.28055
2022-12-01 14:31:38.069481, 1.27077
2022-12-01 14:31:38.077821, 1.26100
2022-12-01 14:31:38.090018, 1.27077
2022-12-01 14:31:38.098017, 1.24145
2022-12-01 14:31:38.106311, 1.24145
2022-12-01 14:31:38.114303, 1.26588
2022-12-01 14:31:38.126882, 1.23167
2022-12-01 14:31:38.134525, 1.22678
2022-12-01 14:31:38.142937, 1.22678
2022-12-01 14:31:38.155332, 1.21701
2022-12-01 14:31:38.163677, 1.21701
2022-12-01 14:31:38.171889, 1.23167
2022-12-01 14:31:38.180208, 1.23167
2022-12-01 14:31:38.192470, 1.26100
2022-12-01 14:31:38.201191, 1.33920
2022-12-01 14:31:38.209121, 1.42229
2022-12-01 14:31:38.221023, 1.55425
2022-12-01 14:31:38.229276, 1.72043
2022-12-01 14:31:38.237805, 1.88661
2022-12-01 14:31:38.245789, 2.05767
2022-12-01 14:31:38.257751, 2.21896
2022-12-01 14:31:38.266068, 2.32649
2022-12-01 14:31:38.273918, 2.40958
2022-12-01 14:31:38.286410, 2.44868
2022-12-01 14:31:38.295053, 2.44868
2022-12-01 14:31:38.302908, 2.41935
2022-12-01 14:31:38.311574, 2.36559
2022-12-01 14:31:38.322688, 2.29228
2022-12-01 14:31:38.331670, 2.20919
2022-12-01 14:31:38.339725, 2.13587
2022-12-01 14:31:38.352025, 2.05279
2022-12-01 14:31:38.360006, 1.96970
2022-12-01 14:31:38.368250, 1.88661
2022-12-01 14:31:38.377120, 1.81329
2022-12-01 14:31:38.388090, 1.73998
2022-12-01 14:31:38.397066, 1.69599
2022-12-01 14:31:38.405674, 1.61290
2022-12-01 14:31:38.416902, 1.55425
2022-12-01 14:31:38.425909, 1.50538
2022-12-01 14:31:38.433754, 1.46628
2022-12-01 14:31:38.442729, 1.43206
2022-12-01 14:31:38.453700, 1.43206
2022-12-01 14:31:38.462023, 1.40274
2022-12-01 14:31:38.470960, 1.40274
2022-12-01 14:31:38.482864, 1.43206
2022-12-01 14:31:38.491127, 1.41740
2022-12-01 14:31:38.499102, 1.43695
2022-12-01 14:31:38.508198, 1.47605
2022-12-01 14:31:38.519834, 1.48583
2022-12-01 14:31:38.528255, 1.50538
2022-12-01 14:31:38.536746, 1.52981
2022-12-01 14:31:38.548196, 1.53959
2022-12-01 14:31:38.556704, 1.55425
2022-12-01 14:31:38.564693, 1.56403
2022-12-01 14:31:38.573662, 1.56403
2022-12-01 14:31:38.584636, 1.55914
2022-12-01 14:31:38.593612, 1.55425
2022-12-01 14:31:38.601823, 1.53959
2022-12-01 14:31:38.613552, 1.52981
2022-12-01 14:31:38.622530, 1.53959
2022-12-01 14:31:38.630506, 1.49560
2022-12-01 14:31:38.638488, 1.48094
2022-12-01 14:31:38.650458, 1.47605
2022-12-01 14:31:38.659432, 1.44673
2022-12-01 14:31:38.667408, 1.42717
2022-12-01 14:31:38.679756, 1.41251
2022-12-01 14:31:38.687640, 1.39296
2022-12-01 14:31:38.696218, 1.37341
2022-12-01 14:31:38.704293, 1.36364
2022-12-01 14:31:38.715693, 1.34409
2022-12-01 14:31:38.724839, 1.33431
2022-12-01 14:31:38.732855, 1.32454
2022-12-01 14:31:38.741424, 1.31476
2022-12-01 14:31:38.752903, 1.30010
2022-12-01 14:31:38.761582, 1.29521
2022-12-01 14:31:38.770118, 1.28055
2022-12-01 14:31:38.782025, 1.30499
2022-12-01 14:31:38.790168, 1.27077
2022-12-01 14:31:38.798355, 1.26100
2022-12-01 14:31:38.807126, 1.25611
2022-12-01 14:31:38.819091, 1.25122
2022-12-01 14:31:38.827071, 1.24633
2022-12-01 14:31:38.835054, 1.26100
2022-12-01 14:31:38.846956, 1.24633
2022-12-01 14:31:38.855871, 1.25611
2022-12-01 14:31:38.863906, 1.29032
2022-12-01 14:31:38.871828, 1.35875
2022-12-01 14:31:38.884790, 1.45161
2022-12-01 14:31:38.892767, 1.58847
2022-12-01 14:31:38.900752, 1.76442
2022-12-01 14:31:38.912719, 1.93060
2022-12-01 14:31:38.921275, 2.09677
2022-12-01 14:31:38.930522, 2.24829
2022-12-01 14:31:38.937836, 2.37048
2022-12-01 14:31:38.950123, 2.44379
2022-12-01 14:31:38.958331, 2.48289
2022-12-01 14:31:38.966456, 2.48289
2022-12-01 14:31:38.978458, 2.44868
2022-12-01 14:31:38.986992, 2.39492
2022-12-01 14:31:38.995574, 2.32160
2022-12-01 14:31:39.003812, 2.24340
2022-12-01 14:31:39.015573, 2.15543
2022-12-01 14:31:39.023990, 2.07234
2022-12-01 14:31:39.031873, 1.98925
2022-12-01 14:31:39.044354, 1.91105
2022-12-01 14:31:39.053210, 1.83284
2022-12-01 14:31:39.060891, 1.75953
2022-12-01 14:31:39.069151, 1.69599
2022-12-01 14:31:39.081196, 1.65200
2022-12-01 14:31:39.089385, 1.57380
2022-12-01 14:31:39.097652, 1.52004
2022-12-01 14:31:39.109932, 1.48094
2022-12-01 14:31:39.118128, 1.45161
2022-12-01 14:31:39.126414, 1.42229
2022-12-01 14:31:39.134815, 1.41251
2022-12-01 14:31:39.146791, 1.41740
2022-12-01 14:31:39.154977, 1.40762
2022-12-01 14:31:39.163242, 1.42229
2022-12-01 14:31:39.175408, 1.44184
2022-12-01 14:31:39.183489, 1.45650
2022-12-01 14:31:39.191938, 1.48094
2022-12-01 14:31:39.200096, 1.50049
2022-12-01 14:31:39.212279, 1.52004
2022-12-01 14:31:39.220335, 1.53470
2022-12-01 14:31:39.228656, 1.54936
2022-12-01 14:31:39.240306, 1.55425
2022-12-01 14:31:39.248753, 1.56891
2022-12-01 14:31:39.257292, 1.55425
2022-12-01 14:31:39.265201, 1.54448
2022-12-01 14:31:39.278010, 1.53470
2022-12-01 14:31:39.285944, 1.52493
2022-12-01 14:31:39.294182, 1.50049
2022-12-01 14:31:39.306536, 1.48583
2022-12-01 14:31:39.314648, 1.47116
2022-12-01 14:31:39.323007, 1.45161
2022-12-01 14:31:39.330907, 1.43206
2022-12-01 14:31:39.343559, 1.41251
2022-12-01 14:31:39.351574, 1.39296
2022-12-01 14:31:39.360540, 1.37830
2022-12-01 14:31:39.372083, 1.36852
2022-12-01 14:31:39.380324, 1.34897
2022-12-01 14:31:39.388357, 1.33431
2022-12-01 14:31:39.396486, 1.31965
2022-12-01 14:31:39.408744, 1.30987
2022-12-01 14:31:39.417241, 1.29521
2022-12-01 14:31:39.425231, 1.29521
2022-12-01 14:31:39.437250, 1.27077
2022-12-01 14:31:39.445800, 1.26588
2022-12-01 14:31:39.454254, 1.26100
2022-12-01 14:31:39.462290, 1.25122
2022-12-01 14:31:39.474231, 1.24633
2022-12-01 14:31:39.482699, 1.24633
2022-12-01 14:31:39.490753, 1.23656
2022-12-01 14:31:39.503062, 1.23167
2022-12-01 14:31:39.511290, 1.22678
2022-12-01 14:31:39.519282, 1.22678
2022-12-01 14:31:39.527848, 1.23656
2022-12-01 14:31:39.539887, 1.27566
2022-12-01 14:31:39.547982, 1.33431
2022-12-01 14:31:39.556387, 1.44673
2022-12-01 14:31:39.568801, 1.56891
2022-12-01 14:31:39.576861, 1.73509
2022-12-01 14:31:39.585072, 1.91105
2022-12-01 14:31:39.593037, 2.08700
2022-12-01 14:31:39.605483, 2.23851
2022-12-01 14:31:39.613729, 2.36070
2022-12-01 14:31:39.622843, 2.44868
2022-12-01 14:31:39.630172, 2.48778
2022-12-01 14:31:39.642414, 2.48778
2022-12-01 14:31:39.650647, 2.45846
2022-12-01 14:31:39.658831, 2.39980
2022-12-01 14:31:39.670402, 2.33138
2022-12-01 14:31:39.679237, 2.24829
2022-12-01 14:31:39.686973, 2.16520
2022-12-01 14:31:39.695600, 2.08211
2022-12-01 14:31:39.707903, 1.99902
2022-12-01 14:31:39.715933, 1.92082
2022-12-01 14:31:39.724309, 1.84262
2022-12-01 14:31:39.736514, 1.76931
2022-12-01 14:31:39.744756, 1.70088
2022-12-01 14:31:39.753078, 1.63734
2022-12-01 14:31:39.762444, 1.58358
2022-12-01 14:31:39.773407, 1.52981
2022-12-01 14:31:39.782163, 1.48583
2022-12-01 14:31:39.789930, 1.45650
2022-12-01 14:31:39.802139, 1.43206
2022-12-01 14:31:39.810201, 1.41740
2022-12-01 14:31:39.818532, 1.42717
2022-12-01 14:31:39.826516, 1.41740
2022-12-01 14:31:39.839038, 1.42717
2022-12-01 14:31:39.847317, 1.44184
2022-12-01 14:31:39.855207, 1.47116
2022-12-01 14:31:39.867803, 1.48583
2022-12-01 14:31:39.875838, 1.50538
2022-12-01 14:31:39.884003, 1.53470
2022-12-01 14:31:39.892245, 1.53959
2022-12-01 14:31:39.903645, 1.55425
2022-12-01 14:31:39.912815, 1.57380
2022-12-01 14:31:39.920752, 1.56403
2022-12-01 14:31:39.933120, 1.56403
2022-12-01 14:31:39.941338, 1.58358
2022-12-01 14:31:39.949318, 1.54448
2022-12-01 14:31:39.957893, 1.53470
2022-12-01 14:31:39.970319, 1.52493
2022-12-01 14:31:39.978508, 1.50049
2022-12-01 14:31:39.986455, 1.48094
2022-12-01 14:31:39.998466, 1.46628
2022-12-01 14:31:40.007066, 1.44673
2022-12-01 14:31:40.015290, 1.43695
2022-12-01 14:31:40.023332, 1.41251
2022-12-01 14:31:40.035648, 1.39296
2022-12-01 14:31:40.043754, 1.37830
2022-12-01 14:31:40.052154, 1.36852
2022-12-01 14:31:40.064453, 1.34897
2022-12-01 14:31:40.072352, 1.33431
2022-12-01 14:31:40.080653, 1.33431
2022-12-01 14:31:40.088829, 1.30987
2022-12-01 14:31:40.101333, 1.29521
2022-12-01 14:31:40.109008, 1.28543
2022-12-01 14:31:40.117652, 1.27566
2022-12-01 14:31:40.129818, 1.26588
2022-12-01 14:31:40.137600, 1.26100
2022-12-01 14:31:40.146179, 1.25611
2022-12-01 14:31:40.154616, 1.25122
2022-12-01 14:31:40.166659, 1.24633
2022-12-01 14:31:40.175032, 1.24633
2022-12-01 14:31:40.182965, 1.23656
2022-12-01 14:31:40.195273, 1.24145
2022-12-01 14:31:40.203827, 1.26100
2022-12-01 14:31:40.211701, 1.29032
2022-12-01 14:31:40.219948, 1.35386
2022-12-01 14:31:40.232294, 1.46139
2022-12-01 14:31:40.240380, 1.60313
2022-12-01 14:31:40.248623, 1.76931
2022-12-01 14:31:40.260506, 1.95015
2022-12-01 14:31:40.269136, 2.12121
2022-12-01 14:31:40.277258, 2.27273
2022-12-01 14:31:40.286549, 2.39003
2022-12-01 14:31:40.297517, 2.46823
2022-12-01 14:31:40.305497, 2.50244
2022-12-01 14:31:40.314135, 2.49756
2022-12-01 14:31:40.326553, 2.47801
2022-12-01 14:31:40.334507, 2.40469
2022-12-01 14:31:40.342811, 2.33138
2022-12-01 14:31:40.350976, 2.25318
2022-12-01 14:31:40.363185, 2.16520
2022-12-01 14:31:40.371182, 2.08211
2022-12-01 14:31:40.379526, 1.99902
2022-12-01 14:31:40.392135, 1.91593
2022-12-01 14:31:40.400110, 1.84262
2022-12-01 14:31:40.409203, 1.76931
2022-12-01 14:31:40.416764, 1.70088
2022-12-01 14:31:40.428826, 1.63734
2022-12-01 14:31:40.437525, 1.57869
2022-12-01 14:31:40.444880, 1.52981
2022-12-01 14:31:40.457398, 1.49071
2022-12-01 14:31:40.465698, 1.45161
2022-12-01 14:31:40.474174, 1.42717
2022-12-01 14:31:40.482056, 1.41740
2022-12-01 14:31:40.494368, 1.41740
2022-12-01 14:31:40.502429, 1.42229
2022-12-01 14:31:40.510748, 1.43206
2022-12-01 14:31:40.518847, 1.45650
2022-12-01 14:31:40.532009, 1.47605
2022-12-01 14:31:40.539413, 1.50049
2022-12-01 14:31:40.547618, 1.52493
2022-12-01 14:31:40.560082, 1.53959
2022-12-01 14:31:40.568067, 1.55914
2022-12-01 14:31:40.576366, 1.56891
2022-12-01 14:31:40.584484, 1.57380
2022-12-01 14:31:40.596803, 1.57380
2022-12-01 14:31:40.604913, 1.57869
2022-12-01 14:31:40.612868, 1.56403
2022-12-01 14:31:40.625163, 1.55425
2022-12-01 14:31:40.633610, 1.54936
2022-12-01 14:31:40.641542, 1.52004
2022-12-01 14:31:40.649914, 1.50049
2022-12-01 14:31:40.661891, 1.49071
2022-12-01 14:31:40.670868, 1.46139
2022-12-01 14:31:40.678848, 1.44673
2022-12-01 14:31:40.690814, 1.45161
2022-12-01 14:31:40.698798, 1.40762
2022-12-01 14:31:40.707769, 1.39296
2022-12-01 14:31:40.715749, 1.37830
2022-12-01 14:31:40.727720, 1.36364
2022-12-01 14:31:40.735750, 1.34409
2022-12-01 14:31:40.743969, 1.33431
2022-12-01 14:31:40.755946, 1.34897
2022-12-01 14:31:40.764251, 1.30987
2022-12-01 14:31:40.772798, 1.30010
2022-12-01 14:31:40.780913, 1.29521
2022-12-01 14:31:40.793348, 1.28055
2022-12-01 14:31:40.801411, 1.27077
2022-12-01 14:31:40.809771, 1.27077
2022-12-01 14:31:40.822121, 1.25611
2022-12-01 14:31:40.830274, 1.25122
2022-12-01 14:31:40.838217, 1.25611
2022-12-01 14:31:40.846881, 1.24145
2022-12-01 14:31:40.858223, 1.23656
2022-12-01 14:31:40.867220, 1.24633
2022-12-01 14:31:40.875527, 1.25122
2022-12-01 14:31:40.887554, 1.29032
2022-12-01 14:31:40.895798, 1.36364
2022-12-01 14:31:40.904567, 1.46139
2022-12-01 14:31:40.912564, 1.60313
2022-12-01 14:31:40.924338, 1.76931
2022-12-01 14:31:40.932562, 1.95015
2022-12-01 14:31:40.941080, 2.12121
2022-12-01 14:31:40.952198, 2.27273
2022-12-01 14:31:40.961322, 2.39492
2022-12-01 14:31:40.969368, 2.46823
2022-12-01 14:31:40.977827, 2.50244
2022-12-01 14:31:40.990029, 2.50733
2022-12-01 14:31:40.998035, 2.46823
2022-12-01 14:31:41.006450, 2.40469
2022-12-01 14:31:41.018746, 2.33138
2022-12-01 14:31:41.026943, 2.24829
2022-12-01 14:31:41.035120, 2.16031
2022-12-01 14:31:41.044160, 2.07722
2022-12-01 14:31:41.055472, 1.99413
2022-12-01 14:31:41.063459, 1.91593
2022-12-01 14:31:41.071813, 1.83773
2022-12-01 14:31:41.084303, 1.76442
2022-12-01 14:31:41.092319, 1.69110
2022-12-01 14:31:41.100541, 1.63245
2022-12-01 14:31:41.108696, 1.60313
2022-12-01 14:31:41.121896, 1.52493
2022-12-01 14:31:41.129369, 1.48094
2022-12-01 14:31:41.138184, 1.45161
2022-12-01 14:31:41.149554, 1.43695
2022-12-01 14:31:41.157706, 1.42229
2022-12-01 14:31:41.166028, 1.42229
2022-12-01 14:31:41.174270, 1.43206
2022-12-01 14:31:41.185559, 1.44184
2022-12-01 14:31:41.194955, 1.46139
2022-12-01 14:31:41.202956, 1.49071
2022-12-01 14:31:41.214320, 1.50538
2022-12-01 14:31:41.223513, 1.52981
2022-12-01 14:31:41.231518, 1.57869
2022-12-01 14:31:41.239971, 1.56403
2022-12-01 14:31:41.252045, 1.57869
2022-12-01 14:31:41.260373, 1.58358
2022-12-01 14:31:41.268980, 1.58847
2022-12-01 14:31:41.280888, 1.57869
2022-12-01 14:31:41.288901, 1.56891
2022-12-01 14:31:41.297114, 1.55914
2022-12-01 14:31:41.305325, 1.53959
2022-12-01 14:31:41.317779, 1.52493
2022-12-01 14:31:41.326020, 1.51515
2022-12-01 14:31:41.333999, 1.48583
2022-12-01 14:31:41.346347, 1.46628
2022-12-01 14:31:41.354692, 1.47116
2022-12-01 14:31:41.362713, 1.43206
2022-12-01 14:31:41.371128, 1.41251
2022-12-01 14:31:41.383129, 1.40762
2022-12-01 14:31:41.391365, 1.38319
2022-12-01 14:31:41.399452, 1.36852
2022-12-01 14:31:41.407789, 1.35386
2022-12-01 14:31:41.419850, 1.34409
2022-12-01 14:31:41.428423, 1.33431
2022-12-01 14:31:41.436464, 1.31965
2022-12-01 14:31:41.448647, 1.31965
2022-12-01 14:31:41.456592, 1.30010
2022-12-01 14:31:41.464652, 1.29521
2022-12-01 14:31:41.474077, 1.31476
2022-12-01 14:31:41.485564, 1.28543
2022-12-01 14:31:41.493618, 1.27566
2022-12-01 14:31:41.501976, 1.29521
2022-12-01 14:31:41.513978, 1.27077
2022-12-01 14:31:41.522165, 1.26100
2022-12-01 14:31:41.529938, 1.26100
2022-12-01 14:31:41.539068, 1.27566
2022-12-01 14:31:41.550878, 1.28055
2022-12-01 14:31:41.558909, 1.31965
2022-12-01 14:31:41.566845, 1.39296
2022-12-01 14:31:41.579766, 1.51026
2022-12-01 14:31:41.587958, 1.65200
2022-12-01 14:31:41.596245, 1.82307
2022-12-01 14:31:41.604234, 2.02835
2022-12-01 14:31:41.615727, 2.17009
2022-12-01 14:31:41.624875, 2.31672
2022-12-01 14:31:41.632876, 2.42424
2022-12-01 14:31:41.645524, 2.50733
2022-12-01 14:31:41.653462, 2.52199
2022-12-01 14:31:41.662721, 2.51222
2022-12-01 14:31:41.669903, 2.46823
2022-12-01 14:31:41.682003, 2.40469
2022-12-01 14:31:41.690368, 2.32649
2022-12-01 14:31:41.698356, 2.24829
2022-12-01 14:31:41.710620, 2.16031
2022-12-01 14:31:41.718303, 2.07234
2022-12-01 14:31:41.727592, 1.98925
2022-12-01 14:31:41.735845, 1.91105
2022-12-01 14:31:41.747406, 1.83284
2022-12-01 14:31:41.755206, 1.76442
2022-12-01 14:31:41.764552, 1.69110
2022-12-01 14:31:41.776152, 1.63245
2022-12-01 14:31:41.784136, 1.60802
2022-12-01 14:31:41.793103, 1.52981
2022-12-01 14:31:41.801083, 1.49071
2022-12-01 14:31:41.813049, 1.48583
2022-12-01 14:31:41.821113, 1.44673
2022-12-01 14:31:41.829238, 1.44184
2022-12-01 14:31:41.841206, 1.45650
2022-12-01 14:31:41.850275, 1.45650
2022-12-01 14:31:41.858414, 1.47605
2022-12-01 14:31:41.867115, 1.49560
2022-12-01 14:31:41.878251, 1.52004
2022-12-01 14:31:41.886831, 1.54448
2022-12-01 14:31:41.895685, 1.56403
2022-12-01 14:31:41.906674, 1.58847
2022-12-01 14:31:41.915752, 1.59824
2022-12-01 14:31:41.923610, 1.61290
2022-12-01 14:31:41.932589, 1.64712
2022-12-01 14:31:41.943600, 1.62268
2022-12-01 14:31:41.952571, 1.61779
2022-12-01 14:31:41.960549, 1.60802
2022-12-01 14:31:41.972808, 1.59824
2022-12-01 14:31:41.980796, 1.57869
2022-12-01 14:31:41.989766, 1.56891
2022-12-01 14:31:41.997230, 1.55425
2022-12-01 14:31:42.008990, 1.52981
2022-12-01 14:31:42.018201, 1.51026
2022-12-01 14:31:42.025926, 1.52004
2022-12-01 14:31:42.038035, 1.47605
2022-12-01 14:31:42.046080, 1.45161
2022-12-01 14:31:42.055196, 1.43695
2022-12-01 14:31:42.063034, 1.42717
2022-12-01 14:31:42.075116, 1.40762
2022-12-01 14:31:42.083723, 1.39296
2022-12-01 14:31:42.092019, 1.39785
2022-12-01 14:31:42.104047, 1.36852
2022-12-01 14:31:42.112033, 1.35875
2022-12-01 14:31:42.120138, 1.34409
2022-12-01 14:31:42.128980, 1.33920
2022-12-01 14:31:42.139954, 1.32942
2022-12-01 14:31:42.148740, 1.32454
2022-12-01 14:31:42.157675, 1.31965
2022-12-01 14:31:42.168647, 1.30987
2022-12-01 14:31:42.177622, 1.30499
2022-12-01 14:31:42.185400, 1.30499
2022-12-01 14:31:42.194588, 1.29521
2022-12-01 14:31:42.205539, 1.30010
2022-12-01 14:31:42.214496, 1.31965
2022-12-01 14:31:42.222524, 1.34897
2022-12-01 14:31:42.230509, 1.41740
2022-12-01 14:31:42.243074, 1.55425
2022-12-01 14:31:42.251009, 1.66667
2022-12-01 14:31:42.259979, 1.83284
2022-12-01 14:31:42.271947, 2.00391
2022-12-01 14:31:42.279983, 2.17498
2022-12-01 14:31:42.287978, 2.31672
2022-12-01 14:31:42.295964, 2.42913
2022-12-01 14:31:42.308932, 2.52688
2022-12-01 14:31:42.317021, 2.54154
2022-12-01 14:31:42.325337, 2.53177
2022-12-01 14:31:42.337682, 2.50244
2022-12-01 14:31:42.346035, 2.43402
2022-12-01 14:31:42.353582, 2.36070
2022-12-01 14:31:42.361806, 2.28250
2022-12-01 14:31:42.374642, 2.19453
2022-12-01 14:31:42.382605, 2.11144
2022-12-01 14:31:42.390632, 2.02835
2022-12-01 14:31:42.403110, 1.95015
2022-12-01 14:31:42.411410, 1.87195
2022-12-01 14:31:42.419683, 1.79863
2022-12-01 14:31:42.427586, 1.73021
2022-12-01 14:31:42.439831, 1.66667
2022-12-01 14:31:42.448172, 1.63734
2022-12-01 14:31:42.456160, 1.56403
2022-12-01 14:31:42.468582, 1.52004
2022-12-01 14:31:42.476962, 1.49071
2022-12-01 14:31:42.484365, 1.49071
2022-12-01 14:31:42.493409, 1.46628
2022-12-01 14:31:42.505440, 1.46628
2022-12-01 14:31:42.513665, 1.47605
2022-12-01 14:31:42.522070, 1.50049
2022-12-01 14:31:42.534113, 1.51515
2022-12-01 14:31:42.542116, 1.53959
2022-12-01 14:31:42.550836, 1.58847
2022-12-01 14:31:42.559767, 1.58847
2022-12-01 14:31:42.571383, 1.60313
2022-12-01 14:31:42.579381, 1.61779
2022-12-01 14:31:42.587405, 1.63734
2022-12-01 14:31:42.599758, 1.63245
2022-12-01 14:31:42.607765, 1.63245
2022-12-01 14:31:42.616278, 1.62757
2022-12-01 14:31:42.624239, 1.61290
2022-12-01 14:31:42.636682, 1.60313
2022-12-01 14:31:42.644877, 1.58847
2022-12-01 14:31:42.652869, 1.56403
2022-12-01 14:31:42.665265, 1.54936
2022-12-01 14:31:42.673456, 1.52981
2022-12-01 14:31:42.681825, 1.52493
2022-12-01 14:31:42.689813, 1.49071
2022-12-01 14:31:42.701782, 1.47116
2022-12-01 14:31:42.710478, 1.46139
2022-12-01 14:31:42.718466, 1.43695
2022-12-01 14:31:42.730814, 1.41740
2022-12-01 14:31:42.738770, 1.40274
2022-12-01 14:31:42.746809, 1.39296
2022-12-01 14:31:42.755551, 1.37830
2022-12-01 14:31:42.767596, 1.36852
2022-12-01 14:31:42.776411, 1.37341
2022-12-01 14:31:42.783934, 1.34897
2022-12-01 14:31:42.795901, 1.33920
2022-12-01 14:31:42.803889, 1.35386
2022-12-01 14:31:42.812857, 1.32942
2022-12-01 14:31:42.820847, 1.31965
2022-12-01 14:31:42.832868, 1.31476
2022-12-01 14:31:42.840785, 1.30987
2022-12-01 14:31:42.849758, 1.30010
2022-12-01 14:31:42.861725, 1.30010
2022-12-01 14:31:42.869706, 1.31476
2022-12-01 14:31:42.878213, 1.33920
2022-12-01 14:31:42.886379, 1.39296
2022-12-01 14:31:42.898593, 1.50049
2022-12-01 14:31:42.907020, 1.62268
2022-12-01 14:31:42.915008, 1.77908
2022-12-01 14:31:42.926781, 1.95503
2022-12-01 14:31:42.935750, 2.14565
2022-12-01 14:31:42.944095, 2.28739
2022-12-01 14:31:42.951979, 2.40958
2022-12-01 14:31:42.963497, 2.49756
2022-12-01 14:31:42.972463, 2.54643
2022-12-01 14:31:42.980447, 2.57087
2022-12-01 14:31:42.992791, 2.52688
2022-12-01 14:31:43.001063, 2.47801
2022-12-01 14:31:43.009276, 2.40469
2022-12-01 14:31:43.017473, 2.32649
2022-12-01 14:31:43.029913, 2.27273
2022-12-01 14:31:43.038131, 2.16520
2022-12-01 14:31:43.046246, 2.08211
2022-12-01 14:31:43.058022, 1.99902
2022-12-01 14:31:43.066688, 1.93060
2022-12-01 14:31:43.074812, 1.85239
2022-12-01 14:31:43.083068, 1.78397
2022-12-01 14:31:43.095533, 1.72532
2022-12-01 14:31:43.103505, 1.66178
2022-12-01 14:31:43.111761, 1.61290
2022-12-01 14:31:43.119946, 1.56891
2022-12-01 14:31:43.131531, 1.53959
2022-12-01 14:31:43.140483, 1.51515
2022-12-01 14:31:43.148610, 1.50538
2022-12-01 14:31:43.161255, 1.51026
2022-12-01 14:31:43.169119, 1.51026
2022-12-01 14:31:43.177361, 1.52004
2022-12-01 14:31:43.185336, 1.53959
2022-12-01 14:31:43.197547, 1.55914
2022-12-01 14:31:43.205557, 1.57869
2022-12-01 14:31:43.214165, 1.62757
2022-12-01 14:31:43.226369, 1.61779
2022-12-01 14:31:43.234534, 1.62757
2022-12-01 14:31:43.242793, 1.63245
2022-12-01 14:31:43.251104, 1.65200
2022-12-01 14:31:43.263403, 1.63734
2022-12-01 14:31:43.271592, 1.62757
2022-12-01 14:31:43.279649, 1.61779
2022-12-01 14:31:43.292015, 1.61779
2022-12-01 14:31:43.300419, 1.58358
2022-12-01 14:31:43.308335, 1.56891
2022-12-01 14:31:43.316358, 1.54936
2022-12-01 14:31:43.328949, 1.53470
2022-12-01 14:31:43.337152, 1.51026
2022-12-01 14:31:43.344700, 1.49071
2022-12-01 14:31:43.357520, 1.47116
2022-12-01 14:31:43.365762, 1.45161
2022-12-01 14:31:43.374916, 1.43695
2022-12-01 14:31:43.382057, 1.42229
2022-12-01 14:31:43.394191, 1.40762
2022-12-01 14:31:43.402486, 1.39296
2022-12-01 14:31:43.410676, 1.38807
2022-12-01 14:31:43.422470, 1.36852
2022-12-01 14:31:43.431361, 1.35875
2022-12-01 14:31:43.439318, 1.35386
2022-12-01 14:31:43.447577, 1.34409
2022-12-01 14:31:43.460075, 1.33431
2022-12-01 14:31:43.468104, 1.32942
2022-12-01 14:31:43.476350, 1.32454
2022-12-01 14:31:43.488486, 1.31476
2022-12-01 14:31:43.497478, 1.30987
2022-12-01 14:31:43.505075, 1.30499
2022-12-01 14:31:43.512965, 1.30499
2022-12-01 14:31:43.525552, 1.31476
2022-12-01 14:31:43.533537, 1.34409
2022-12-01 14:31:43.541784, 1.40762
2022-12-01 14:31:43.554123, 1.50538
2022-12-01 14:31:43.562271, 1.64223
2022-12-01 14:31:43.570806, 1.80352
2022-12-01 14:31:43.578323, 1.97458
2022-12-01 14:31:43.590917, 2.14565
2022-12-01 14:31:43.599164, 2.29717
2022-12-01 14:31:43.607316, 2.41447
2022-12-01 14:31:43.619238, 2.48778
2022-12-01 14:31:43.627448, 2.52688
2022-12-01 14:31:43.636917, 2.52199
2022-12-01 14:31:43.644722, 2.49267
2022-12-01 14:31:43.656470, 2.43402
2022-12-01 14:31:43.664673, 2.36559
2022-12-01 14:31:43.672469, 2.28739
2022-12-01 14:31:43.684225, 2.20430
2022-12-01 14:31:43.693307, 2.12121
2022-12-01 14:31:43.701194, 2.03812
2022-12-01 14:31:43.709905, 1.96481
2022-12-01 14:31:43.721990, 1.88661
2022-12-01 14:31:43.730600, 1.81818
2022-12-01 14:31:43.738626, 1.74976
2022-12-01 14:31:43.749869, 1.68622
2022-12-01 14:31:43.758868, 1.65200
2022-12-01 14:31:43.766971, 1.58358
2022-12-01 14:31:43.776365, 1.54448
2022-12-01 14:31:43.787573, 1.51515
2022-12-01 14:31:43.795678, 1.50049
2022-12-01 14:31:43.804054, 1.49071
2022-12-01 14:31:43.816030, 1.49560
2022-12-01 14:31:43.824183, 1.51026
2022-12-01 14:31:43.831990, 1.52004
2022-12-01 14:31:43.840968, 1.53959
2022-12-01 14:31:43.853015, 1.58847
2022-12-01 14:31:43.861052, 1.57380
2022-12-01 14:31:43.869971, 1.59335
2022-12-01 14:31:43.880939, 1.60802
2022-12-01 14:31:43.889914, 1.61779
2022-12-01 14:31:43.898396, 1.61779
2022-12-01 14:31:43.906636, 1.61290
2022-12-01 14:31:43.917864, 1.60802
2022-12-01 14:31:43.926843, 1.59335
2022-12-01 14:31:43.934818, 1.57869
2022-12-01 14:31:43.947090, 1.58847
2022-12-01 14:31:43.955076, 1.54936
2022-12-01 14:31:43.964047, 1.52981
2022-12-01 14:31:43.972024, 1.50538
2022-12-01 14:31:43.983462, 1.49071
2022-12-01 14:31:43.992638, 1.46628
2022-12-01 14:31:44.000313, 1.44673
2022-12-01 14:31:44.008290, 1.43695
2022-12-01 14:31:44.020341, 1.41251
2022-12-01 14:31:44.029321, 1.39785
2022-12-01 14:31:44.037358, 1.41251
2022-12-01 14:31:44.049399, 1.37341
2022-12-01 14:31:44.057379, 1.35875
2022-12-01 14:31:44.065419, 1.34897
2022-12-01 14:31:44.074345, 1.33920
2022-12-01 14:31:44.086362, 1.32942
2022-12-01 14:31:44.094279, 1.31965
2022-12-01 14:31:44.103257, 1.33920
2022-12-01 14:31:44.114288, 1.30987
2022-12-01 14:31:44.123198, 1.30499
2022-12-01 14:31:44.131180, 1.30010
2022-12-01 14:31:44.139210, 1.30499
2022-12-01 14:31:44.152127, 1.29032
2022-12-01 14:31:44.160506, 1.29032
2022-12-01 14:31:44.168507, 1.32454
2022-12-01 14:31:44.180545, 1.32454
2022-12-01 14:31:44.188880, 1.36364
2022-12-01 14:31:44.197163, 1.44673
2022-12-01 14:31:44.205968, 1.58358
2022-12-01 14:31:44.217539, 1.71554
2022-12-01 14:31:44.225863, 1.88172
2022-12-01 14:31:44.233874, 2.05279
2022-12-01 14:31:44.245880, 2.22385
2022-12-01 14:31:44.254544, 2.35582
2022-12-01 14:31:44.262718, 2.45357
2022-12-01 14:31:44.271037, 2.51222
2022-12-01 14:31:44.283370, 2.54643
2022-12-01 14:31:44.291247, 2.51222
2022-12-01 14:31:44.299682, 2.46334
2022-12-01 14:31:44.312014, 2.39492
2022-12-01 14:31:44.320104, 2.31672
2022-12-01 14:31:44.328226, 2.23851
2022-12-01 14:31:44.336279, 2.15543
2022-12-01 14:31:44.348822, 2.09677
2022-12-01 14:31:44.356854, 1.99902
2022-12-01 14:31:44.366236, 1.92082
2022-12-01 14:31:44.377521, 1.85239
2022-12-01 14:31:44.385574, 1.77908
2022-12-01 14:31:44.393791, 1.71554
2022-12-01 14:31:44.401872, 1.65689
2022-12-01 14:31:44.414076, 1.61290
2022-12-01 14:31:44.422219, 1.56403
2022-12-01 14:31:44.431053, 1.52981
2022-12-01 14:31:44.442664, 1.50538
2022-12-01 14:31:44.451015, 1.49560
2022-12-01 14:31:44.458877, 1.49071
2022-12-01 14:31:44.467342, 1.49560
2022-12-01 14:31:44.479328, 1.51026
2022-12-01 14:31:44.487300, 1.52493
2022-12-01 14:31:44.496283, 1.54448
2022-12-01 14:31:44.508286, 1.56891
2022-12-01 14:31:44.516691, 1.57869
2022-12-01 14:31:44.524923, 1.58847
2022-12-01 14:31:44.532900, 1.62268
2022-12-01 14:31:44.545358, 1.60313
2022-12-01 14:31:44.553420, 1.59824
2022-12-01 14:31:44.561609, 1.59335
2022-12-01 14:31:44.573975, 1.59335
2022-12-01 14:31:44.582211, 1.56891
2022-12-01 14:31:44.590479, 1.55425
2022-12-01 14:31:44.599722, 1.53470
2022-12-01 14:31:44.610976, 1.52004
2022-12-01 14:31:44.619043, 1.49560
2022-12-01 14:31:44.627178, 1.47605
2022-12-01 14:31:44.639555, 1.46628
2022-12-01 14:31:44.647824, 1.43695
2022-12-01 14:31:44.655777, 1.41740
2022-12-01 14:31:44.663783, 1.42229
2022-12-01 14:31:44.676421, 1.38807
2022-12-01 14:31:44.684567, 1.37341
2022-12-01 14:31:44.693053, 1.35875
2022-12-01 14:31:44.705070, 1.34897
2022-12-01 14:31:44.713031, 1.33431
2022-12-01 14:31:44.721073, 1.32454
2022-12-01 14:31:44.729992, 1.31965
2022-12-01 14:31:44.741862, 1.30987
2022-12-01 14:31:44.750077, 1.30499
2022-12-01 14:31:44.758162, 1.29521
2022-12-01 14:31:44.770667, 1.29521
2022-12-01 14:31:44.778782, 1.28543
2022-12-01 14:31:44.787536, 1.28543
2022-12-01 14:31:44.795378, 1.27566
2022-12-01 14:31:44.807468, 1.28055
2022-12-01 14:31:44.815689, 1.27077
2022-12-01 14:31:44.823967, 1.27566
2022-12-01 14:31:44.836217, 1.29032
2022-12-01 14:31:44.844488, 1.32942
2022-12-01 14:31:44.852726, 1.39785
2022-12-01 14:31:44.860854, 1.50538
2022-12-01 14:31:44.872938, 1.65689
2022-12-01 14:31:44.881279, 1.81818
2022-12-01 14:31:44.889255, 1.98925
2022-12-01 14:31:44.897235, 2.15543
2022-12-01 14:31:44.909978, 2.31672
2022-12-01 14:31:44.918180, 2.39980
2022-12-01 14:31:44.926158, 2.46334
2022-12-01 14:31:44.938171, 2.48289
2022-12-01 14:31:44.946104, 2.46334
2022-12-01 14:31:44.956078, 2.42424
2022-12-01 14:31:44.963137, 2.35582
2022-12-01 14:31:44.975027, 2.28250
2022-12-01 14:31:44.984002, 2.22385
2022-12-01 14:31:44.992095, 2.13587
2022-12-01 14:31:45.003907, 2.04790
2022-12-01 14:31:45.012213, 1.96970
2022-12-01 14:31:45.020315, 1.89638
2022-12-01 14:31:45.028520, 1.82796
2022-12-01 14:31:45.040815, 1.75953
2022-12-01 14:31:45.049282, 1.70088
2022-12-01 14:31:45.057796, 1.66667
2022-12-01 14:31:45.069688, 1.59335
2022-12-01 14:31:45.078544, 1.54936
2022-12-01 14:31:45.086003, 1.51515
2022-12-01 14:31:45.094581, 1.50049
2022-12-01 14:31:45.106527, 1.48094
2022-12-01 14:31:45.114644, 1.48094
2022-12-01 14:31:45.122788, 1.51026
2022-12-01 14:31:45.135136, 1.49560
2022-12-01 14:31:45.143328, 1.51515
2022-12-01 14:31:45.151465, 1.53470
2022-12-01 14:31:45.159510, 1.57380
2022-12-01 14:31:45.171735, 1.56891
2022-12-01 14:31:45.180153, 1.57869
2022-12-01 14:31:45.188079, 1.58847
2022-12-01 14:31:45.201122, 1.58847
2022-12-01 14:31:45.208883, 1.58847
2022-12-01 14:31:45.216932, 1.57869
2022-12-01 14:31:45.224985, 1.56891
2022-12-01 14:31:45.236881, 1.58358
2022-12-01 14:31:45.245785, 1.53959
2022-12-01 14:31:45.253935, 1.52004
2022-12-01 14:31:45.265902, 1.50049
2022-12-01 14:31:45.273656, 1.48583
2022-12-01 14:31:45.282699, 1.45650
2022-12-01 14:31:45.290767, 1.43695
2022-12-01 14:31:45.302779, 1.41740
2022-12-01 14:31:45.310751, 1.42717
2022-12-01 14:31:45.319732, 1.38807
2022-12-01 14:31:45.331396, 1.36852
2022-12-01 14:31:45.339556, 1.35386
2022-12-01 14:31:45.347538, 1.34897
2022-12-01 14:31:45.356704, 1.32942
2022-12-01 14:31:45.367673, 1.31965
2022-12-01 14:31:45.376651, 1.30987
2022-12-01 14:31:45.384678, 1.30010
2022-12-01 14:31:45.396889, 1.29032
2022-12-01 14:31:45.405673, 1.28543
2022-12-01 14:31:45.413552, 1.28055
2022-12-01 14:31:45.421659, 1.27566
2022-12-01 14:31:45.433635, 1.26588
2022-12-01 14:31:45.442473, 1.26588
2022-12-01 14:31:45.450652, 1.27077
2022-12-01 14:31:45.462633, 1.25611
2022-12-01 14:31:45.470785, 1.25122
2022-12-01 14:31:45.479516, 1.25611
2022-12-01 14:31:45.487698, 1.26588
2022-12-01 14:31:45.499011, 1.29521
2022-12-01 14:31:45.507939, 1.35386
2022-12-01 14:31:45.515915, 1.44673
2022-12-01 14:31:45.527885, 1.58358
2022-12-01 14:31:45.536306, 1.73998
2022-12-01 14:31:45.545283, 1.91105
2022-12-01 14:31:45.552904, 2.10166
2022-12-01 14:31:45.564874, 2.23363
2022-12-01 14:31:45.572854, 2.35093
2022-12-01 14:31:45.581830, 2.42913
2022-12-01 14:31:45.593796, 2.46334
2022-12-01 14:31:45.602096, 2.47801
2022-12-01 14:31:45.609982, 2.42424
2022-12-01 14:31:45.618770, 2.36559
2022-12-01 14:31:45.630558, 2.29228
2022-12-01 14:31:45.639111, 2.21408
2022-12-01 14:31:45.647239, 2.13587
2022-12-01 14:31:45.659236, 2.05767
2022-12-01 14:31:45.667579, 1.97947
2022-12-01 14:31:45.676093, 1.91105
2022-12-01 14:31:45.684670, 1.83773
2022-12-01 14:31:45.696159, 1.77908
2022-12-01 14:31:45.704562, 1.70577
2022-12-01 14:31:45.712643, 1.64712
2022-12-01 14:31:45.720954, 1.59335
2022-12-01 14:31:45.733211, 1.54936
2022-12-01 14:31:45.742531, 1.52004
2022-12-01 14:31:45.749491, 1.49071
2022-12-01 14:31:45.761872, 1.47605
2022-12-01 14:31:45.769690, 1.47605
2022-12-01 14:31:45.778049, 1.47116
2022-12-01 14:31:45.786363, 1.48583
2022-12-01 14:31:45.798741, 1.50538
2022-12-01 14:31:45.806729, 1.52004
2022-12-01 14:31:45.815293, 1.53959
2022-12-01 14:31:45.827465, 1.55425
2022-12-01 14:31:45.835527, 1.56891
2022-12-01 14:31:45.843971, 1.57380
2022-12-01 14:31:45.852000, 1.57869
2022-12-01 14:31:45.863960, 1.60313
2022-12-01 14:31:45.872421, 1.57380
2022-12-01 14:31:45.880498, 1.55914
2022-12-01 14:31:45.893045, 1.54448
2022-12-01 14:31:45.901151, 1.55914
2022-12-01 14:31:45.909404, 1.51515
2022-12-01 14:31:45.917773, 1.49560
2022-12-01 14:31:45.929798, 1.47116
2022-12-01 14:31:45.938110, 1.45650
2022-12-01 14:31:45.946105, 1.43206
2022-12-01 14:31:45.958457, 1.41251
2022-12-01 14:31:45.966649, 1.40762
2022-12-01 14:31:45.974881, 1.38319
2022-12-01 14:31:45.983045, 1.36364
2022-12-01 14:31:45.995023, 1.34409
2022-12-01 14:31:46.003580, 1.32942
2022-12-01 14:31:46.011978, 1.33431
2022-12-01 14:31:46.023945, 1.30987
2022-12-01 14:31:46.031981, 1.30010
2022-12-01 14:31:46.039910, 1.29032
2022-12-01 14:31:46.048880, 1.29521
2022-12-01 14:31:46.060862, 1.27566
2022-12-01 14:31:46.068966, 1.27077
2022-12-01 14:31:46.077441, 1.26588
2022-12-01 14:31:46.089565, 1.27077
2022-12-01 14:31:46.097608, 1.25611
2022-12-01 14:31:46.105821, 1.25122
2022-12-01 14:31:46.114155, 1.25122
2022-12-01 14:31:46.126676, 1.25611
2022-12-01 14:31:46.134512, 1.24633
2022-12-01 14:31:46.142642, 1.24633
2022-12-01 14:31:46.154992, 1.26100
2022-12-01 14:31:46.163131, 1.31476
2022-12-01 14:31:46.171130, 1.37830
2022-12-01 14:31:46.179688, 1.48583
2022-12-01 14:31:46.191785, 1.62757
2022-12-01 14:31:46.200237, 1.79863
2022-12-01 14:31:46.208253, 1.97458
2022-12-01 14:31:46.220131, 2.13587
2022-12-01 14:31:46.228840, 2.27761
2022-12-01 14:31:46.237170, 2.38025
2022-12-01 14:31:46.245219, 2.45357
2022-12-01 14:31:46.257481, 2.45846
2022-12-01 14:31:46.265545, 2.43891
2022-12-01 14:31:46.273598, 2.39492
2022-12-01 14:31:46.286115, 2.35582
2022-12-01 14:31:46.294177, 2.25806
2022-12-01 14:31:46.302476, 2.17986
2022-12-01 14:31:46.311445, 2.09677
2022-12-01 14:31:46.323148, 2.01857
2022-12-01 14:31:46.331222, 1.94526
2022-12-01 14:31:46.339450, 1.87683
2022-12-01 14:31:46.351445, 1.79863
2022-12-01 14:31:46.359610, 1.73509
2022-12-01 14:31:46.367928, 1.67644
2022-12-01 14:31:46.375972, 1.61779
2022-12-01 14:31:46.388449, 1.56891
2022-12-01 14:31:46.396758, 1.52493
2022-12-01 14:31:46.404839, 1.49560
2022-12-01 14:31:46.417374, 1.50049
2022-12-01 14:31:46.425392, 1.46628
2022-12-01 14:31:46.434541, 1.46139
2022-12-01 14:31:46.441482, 1.47116
2022-12-01 14:31:46.453083, 1.48094
2022-12-01 14:31:46.462294, 1.50538
2022-12-01 14:31:46.470467, 1.52493
2022-12-01 14:31:46.482365, 1.54448
2022-12-01 14:31:46.491059, 1.55914
2022-12-01 14:31:46.499251, 1.57380
2022-12-01 14:31:46.507348, 1.57869
2022-12-01 14:31:46.519535, 1.58358
2022-12-01 14:31:46.527828, 1.60802
2022-12-01 14:31:46.536138, 1.57380
2022-12-01 14:31:46.548295, 1.56403
2022-12-01 14:31:46.556855, 1.54936
2022-12-01 14:31:46.564656, 1.53470
2022-12-01 14:31:46.572666, 1.51026
2022-12-01 14:31:46.584640, 1.49071
2022-12-01 14:31:46.592667, 1.47116
2022-12-01 14:31:46.601596, 1.45650
2022-12-01 14:31:46.609567, 1.43206
2022-12-01 14:31:46.621544, 1.41251
2022-12-01 14:31:46.629514, 1.39785
2022-12-01 14:31:46.638490, 1.38319
2022-12-01 14:31:46.650664, 1.36364
2022-12-01 14:31:46.658834, 1.34897
2022-12-01 14:31:46.666765, 1.33920
2022-12-01 14:31:46.675416, 1.32942
2022-12-01 14:31:46.687571, 1.31476
2022-12-01 14:31:46.695949, 1.30499
2022-12-01 14:31:46.704019, 1.29521
2022-12-01 14:31:46.716177, 1.29032
2022-12-01 14:31:46.724365, 1.28543
2022-12-01 14:31:46.732359, 1.27077
2022-12-01 14:31:46.740333, 1.27077
2022-12-01 14:31:46.753310, 1.26588
2022-12-01 14:31:46.760858, 1.26588
2022-12-01 14:31:46.769487, 1.25611
2022-12-01 14:31:46.781866, 1.25611
2022-12-01 14:31:46.790528, 1.28055
2022-12-01 14:31:46.798148, 1.25122
2022-12-01 14:31:46.806355, 1.25122
2022-12-01 14:31:46.818448, 1.29032
2022-12-01 14:31:46.826859, 1.30987
2022-12-01 14:31:46.834797, 1.38319
2022-12-01 14:31:46.847499, 1.49071
2022-12-01 14:31:46.855471, 1.66178
2022-12-01 14:31:46.863710, 1.81329
2022-12-01 14:31:46.871697, 1.98925
2022-12-01 14:31:46.883273, 2.15543
2022-12-01 14:31:46.892442, 2.29717
2022-12-01 14:31:46.900590, 2.40958
2022-12-01 14:31:46.912909, 2.46823
2022-12-01 14:31:46.920936, 2.48289
2022-12-01 14:31:46.929076, 2.46334
2022-12-01 14:31:46.937383, 2.41935
2022-12-01 14:31:46.949691, 2.35582
2022-12-01 14:31:46.957690, 2.27761
2022-12-01 14:31:46.966076, 2.19453
2022-12-01 14:31:46.977704, 2.14076
2022-12-01 14:31:46.986377, 2.05767
2022-12-01 14:31:46.994429, 1.96481
2022-12-01 14:31:47.002406, 1.87683
2022-12-01 14:31:47.014310, 1.81329
2022-12-01 14:31:47.023285, 1.73998
2022-12-01 14:31:47.031273, 1.67644
2022-12-01 14:31:47.043231, 1.62268
2022-12-01 14:31:47.052216, 1.59824
2022-12-01 14:31:47.060187, 1.53470
2022-12-01 14:31:47.068972, 1.50049
2022-12-01 14:31:47.080134, 1.48094
2022-12-01 14:31:47.089110, 1.48094
2022-12-01 14:31:47.097088, 1.47605
2022-12-01 14:31:47.109516, 1.48094
2022-12-01 14:31:47.117733, 1.49560
2022-12-01 14:31:47.125874, 1.54448
2022-12-01 14:31:47.133862, 1.53959
2022-12-01 14:31:47.145819, 1.55914
2022-12-01 14:31:47.154292, 1.57380
2022-12-01 14:31:47.162830, 1.60802
2022-12-01 14:31:47.174955, 1.59824
2022-12-01 14:31:47.183213, 1.59824
2022-12-01 14:31:47.192037, 1.59824
2022-12-01 14:31:47.199664, 1.59335
2022-12-01 14:31:47.211910, 1.57869
2022-12-01 14:31:47.220180, 1.56403
2022-12-01 14:31:47.228332, 1.54448
2022-12-01 14:31:47.240131, 1.53470
2022-12-01 14:31:47.248731, 1.50538
2022-12-01 14:31:47.256671, 1.48583
2022-12-01 14:31:47.265276, 1.46628
2022-12-01 14:31:47.277382, 1.45161
2022-12-01 14:31:47.285621, 1.42717
2022-12-01 14:31:47.293799, 1.40762
2022-12-01 14:31:47.306088, 1.39296
2022-12-01 14:31:47.314376, 1.39785
2022-12-01 14:31:47.322825, 1.35875
2022-12-01 14:31:47.331495, 1.34409
2022-12-01 14:31:47.343081, 1.33431
2022-12-01 14:31:47.351271, 1.32942
2022-12-01 14:31:47.359381, 1.31476
2022-12-01 14:31:47.371643, 1.30987
2022-12-01 14:31:47.379720, 1.30010
2022-12-01 14:31:47.388167, 1.30010
2022-12-01 14:31:47.396154, 1.28543
2022-12-01 14:31:47.408356, 1.28055
2022-12-01 14:31:47.416681, 1.27566
2022-12-01 14:31:47.424921, 1.27566
2022-12-01 14:31:47.433221, 1.26588
2022-12-01 14:31:47.445361, 1.26100
2022-12-01 14:31:47.453518, 1.25611
2022-12-01 14:31:47.461835, 1.25611
2022-12-01 14:31:47.473718, 1.27077
2022-12-01 14:31:47.482162, 1.29032
2022-12-01 14:31:47.490293, 1.33920
2022-12-01 14:31:47.498679, 1.42229
2022-12-01 14:31:47.510558, 1.56403
2022-12-01 14:31:47.518529, 1.70577
2022-12-01 14:31:47.527424, 1.87683
2022-12-01 14:31:47.539764, 2.05767
2022-12-01 14:31:47.547669, 2.21896
2022-12-01 14:31:47.555511, 2.35582
2022-12-01 14:31:47.564131, 2.44379
2022-12-01 14:31:47.576455, 2.49756
2022-12-01 14:31:47.584614, 2.50733
2022-12-01 14:31:47.593928, 2.48778
2022-12-01 14:31:47.605266, 2.42913
2022-12-01 14:31:47.613338, 2.36070
2022-12-01 14:31:47.621446, 2.30694
2022-12-01 14:31:47.629755, 2.20919
2022-12-01 14:31:47.641900, 2.12610
2022-12-01 14:31:47.650321, 2.04790
2022-12-01 14:31:47.658267, 1.96970
2022-12-01 14:31:47.670396, 1.89638
2022-12-01 14:31:47.678993, 1.82796
2022-12-01 14:31:47.687057, 1.75953
2022-12-01 14:31:47.695236, 1.69599
2022-12-01 14:31:47.707436, 1.66178
2022-12-01 14:31:47.716735, 1.58358
2022-12-01 14:31:47.724112, 1.54448
2022-12-01 14:31:47.736086, 1.51515
2022-12-01 14:31:47.744358, 1.49560
2022-12-01 14:31:47.752443, 1.48094
2022-12-01 14:31:47.760890, 1.47605
2022-12-01 14:31:47.773072, 1.48094
2022-12-01 14:31:47.781428, 1.50538
2022-12-01 14:31:47.789374, 1.51515
2022-12-01 14:31:47.801697, 1.52981
2022-12-01 14:31:47.810044, 1.54936
2022-12-01 14:31:47.818239, 1.59824
2022-12-01 14:31:47.826075, 1.58358
2022-12-01 14:31:47.838673, 1.58847
2022-12-01 14:31:47.846693, 1.59335
2022-12-01 14:31:47.855771, 1.62268
2022-12-01 14:31:47.867237, 1.59335
2022-12-01 14:31:47.875550, 1.57869
2022-12-01 14:31:47.883266, 1.56403
2022-12-01 14:31:47.891771, 1.55914
2022-12-01 14:31:47.903969, 1.52981
2022-12-01 14:31:47.911971, 1.50538
2022-12-01 14:31:47.920107, 1.48583
2022-12-01 14:31:47.933284, 1.47116
2022-12-01 14:31:47.940836, 1.44673
2022-12-01 14:31:47.949289, 1.42229
2022-12-01 14:31:47.957215, 1.40762
2022-12-01 14:31:47.969506, 1.41740
2022-12-01 14:31:47.977991, 1.37830
2022-12-01 14:31:47.985983, 1.36364
2022-12-01 14:31:47.997948, 1.34897
2022-12-01 14:31:48.006367, 1.36364
2022-12-01 14:31:48.014904, 1.32454
2022-12-01 14:31:48.022889, 1.31476
2022-12-01 14:31:48.034904, 1.30499
2022-12-01 14:31:48.042882, 1.30499
2022-12-01 14:31:48.050807, 1.29521
2022-12-01 14:31:48.063709, 1.29032
2022-12-01 14:31:48.071574, 1.30010
2022-12-01 14:31:48.079556, 1.28055
2022-12-01 14:31:48.088484, 1.27566
2022-12-01 14:31:48.100447, 1.27077
2022-12-01 14:31:48.108426, 1.28055
2022-12-01 14:31:48.116409, 1.26588
2022-12-01 14:31:48.128378, 1.26588
2022-12-01 14:31:48.137369, 1.28055
2022-12-01 14:31:48.145332, 1.32942
2022-12-01 14:31:48.154303, 1.40274
2022-12-01 14:31:48.165935, 1.51026
2022-12-01 14:31:48.174128, 1.66178
2022-12-01 14:31:48.181886, 1.83284
2022-12-01 14:31:48.193855, 2.01369
2022-12-01 14:31:48.202830, 2.18475
2022-12-01 14:31:48.210861, 2.32649
2022-12-01 14:31:48.219786, 2.42913
2022-12-01 14:31:48.230811, 2.51711
2022-12-01 14:31:48.239730, 2.51222
2022-12-01 14:31:48.247718, 2.49756
2022-12-01 14:31:48.259859, 2.44868
2022-12-01 14:31:48.267837, 2.39003
2022-12-01 14:31:48.276549, 2.31183
2022-12-01 14:31:48.285012, 2.22874
2022-12-01 14:31:48.297307, 2.15054
2022-12-01 14:31:48.305559, 2.06745
2022-12-01 14:31:48.313593, 1.98925
2022-12-01 14:31:48.321873, 1.92571
2022-12-01 14:31:48.334181, 1.84262
2022-12-01 14:31:48.342169, 1.79374
2022-12-01 14:31:48.350682, 1.72043
2022-12-01 14:31:48.362914, 1.65200
2022-12-01 14:31:48.370916, 1.59824
2022-12-01 14:31:48.379385, 1.55425
2022-12-01 14:31:48.387390, 1.52493
2022-12-01 14:31:48.400424, 1.49071
2022-12-01 14:31:48.407976, 1.47605
2022-12-01 14:31:48.416038, 1.46628
2022-12-01 14:31:48.428454, 1.46628
2022-12-01 14:31:48.436594, 1.48094
2022-12-01 14:31:48.444919, 1.49071
2022-12-01 14:31:48.452903, 1.50538
2022-12-01 14:31:48.465168, 1.52493
2022-12-01 14:31:48.473940, 1.54448
2022-12-01 14:31:48.481736, 1.55914
2022-12-01 14:31:48.492976, 1.57380
2022-12-01 14:31:48.502155, 1.57869
2022-12-01 14:31:48.510026, 1.58358
2022-12-01 14:31:48.518571, 1.57869
2022-12-01 14:31:48.530891, 1.56891
2022-12-01 14:31:48.539039, 1.56891
2022-12-01 14:31:48.547134, 1.54448
2022-12-01 14:31:48.558494, 1.52493
2022-12-01 14:31:48.567819, 1.50049
2022-12-01 14:31:48.575854, 1.48094
2022-12-01 14:31:48.584019, 1.47605
2022-12-01 14:31:48.596516, 1.44184
2022-12-01 14:31:48.604494, 1.41740
2022-12-01 14:31:48.612814, 1.40274
2022-12-01 14:31:48.625083, 1.38319
2022-12-01 14:31:48.633491, 1.37341
2022-12-01 14:31:48.641298, 1.34897
2022-12-01 14:31:48.649448, 1.33431
2022-12-01 14:31:48.662288, 1.32454
2022-12-01 14:31:48.670009, 1.32454
2022-12-01 14:31:48.677999, 1.30010
2022-12-01 14:31:48.690336, 1.29032
2022-12-01 14:31:48.698720, 1.28055
2022-12-01 14:31:48.707353, 1.30010
2022-12-01 14:31:48.715347, 1.27077
2022-12-01 14:31:48.727332, 1.26100
2022-12-01 14:31:48.735465, 1.25611
2022-12-01 14:31:48.743896, 1.25611
2022-12-01 14:31:48.756020, 1.25611
2022-12-01 14:31:48.764561, 1.24633
2022-12-01 14:31:48.772707, 1.23656
2022-12-01 14:31:48.780676, 1.23656
2022-12-01 14:31:48.792654, 1.24633
2022-12-01 14:31:48.800636, 1.27077
2022-12-01 14:31:48.809675, 1.31965
2022-12-01 14:31:48.821576, 1.40762
2022-12-01 14:31:48.829063, 1.53959
2022-12-01 14:31:48.838000, 1.72532
2022-12-01 14:31:48.846199, 1.87683
2022-12-01 14:31:48.857636, 2.05767
2022-12-01 14:31:48.866621, 2.21896
2022-12-01 14:31:48.874600, 2.34604
2022-12-01 14:31:48.886539, 2.44868
2022-12-01 14:31:48.894524, 2.48778
2022-12-01 14:31:48.903584, 2.49756
2022-12-01 14:31:48.911471, 2.46823
2022-12-01 14:31:48.923566, 2.41935
2022-12-01 14:31:48.931545, 2.34604
2022-12-01 14:31:48.940545, 2.26784
2022-12-01 14:31:48.952259, 2.18475
2022-12-01 14:31:48.960751, 2.10655
2022-12-01 14:31:48.968384, 2.02835
2022-12-01 14:31:48.977362, 1.95015
2022-12-01 14:31:48.989327, 1.87683
2022-12-01 14:31:48.997309, 1.80841
2022-12-01 14:31:49.006283, 1.75953
2022-12-01 14:31:49.017257, 1.68133
2022-12-01 14:31:49.026230, 1.61779
2022-12-01 14:31:49.034310, 1.56403
2022-12-01 14:31:49.042161, 1.52004
2022-12-01 14:31:49.054578, 1.49560
2022-12-01 14:31:49.063346, 1.46628
2022-12-01 14:31:49.071666, 1.45161
2022-12-01 14:31:49.083107, 1.44673
2022-12-01 14:31:49.091320, 1.47605
2022-12-01 14:31:49.100244, 1.46628
2022-12-01 14:31:49.108392, 1.48094
2022-12-01 14:31:49.120440, 1.50049
2022-12-01 14:31:49.128337, 1.54936
2022-12-01 14:31:49.136316, 1.53470
2022-12-01 14:31:49.149229, 1.54936
2022-12-01 14:31:49.157260, 1.55914
2022-12-01 14:31:49.165317, 1.56891
2022-12-01 14:31:49.174215, 1.56891
2022-12-01 14:31:49.185190, 1.56403
2022-12-01 14:31:49.194472, 1.55425
2022-12-01 14:31:49.202139, 1.56403
2022-12-01 14:31:49.210173, 1.52493
2022-12-01 14:31:49.223086, 1.50538
2022-12-01 14:31:49.231067, 1.48583
2022-12-01 14:31:49.239044, 1.47116
2022-12-01 14:31:49.251616, 1.44673
2022-12-01 14:31:49.259753, 1.42229
2022-12-01 14:31:49.267750, 1.40274
2022-12-01 14:31:49.276396, 1.39785
2022-12-01 14:31:49.288581, 1.36852
2022-12-01 14:31:49.296569, 1.34897
2022-12-01 14:31:49.304980, 1.33431
2022-12-01 14:31:49.317186, 1.34897
2022-12-01 14:31:49.326021, 1.30987
2022-12-01 14:31:49.333775, 1.29521
2022-12-01 14:31:49.341632, 1.28543
2022-12-01 14:31:49.354030, 1.27566
2022-12-01 14:31:49.361737, 1.27566
2022-12-01 14:31:49.370267, 1.25611
2022-12-01 14:31:49.382779, 1.25122
2022-12-01 14:31:49.391269, 1.24633
2022-12-01 14:31:49.399271, 1.25611
2022-12-01 14:31:49.407103, 1.24145
2022-12-01 14:31:49.418809, 1.23167
2022-12-01 14:31:49.428182, 1.22678
2022-12-01 14:31:49.435929, 1.22678
2022-12-01 14:31:49.448378, 1.24145
2022-12-01 14:31:49.456500, 1.23167
2022-12-01 14:31:49.464559, 1.25611
2022-12-01 14:31:49.473039, 1.30987
2022-12-01 14:31:49.485283, 1.39785
2022-12-01 14:31:49.493338, 1.54936
2022-12-01 14:31:49.501469, 1.68622
2022-12-01 14:31:49.513410, 1.86706
2022-12-01 14:31:49.522181, 2.04790
2022-12-01 14:31:49.530169, 2.21408
2022-12-01 14:31:49.538424, 2.36070
2022-12-01 14:31:49.550664, 2.44379
2022-12-01 14:31:49.558677, 2.49267
2022-12-01 14:31:49.566872, 2.50244
2022-12-01 14:31:49.579241, 2.48289
2022-12-01 14:31:49.587671, 2.41935
2022-12-01 14:31:49.595939, 2.34604
2022-12-01 14:31:49.603946, 2.26784
2022-12-01 14:31:49.616216, 2.18964
2022-12-01 14:31:49.624430, 2.11144
2022-12-01 14:31:49.633785, 2.02835
2022-12-01 14:31:49.644908, 1.95015
2022-12-01 14:31:49.652853, 1.87195
2022-12-01 14:31:49.661231, 1.80352
2022-12-01 14:31:49.669172, 1.73509
2022-12-01 14:31:49.681693, 1.66667
2022-12-01 14:31:49.689951, 1.61290
2022-12-01 14:31:49.698083, 1.58358
2022-12-01 14:31:49.709862, 1.52493
2022-12-01 14:31:49.718638, 1.49071
2022-12-01 14:31:49.726888, 1.46628
2022-12-01 14:31:49.735027, 1.45650
2022-12-01 14:31:49.747260, 1.45161
2022-12-01 14:31:49.755923, 1.45650
2022-12-01 14:31:49.763665, 1.47116
2022-12-01 14:31:49.775909, 1.49071
2022-12-01 14:31:49.783750, 1.51026
2022-12-01 14:31:49.792407, 1.52493
2022-12-01 14:31:49.800918, 1.54448
2022-12-01 14:31:49.813012, 1.55914
2022-12-01 14:31:49.820253, 1.57869
2022-12-01 14:31:49.829337, 1.57380
2022-12-01 14:31:49.841434, 1.57380
2022-12-01 14:31:49.849836, 1.56891
2022-12-01 14:31:49.858043, 1.56403
2022-12-01 14:31:49.866093, 1.54448
2022-12-01 14:31:49.878450, 1.52493
2022-12-01 14:31:49.886487, 1.50538
2022-12-01 14:31:49.894920, 1.49071
2022-12-01 14:31:49.906881, 1.46628
2022-12-01 14:31:49.915264, 1.44184
2022-12-01 14:31:49.923944, 1.42229
2022-12-01 14:31:49.931605, 1.41740
2022-12-01 14:31:49.943157, 1.38807
2022-12-01 14:31:49.952291, 1.37341
2022-12-01 14:31:49.960473, 1.35386
2022-12-01 14:31:49.972515, 1.35875
2022-12-01 14:31:49.980748, 1.32942
2022-12-01 14:31:49.989011, 1.31476
2022-12-01 14:31:49.997207, 1.30010
2022-12-01 14:31:50.009247, 1.29032
2022-12-01 14:31:50.017660, 1.28543
2022-12-01 14:31:50.025788, 1.27077
2022-12-01 14:31:50.038068, 1.26588
2022-12-01 14:31:50.046330, 1.25611
2022-12-01 14:31:50.054519, 1.25611
2022-12-01 14:31:50.062697, 1.25122
2022-12-01 14:31:50.075086, 1.24633
2022-12-01 14:31:50.083282, 1.24145
2022-12-01 14:31:50.091296, 1.26588
2022-12-01 14:31:50.099845, 1.23656
2022-12-01 14:31:50.111849, 1.23167
2022-12-01 14:31:50.120142, 1.23656
2022-12-01 14:31:50.128131, 1.25122
2022-12-01 14:31:50.140406, 1.29032
2022-12-01 14:31:50.148732, 1.38807
2022-12-01 14:31:50.157644, 1.48094
2022-12-01 14:31:50.165224, 1.62268
2022-12-01 14:31:50.177452, 1.79863
2022-12-01 14:31:50.185942, 1.97947
2022-12-01 14:31:50.193780, 2.17498
2022-12-01 14:31:50.205109, 2.30205
2022-12-01 14:31:50.214078, 2.40958
2022-12-01 14:31:50.222065, 2.47312
2022-12-01 14:31:50.230041, 2.49267
2022-12-01 14:31:50.243004, 2.50244
2022-12-01 14:31:50.250978, 2.42913
2022-12-01 14:31:50.259022, 2.36559
2022-12-01 14:31:50.271302, 2.30694
2022-12-01 14:31:50.279284, 2.20919
2022-12-01 14:31:50.287260, 2.12610
2022-12-01 14:31:50.297235, 2.04301
2022-12-01 14:31:50.308370, 1.95992
2022-12-01 14:31:50.316485, 1.88172
2022-12-01 14:31:50.324352, 1.81329
2022-12-01 14:31:50.336371, 1.73998
2022-12-01 14:31:50.345296, 1.67644
2022-12-01 14:31:50.353346, 1.61290
2022-12-01 14:31:50.361898, 1.58847
2022-12-01 14:31:50.373868, 1.51515
2022-12-01 14:31:50.381848, 1.48094
2022-12-01 14:31:50.390819, 1.45650
2022-12-01 14:31:50.402956, 1.46139
2022-12-01 14:31:50.410766, 1.44184
2022-12-01 14:31:50.418742, 1.44184
2022-12-01 14:31:50.426721, 1.45650
2022-12-01 14:31:50.438663, 1.47116
2022-12-01 14:31:50.447667, 1.50049
2022-12-01 14:31:50.455643, 1.51515
2022-12-01 14:31:50.467990, 1.52981
2022-12-01 14:31:50.476031, 1.54936
2022-12-01 14:31:50.484952, 1.55914
2022-12-01 14:31:50.492923, 1.59335
2022-12-01 14:31:50.504958, 1.57380
2022-12-01 14:31:50.512870, 1.56403
2022-12-01 14:31:50.521845, 1.55914
2022-12-01 14:31:50.533372, 1.54448
2022-12-01 14:31:50.541793, 1.53470
2022-12-01 14:31:50.549770, 1.51026
2022-12-01 14:31:50.558752, 1.49071
2022-12-01 14:31:50.570552, 1.46628
2022-12-01 14:31:50.578474, 1.45161
2022-12-01 14:31:50.587068, 1.42717
2022-12-01 14:31:50.599458, 1.40762
2022-12-01 14:31:50.607338, 1.38319
2022-12-01 14:31:50.615642, 1.36852
2022-12-01 14:31:50.623538, 1.34897
2022-12-01 14:31:50.636301, 1.33920
2022-12-01 14:31:50.644334, 1.31965
2022-12-01 14:31:50.653513, 1.30499
2022-12-01 14:31:50.664951, 1.29521
2022-12-01 14:31:50.672982, 1.28543
2022-12-01 14:31:50.681176, 1.27077
2022-12-01 14:31:50.689164, 1.26100
2022-12-01 14:31:50.701782, 1.25611
2022-12-01 14:31:50.709867, 1.24633
2022-12-01 14:31:50.717855, 1.24633
2022-12-01 14:31:50.730339, 1.23656
2022-12-01 14:31:50.738529, 1.23167
2022-12-01 14:31:50.746826, 1.22678
2022-12-01 14:31:50.754847, 1.23167
2022-12-01 14:31:50.767223, 1.22190
2022-12-01 14:31:50.775459, 1.21701
2022-12-01 14:31:50.783606, 1.21701
2022-12-01 14:31:50.795592, 1.22190
2022-12-01 14:31:50.803577, 1.25122
2022-12-01 14:31:50.811551, 1.29521
2022-12-01 14:31:50.820748, 1.38319
2022-12-01 14:31:50.832855, 1.51026
2022-12-01 14:31:50.841036, 1.68133
2022-12-01 14:31:50.849290, 1.85239
2022-12-01 14:31:50.861434, 2.03324
2022-12-01 14:31:50.869936, 2.19941
2022-12-01 14:31:50.877727, 2.33627
2022-12-01 14:31:50.885867, 2.43402
2022-12-01 14:31:50.898192, 2.47801
2022-12-01 14:31:50.906245, 2.48289
2022-12-01 14:31:50.915466, 2.45357
2022-12-01 14:31:50.922850, 2.39980
2022-12-01 14:31:50.935425, 2.32649
2022-12-01 14:31:50.943428, 2.24340
2022-12-01 14:31:50.951531, 2.16031
2022-12-01 14:31:50.963037, 2.07722
2022-12-01 14:31:50.972112, 1.98925
2022-12-01 14:31:50.980508, 1.92082
2022-12-01 14:31:50.988522, 1.83284
2022-12-01 14:31:51.000771, 1.78397
2022-12-01 14:31:51.008610, 1.69110
2022-12-01 14:31:51.017076, 1.62268
2022-12-01 14:31:51.029258, 1.56891
2022-12-01 14:31:51.037503, 1.52004
2022-12-01 14:31:51.045747, 1.48094
2022-12-01 14:31:51.054839, 1.45650
2022-12-01 14:31:51.066243, 1.42717
2022-12-01 14:31:51.074254, 1.42229
2022-12-01 14:31:51.082275, 1.42717
2022-12-01 14:31:51.095025, 1.45161
2022-12-01 14:31:51.103038, 1.45161
2022-12-01 14:31:51.111377, 1.47116
2022-12-01 14:31:51.119365, 1.49560
2022-12-01 14:31:51.130864, 1.52004
2022-12-01 14:31:51.139933, 1.53959
2022-12-01 14:31:51.148030, 1.55914
2022-12-01 14:31:51.160703, 1.56891
2022-12-01 14:31:51.168657, 1.57380
2022-12-01 14:31:51.176852, 1.57380
2022-12-01 14:31:51.185574, 1.57380
2022-12-01 14:31:51.197368, 1.56403
2022-12-01 14:31:51.205513, 1.54936
2022-12-01 14:31:51.213794, 1.52981
2022-12-01 14:31:51.225919, 1.51515
2022-12-01 14:31:51.234201, 1.49071
2022-12-01 14:31:51.242486, 1.47116
2022-12-01 14:31:51.250225, 1.45161
2022-12-01 14:31:51.262141, 1.43206
2022-12-01 14:31:51.271267, 1.41740
2022-12-01 14:31:51.279247, 1.39785
2022-12-01 14:31:51.291211, 1.37830
2022-12-01 14:31:51.299422, 1.35875
2022-12-01 14:31:51.307169, 1.36852
2022-12-01 14:31:51.316148, 1.32942
2022-12-01 14:31:51.328118, 1.31965
2022-12-01 14:31:51.336498, 1.30987
2022-12-01 14:31:51.345711, 1.30010
2022-12-01 14:31:51.357049, 1.29521
2022-12-01 14:31:51.365176, 1.27566
2022-12-01 14:31:51.373544, 1.27077
2022-12-01 14:31:51.381287, 1.26588
2022-12-01 14:31:51.393836, 1.29032
2022-12-01 14:31:51.402129, 1.25611
2022-12-01 14:31:51.410471, 1.25122
2022-12-01 14:31:51.422552, 1.24633
2022-12-01 14:31:51.430814, 1.26588
2022-12-01 14:31:51.438819, 1.24145
2022-12-01 14:31:51.447315, 1.23656
2022-12-01 14:31:51.459403, 1.23656
2022-12-01 14:31:51.467657, 1.24633
2022-12-01 14:31:51.475949, 1.29032
2022-12-01 14:31:51.488161, 1.35386
2022-12-01 14:31:51.496306, 1.46139
2022-12-01 14:31:51.504460, 1.60313
2022-12-01 14:31:51.512860, 1.77419
2022-12-01 14:31:51.524700, 1.95015
2022-12-01 14:31:51.533407, 2.12121
2022-12-01 14:31:51.540937, 2.27273
2022-12-01 14:31:51.553476, 2.41447
2022-12-01 14:31:51.561191, 2.46334
2022-12-01 14:31:51.569989, 2.48778
2022-12-01 14:31:51.577948, 2.47801
2022-12-01 14:31:51.590548, 2.43891
2022-12-01 14:31:51.598849, 2.38025
2022-12-01 14:31:51.607225, 2.30205
2022-12-01 14:31:51.619249, 2.21896
2022-12-01 14:31:51.627316, 2.13587
2022-12-01 14:31:51.635556, 2.05279
2022-12-01 14:31:51.643826, 1.96970
2022-12-01 14:31:51.655962, 1.91105
2022-12-01 14:31:51.664365, 1.81329
2022-12-01 14:31:51.672543, 1.73998
2022-12-01 14:31:51.684510, 1.69110
2022-12-01 14:31:51.692540, 1.61779
2022-12-01 14:31:51.700788, 1.55914
2022-12-01 14:31:51.709444, 1.51515
2022-12-01 14:31:51.721412, 1.47605
2022-12-01 14:31:51.729448, 1.46628
2022-12-01 14:31:51.737424, 1.43695
2022-12-01 14:31:51.750211, 1.43206
2022-12-01 14:31:51.758518, 1.43695
2022-12-01 14:31:51.766316, 1.45161
2022-12-01 14:31:51.774793, 1.49071
2022-12-01 14:31:51.786948, 1.49560
2022-12-01 14:31:51.795079, 1.52004
2022-12-01 14:31:51.803404, 1.54448
2022-12-01 14:31:51.811141, 1.56403
2022-12-01 14:31:51.824186, 1.58358
2022-12-01 14:31:51.832277, 1.58847
2022-12-01 14:31:51.841507, 1.59335
2022-12-01 14:31:51.852691, 1.59335
2022-12-01 14:31:51.860857, 1.58847
2022-12-01 14:31:51.869143, 1.57869
2022-12-01 14:31:51.877214, 1.56403
2022-12-01 14:31:51.889420, 1.54448
2022-12-01 14:31:51.897880, 1.54936
2022-12-01 14:31:51.905871, 1.50538
2022-12-01 14:31:51.917791, 1.48583
2022-12-01 14:31:51.926387, 1.46139
2022-12-01 14:31:51.934367, 1.44184
2022-12-01 14:31:51.942728, 1.45161
2022-12-01 14:31:51.954928, 1.40762
2022-12-01 14:31:51.963446, 1.38807
2022-12-01 14:31:51.971425, 1.37341
2022-12-01 14:31:51.983654, 1.35875
2022-12-01 14:31:51.991726, 1.34409
2022-12-01 14:31:52.000134, 1.34409
2022-12-01 14:31:52.008818, 1.32454
2022-12-01 14:31:52.020550, 1.31476
2022-12-01 14:31:52.028707, 1.30499
2022-12-01 14:31:52.036690, 1.32942
2022-12-01 14:31:52.048651, 1.29521
2022-12-01 14:31:52.057677, 1.28543
2022-12-01 14:31:52.065598, 1.28055
2022-12-01 14:31:52.075509, 1.27566
2022-12-01 14:31:52.086310, 1.27077
2022-12-01 14:31:52.094260, 1.26588
2022-12-01 14:31:52.102557, 1.26100
2022-12-01 14:31:52.114737, 1.26100
2022-12-01 14:31:52.122972, 1.26100
2022-12-01 14:31:52.131195, 1.28055
2022-12-01 14:31:52.139183, 1.31476
2022-12-01 14:31:52.151561, 1.38807
2022-12-01 14:31:52.159984, 1.49560
2022-12-01 14:31:52.167970, 1.65689
2022-12-01 14:31:52.180396, 1.81818
2022-12-01 14:31:52.188582, 1.99413
2022-12-01 14:31:52.197176, 2.16520
2022-12-01 14:31:52.204884, 2.31672
2022-12-01 14:31:52.216361, 2.42424
2022-12-01 14:31:52.225514, 2.50733
2022-12-01 14:31:52.233313, 2.52688
2022-12-01 14:31:52.245282, 2.51222
2022-12-01 14:31:52.253260, 2.49756
2022-12-01 14:31:52.262315, 2.40469
2022-12-01 14:31:52.270683, 2.32649
2022-12-01 14:31:52.282647, 2.24340
2022-12-01 14:31:52.290643, 2.16031
2022-12-01 14:31:52.299470, 2.07234
2022-12-01 14:31:52.310983, 1.99413
2022-12-01 14:31:52.319002, 1.94037
2022-12-01 14:31:52.327937, 1.83773
2022-12-01 14:31:52.336197, 1.76931
2022-12-01 14:31:52.348043, 1.70088
2022-12-01 14:31:52.356028, 1.65200
2022-12-01 14:31:52.364842, 1.58847
2022-12-01 14:31:52.376353, 1.53959
2022-12-01 14:31:52.385281, 1.50538
2022-12-01 14:31:52.393157, 1.48094
2022-12-01 14:31:52.402134, 1.49071
2022-12-01 14:31:52.413104, 1.46139
2022-12-01 14:31:52.422081, 1.46628
2022-12-01 14:31:52.430061, 1.48094
2022-12-01 14:31:52.442454, 1.49560
2022-12-01 14:31:52.450451, 1.52004
2022-12-01 14:31:52.458410, 1.54936
2022-12-01 14:31:52.466976, 1.56403
2022-12-01 14:31:52.478949, 1.57869
2022-12-01 14:31:52.486989, 1.59824
2022-12-01 14:31:52.496023, 1.60802
2022-12-01 14:31:52.507081, 1.60802
2022-12-01 14:31:52.515462, 1.61290
2022-12-01 14:31:52.524444, 1.60313
2022-12-01 14:31:52.532233, 1.59335
2022-12-01 14:31:52.544110, 1.57869
2022-12-01 14:31:52.552509, 1.58358
2022-12-01 14:31:52.561085, 1.54448
2022-12-01 14:31:52.572934, 1.52004
2022-12-01 14:31:52.581528, 1.50049
2022-12-01 14:31:52.589886, 1.48094
2022-12-01 14:31:52.597866, 1.47116
2022-12-01 14:31:52.610264, 1.44184
2022-12-01 14:31:52.618681, 1.41740
2022-12-01 14:31:52.627510, 1.40762
2022-12-01 14:31:52.638971, 1.38807
2022-12-01 14:31:52.646951, 1.38807
2022-12-01 14:31:52.654933, 1.36364
2022-12-01 14:31:52.663906, 1.34897
2022-12-01 14:31:52.675152, 1.33920
2022-12-01 14:31:52.683978, 1.32942
2022-12-01 14:31:52.692105, 1.32454
2022-12-01 14:31:52.700210, 1.31965
2022-12-01 14:31:52.712948, 1.30987
2022-12-01 14:31:52.720912, 1.30499
2022-12-01 14:31:52.729403, 1.30010
2022-12-01 14:31:52.741479, 1.29032
2022-12-01 14:31:52.750441, 1.30010
2022-12-01 14:31:52.757963, 1.28055
2022-12-01 14:31:52.765990, 1.27566
2022-12-01 14:31:52.778550, 1.27566
2022-12-01 14:31:52.786673, 1.30010
2022-12-01 14:31:52.794741, 1.30987
2022-12-01 14:31:52.807039, 1.36364
2022-12-01 14:31:52.815273, 1.45161
2022-12-01 14:31:52.823509, 1.57869
2022-12-01 14:31:52.831812, 1.73509
2022-12-01 14:31:52.843468, 1.92082
2022-12-01 14:31:52.852089, 2.08700
2022-12-01 14:31:52.860374, 2.24340
2022-12-01 14:31:52.872595, 2.37048
2022-12-01 14:31:52.880787, 2.46334
2022-12-01 14:31:52.890150, 2.53177
2022-12-01 14:31:52.897791, 2.52688
2022-12-01 14:31:52.909379, 2.48778
2022-12-01 14:31:52.917664, 2.43891
2022-12-01 14:31:52.925670, 2.37048
2022-12-01 14:31:52.937986, 2.29228
2022-12-01 14:31:52.946406, 2.20919
2022-12-01 14:31:52.954454, 2.12610
2022-12-01 14:31:52.962672, 2.04301
2022-12-01 14:31:52.974860, 1.96481
2022-12-01 14:31:52.983144, 1.89150
2022-12-01 14:31:52.991930, 1.81329
2022-12-01 14:31:53.003757, 1.74976
2022-12-01 14:31:53.012532, 1.68622
2022-12-01 14:31:53.020066, 1.65689
2022-12-01 14:31:53.027990, 1.57869
2022-12-01 14:31:53.040568, 1.53959
2022-12-01 14:31:53.048667, 1.50538
2022-12-01 14:31:53.057181, 1.50538
2022-12-01 14:31:53.069374, 1.47605
2022-12-01 14:31:53.077288, 1.47116
2022-12-01 14:31:53.085588, 1.48094
2022-12-01 14:31:53.093653, 1.49560
2022-12-01 14:31:53.105125, 1.52493
2022-12-01 14:31:53.114357, 1.53470
2022-12-01 14:31:53.122660, 1.55425
2022-12-01 14:31:53.134647, 1.56891
2022-12-01 14:31:53.143010, 1.58358
2022-12-01 14:31:53.151275, 1.60313
2022-12-01 14:31:53.159040, 1.59824
2022-12-01 14:31:53.171583, 1.59335
2022-12-01 14:31:53.179958, 1.58847
2022-12-01 14:31:53.187903, 1.57869
2022-12-01 14:31:53.200188, 1.56891
2022-12-01 14:31:53.208301, 1.54936
2022-12-01 14:31:53.216673, 1.52981
2022-12-01 14:31:53.225013, 1.51026
2022-12-01 14:31:53.237284, 1.49560
2022-12-01 14:31:53.244996, 1.47116
2022-12-01 14:31:53.253472, 1.44673
2022-12-01 14:31:53.265629, 1.42717
2022-12-01 14:31:53.274031, 1.41251
2022-12-01 14:31:53.281997, 1.39785
2022-12-01 14:31:53.291467, 1.37830
2022-12-01 14:31:53.302824, 1.36364
2022-12-01 14:31:53.310835, 1.34897
2022-12-01 14:31:53.319033, 1.33431
2022-12-01 14:31:53.331434, 1.32454
2022-12-01 14:31:53.339657, 1.31476
2022-12-01 14:31:53.347629, 1.30010
2022-12-01 14:31:53.355611, 1.29521
2022-12-01 14:31:53.367576, 1.28543
2022-12-01 14:31:53.375803, 1.28543
2022-12-01 14:31:53.384984, 1.28055
2022-12-01 14:31:53.396500, 1.28543
2022-12-01 14:31:53.404478, 1.27077
2022-12-01 14:31:53.413457, 1.26100
2022-12-01 14:31:53.421433, 1.26100
2022-12-01 14:31:53.433670, 1.26100
2022-12-01 14:31:53.442125, 1.26100
2022-12-01 14:31:53.450516, 1.28543
2022-12-01 14:31:53.462505, 1.31965
2022-12-01 14:31:53.470573, 1.39296
2022-12-01 14:31:53.478886, 1.50538
2022-12-01 14:31:53.487178, 1.65689
2022-12-01 14:31:53.499294, 1.82796
2022-12-01 14:31:53.507282, 2.01857
2022-12-01 14:31:53.515415, 2.17498
2022-12-01 14:31:53.523952, 2.32160
2022-12-01 14:31:53.536180, 2.42424
2022-12-01 14:31:53.544046, 2.48778
2022-12-01 14:31:53.552028, 2.50733
2022-12-01 14:31:53.564847, 2.49267
2022-12-01 14:31:53.572252, 2.44868
2022-12-01 14:31:53.581387, 2.38514
2022-12-01 14:31:53.589345, 2.30694
2022-12-01 14:31:53.601493, 2.24829
2022-12-01 14:31:53.609926, 2.15054
2022-12-01 14:31:53.618049, 2.06745
2022-12-01 14:31:53.630364, 1.99413
2022-12-01 14:31:53.638515, 1.90616
2022-12-01 14:31:53.646917, 1.85728
2022-12-01 14:31:53.654860, 1.76931
2022-12-01 14:31:53.667110, 1.70577
2022-12-01 14:31:53.675314, 1.64712
2022-12-01 14:31:53.683596, 1.59335
2022-12-01 14:31:53.695334, 1.57380
2022-12-01 14:31:53.704140, 1.51515
2022-12-01 14:31:53.712128, 1.48583
2022-12-01 14:31:53.720562, 1.47116
2022-12-01 14:31:53.732848, 1.47116
2022-12-01 14:31:53.741340, 1.48094
2022-12-01 14:31:53.749088, 1.48583
2022-12-01 14:31:53.761291, 1.50049
2022-12-01 14:31:53.769492, 1.52004
2022-12-01 14:31:53.777573, 1.53959
2022-12-01 14:31:53.786026, 1.55425
2022-12-01 14:31:53.798423, 1.56891
2022-12-01 14:31:53.806458, 1.60313
2022-12-01 14:31:53.814667, 1.58847
2022-12-01 14:31:53.826887, 1.58358
2022-12-01 14:31:53.835865, 1.57869
2022-12-01 14:31:53.843256, 1.57380
2022-12-01 14:31:53.851475, 1.55914
2022-12-01 14:31:53.863817, 1.54448
2022-12-01 14:31:53.872448, 1.52493
2022-12-01 14:31:53.880394, 1.50049
2022-12-01 14:31:53.892372, 1.48094
2022-12-01 14:31:53.900915, 1.46139
2022-12-01 14:31:53.908595, 1.47116
2022-12-01 14:31:53.917588, 1.43206
2022-12-01 14:31:53.928560, 1.40762
2022-12-01 14:31:53.937533, 1.38807
2022-12-01 14:31:53.945514, 1.36852
2022-12-01 14:31:53.957479, 1.37341
2022-12-01 14:31:53.966132, 1.33920
2022-12-01 14:31:53.974805, 1.32942
2022-12-01 14:31:53.982689, 1.31476
2022-12-01 14:31:53.994751, 1.30499
2022-12-01 14:31:54.003227, 1.29521
2022-12-01 14:31:54.011262, 1.29032
2022-12-01 14:31:54.023506, 1.28055
2022-12-01 14:31:54.031962, 1.27566
2022-12-01 14:31:54.039849, 1.27077
2022-12-01 14:31:54.048161, 1.28055
2022-12-01 14:31:54.060463, 1.26588
2022-12-01 14:31:54.068508, 1.25611
2022-12-01 14:31:54.076809, 1.25611
2022-12-01 14:31:54.089229, 1.25122
2022-12-01 14:31:54.097339, 1.27077
2022-12-01 14:31:54.105475, 1.26100
2022-12-01 14:31:54.113911, 1.27566
2022-12-01 14:31:54.125875, 1.31476
2022-12-01 14:31:54.134196, 1.39296
2022-12-01 14:31:54.142170, 1.51026
2022-12-01 14:31:54.154313, 1.67644
2022-12-01 14:31:54.162739, 1.83284
2022-12-01 14:31:54.171448, 2.00880
2022-12-01 14:31:54.179634, 2.17498
2022-12-01 14:31:54.191408, 2.31672
2022-12-01 14:31:54.199738, 2.43891
2022-12-01 14:31:54.207761, 2.47801
2022-12-01 14:31:54.220341, 2.48778
2022-12-01 14:31:54.228361, 2.46823
2022-12-01 14:31:54.237549, 2.41447
2022-12-01 14:31:54.244868, 2.35093
2022-12-01 14:31:54.256925, 2.28739
2022-12-01 14:31:54.265331, 2.19453
2022-12-01 14:31:54.273440, 2.11144
2022-12-01 14:31:54.285620, 2.03324
2022-12-01 14:31:54.293981, 1.95503
2022-12-01 14:31:54.302228, 1.87195
2022-12-01 14:31:54.310294, 1.80352
2022-12-01 14:31:54.322612, 1.73021
2022-12-01 14:31:54.330602, 1.67155
2022-12-01 14:31:54.339101, 1.61290
2022-12-01 14:31:54.351455, 1.55914
2022-12-01 14:31:54.359918, 1.52004
2022-12-01 14:31:54.367721, 1.49560
2022-12-01 14:31:54.376137, 1.46628
2022-12-01 14:31:54.388101, 1.45161
2022-12-01 14:31:54.396309, 1.45161
2022-12-01 14:31:54.404319, 1.46139
2022-12-01 14:31:54.412507, 1.50049
2022-12-01 14:31:54.424908, 1.49071
2022-12-01 14:31:54.433155, 1.51026
2022-12-01 14:31:54.441263, 1.52981
2022-12-01 14:31:54.452669, 1.54936
2022-12-01 14:31:54.462033, 1.58358
2022-12-01 14:31:54.470151, 1.57380
2022-12-01 14:31:54.478259, 1.57869
2022-12-01 14:31:54.490512, 1.57869
2022-12-01 14:31:54.498879, 1.56891
2022-12-01 14:31:54.506931, 1.56403
2022-12-01 14:31:54.519118, 1.54448
2022-12-01 14:31:54.527420, 1.52493
2022-12-01 14:31:54.535561, 1.50538
2022-12-01 14:31:54.544770, 1.48583
2022-12-01 14:31:54.555775, 1.47605
2022-12-01 14:31:54.564239, 1.44673
2022-12-01 14:31:54.572483, 1.42229
2022-12-01 14:31:54.584878, 1.40762
2022-12-01 14:31:54.593099, 1.38807
2022-12-01 14:31:54.601107, 1.38807
2022-12-01 14:31:54.609512, 1.35386
2022-12-01 14:31:54.621351, 1.33431
2022-12-01 14:31:54.629773, 1.32454
2022-12-01 14:31:54.638805, 1.31476
2022-12-01 14:31:54.650463, 1.30987
2022-12-01 14:31:54.658584, 1.29032
2022-12-01 14:31:54.666654, 1.28055
2022-12-01 14:31:54.674947, 1.27566
2022-12-01 14:31:54.687109, 1.27077
2022-12-01 14:31:54.695331, 1.28055
2022-12-01 14:31:54.703820, 1.26100
2022-12-01 14:31:54.715810, 1.25122
2022-12-01 14:31:54.723992, 1.25122
2022-12-01 14:31:54.732135, 1.24633
2022-12-01 14:31:54.740379, 1.24145
2022-12-01 14:31:54.752674, 1.23656
2022-12-01 14:31:54.760835, 1.24145
2022-12-01 14:31:54.768991, 1.24145
2022-12-01 14:31:54.781293, 1.26100
2022-12-01 14:31:54.789507, 1.30987
2022-12-01 14:31:54.797495, 1.38807
2022-12-01 14:31:54.805852, 1.51515
2022-12-01 14:31:54.817908, 1.66178
2022-12-01 14:31:54.826380, 1.83773
2022-12-01 14:31:54.834668, 2.01369
2022-12-01 14:31:54.846883, 2.19453
2022-12-01 14:31:54.854527, 2.31183
2022-12-01 14:31:54.863514, 2.40958
2022-12-01 14:31:54.871640, 2.45357
2022-12-01 14:31:54.883775, 2.46334
2022-12-01 14:31:54.891764, 2.43891
2022-12-01 14:31:54.900146, 2.39003
2022-12-01 14:31:54.912443, 2.31672
2022-12-01 14:31:54.920532, 2.24340
2022-12-01 14:31:54.928817, 2.15543
2022-12-01 14:31:54.936805, 2.07722
2022-12-01 14:31:54.949225, 1.99413
2022-12-01 14:31:54.957544, 1.91593
2022-12-01 14:31:54.965630, 1.84262
2022-12-01 14:31:54.978034, 1.76931
2022-12-01 14:31:54.986164, 1.70088
2022-12-01 14:31:54.994605, 1.64223
2022-12-01 14:31:55.002504, 1.58358
2022-12-01 14:31:55.014835, 1.55425
2022-12-01 14:31:55.023145, 1.50049
2022-12-01 14:31:55.031268, 1.46628
2022-12-01 14:31:55.043271, 1.44673
2022-12-01 14:31:55.051158, 1.43695
2022-12-01 14:31:55.060138, 1.46628
2022-12-01 14:31:55.068206, 1.45161
2022-12-01 14:31:55.080383, 1.46628
2022-12-01 14:31:55.088437, 1.48583
2022-12-01 14:31:55.096738, 1.50538
2022-12-01 14:31:55.108387, 1.52493
2022-12-01 14:31:55.117212, 1.53959
2022-12-01 14:31:55.125347, 1.56891
2022-12-01 14:31:55.134708, 1.56403
2022-12-01 14:31:55.145906, 1.56403
2022-12-01 14:31:55.153894, 1.55914
2022-12-01 14:31:55.162255, 1.55425
2022-12-01 14:31:55.174493, 1.54936
2022-12-01 14:31:55.182560, 1.52981
2022-12-01 14:31:55.190927, 1.51026
2022-12-01 14:31:55.199064, 1.49560
2022-12-01 14:31:55.211345, 1.47116
2022-12-01 14:31:55.219805, 1.45161
2022-12-01 14:31:55.227698, 1.45650
2022-12-01 14:31:55.240250, 1.41251
2022-12-01 14:31:55.248428, 1.38807
2022-12-01 14:31:55.257221, 1.37341
2022-12-01 14:31:55.264746, 1.35875
2022-12-01 14:31:55.276683, 1.34409
2022-12-01 14:31:55.285331, 1.32454
2022-12-01 14:31:55.293021, 1.31965
2022-12-01 14:31:55.300889, 1.30010
2022-12-01 14:31:55.313980, 1.28543
2022-12-01 14:31:55.321931, 1.28055
2022-12-01 14:31:55.330215, 1.27077
2022-12-01 14:31:55.342637, 1.29032
2022-12-01 14:31:55.350742, 1.25611
2022-12-01 14:31:55.358867, 1.25122
2022-12-01 14:31:55.366907, 1.24145
2022-12-01 14:31:55.380161, 1.24145
2022-12-01 14:31:55.387559, 1.23656
2022-12-01 14:31:55.395897, 1.23656
2022-12-01 14:31:55.408050, 1.23167
2022-12-01 14:31:55.416341, 1.22678
2022-12-01 14:31:55.424497, 1.22190
2022-12-01 14:31:55.432707, 1.22678
2022-12-01 14:31:55.444862, 1.25122
2022-12-01 14:31:55.452841, 1.29032
2022-12-01 14:31:55.460820, 1.36364
2022-12-01 14:31:55.472840, 1.48094
2022-12-01 14:31:55.481592, 1.63245
2022-12-01 14:31:55.489620, 1.81329
2022-12-01 14:31:55.497601, 1.98925
2022-12-01 14:31:55.509753, 2.15054
2022-12-01 14:31:55.518542, 2.28739
2022-12-01 14:31:55.526580, 2.39003
2022-12-01 14:31:55.538493, 2.44868
2022-12-01 14:31:55.547321, 2.46334
2022-12-01 14:31:55.555463, 2.44379
2022-12-01 14:31:55.563702, 2.39980
2022-12-01 14:31:55.575910, 2.33138
2022-12-01 14:31:55.584330, 2.25318
2022-12-01 14:31:55.592182, 2.17009
2022-12-01 14:31:55.604658, 2.08700
2022-12-01 14:31:55.613585, 2.00391
2022-12-01 14:31:55.621036, 1.92571
2022-12-01 14:31:55.629674, 1.84751
2022-12-01 14:31:55.641549, 1.77908
2022-12-01 14:31:55.649720, 1.71065
2022-12-01 14:31:55.658050, 1.64712
2022-12-01 14:31:55.670359, 1.58847
2022-12-01 14:31:55.678348, 1.53470
2022-12-01 14:31:55.686543, 1.51515
2022-12-01 14:31:55.694649, 1.46628
2022-12-01 14:31:55.706133, 1.44184
2022-12-01 14:31:55.715105, 1.43206
2022-12-01 14:31:55.723094, 1.43206
2022-12-01 14:31:55.735453, 1.45650
2022-12-01 14:31:55.743432, 1.46139
2022-12-01 14:31:55.752405, 1.48094
2022-12-01 14:31:55.759960, 1.50049
2022-12-01 14:31:55.772280, 1.52493
2022-12-01 14:31:55.780889, 1.54448
2022-12-01 14:31:55.788697, 1.55914
2022-12-01 14:31:55.800751, 1.59335
2022-12-01 14:31:55.808664, 1.58358
2022-12-01 14:31:55.817622, 1.58358
2022-12-01 14:31:55.825842, 1.57869
2022-12-01 14:31:55.837411, 1.56891
2022-12-01 14:31:55.846116, 1.55914
2022-12-01 14:31:55.854095, 1.53470
2022-12-01 14:31:55.866064, 1.52004
2022-12-01 14:31:55.875040, 1.50049
2022-12-01 14:31:55.883016, 1.48094
2022-12-01 14:31:55.891994, 1.46139
2022-12-01 14:31:55.903100, 1.46628
2022-12-01 14:31:55.912078, 1.42229
2022-12-01 14:31:55.919791, 1.40274
2022-12-01 14:31:55.932119, 1.38319
2022-12-01 14:31:55.940681, 1.36852
2022-12-01 14:31:55.948657, 1.35386
2022-12-01 14:31:55.956640, 1.34897
2022-12-01 14:31:55.968604, 1.32942
2022-12-01 14:31:55.977276, 1.31476
2022-12-01 14:31:55.985254, 1.30499
2022-12-01 14:31:55.997343, 1.30010
