87.78082191780821
87.78082191780821
87.78082191780821
87.78082191780821
88.18721461187214
88.59360730593608
89.84761904761903
90.2654594232059
90.68329979879275
90.25352112676056
90.25352112676056
90.25352112676056
90.25352112676056
89.8356807511737
89.01144768152292
88.59360730593608
88.18721461187214
88.59360730593608
88.59360730593608
89.0
89.0
89.0
89.41784037558685
90.2654594232059
91.11307847082493
91.98509316770185
91.55531449566966
91.55531449566966
90.68329979879275
90.68329979879275
90.68329979879275
90.68329979879275
91.11307847082493
90.68329979879275
90.2654594232059
89.8356807511737
89.41784037558685
89.8356807511737
90.2654594232059
90.68329979879275
91.11307847082493
90.68329979879275
90.68329979879275
90.25352112676056
90.68329979879275
91.11307847082493
91.11307847082495
91.11307847082493
90.68329979879275
90.2654594232059
89.8356807511737
89.01144768152292
89.01144768152292
88.18721461187214
88.18721461187214
88.18721461187214
89.44122635355511
90.2654594232059
91.11307847082493
90.68329979879275
91.11307847082493
91.11307847082493
91.54285714285713
91.98509316770185
91.55531449566966
91.55531449566966
90.68329979879275
90.68329979879275
90.68329979879275
91.11307847082493
90.69523809523808
89.84761904761905
88.59360730593606
88.18721461187214
88.18721461187214
88.18721461187214
87.40694063926941
86.60513883746759
85.82486486486485
86.60513883746759
87.40694063926941
88.18721461187214
88.18721461187214
88.18721461187214
88.18721461187214
89.01144768152292
89.42928805710977
90.25352112676056
90.25352112676056
90.25352112676056
90.25352112676056
90.68329979879275
90.2654594232059
89.84761904761905
89.0
89.41784037558685
89.8356807511737
90.25352112676056
90.25352112676056
89.8356807511737
89.8356807511737
90.2654594232059
91.55531449566965
91.98509316770185
92.42732919254658
92.88257215929849
93.78005115089513
94.23529411764706
94.23529411764706
93.78005115089513
93.32480818414322
93.32480818414321
93.32480818414322
93.32480818414322
92.86956521739128
92.86956521739128
93.79364049318623
94.24888345993816
95.1729587357331
94.70412642669008
95.6559980844441
95.65599808444408
96.60786974219809
96.1248303934871
96.1248303934871
95.1729587357331
95.1729587357331
94.70412642669008
94.70412642669008
94.23529411764706
93.78005115089513
93.78005115089513
93.78005115089513
93.78005115089513
93.32480818414322
92.42732919254657
92.88257215929849
92.88257215929849
92.88257215929849
91.98509316770185
91.98509316770185
92.42732919254658
92.86956521739128
92.42732919254657
92.42732919254658
91.98509316770185
91.98509316770185
91.98509316770185
92.42732919254658
93.32480818414321
93.78005115089513
94.23529411764706
93.78005115089513
93.78005115089513
93.32480818414322
93.32480818414322
93.79364049318623
94.24888345993816
94.70412642669008
94.23529411764706
93.78005115089513
93.78005115089513
93.78005115089513
93.78005115089513
92.88257215929849
91.55531449566966
90.68329979879275
90.25352112676056
89.8356807511737
89.41784037558685
89.0
89.41784037558685
90.2654594232059
91.11307847082493
91.11307847082495
91.11307847082493
90.68329979879275
91.11307847082493
91.11307847082493
91.11307847082495
90.2654594232059
89.8356807511737
89.01144768152292
89.01144768152292
89.01144768152292
89.41784037558685
89.41784037558685
88.59360730593606
88.59360730593608
88.18721461187214
88.59360730593608
88.18721461187214
88.18721461187214
87.78082191780821
87.38541281007033
87.38541281007033
87.38541281007033
87.38541281007033
86.99000370233247
86.59459459459458
86.59459459459458
86.59459459459458
86.99000370233246
87.79180550413426
87.79180550413426
87.79180550413426
87.38541281007033
88.18721461187214
88.59360730593608
88.59360730593606
88.59360730593608
88.18721461187214
88.18721461187214
88.18721461187214
88.59360730593608
89.0
88.59360730593606
88.59360730593608
88.59360730593608
89.41784037558685
89.8356807511737
90.25352112676056
90.25352112676056
89.8356807511737
89.8356807511737
90.2654594232059
90.68329979879275
90.68329979879275
90.68329979879275
90.68329979879275
91.11307847082493
91.55531449566965
91.55531449566966
91.12553582363748
89.8356807511737
89.41784037558685
89.41784037558685
89.41784037558685
89.01144768152292
87.79180550413426
87.38541281007033
87.79180550413426
88.59360730593608
88.59360730593606
88.59360730593608
88.18721461187214
89.01144768152292
89.01144768152292
89.41784037558685
89.0
88.59360730593606
88.59360730593608
88.59360730593608
89.0
88.59360730593606
88.59360730593608
88.18721461187214
88.59360730593608
89.01144768152292
89.8356807511737
89.8356807511737
89.41784037558685
89.41784037558685
90.2654594232059
91.11307847082493
91.11307847082495
90.68329979879275
90.68329979879275
90.68329979879275
91.55531449566965
91.55531449566966
92.42732919254658
91.98509316770185
91.98509316770185
91.54285714285713
91.98509316770185
91.98509316770185
92.42732919254658
91.98509316770185
92.88257215929849
92.88257215929849
93.78005115089513
93.78005115089513
94.23529411764706
94.23529411764706
94.23529411764706
93.78005115089513
93.32480818414322
92.42732919254657
91.98509316770185
91.11307847082495
90.68329979879275
90.68329979879275
91.11307847082493
91.98509316770185
91.98509316770185
91.98509316770185
91.98509316770185
91.98509316770185
92.88257215929849
92.88257215929849
93.32480818414322
92.42732919254657
92.42732919254658
91.98509316770185
91.98509316770185
91.98509316770185
91.98509316770185
91.98509316770185
91.11307847082495
91.11307847082493
91.55531449566965
92.42732919254658
92.86956521739128
92.86956521739128
92.86956521739128
92.86956521739128
92.86956521739128
93.32480818414321
93.32480818414322
92.88257215929849
91.98509316770185
91.54285714285713
91.54285714285713
91.98509316770185
91.98509316770185
91.55531449566966
90.68329979879275
90.25352112676056
90.68329979879275
91.11307847082493
91.54285714285713
91.11307847082495
90.68329979879275
89.8356807511737
89.8356807511737
90.2654594232059
90.68329979879275
90.2654594232059
89.8356807511737
89.41784037558685
89.41784037558685
89.84761904761903
89.84761904761905
90.2654594232059
89.41784037558685
89.8356807511737
89.8356807511737
90.68329979879275
91.11307847082493
91.54285714285713
91.11307847082495
91.11307847082493
91.55531449566965
91.98509316770185
91.98509316770185
91.54285714285713
91.11307847082495
91.11307847082493
91.55531449566965
91.98509316770185
91.98509316770185
91.54285714285713
91.54285714285713
91.54285714285713
91.98509316770185
92.42732919254658
92.42732919254657
91.98509316770185
91.98509316770185
92.42732919254658
92.86956521739128
92.42732919254657
91.98509316770185
91.54285714285713
91.98509316770185
92.42732919254658
92.86956521739128
92.86956521739128
92.42732919254657
91.98509316770185
91.54285714285713
91.54285714285713
91.98509316770185
91.98509316770185
91.98509316770185
91.11307847082495
91.11307847082493
90.68329979879275
90.68329979879275
90.68329979879275
90.68329979879275
90.68329979879275
90.25352112676056
90.25352112676056
90.25352112676056
90.68329979879275
90.68329979879275
90.68329979879275
90.25352112676056
90.68329979879275
90.68329979879275
91.55531449566965
91.55531449566966
91.55531449566966
91.11307847082493
90.68329979879275
91.55531449566965
91.55531449566966
91.98509316770185
91.54285714285713
91.11307847082495
90.68329979879275
90.68329979879275
91.11307847082493
91.11307847082495
90.68329979879275
90.25352112676056
90.68329979879275
91.55531449566965
91.98509316770185
92.42732919254658
91.98509316770185
91.98509316770185
91.11307847082495
90.2654594232059
89.8356807511737
89.41784037558685
89.8356807511737
89.8356807511737
90.25352112676056
90.25352112676056
90.25352112676056
90.25352112676056
90.25352112676056
90.25352112676056
90.25352112676056
90.68329979879275
91.11307847082493
91.54285714285713
91.11307847082495
90.68329979879275
90.25352112676056
90.68329979879275
91.11307847082493
91.54285714285713
91.11307847082495
91.55531449566965
91.55531449566966
92.42732919254658
92.42732919254658
92.42732919254657
91.55531449566966
91.55531449566965
91.55531449566966
92.42732919254658
91.98509316770185
91.98509316770185
91.11307847082495
91.11307847082493
91.55531449566965
91.98509316770185
92.42732919254658
91.98509316770185
91.98509316770185
91.98509316770185
92.42732919254658
92.86956521739128
92.42732919254657
92.42732919254658
91.55531449566966
91.99755052051438
91.55531449566966
92.42732919254658
91.98509316770185
91.98509316770185
91.54285714285713
91.54285714285713
91.98509316770185
91.98509316770185
91.98509316770185
91.11307847082495
90.2654594232059
89.8356807511737
89.8356807511737
90.25352112676056
89.8356807511737
89.41784037558685
88.59360730593606
88.59360730593608
88.59360730593608
89.41784037558685
89.8356807511737
90.25352112676056
89.8356807511737
89.8356807511737
89.8356807511737
90.25352112676056
90.25352112676056
90.68329979879275
90.68329979879275
90.68329979879275
89.8356807511737
89.8356807511737
89.8356807511737
90.68329979879275
91.11307847082493
91.11307847082495
90.68329979879275
90.25352112676056
90.25352112676056
90.68329979879275
90.68329979879275
91.11307847082493
90.68329979879275
90.68329979879275
90.68329979879275
91.11307847082493
91.54285714285713
91.11307847082495
90.68329979879275
90.68329979879275
91.55531449566965
91.98509316770185
92.42732919254658
92.42732919254658
92.42732919254657
92.42732919254658
92.42732919254658
92.86956521739128
92.86956521739128
92.42732919254657
91.98509316770185
91.54285714285713
91.98509316770185
92.42732919254658
92.42732919254657
92.42732919254658
91.98509316770185
92.42732919254658
92.88257215929849
93.32480818414322
93.32480818414322
93.32480818414321
92.88257215929849
92.88257215929849
92.88257215929849
93.32480818414322
93.32480818414322
92.42732919254657
92.42732919254658
92.88257215929849
93.78005115089513
94.70412642669008
95.6559980844441
97.10577184010019
98.60017482517482
98.60017482517482
98.10227272727272
97.09090909090908
96.60786974219809
96.60786974219809
96.60786974219809
97.09090909090908
96.60786974219809
96.1248303934871
95.1729587357331
94.70412642669008
94.23529411764706
94.23529411764706
94.23529411764706
93.33781512605042
92.44033613445377
91.54285714285713
91.11307847082495
91.55531449566965
91.55531449566966
91.98509316770185
91.54285714285713
91.54285714285713
91.54285714285713
91.54285714285713
92.44033613445377
92.88257215929849
93.78005115089513
93.32480818414322
93.32480818414322
93.32480818414321
93.78005115089513
94.70412642669008
95.6559980844441
97.10577184010019
97.10577184010019
96.15390018234618
95.1729587357331
95.1729587357331
95.64179104477613
96.12483039348712
96.60786974219809
96.13903743315507
94.73192280864913
93.32480818414322
92.86956521739128
92.86956521739128
92.86956521739128
92.86956521739128
92.42732919254657
91.98509316770185
92.44033613445377
93.80664743509344
94.70412642669008
94.70412642669008
94.23529411764706
93.78005115089513
93.78005115089513
93.78005115089513
93.78005115089513
92.88257215929849
92.42732919254658
92.42732919254658
92.42732919254657
91.98509316770185
91.54285714285713
91.11307847082495
91.11307847082493
91.11307847082493
91.54285714285713
91.11307847082495
90.68329979879275
90.68329979879275
91.11307847082493
91.98509316770185
91.98509316770185
91.55531449566966
90.68329979879275
90.68329979879275
90.68329979879275
90.68329979879275
91.12553582363748
91.55531449566966
91.98509316770185
91.54285714285713
91.54285714285713
91.54285714285713
91.98509316770185
92.88257215929849
93.32480818414322
93.32480818414322
93.79364049318623
94.71771576898118
96.12483039348712
97.10577184010019
97.58881118881118
97.10577184010019
96.1248303934871
95.64179104477613
96.12483039348712
95.65599808444408
95.18716577540106
94.23529411764706
94.23529411764706
94.23529411764706
94.70412642669008
95.1729587357331
95.64179104477613
95.64179104477613
95.1729587357331
95.1729587357331
95.1729587357331
96.12483039348712
96.60786974219809
96.60786974219809
95.65599808444408
95.1729587357331
95.1729587357331
95.64179104477613
95.64179104477613
95.64179104477613
95.64179104477613
95.1729587357331
94.70412642669008
94.23529411764706
94.70412642669008
94.70412642669008
94.70412642669008
94.23529411764706
94.70412642669008
95.1729587357331
95.64179104477613
95.1729587357331
95.1729587357331
94.70412642669008
95.1729587357331
95.6559980844441
95.65599808444408
95.65599808444408
94.70412642669008
94.70412642669008
94.23529411764706
94.70412642669008
94.70412642669008
94.70412642669008
94.23529411764706
94.23529411764706
94.23529411764706
94.23529411764706
94.23529411764706
93.78005115089513
93.32480818414322
92.86956521739128
92.86956521739128
93.32480818414321
93.78005115089513
93.78005115089513
93.32480818414322
92.86956521739128
92.86956521739128
93.32480818414321
93.32480818414322
93.32480818414322
92.86956521739128
93.32480818414321
93.32480818414322
93.78005115089513
93.78005115089513
93.78005115089513
93.32480818414322
93.32480818414321
93.78005115089513
93.78005115089513
92.88257215929849
92.88257215929849
92.88257215929849
93.78005115089513
93.32480818414322
93.32480818414322
93.32480818414321
93.78005115089513
94.70412642669008
94.70412642669008
94.70412642669008
94.70412642669008
94.70412642669008
94.70412642669008
94.70412642669008
94.70412642669008
94.24888345993816
93.32480818414322
92.86956521739128
93.32480818414321
93.32480818414322
92.88257215929849
92.42732919254658
92.42732919254658
92.86956521739128
93.32480818414321
93.32480818414322
93.32480818414322
92.86956521739128
92.86956521739128
92.42732919254657
91.55531449566966
89.85906672914196
89.01144768152292
88.59360730593608
89.0
88.59360730593606
87.79180550413426
87.79180550413426
87.79180550413426
87.79180550413426
86.60513883746759
85.4501280227596
85.06526315789472
84.69052631578947
84.69052631578947
83.59514170040485
83.23013828276986
83.23013828276986
83.23013828276986
82.87449392712551
82.15384615384616
82.50949050949052
83.98973998973999
85.0851246051246
85.82486486486485
85.44
85.82486486486485
85.82486486486485
85.0851246051246
83.60487512487512
82.50949050949052
81.80720545277508
81.460564751704
80.7759493670886
80.4379746835443
80.78461538461538
81.1225900681597
81.1225900681597
80.7759493670886
80.7759493670886
81.81620910734836
82.16284980841942
82.50949050949052
82.15384615384616
82.87449392712551
83.59514170040485
83.9507860560492
83.9507860560492
84.71038776301933
85.83499288762445
86.59459459459458
86.99000370233246
86.23040199536234
85.84553713049746
85.06526315789472
85.44
84.70025974025972
83.96051948051948
83.2207792207792
82.51849416406378
81.81620910734836
81.11392405063292
81.460564751704
82.16284980841942
82.50949050949052
82.86513486513486
83.23013828276986
84.32552289815447
85.06526315789472
85.82486486486485
86.20972972972973
86.99000370233246
87.79180550413426
88.59360730593608
89.0
88.59360730593606
88.59360730593608
89.01144768152292
89.41784037558685
89.8356807511737
89.41784037558685
89.8356807511737
89.8356807511737
90.68329979879275
90.68329979879275
90.68329979879275
90.25352112676056
90.68329979879275
90.68329979879275
90.2654594232059
89.41784037558685
89.0
89.41784037558685
89.41784037558685
89.41784037558685
88.59360730593606
88.59360730593608
88.59360730593608
89.0
89.0
89.0
89.0
89.41784037558685
89.41784037558685
89.01144768152292
88.59360730593608
89.01144768152292
89.41784037558685
89.8356807511737
90.2654594232059
90.68329979879275
91.11307847082493
91.55531449566965
91.98509316770185
91.98509316770185
91.11307847082495
91.11307847082493
91.11307847082493
91.98509316770185
92.42732919254658
92.42732919254657
91.98509316770185
91.11307847082495
91.11307847082493
91.11307847082493
91.98509316770185
91.98509316770185
91.55531449566966
91.11307847082493
90.68329979879275
90.68329979879275
90.25352112676056
89.8356807511737
89.8356807511737
89.01144768152292
89.42928805710977
89.42928805710977
90.25352112676056
90.25352112676056
90.68329979879275
91.11307847082493
91.54285714285713
91.98509316770185
92.42732919254658
92.42732919254657
91.98509316770185
91.54285714285713
91.54285714285713
91.54285714285713
91.54285714285713
91.54285714285713
91.11307847082495
91.11307847082493
91.55531449566965
92.42732919254658
92.86956521739128
92.86956521739128
92.86956521739128
92.42732919254657
92.42732919254658
92.42732919254658
92.42732919254657
92.42732919254658
91.98509316770185
92.42732919254658
92.88257215929849
93.32480818414322
93.78005115089513
93.32480818414322
92.88257215929849
92.42732919254658
91.98509316770185
91.55531449566966
90.68329979879275
90.68329979879275
91.11307847082493
91.98509316770185
91.98509316770185
91.98509316770185
91.98509316770185
92.88257215929849
93.78005115089513
94.23529411764706
94.23529411764706
94.23529411764706
94.70412642669008
94.70412642669008
94.70412642669008
94.23529411764706
94.23529411764706
93.78005115089513
93.32480818414322
93.79364049318623
94.24888345993816
94.24888345993816
93.32480818414322
92.86956521739128
93.79364049318623
94.24888345993816
95.1729587357331
94.70412642669008
94.70412642669008
93.78005115089513
93.78005115089513
93.78005115089513
93.78005115089513
93.32480818414322
92.86956521739128
92.42732919254657
92.42732919254658
92.88257215929849
93.78005115089513
94.23529411764706
93.78005115089513
93.78005115089513
93.32480818414322
93.78005115089513
93.78005115089513
93.78005115089513
92.88257215929849
91.98509316770185
91.98509316770185
92.42732919254658
92.86956521739128
92.42732919254657
91.98509316770185
91.98509316770185
92.42732919254658
92.42732919254657
92.42732919254658
92.42732919254658
92.86956521739128
92.42732919254657
91.98509316770185
91.98509316770185
92.42732919254658
92.42732919254657
91.98509316770185
91.54285714285713
91.54285714285713
91.54285714285713
91.98509316770185
91.98509316770185
91.98509316770185
91.98509316770185
92.42732919254658
92.86956521739128
92.86956521739128
92.42732919254657
92.42732919254658
92.88257215929849
93.32480818414322
93.32480818414322
92.42732919254657
92.88257215929849
92.88257215929849
93.32480818414322
92.42732919254657
92.42732919254658
92.42732919254658
92.86956521739128
92.42732919254657
92.42732919254658
91.98509316770185
92.42732919254658
92.42732919254658
92.86956521739128
92.42732919254657
92.42732919254658
91.98509316770185
91.98509316770185
91.54285714285713
91.98509316770185
91.98509316770185
92.42732919254658
91.98509316770185
91.98509316770185
91.11307847082495
91.11307847082493
91.11307847082493
91.11307847082495
90.68329979879275
90.25352112676056
89.8356807511737
89.8356807511737
90.2654594232059
90.68329979879275
91.11307847082493
90.68329979879275
91.11307847082493
91.11307847082493
91.54285714285713
91.98509316770185
91.98509316770185
91.98509316770185
91.11307847082495
91.11307847082493
91.55531449566965
91.98509316770185
91.98509316770185
91.11307847082495
91.11307847082493
90.68329979879275
91.11307847082493
91.11307847082493
91.54285714285713
91.11307847082495
90.2654594232059
89.8356807511737
90.2654594232059
91.55531449566965
92.42732919254658
92.86956521739128
92.42732919254657
92.42732919254658
92.88257215929849
92.88257215929849
92.88257215929849
91.98509316770185
92.42732919254658
92.42732919254658
93.32480818414321
93.32480818414322
93.32480818414322
92.86956521739128
93.32480818414321
93.78005115089513
93.78005115089513
93.32480818414322
93.32480818414321
93.78005115089513
93.78005115089513
92.88257215929849
92.42732919254658
92.42732919254658
92.86956521739128
92.42732919254657
91.98509316770185
91.54285714285713
91.54285714285713
91.98509316770185
92.42732919254658
92.42732919254657
91.98509316770185
91.54285714285713
91.98509316770185
91.98509316770185
91.55531449566966
91.11307847082493
91.11307847082493
91.54285714285713
91.54285714285713
91.54285714285713
91.11307847082495
91.11307847082493
91.11307847082493
91.54285714285713
91.11307847082495
90.68329979879275
90.25352112676056
90.25352112676056
90.68329979879275
90.68329979879275
90.68329979879275
90.68329979879275
91.11307847082493
91.54285714285713
91.54285714285713
91.54285714285713
91.54285714285713
91.54285714285713
91.54285714285713
91.54285714285713
90.69523809523808
89.44122635355511
88.18721461187214
87.78082191780821
87.78082191780821
87.38541281007033
86.60513883746759
86.20972972972973
86.20972972972973
87.3963963963964
88.19819819819818
88.59360730593606
88.18721461187214
88.18721461187214
88.18721461187214
88.59360730593608
88.59360730593608
88.59360730593606
88.18721461187214
87.78082191780821
87.78082191780821
87.78082191780821
88.18721461187214
88.59360730593608
89.0
88.59360730593606
88.18721461187214
88.18721461187214
88.59360730593608
89.41784037558685
89.8356807511737
89.8356807511737
89.01144768152292
89.01144768152292
89.42928805710977
90.25352112676056
90.25352112676056
90.25352112676056
90.25352112676056
90.25352112676056
90.25352112676056
90.68329979879275
90.68329979879275
90.2654594232059
89.8356807511737
90.2654594232059
91.11307847082493
91.11307847082495
91.11307847082493
91.11307847082493
91.98509316770185
92.42732919254658
92.42732919254657
92.42732919254658
92.42732919254658
92.86956521739128
92.86956521739128
92.86956521739128
92.42732919254657
92.88257215929849
92.88257215929849
93.32480818414322
92.86956521739128
92.42732919254657
92.42732919254658
92.88257215929849
92.88257215929849
92.88257215929849
91.98509316770185
92.42732919254658
92.88257215929849
92.88257215929849
92.44033613445377
91.98509316770185
91.98509316770185
92.88257215929849
92.88257215929849
92.88257215929849
92.88257215929849
93.33781512605042
94.70412642669008
94.70412642669008
95.6559980844441
96.13903743315507
96.60786974219809
96.1248303934871
94.71771576898118
93.79364049318625
91.99755052051438
91.55531449566966
91.11307847082493
91.98509316770185
92.42732919254658
92.42732919254657
91.55531449566966
91.11307847082493
90.68329979879275
91.55531449566965
91.55531449566966
92.42732919254658
92.42732919254658
92.42732919254657
91.98509316770185
91.98509316770185
92.42732919254658
92.86956521739128
92.86956521739128
92.42732919254657
92.42732919254658
92.88257215929849
93.78005115089513
94.70412642669008
94.70412642669008
94.70412642669008
94.23529411764706
94.70412642669008
94.70412642669008
95.1729587357331
95.1729587357331
95.1729587357331
94.70412642669008
93.78005115089513
93.32480818414322
93.32480818414321
93.78005115089513
94.23529411764706
93.78005115089513
93.32480818414322
92.86956521739128
92.86956521739128
93.32480818414321
93.78005115089513
93.78005115089513
93.32480818414322
93.32480818414321
93.78005115089513
93.78005115089513
92.88257215929849
92.42732919254658
92.88257215929849
93.32480818414322
93.32480818414322
92.86956521739128
92.86956521739128
93.32480818414321
93.32480818414322
92.88257215929849
92.88257215929849
92.88257215929849
92.88257215929849
91.98509316770185
91.54285714285713
91.98509316770185
92.42732919254658
92.86956521739128
92.86956521739128
92.42732919254657
92.42732919254658
91.98509316770185
92.42732919254658
92.42732919254658
92.86956521739128
92.86956521739128
92.42732919254657
92.42732919254658
92.88257215929849
93.32480818414322
93.32480818414322
92.42732919254657
91.98509316770185
91.98509316770185
92.42732919254658
92.42732919254657
92.42732919254658
91.98509316770185
92.88257215929849
92.88257215929849
92.88257215929849
91.98509316770185
91.54285714285713
91.98509316770185
92.42732919254658
92.42732919254657
92.42732919254658
92.88257215929849
93.32480818414322
93.32480818414322
92.42732919254657
92.42732919254658
92.42732919254658
92.86956521739128
92.86956521739128
92.42732919254657
92.88257215929849
92.88257215929849
93.32480818414322
92.42732919254657
91.98509316770185
91.54285714285713
91.54285714285713
91.54285714285713
91.54285714285713
91.11307847082495
91.11307847082493
91.55531449566965
91.98509316770185
91.98509316770185
91.54285714285713
91.54285714285713
91.98509316770185
91.98509316770185
91.98509316770185
91.54285714285713
92.44033613445377
92.44033613445377
92.44033613445377
91.54285714285713
91.98509316770185
91.98509316770185
91.98509316770185
91.54285714285713
91.54285714285713
91.98509316770185
92.42732919254658
92.42732919254657
91.55531449566966
91.11307847082493
91.11307847082493
91.54285714285713
91.11307847082495
90.68329979879275
90.25352112676056
90.68329979879275
90.68329979879275
90.2654594232059
89.8356807511737
89.8356807511737
90.25352112676056
90.25352112676056
89.8356807511737
89.8356807511737
90.70769544805061
91.55531449566966
91.55531449566966
91.11307847082493
91.11307847082493
91.54285714285713
91.11307847082495
91.11307847082493
91.55531449566965
92.42732919254658
92.42732919254657
91.98509316770185
91.11307847082495
91.11307847082493
91.55531449566965
91.55531449566966
91.12553582363748
90.25352112676056
90.68329979879275
91.11307847082493
91.54285714285713
91.11307847082495
91.11307847082493
91.11307847082493
91.11307847082495
90.68329979879275
90.68329979879275
90.68329979879275
91.11307847082493
90.68329979879275
91.11307847082493
91.55531449566965
92.42732919254658
92.86956521739128
92.86956521739128
92.86956521739128
93.79364049318623
93.79364049318625
93.79364049318625
92.86956521739128
92.86956521739128
92.86956521739128
92.86956521739128
92.86956521739128
93.32480818414321
93.78005115089513
93.78005115089513
92.88257215929849
92.42732919254658
92.42732919254658
93.32480818414321
93.32480818414322
92.88257215929849
92.42732919254658
92.88257215929849
93.32480818414322
92.88257215929849
91.98509316770185
91.54285714285713
91.98509316770185
92.42732919254658
92.86956521739128
91.99755052051438
91.99755052051438
91.99755052051438
92.42732919254657
91.98509316770185
91.98509316770185
91.98509316770185
92.42732919254658
91.98509316770185
91.98509316770185
91.54285714285713
91.54285714285713
91.54285714285713
91.54285714285713
91.54285714285713
91.54285714285713
91.98509316770185
92.42732919254658
92.86956521739128
92.42732919254657
92.42732919254658
93.35140446834151
93.79364049318625
94.24888345993816
93.32480818414322
93.78005115089513
93.78005115089513
93.78005115089513
93.32480818414322
92.86956521739128
92.86956521739128
93.32480818414321
93.78005115089513
93.33781512605042
92.44033613445377
91.54285714285713
91.11307847082495
91.11307847082493
90.68329979879275
90.2654594232059
89.8356807511737
89.41784037558685
89.8356807511737
90.2654594232059
90.68329979879275
90.68329979879275
90.68329979879275
91.11307847082493
91.54285714285713
91.54285714285713
91.11307847082495
90.2654594232059
89.8356807511737
89.8356807511737
90.25352112676056
89.8356807511737
89.8356807511737
89.8356807511737
90.68329979879275
90.68329979879275
91.11307847082493
91.11307847082493
91.54285714285713
91.98509316770185
92.42732919254658
92.42732919254657
91.98509316770185
92.44033613445377
92.44033613445377
92.88257215929849
91.98509316770185
92.42732919254658
92.42732919254658
92.86956521739128
93.32480818414321
93.32480818414322
93.32480818414322
92.86956521739128
92.86956521739128
92.42732919254657
91.55531449566966
90.68329979879275
90.68329979879275
90.68329979879275
90.68329979879275
89.8356807511737
89.8356807511737
90.2654594232059
90.68329979879275
91.11307847082493
90.68329979879275
90.68329979879275
91.12553582363748
91.55531449566966
91.55531449566966
91.11307847082493
91.55531449566965
91.55531449566966
91.12553582363748
90.25352112676056
90.68329979879275
91.11307847082493
91.11307847082495
90.2654594232059
89.8356807511737
90.2654594232059
90.68329979879275
90.68329979879275
89.8356807511737
90.2654594232059
90.2654594232059
90.68329979879275
89.8356807511737
89.8356807511737
90.2654594232059
90.68329979879275
90.68329979879275
89.8356807511737
89.41784037558685
89.41784037558685
89.8356807511737
89.8356807511737
89.41784037558685
89.41784037558685
89.8356807511737
89.8356807511737
89.8356807511737
89.41784037558685
90.2654594232059
90.69523809523808
91.11307847082495
91.11307847082493
91.55531449566965
92.42732919254658
92.86956521739128
92.86956521739128
