1.43695
1.43695
1.46628
1.47116
1.49071
1.51515
1.53470
1.55425
1.57380
1.58358
1.58847
1.59335
1.58358
1.57869
1.56403
1.55425
1.52981
1.52004
1.49071
1.46628
1.44673
1.42717
1.41251
1.39296
1.38319
1.35875
1.36852
1.33431
1.31965
1.30499
1.30010
1.29032
1.28543
1.27566
1.27077
1.26588
1.26100
1.27077
1.25611
1.27077
1.25122
1.26100
1.25122
1.26100
1.29521
1.35386
1.46139
1.58847
1.77908
1.93548
2.11144
2.26784
2.38514
2.47312
2.50244
2.49756
2.45846
2.39980
2.32160
2.23851
2.15543
2.06745
1.97947
1.90127
1.85239
1.74976
1.68622
1.61779
1.56403
1.52004
1.48094
1.45650
1.43695
1.43206
1.43695
1.47605
1.46139
1.48583
1.51026
1.53470
1.55914
1.57380
1.58847
1.59335
1.59824
1.59335
1.58847
1.57380
1.58358
1.53959
1.52493
1.50538
1.48583
1.46628
1.44184
1.42229
1.40762
1.38807
1.37341
1.35386
1.33920
1.32942
1.31476
1.30499
1.29521
1.28543
1.27566
1.27077
1.26588
1.28055
1.25611
1.25122
1.25122
1.24633
1.24633
1.24633
1.26588
1.29032
1.34409
1.43695
1.57380
1.73509
1.91593
2.12610
2.25806
2.38514
2.47801
2.52199
2.54154
2.49267
2.43891
2.36559
2.28250
2.19453
2.11144
2.03324
1.94526
1.86706
1.81818
1.72532
1.66178
1.63245
1.55425
1.51515
1.48583
1.46139
1.45161
1.45161
1.46628
1.48094
1.50538
1.52493
1.54936
1.56891
1.61290
1.60313
1.60802
1.61290
1.61290
1.61779
1.59335
1.57869
1.55914
1.53959
1.52004
1.49560
1.49071
1.45161
1.45161
1.41251
1.39296
1.37341
1.35875
1.35386
1.32942
1.32454
1.30499
1.32454
1.28543
1.30987
1.27566
1.29521
1.26100
1.25611
1.25611
1.25122
1.26588
1.24633
1.24633
1.26100
1.30499
1.37830
1.48094
1.64223
1.79863
1.97947
2.15054
2.29717
2.40958
2.48289
2.50733
2.52688
2.45846
2.39492
2.31672
2.24340
2.15054
2.06745
1.98436
1.90616
1.84751
1.75953
1.69110
1.63734
1.57869
1.55914
1.49071
1.46628
1.44673
1.44184
1.44673
1.45161
1.49560
1.48583
1.53470
1.52981
1.54936
1.56403
1.57380
1.58847
1.57869
1.58847
1.56891
1.55914
1.54448
1.52493
1.50538
1.48583
1.46139
1.44673
1.42229
1.41251
1.38319
1.36364
1.34897
1.33431
1.33920
1.30499
1.30010
1.29032
1.28055
1.27566
1.26588
1.28543
1.25611
1.25122
1.25122
1.24633
1.24633
1.23656
1.24633
1.24145
1.27077
1.29521
1.36852
1.48583
1.63245
1.80841
1.98925
2.16520
2.31183
2.43402
2.49756
2.51711
2.50733
2.46823
2.39980
2.34115
2.23363
2.14565
2.06256
2.00391
1.90127
1.82307
1.75464
1.68622
1.62268
1.57869
1.52004
1.50049
1.45650
1.44184
1.43206
1.43695
1.45161
1.46628
1.51026
1.51026
1.56403
1.54936
1.56891
1.58358
1.58847
1.58847
1.58358
1.58358
1.56403
1.54448
1.52493
1.50538
1.48583
1.46139
1.44673
1.42229
1.41251
1.38319
1.36852
1.35386
1.33431
1.32454
1.30987
1.30987
1.29032
1.28055
1.27077
1.26588
1.26100
1.25122
1.25122
1.24633
1.26100
1.24145
1.23656
1.24145
1.24145
1.25611
1.28543
1.35875
1.46139
1.60313
1.77419
1.95015
2.15543
2.28250
2.39980
2.47801
2.50733
2.50244
2.45846
2.40469
2.32160
2.23851
2.17986
2.07234
1.98436
1.93060
1.82796
1.76442
1.68622
1.62757
1.56891
1.52004
1.48583
1.45161
1.43695
1.42717
1.43695
1.44184
1.48094
1.48583
1.51026
1.53470
1.55425
1.57380
1.58358
1.59824
1.58847
1.58358
1.57869
1.56403
1.54936
1.53470
1.52004
1.49560
1.49071
1.45161
1.45650
1.40762
1.38807
1.36852
1.35386
1.33920
1.32454
1.31476
1.30010
1.30499
1.28055
1.27077
1.26100
1.26100
1.26100
1.25122
1.24633
1.24145
1.23656
1.23656
1.23167
1.26100
1.25122
1.28543
1.35875
1.46139
1.60313
1.77419
1.95503
2.14076
2.28739
2.41935
2.47801
2.50733
2.50244
2.45357
2.39003
2.31183
2.23363
2.14076
2.05279
1.96970
1.89150
1.82796
1.74487
1.70577
1.61290
1.55914
1.52004
1.47605
1.45161
1.43695
1.43206
1.45161
1.45161
1.47116
1.49560
1.52004
1.56891
1.56403
1.57869
1.59824
1.59824
1.61779
1.59824
1.59824
1.57869
1.56403
1.54936
1.52493
1.52004
1.48583
1.46628
1.44673
1.42717
1.40762
1.39296
1.40274
1.35875
1.34897
1.33431
1.32454
1.33920
1.30499
1.29521
1.29521
1.28543
1.28543
1.27566
1.27566
1.27077
1.26588
1.26588
1.26100
1.28055
1.29521
1.34409
1.43206
1.55425
1.73998
1.88172
2.05767
2.21896
2.35093
2.44379
2.49756
2.50733
2.48289
2.42913
2.36070
2.27761
2.20430
2.11144
2.02346
1.94037
1.86217
1.79374
1.71554
1.65200
1.61290
1.54448
1.50049
1.47605
1.45161
1.44673
1.44673
1.47605
1.47605
1.50049
1.52493
1.54936
1.56891
1.58847
1.61779
1.61290
1.61779
1.62268
1.61290
1.59824
1.58358
1.56403
1.56891
1.52493
1.50049
1.48583
1.46139
1.45650
1.41740
1.40274
1.39785
1.36852
1.35386
1.33920
1.32942
1.31965
1.31476
1.30987
1.30010
1.30987
1.29032
1.29032
1.28543
1.28055
1.29521
1.27566
1.27566
1.29032
1.32454
1.40274
1.49071
1.62757
1.79863
1.97458
2.15543
2.29717
2.41935
2.49756
2.53177
2.52688
2.48778
2.43402
2.35093
2.27273
2.18964
2.10655
2.02346
1.94526
1.86706
1.79374
1.72532
1.68622
1.60802
1.56403
1.52981
1.50538
1.48583
1.48583
1.49071
1.50538
1.52004
1.53959
1.56403
1.58847
1.61290
1.63245
1.66178
1.65200
1.65200
1.65200
1.64223
1.63245
1.61779
1.60313
1.58358
1.56403
1.54936
1.52981
1.52981
1.50049
1.49071
1.50049
1.49071
1.50049
1.52004
1.54448
1.59824
1.62268
1.67155
1.73021
1.78397
1.86217
1.88661
1.91593
1.93548
1.93548
1.92571
1.91105
1.90127
1.90127
1.93060
1.96970
2.03812
2.13099
2.23851
2.35093
2.42913
2.51711
2.52199
2.52688
2.49267
2.44379
2.37048
2.28739
2.20430
2.11632
2.02835
1.94526
1.86217
1.79374
1.72043
1.65200
1.58847
1.53470
1.49071
1.45161
1.44673
1.40762
1.41740
1.40762
1.42229
1.44184
1.46139
1.50049
1.50049
1.51515
1.52493
1.53470
1.54936
1.52493
1.51515
1.51026
1.49071
1.50049
1.45161
1.43695
1.41740
1.39296
1.38319
1.35386
1.33920
1.32942
1.30499
1.32454
1.28055
1.27077
1.26588
1.25611
1.27566
1.23656
1.23656
1.23167
1.22678
1.24633
1.21701
1.21212
1.21212
1.20723
1.24145
1.23656
1.28543
1.36852
1.48583
1.63734
1.81329
1.98436
2.17009
2.28250
2.38025
2.43402
2.44868
2.42913
2.38514
2.31672
2.24340
2.17009
2.09189
2.00880
1.94037
1.86706
1.80841
1.73509
1.67644
1.62268
1.57380
1.55425
1.50538
1.48583
1.48583
1.48094
1.49071
1.50538
1.52493
1.55425
1.56403
1.57869
1.59335
1.59824
1.61779
1.59335
1.58358
1.57869
1.55914
1.53959
1.52004
1.49560
1.49560
1.45650
1.43695
1.42229
1.40274
1.38807
1.37341
1.35875
1.34409
1.32942
1.32454
1.33920
1.30499
1.30010
1.30987
1.29032
1.28055
1.27566
1.27077
1.27566
1.26100
1.25611
1.25122
1.26588
1.29032
1.33920
1.43695
1.54448
1.69599
1.87195
2.03812
2.18964
2.32649
2.39980
2.46334
2.45357
2.42424
2.37537
2.30205
2.22874
2.15543
2.07234
1.99902
1.93060
1.85728
1.79374
1.73021
1.67155
1.62268
1.57380
1.53959
1.52004
1.50049
1.50049
1.50049
1.52493
1.52493
1.54448
1.56891
1.57869
1.59335
1.60313
1.60802
1.63734
1.60313
1.59335
1.57869
1.56403
1.54448
1.52493
1.50049
1.50538
1.46628
1.44673
1.43206
1.40762
1.39296
1.37830
1.36364
1.34897
1.34409
1.32942
1.34897
1.31476
1.30499
1.30010
1.29521
1.29032
1.28055
1.28055
1.28055
1.26588
1.26588
1.27077
1.27566
1.30499
1.36364
1.45161
1.60802
1.73509
1.90616
2.07722
2.22385
2.34115
2.42424
2.45846
2.45357
2.41935
2.39492
2.29717
2.21896
2.13587
2.06256
1.98436
1.90616
1.83284
1.78886
1.71065
1.65200
1.59824
1.55914
1.52493
1.50538
1.49560
1.49071
1.49560
1.51026
1.53959
1.54448
1.56403
1.58358
1.59335
1.62757
1.60313
1.60313
1.59824
1.58847
1.57380
1.55425
1.53470
1.51515
1.49560
1.47605
1.45650
1.43695
1.41740
1.39785
1.39785
1.36852
1.35386
1.34897
1.33431
1.32454
1.31965
1.30987
1.32454
1.29521
1.29032
1.29032
1.28055
1.27566
1.27077
1.27077
1.26588
1.26588
1.27566
1.30987
1.36364
1.45650
1.58847
1.73998
1.91105
2.08211
2.22874
2.36070
2.42913
2.46334
2.48289
2.42913
2.37537
2.30694
2.22874
2.15054
2.07722
2.00880
1.93060
1.88172
1.79374
1.73021
1.67155
1.61779
1.57380
1.53470
1.51026
1.49560
1.48583
1.49071
1.50049
1.51515
1.53959
1.55425
1.56891
1.58847
1.59335
1.59824
1.60313
1.59335
1.58358
1.57380
1.55914
1.56891
1.52493
1.50049
1.51026
1.45650
1.43695
1.43206
1.40274
1.38319
1.36852
1.35386
1.33920
1.32942
1.31965
1.30987
1.30499
1.29521
1.29032
1.28543
1.28055
1.29521
1.27077
1.26588
1.26588
1.25611
1.26100
1.27566
1.30499
1.39785
1.46628
1.60313
1.76931
1.93548
2.10166
2.26295
2.36559
2.43402
2.47312
2.45846
2.42424
2.36070
2.28739
2.22874
2.13099
2.05279
1.97947
1.90616
1.83773
1.77908
1.70577
1.65200
1.60802
1.55425
1.52004
1.49560
1.47605
1.47116
1.47116
1.48094
1.50538
1.51026
1.52493
1.54448
1.55425
1.55914
1.56891
1.56403
1.57380
1.54936
1.53470
1.52493
1.49560
1.47605
1.45650
1.43206
1.44184
1.39296
1.37341
1.36364
1.33431
1.32454
1.30987
1.29521
1.30987
1.27077
1.26100
1.25611
1.25122
1.24145
1.24145
1.23167
1.22678
1.22678
1.22190
1.22678
1.21701
1.21701
1.22678
1.24633
1.29521
1.38319
1.50049
1.65200
1.82796
1.99413
2.15054
2.28250
2.36559
2.40958
2.43891
2.39003
2.33627
2.27761
2.19453
2.11632
2.03812
1.96481
1.91593
1.82307
1.75953
1.69599
1.66667
1.58358
1.53470
1.49560
1.46139
1.43695
1.42717
1.42229
1.42717
1.44184
1.45650
1.50049
1.48583
1.50538
1.52004
1.52493
1.52493
1.52493
1.51515
1.50049
1.49071
1.47116
1.45161
1.45161
1.40762
1.39296
1.39785
1.35386
1.33431
1.33920
1.30010
1.29032
1.30499
1.26100
1.25122
1.24145
1.22678
1.22190
1.21212
1.21212
1.21212
1.19746
1.19746
1.19746
1.19257
1.18768
1.18768
1.18768
1.20235
1.22678
1.28055
1.37830
1.50049
1.66178
1.84262
2.01369
2.16520
2.29717
2.37537
2.41447
2.41447
2.37537
2.31672
2.25318
2.16520
2.08700
2.00391
1.92571
1.85728
1.79863
1.72043
1.65200
1.60313
1.54448
1.49560
1.48583
1.42229
1.40762
1.40274
1.40274
1.41740
1.42717
1.44184
1.48583
1.48583
1.50049
1.53959
1.52493
1.52493
1.54936
1.51026
1.50538
1.51515
1.47116
1.45161
1.44673
1.41251
1.39296
1.37341
1.35875
1.33431
1.31965
1.30499
1.28543
1.27566
1.26100
1.25122
1.25611
1.23656
1.22678
1.22190
1.21212
1.20723
1.20235
1.19746
1.22190
1.19257
1.19257
1.21701
1.18280
1.19257
1.21212
1.24145
1.31965
1.45650
1.57380
1.73998
1.93548
2.08211
2.22385
2.33627
2.39980
2.41935
2.40469
2.36070
2.29228
2.21408
2.15543
2.05279
1.97458
1.89150
1.82307
1.74976
1.68622
1.61779
1.55914
1.52004
1.46139
1.43206
1.40762
1.38807
1.38807
1.38807
1.40274
1.45161
1.44184
1.46628
1.49071
1.50538
1.52004
1.53470
1.52981
1.52981
1.52493
1.51515
1.52493
1.48094
1.46139
1.44184
1.42229
1.40274
1.37830
1.37341
1.34409
1.32942
1.31965
1.30010
1.28543
1.27077
1.26100
1.27077
1.24145
1.23167
1.22190
1.22190
1.20723
1.20723
1.20235
1.19746
1.19746
1.20723
1.19257
1.18768
1.21701
1.21212
1.26100
1.37341
1.46628
1.61779
1.78886
1.96481
2.13099
2.26784
2.37048
2.41935
2.43402
2.41447
2.36070
2.29228
2.21408
2.13099
2.04301
1.96481
1.88172
1.80841
1.75464
1.66667
1.60802
1.54936
1.50049
1.45650
1.42717
1.40762
1.39296
1.41251
1.39296
1.40762
1.44184
1.44673
1.47116
1.49560
1.51026
1.52493
1.53959
1.54448
1.54448
1.54936
1.53470
1.52004
1.50538
1.48094
1.48094
1.44673
1.42717
1.41251
1.38807
1.37830
1.35875
1.34897
1.32942
1.31476
1.30987
1.29032
1.28055
1.27077
1.26100
1.27077
1.24145
1.24145
1.26588
1.23167
1.22678
1.22678
1.21701
1.21701
1.23167
1.23167
1.26100
1.33920
1.42229
1.55425
1.72043
1.88661
2.05767
2.21896
2.32649
2.40958
2.44868
2.44868
2.41935
2.36559
2.29228
2.20919
2.13587
2.05279
1.96970
1.88661
1.81329
1.73998
1.69599
1.61290
1.55425
1.50538
1.46628
1.43206
1.43206
1.40274
1.40274
1.43206
1.41740
1.43695
1.47605
1.48583
1.50538
1.52981
1.53959
1.55425
1.56403
1.56403
1.55914
1.55425
1.53959
1.52981
1.53959
1.49560
1.48094
1.47605
1.44673
1.42717
1.41251
1.39296
1.37341
1.36364
1.34409
1.33431
1.32454
1.31476
1.30010
1.29521
1.28055
1.30499
1.27077
1.26100
1.25611
1.25122
1.24633
1.26100
1.24633
1.25611
1.29032
1.35875
1.45161
1.58847
1.76442
1.93060
2.09677
2.24829
2.37048
2.44379
2.48289
2.48289
2.44868
2.39492
2.32160
2.24340
2.15543
2.07234
1.98925
1.91105
1.83284
1.75953
1.69599
1.65200
1.57380
1.52004
1.48094
1.45161
1.42229
1.41251
1.41740
1.40762
1.42229
1.44184
1.45650
1.48094
1.50049
1.52004
1.53470
1.54936
1.55425
1.56891
1.55425
1.54448
1.53470
1.52493
1.50049
1.48583
1.47116
1.45161
1.43206
1.41251
1.39296
1.37830
1.36852
1.34897
1.33431
1.31965
1.30987
1.29521
1.29521
1.27077
1.26588
1.26100
1.25122
1.24633
1.24633
1.23656
1.23167
1.22678
1.22678
1.23656
1.27566
1.33431
1.44673
1.56891
1.73509
1.91105
2.08700
2.23851
2.36070
2.44868
2.48778
2.48778
2.45846
2.39980
2.33138
2.24829
2.16520
2.08211
1.99902
1.92082
1.84262
1.76931
1.70088
1.63734
1.58358
1.52981
1.48583
1.45650
1.43206
1.41740
1.42717
1.41740
1.42717
1.44184
1.47116
1.48583
1.50538
1.53470
1.53959
1.55425
1.57380
1.56403
1.56403
1.58358
1.54448
1.53470
1.52493
1.50049
1.48094
1.46628
1.44673
1.43695
1.41251
1.39296
1.37830
1.36852
1.34897
1.33431
1.33431
1.30987
1.29521
1.28543
1.27566
1.26588
1.26100
1.25611
1.25122
1.24633
1.24633
1.23656
1.24145
1.26100
1.29032
1.35386
1.46139
1.60313
1.76931
1.95015
2.12121
2.27273
2.39003
2.46823
2.50244
2.49756
2.47801
2.40469
2.33138
2.25318
2.16520
2.08211
1.99902
1.91593
1.84262
1.76931
1.70088
1.63734
1.57869
1.52981
1.49071
1.45161
1.42717
1.41740
1.41740
1.42229
1.43206
1.45650
1.47605
1.50049
1.52493
1.53959
1.55914
1.56891
1.57380
1.57380
1.57869
1.56403
1.55425
1.54936
1.52004
1.50049
1.49071
1.46139
1.44673
1.45161
1.40762
1.39296
1.37830
1.36364
1.34409
1.33431
1.34897
1.30987
1.30010
1.29521
1.28055
1.27077
1.27077
1.25611
1.25122
1.25611
1.24145
1.23656
1.24633
1.25122
1.29032
1.36364
1.46139
1.60313
1.76931
1.95015
2.12121
2.27273
2.39492
2.46823
2.50244
2.50733
2.46823
2.40469
2.33138
2.24829
2.16031
2.07722
1.99413
1.91593
1.83773
1.76442
1.69110
1.63245
1.60313
1.52493
1.48094
1.45161
1.43695
1.42229
1.42229
1.43206
1.44184
1.46139
1.49071
1.50538
1.52981
1.57869
1.56403
1.57869
1.58358
1.58847
1.57869
1.56891
1.55914
1.53959
1.52493
1.51515
1.48583
1.46628
1.47116
1.43206
1.41251
1.40762
1.38319
1.36852
1.35386
1.34409
1.33431
1.31965
1.31965
1.30010
1.29521
1.31476
1.28543
1.27566
1.29521
1.27077
1.26100
1.26100
1.27566
1.28055
1.31965
1.39296
1.51026
1.65200
1.82307
2.02835
2.17009
2.31672
2.42424
2.50733
2.52199
2.51222
2.46823
2.40469
2.32649
2.24829
2.16031
2.07234
1.98925
1.91105
1.83284
1.76442
1.69110
1.63245
1.60802
1.52981
1.49071
1.48583
1.44673
1.44184
1.45650
1.45650
1.47605
1.49560
1.52004
1.54448
1.56403
1.58847
1.59824
1.61290
1.64712
1.62268
1.61779
1.60802
1.59824
1.57869
1.56891
1.55425
1.52981
1.51026
1.52004
1.47605
1.45161
1.43695
1.42717
1.40762
1.39296
1.39785
1.36852
1.35875
1.34409
1.33920
1.32942
1.32454
1.31965
1.30987
1.30499
1.30499
1.29521
1.30010
1.31965
1.34897
1.41740
1.55425
1.66667
1.83284
2.00391
2.17498
2.31672
2.42913
2.52688
2.54154
2.53177
2.50244
2.43402
2.36070
2.28250
2.19453
2.11144
2.02835
1.95015
1.87195
1.79863
1.73021
1.66667
1.63734
1.56403
1.52004
1.49071
1.49071
1.46628
1.46628
1.47605
1.50049
1.51515
1.53959
1.58847
1.58847
1.60313
1.61779
1.63734
1.63245
1.63245
1.62757
1.61290
1.60313
1.58847
1.56403
1.54936
1.52981
1.52493
1.49071
1.47116
1.46139
1.43695
1.41740
1.40274
1.39296
1.37830
1.36852
1.37341
1.34897
1.33920
1.35386
1.32942
1.31965
1.31476
1.30987
1.30010
1.30010
1.31476
1.33920
1.39296
1.50049
1.62268
1.77908
1.95503
2.14565
2.28739
2.40958
2.49756
2.54643
2.57087
2.52688
2.47801
2.40469
2.32649
2.27273
2.16520
2.08211
1.99902
1.93060
1.85239
1.78397
1.72532
1.66178
1.61290
1.56891
1.53959
1.51515
1.50538
1.51026
1.51026
1.52004
1.53959
1.55914
1.57869
1.62757
1.61779
1.62757
1.63245
1.65200
1.63734
1.62757
1.61779
1.61779
1.58358
1.56891
1.54936
1.53470
1.51026
1.49071
1.47116
1.45161
1.43695
1.42229
1.40762
1.39296
1.38807
1.36852
1.35875
1.35386
1.34409
1.33431
1.32942
1.32454
1.31476
1.30987
1.30499
1.30499
1.31476
1.34409
1.40762
1.50538
1.64223
1.80352
1.97458
2.14565
2.29717
2.41447
2.48778
2.52688
2.52199
2.49267
2.43402
2.36559
2.28739
2.20430
2.12121
2.03812
1.96481
1.88661
1.81818
1.74976
1.68622
1.65200
1.58358
1.54448
1.51515
1.50049
1.49071
1.49560
1.51026
1.52004
1.53959
1.58847
1.57380
1.59335
1.60802
1.61779
1.61779
1.61290
1.60802
1.59335
1.57869
1.58847
1.54936
1.52981
1.50538
1.49071
1.46628
1.44673
1.43695
1.41251
1.39785
1.41251
1.37341
1.35875
1.34897
1.33920
1.32942
1.31965
1.33920
1.30987
1.30499
1.30010
1.30499
1.29032
1.29032
1.32454
1.32454
1.36364
1.44673
1.58358
1.71554
1.88172
2.05279
2.22385
2.35582
2.45357
2.51222
2.54643
2.51222
2.46334
2.39492
2.31672
2.23851
2.15543
2.09677
1.99902
1.92082
1.85239
1.77908
1.71554
1.65689
1.61290
1.56403
1.52981
1.50538
1.49560
1.49071
1.49560
1.51026
1.52493
1.54448
1.56891
1.57869
1.58847
1.62268
1.60313
1.59824
1.59335
1.59335
1.56891
1.55425
1.53470
1.52004
1.49560
1.47605
1.46628
1.43695
1.41740
1.42229
1.38807
1.37341
1.35875
1.34897
1.33431
1.32454
1.31965
1.30987
1.30499
1.29521
1.29521
1.28543
1.28543
1.27566
1.28055
1.27077
1.27566
1.29032
1.32942
1.39785
1.50538
1.65689
1.81818
1.98925
2.15543
2.31672
2.39980
2.46334
2.48289
2.46334
2.42424
2.35582
2.28250
2.22385
2.13587
2.04790
1.96970
1.89638
1.82796
1.75953
1.70088
1.66667
1.59335
1.54936
1.51515
1.50049
1.48094
1.48094
1.51026
1.49560
1.51515
1.53470
1.57380
1.56891
1.57869
1.58847
1.58847
1.58847
1.57869
1.56891
1.58358
1.53959
1.52004
1.50049
1.48583
1.45650
1.43695
1.41740
1.42717
1.38807
1.36852
1.35386
1.34897
1.32942
1.31965
1.30987
1.30010
1.29032
1.28543
1.28055
1.27566
1.26588
1.26588
1.27077
1.25611
1.25122
1.25611
1.26588
1.29521
1.35386
1.44673
1.58358
1.73998
1.91105
2.10166
2.23363
2.35093
2.42913
2.46334
2.47801
2.42424
2.36559
2.29228
2.21408
2.13587
2.05767
1.97947
1.91105
1.83773
1.77908
1.70577
1.64712
1.59335
1.54936
1.52004
1.49071
1.47605
1.47605
1.47116
1.48583
1.50538
1.52004
1.53959
1.55425
1.56891
1.57380
1.57869
1.60313
1.57380
1.55914
1.54448
1.55914
1.51515
1.49560
1.47116
1.45650
1.43206
1.41251
1.40762
1.38319
1.36364
1.34409
1.32942
1.33431
1.30987
1.30010
1.29032
1.29521
1.27566
1.27077
1.26588
1.27077
1.25611
1.25122
1.25122
1.25611
1.24633
1.24633
1.26100
1.31476
1.37830
1.48583
1.62757
1.79863
1.97458
2.13587
2.27761
2.38025
2.45357
2.45846
2.43891
2.39492
2.35582
2.25806
2.17986
2.09677
2.01857
1.94526
1.87683
1.79863
1.73509
1.67644
1.61779
1.56891
1.52493
1.49560
1.50049
1.46628
1.46139
1.47116
1.48094
1.50538
1.52493
1.54448
1.55914
1.57380
1.57869
1.58358
1.60802
1.57380
1.56403
1.54936
1.53470
1.51026
1.49071
1.47116
1.45650
1.43206
1.41251
1.39785
1.38319
1.36364
1.34897
1.33920
1.32942
1.31476
1.30499
1.29521
1.29032
1.28543
1.27077
1.27077
1.26588
1.26588
1.25611
1.25611
1.28055
1.25122
1.25122
1.29032
1.30987
1.38319
1.49071
1.66178
1.81329
1.98925
2.15543
2.29717
2.40958
2.46823
2.48289
2.46334
2.41935
2.35582
2.27761
2.19453
2.14076
2.05767
1.96481
1.87683
1.81329
1.73998
1.67644
1.62268
1.59824
1.53470
1.50049
1.48094
1.48094
1.47605
1.48094
1.49560
1.54448
1.53959
1.55914
1.57380
1.60802
1.59824
1.59824
1.59824
1.59335
1.57869
1.56403
1.54448
1.53470
1.50538
1.48583
1.46628
1.45161
1.42717
1.40762
1.39296
1.39785
1.35875
1.34409
1.33431
1.32942
1.31476
1.30987
1.30010
1.30010
1.28543
1.28055
1.27566
1.27566
1.26588
1.26100
1.25611
1.25611
1.27077
1.29032
1.33920
1.42229
1.56403
1.70577
1.87683
2.05767
2.21896
2.35582
2.44379
2.49756
2.50733
2.48778
2.42913
2.36070
2.30694
2.20919
2.12610
2.04790
1.96970
1.89638
1.82796
1.75953
1.69599
1.66178
1.58358
1.54448
1.51515
1.49560
1.48094
1.47605
1.48094
1.50538
1.51515
1.52981
1.54936
1.59824
1.58358
1.58847
1.59335
1.62268
1.59335
1.57869
1.56403
1.55914
1.52981
1.50538
1.48583
1.47116
1.44673
1.42229
1.40762
1.41740
1.37830
1.36364
1.34897
1.36364
1.32454
1.31476
1.30499
1.30499
1.29521
1.29032
1.30010
1.28055
1.27566
1.27077
1.28055
1.26588
1.26588
1.28055
1.32942
1.40274
1.51026
1.66178
1.83284
2.01369
2.18475
2.32649
2.42913
2.51711
2.51222
2.49756
2.44868
2.39003
2.31183
2.22874
2.15054
2.06745
1.98925
1.92571
1.84262
1.79374
1.72043
1.65200
1.59824
1.55425
1.52493
1.49071
1.47605
1.46628
1.46628
1.48094
1.49071
1.50538
1.52493
1.54448
1.55914
1.57380
1.57869
1.58358
1.57869
1.56891
1.56891
1.54448
1.52493
1.50049
1.48094
1.47605
1.44184
1.41740
1.40274
1.38319
1.37341
1.34897
1.33431
1.32454
1.32454
1.30010
1.29032
1.28055
1.30010
1.27077
1.26100
1.25611
1.25611
1.25611
1.24633
1.23656
1.23656
1.24633
1.27077
1.31965
1.40762
1.53959
1.72532
1.87683
2.05767
2.21896
2.34604
2.44868
2.48778
2.49756
2.46823
2.41935
2.34604
2.26784
2.18475
2.10655
2.02835
1.95015
1.87683
1.80841
1.75953
1.68133
1.61779
1.56403
1.52004
1.49560
1.46628
1.45161
1.44673
1.47605
1.46628
1.48094
1.50049
1.54936
1.53470
1.54936
1.55914
1.56891
1.56891
1.56403
1.55425
1.56403
1.52493
1.50538
1.48583
1.47116
1.44673
1.42229
1.40274
1.39785
1.36852
1.34897
1.33431
1.34897
1.30987
1.29521
1.28543
1.27566
1.27566
1.25611
1.25122
1.24633
1.25611
1.24145
1.23167
1.22678
1.22678
1.24145
1.23167
1.25611
1.30987
1.39785
1.54936
1.68622
1.86706
2.04790
2.21408
2.36070
2.44379
2.49267
2.50244
2.48289
2.41935
2.34604
2.26784
2.18964
2.11144
2.02835
1.95015
1.87195
1.80352
1.73509
1.66667
1.61290
1.58358
1.52493
1.49071
1.46628
1.45650
1.45161
1.45650
1.47116
1.49071
1.51026
1.52493
1.54448
1.55914
1.57869
1.57380
1.57380
1.56891
1.56403
1.54448
1.52493
1.50538
1.49071
1.46628
1.44184
1.42229
1.41740
1.38807
1.37341
1.35386
1.35875
1.32942
1.31476
1.30010
1.29032
1.28543
1.27077
1.26588
1.25611
1.25611
1.25122
1.24633
1.24145
1.26588
1.23656
1.23167
1.23656
1.25122
1.29032
1.38807
1.48094
1.62268
1.79863
1.97947
2.17498
2.30205
2.40958
2.47312
2.49267
2.50244
2.42913
2.36559
2.30694
2.20919
2.12610
2.04301
1.95992
1.88172
1.81329
1.73998
1.67644
1.61290
1.58847
1.51515
1.48094
1.45650
1.46139
1.44184
1.44184
1.45650
1.47116
1.50049
1.51515
1.52981
1.54936
1.55914
1.59335
1.57380
1.56403
1.55914
1.54448
1.53470
1.51026
1.49071
1.46628
1.45161
1.42717
1.40762
1.38319
1.36852
1.34897
1.33920
1.31965
1.30499
1.29521
1.28543
1.27077
1.26100
1.25611
1.24633
1.24633
1.23656
1.23167
1.22678
1.23167
1.22190
1.21701
1.21701
1.22190
1.25122
1.29521
1.38319
1.51026
1.68133
1.85239
2.03324
2.19941
2.33627
2.43402
2.47801
2.48289
2.45357
2.39980
2.32649
2.24340
2.16031
2.07722
1.98925
1.92082
1.83284
1.78397
1.69110
1.62268
1.56891
1.52004
1.48094
1.45650
1.42717
1.42229
1.42717
1.45161
1.45161
1.47116
1.49560
1.52004
1.53959
1.55914
1.56891
1.57380
1.57380
1.57380
1.56403
1.54936
1.52981
1.51515
1.49071
1.47116
1.45161
1.43206
1.41740
1.39785
1.37830
1.35875
1.36852
1.32942
1.31965
1.30987
1.30010
1.29521
1.27566
1.27077
1.26588
1.29032
1.25611
1.25122
1.24633
1.26588
1.24145
1.23656
1.23656
1.24633
1.29032
1.35386
1.46139
1.60313
1.77419
1.95015
2.12121
2.27273
2.41447
2.46334
2.48778
2.47801
2.43891
2.38025
2.30205
2.21896
2.13587
2.05279
1.96970
1.91105
1.81329
1.73998
1.69110
1.61779
1.55914
1.51515
1.47605
1.46628
1.43695
1.43206
1.43695
1.45161
1.49071
1.49560
1.52004
1.54448
1.56403
1.58358
1.58847
1.59335
1.59335
1.58847
1.57869
1.56403
1.54448
1.54936
1.50538
1.48583
1.46139
1.44184
1.45161
1.40762
1.38807
1.37341
1.35875
1.34409
1.34409
1.32454
1.31476
1.30499
1.32942
1.29521
1.28543
1.28055
1.27566
1.27077
1.26588
1.26100
1.26100
1.26100
1.28055
1.31476
1.38807
1.49560
1.65689
1.81818
1.99413
2.16520
2.31672
2.42424
2.50733
2.52688
2.51222
2.49756
2.40469
2.32649
2.24340
2.16031
2.07234
1.99413
1.94037
1.83773
1.76931
1.70088
1.65200
1.58847
1.53959
1.50538
1.48094
1.49071
1.46139
1.46628
1.48094
1.49560
1.52004
1.54936
1.56403
1.57869
1.59824
1.60802
1.60802
1.61290
1.60313
1.59335
1.57869
1.58358
1.54448
1.52004
1.50049
1.48094
1.47116
1.44184
1.41740
1.40762
1.38807
1.38807
1.36364
1.34897
1.33920
1.32942
1.32454
1.31965
1.30987
1.30499
1.30010
1.29032
1.30010
1.28055
1.27566
1.27566
1.30010
1.30987
1.36364
1.45161
1.57869
1.73509
1.92082
2.08700
2.24340
2.37048
2.46334
2.53177
2.52688
2.48778
2.43891
2.37048
2.29228
2.20919
2.12610
2.04301
1.96481
1.89150
1.81329
1.74976
1.68622
1.65689
1.57869
1.53959
1.50538
1.50538
1.47605
1.47116
1.48094
1.49560
1.52493
1.53470
1.55425
1.56891
1.58358
1.60313
1.59824
1.59335
1.58847
1.57869
1.56891
1.54936
1.52981
1.51026
1.49560
1.47116
1.44673
1.42717
1.41251
1.39785
1.37830
1.36364
1.34897
1.33431
1.32454
1.31476
1.30010
1.29521
1.28543
1.28543
1.28055
1.28543
1.27077
1.26100
1.26100
1.26100
1.26100
1.28543
1.31965
1.39296
1.50538
1.65689
1.82796
2.01857
2.17498
2.32160
2.42424
2.48778
2.50733
2.49267
2.44868
2.38514
2.30694
2.24829
2.15054
2.06745
1.99413
1.90616
1.85728
1.76931
1.70577
1.64712
1.59335
1.57380
1.51515
1.48583
1.47116
1.47116
1.48094
1.48583
1.50049
1.52004
1.53959
1.55425
1.56891
1.60313
1.58847
1.58358
1.57869
1.57380
1.55914
1.54448
1.52493
1.50049
1.48094
1.46139
1.47116
1.43206
1.40762
1.38807
1.36852
1.37341
1.33920
1.32942
1.31476
1.30499
1.29521
1.29032
1.28055
1.27566
1.27077
1.28055
1.26588
1.25611
1.25611
1.25122
1.27077
1.26100
1.27566
1.31476
1.39296
1.51026
1.67644
1.83284
2.00880
2.17498
2.31672
2.43891
2.47801
2.48778
2.46823
2.41447
2.35093
2.28739
2.19453
2.11144
2.03324
1.95503
1.87195
1.80352
1.73021
1.67155
1.61290
1.55914
1.52004
1.49560
1.46628
1.45161
1.45161
1.46139
1.50049
1.49071
1.51026
1.52981
1.54936
1.58358
1.57380
1.57869
1.57869
1.56891
1.56403
1.54448
1.52493
1.50538
1.48583
1.47605
1.44673
1.42229
1.40762
1.38807
1.38807
1.35386
1.33431
1.32454
1.31476
1.30987
1.29032
1.28055
1.27566
1.27077
1.28055
1.26100
1.25122
1.25122
1.24633
1.24145
1.23656
1.24145
1.24145
1.26100
1.30987
1.38807
1.51515
1.66178
1.83773
2.01369
2.19453
2.31183
2.40958
2.45357
2.46334
2.43891
2.39003
2.31672
2.24340
2.15543
2.07722
1.99413
1.91593
1.84262
1.76931
1.70088
1.64223
1.58358
1.55425
1.50049
1.46628
1.44673
1.43695
1.46628
1.45161
1.46628
1.48583
1.50538
1.52493
1.53959
1.56891
1.56403
1.56403
1.55914
1.55425
1.54936
1.52981
1.51026
1.49560
1.47116
1.45161
1.45650
1.41251
1.38807
1.37341
1.35875
1.34409
1.32454
1.31965
1.30010
1.28543
1.28055
1.27077
1.29032
1.25611
1.25122
1.24145
1.24145
1.23656
1.23656
1.23167
1.22678
1.22190
1.22678
1.25122
1.29032
1.36364
1.48094
1.63245
1.81329
1.98925
2.15054
2.28739
2.39003
2.44868
2.46334
2.44379
2.39980
2.33138
2.25318
2.17009
2.08700
2.00391
1.92571
1.84751
1.77908
1.71065
1.64712
1.58847
1.53470
1.51515
1.46628
1.44184
1.43206
1.43206
1.45650
1.46139
1.48094
1.50049
1.52493
1.54448
1.55914
1.59335
1.58358
1.58358
1.57869
1.56891
1.55914
1.53470
1.52004
1.50049
1.48094
1.46139
1.46628
1.42229
1.40274
1.38319
1.36852
1.35386
1.34897
1.32942
1.31476
1.30499
1.30010
1.31965
1.28543
1.27566
1.27566
1.26588
1.28543
1.26100
1.25611
1.25122
1.24633
1.26588
1.28543
1.33431
1.42717
1.55425
1.71065
1.91105
2.06745
2.21896
2.34604
2.43402
2.47801
2.47801
2.45357
2.39492
2.32649
2.27273
2.19453
2.08211
2.00391
1.95015
1.84751
1.77419
1.70577
1.65689
1.59335
1.54448
1.50538
1.47605
1.46139
1.46139
1.46139
1.46628
1.48094
1.50538
1.53470
1.54448
1.56403
1.57869
1.58358
1.58847
1.58847
1.59335
1.57380
1.56403
1.54448
1.52981
1.52981
1.49071
1.47116
1.45161
1.43206
1.41251
1.41251
1.38807
1.36852
1.35386
1.33920
1.32942
1.34897
1.31476
1.30499
1.30010
1.29521
1.30987
1.30987
1.28543
1.27566
1.27566
1.27077
1.27566
1.30010
1.34897
1.42717
1.54936
1.70577
1.87683
2.07722
2.21896
2.35093
2.44868
2.50244
2.51711
2.50244
2.44379
2.37537
2.33138
2.22874
2.15054
2.07722
1.99902
1.89638
1.84751
1.75953
1.69110
1.63734
1.58358
1.54448
1.51026
1.51515
1.48583
1.48094
1.49071
1.52493
1.52493
1.53959
1.55914
1.57380
1.58847
1.59824
1.60313
1.61290
1.59824
1.58358
1.56891
1.55425
1.55425
1.52004
1.49560
1.47116
1.45161
1.43206
1.41251
1.40274
1.38319
1.36364
1.34897
1.33920
1.32942
1.32942
1.30987
1.30010
1.29521
1.29032
1.28543
1.28055
1.30499
1.28055
1.26588
1.26588
1.27077
1.29521
1.33920
1.44184
1.55425
1.70577
1.88172
2.06256
2.21896
2.37048
2.44868
2.49756
2.50733
2.48289
2.43891
2.36070
2.28250
2.20430
2.12121
2.04790
1.96970
1.89150
1.82796
1.76442
1.70088
1.64712
1.59335
1.58358
1.52493
1.50049
1.49071
1.49071
1.49560
1.50538
1.55425
1.54448
1.55914
1.56891
1.58358
1.58847
1.59335
1.59824
1.58358
1.56891
1.55425
1.53959
1.53959
1.50049
1.47605
1.45161
1.43695
1.41740
1.39785
1.40762
1.38319
1.35386
1.33920
1.32942
1.31965
1.30987
1.30987
1.30010
1.29032
1.28543
1.28055
1.29032
1.27566
1.26588
1.25611
1.25611
1.25611
1.27077
1.31965
1.38807
1.49560
1.64223
1.81329
1.98925
2.17498
2.30205
2.40469
2.46823
2.49267
2.47312
2.45846
2.36559
2.29228
2.21408
2.13587
2.05279
1.98436
1.90616
1.84751
1.76931
1.71065
1.65200
1.60313
1.55914
1.55425
1.50538
1.49071
1.48583
1.49071
1.50049
1.52004
1.52981
1.54936
1.56403
1.57869
1.61290
1.58847
1.58358
1.57869
1.56403
1.54936
1.53959
1.52004
1.49560
1.47605
1.45650
1.43206
1.43695
1.39785
1.37830
1.36364
1.34897
1.33431
1.34409
1.31965
1.30499
1.29032
1.29032
1.28055
1.27566
1.27077
1.27077
1.26588
1.25611
1.25611
1.25122
1.25122
1.25611
1.30499
1.32454
1.40762
1.52981
1.68622
1.85728
2.03812
2.19941
2.33138
2.42424
2.47312
2.47801
2.45357
2.40469
2.33138
2.24829
2.17009
2.09189
2.01369
1.93548
1.86217
1.79374
1.73021
1.67155
1.61290
1.56403
1.52493
1.49560
1.47605
1.48094
1.46628
1.47605
1.49071
1.51026
1.52493
1.54448
1.55914
1.58847
1.57869
1.57380
1.57380
1.56403
1.54936
1.53470
1.52004
1.51026
1.48094
1.45650
1.43695
1.41740
1.39785
1.37830
1.38807
1.34897
1.32942
1.31476
1.30499
1.29521
1.28543
1.27566
1.27077
1.27566
1.26100
1.25122
1.25122
1.24633
1.24145
1.25611
1.23656
1.23167
1.23656
1.25611
1.30010
1.37341
1.51515
1.64712
1.81818
1.99413
2.16031
2.30205
2.39980
2.47801
2.47801
2.45357
2.40469
2.33627
2.26295
2.17986
2.10166
2.01857
1.94037
1.86706
1.79863
1.73021
1.66667
1.60802
1.55914
1.52004
1.50049
1.47116
1.45650
1.45650
1.46628
1.48094
1.50049
1.54936
1.54448
1.55914
1.56891
1.57869
1.58847
1.58847
1.57380
1.56403
1.54936
1.52981
1.51026
1.50538
1.47605
1.45161
1.42717
1.41251
1.39296
1.37341
1.36852
1.34897
1.32942
1.31476
1.30499
1.29521
1.29032
1.28055
1.30499
1.27077
1.26100
1.26100
1.25611
1.25611
1.27077
1.25122
1.24633
1.24633
1.26100
1.29521
1.36364
1.46628
1.61290
1.77419
1.95503
2.12610
2.27273
2.38514
2.45357
2.48778
2.47312
2.43402
2.37048
2.31672
2.22385
2.15543
2.04790
1.96481
1.89638
1.81329
1.74487
1.68133
1.62268
1.56891
1.54448
1.49560
1.46628
1.45650
1.45161
1.45650
1.50049
1.49071
1.51026
1.52981
1.54936
1.56891
1.57869
1.58358
1.58847
1.60802
1.57869
1.56403
1.54448
1.52981
1.51026
1.48583
1.46628
1.45650
1.42717
1.40762
1.38807
1.37341
1.35875
1.34897
1.34897
1.32454
1.30987
1.29521
1.29032
1.28543
1.28055
1.30499
1.27566
1.27077
1.26588
1.26100
1.26100
1.25611
1.26588
1.26588
1.28055
1.32454
1.40274
1.52004
1.68133
1.86706
2.02835
2.19453
2.33627
2.43891
2.49756
2.51711
2.49756
2.45846
2.38514
2.30694
2.21896
2.13587
2.05767
1.97458
1.90127
1.82796
1.75953
1.69110
1.63734
1.57869
1.53959
1.52004
1.48094
1.46628
1.46139
1.46628
1.48094
1.52493
1.52004
1.53470
1.55425
1.56891
1.57869
1.58847
1.58847
1.60802
1.57869
1.56403
1.54448
1.52493
1.52981
1.49071
1.46628
1.43695
1.42229
1.40274
1.38319
1.36364
1.34897
1.34897
1.32454
1.30987
1.30010
1.29032
1.28055
1.27077
1.26588
1.26588
1.25611
1.25122
1.25122
1.24633
1.24145
1.24145
1.23656
1.24145
1.28055
1.30010
1.37341
1.48583
1.63734
1.81329
1.99902
2.17498
2.32160
2.43402
2.50244
2.53177
2.50733
2.46334
2.39980
2.33627
2.24340
2.15543
2.07722
1.99902
1.92082
1.84751
1.77908
1.71554
1.65200
1.59824
1.55425
1.51515
1.49071
1.47116
1.46628
1.46628
1.47605
1.49071
1.50538
1.52493
1.56891
1.56403
1.57380
1.57869
1.57869
1.57869
1.56891
1.55425
1.55914
1.52493
1.50049
1.48094
1.46139
1.44184
1.41740
1.42229
1.38807
1.35875
1.34897
1.32942
1.31965
1.30499
1.29032
1.29032
1.27566
1.26588
1.26100
1.25611
1.25122
1.24633
1.27077
1.24145
1.24145
1.23167
1.23167
1.23167
1.23656
1.27566
1.31476
1.39785
1.52981
1.68622
1.86706
2.05279
2.21408
2.35093
2.44379
2.49267
2.49756
2.49756
2.41935
2.34604
2.26784
2.18475
2.10166
2.02346
1.94526
1.87195
1.80352
1.73021
1.66667
1.60802
1.55425
1.51026
1.47605
1.45161
1.43695
1.46139
1.45161
1.45650
1.47605
1.49560
1.51026
1.52981
1.54448
1.55425
1.55914
1.55914
1.55914
1.54936
1.53470
1.51515
1.50049
1.48094
1.46139
1.44184
1.42229
1.39785
1.38319
1.37341
1.34897
1.33431
1.31965
1.30499
1.29032
1.28055
1.26588
1.26588
1.26100
1.24633
1.23656
1.23656
1.23167
1.22678
1.22678
1.22190
1.21701
1.21701
1.21701
1.22678
1.25122
1.31476
1.39785
1.52981
1.68622
1.87195
2.05279
2.21896
2.35093
2.44379
2.49756
2.51711
2.46334
2.40958
2.33627
2.25318
2.17009
2.08700
2.00391
1.92082
1.84751
1.77419
1.70577
1.64223
1.58358
1.53470
1.49071
1.48583
1.43695
1.42717
1.42717
1.43695
1.45161
1.47116
1.49560
1.51515
1.53959
1.55425
1.59335
1.57869
1.57869
1.57380
1.56891
1.55425
1.53959
1.52493
1.52493
1.49071
1.46628
1.44673
1.42717
1.40762
1.39296
1.38319
1.36852
1.34409
1.32942
1.31965
1.30499
1.29521
1.28543
1.28055
1.27566
1.26588
1.29032
1.26588
1.25611
1.25122
1.25122
1.24633
1.24633
1.24633
1.26588
1.30010
1.36364
1.46139
1.60313
1.76442
1.94526
2.11144
2.26295
2.40958
2.47312
2.49267
2.49267
2.45357
2.39492
2.33627
2.24829
2.18475
2.07234
1.98925
1.91593
1.83284
1.75953
1.69110
1.63734
1.59824
1.52981
1.49071
1.45650
1.44184
1.43695
1.44184
1.45161
1.46628
1.48583
1.53959
1.53470
1.55425
1.56891
1.58358
1.58847
1.58847
1.58358
1.59335
1.56403
1.54448
1.52493
1.50049
1.47605
1.45161
1.43206
1.41251
1.39296
1.39296
1.36364
1.34897
1.33431
1.32942
1.31965
1.31476
1.30987
1.30499
1.31476
1.30499
1.30987
1.30987
1.30987
1.30987
1.30987
1.31476
1.31476
1.32942
1.35386
1.38807
1.46139
1.56891
1.71554
1.87683
2.04301
2.20430
2.33627
2.43891
2.49756
2.51711
2.51222
2.46334
2.39980
2.32649
2.24340
2.16031
2.07722
1.99413
1.91593
1.83773
1.76442
1.70088
1.64223
1.58847
1.54936
1.51515
1.51515
1.48094
1.47116
1.48094
1.49071
1.50538
1.52493
1.54936
1.56891
1.58847
1.62757
1.61290
1.61779
1.61779
1.60802
1.59824
1.57869
1.56403
1.54448
1.52493
1.52981
1.48094
1.45650
1.43695
1.41251
1.39785
1.38319
1.36364
1.36364
1.35386
1.32942
1.31965
1.30987
1.29521
1.29032
1.28543
1.28055
1.27566
1.27077
1.26588
1.26588
1.26588
1.27077
1.29032
1.34409
1.42717
1.54936
1.70577
1.87195
2.04790
2.21408
2.36070
2.44379
2.48778
2.50244
2.47801
2.42913
2.36559
2.29228
2.20919
2.13099
2.04790
1.96970
1.91105
1.81818
1.74976
1.68622
1.62757
1.57380
1.52981
1.52004
1.48094
1.46139
1.46139
1.46139
1.47605
1.49071
1.51515
1.53959
1.55425
1.56403
1.57380
1.58358
1.58358
1.57869
1.57380
1.56891
1.54936
1.52981
1.51026
1.49071
1.47116
1.45161
1.45650
1.41740
1.39785
1.37830
1.36364
1.34897
1.33920
1.32454
1.31476
1.30499
1.29521
1.28543
1.30987
1.28055
1.27077
1.26100
1.25611
1.25611
1.25122
1.25611
1.27077
1.30987
1.36364
1.46139
1.59335
1.75953
1.93548
2.10655
2.25806
2.37537
2.45846
2.49756
2.50733
2.45357
2.39492
2.32160
2.24340
2.15543
2.07722
1.99413
1.91593
1.84262
1.76931
1.70088
1.63734
1.58358
1.53470
1.49560
1.46628
1.47116
1.45161
1.45650
1.46139
1.47605
1.49071
1.51515
1.53470
1.54936
1.56403
1.57380
1.57869
1.59824
1.57380
1.56403
1.54448
1.52493
1.50538
1.49071
1.47116
1.44673
1.42717
1.40762
1.38807
1.39296
1.38319
1.35386
1.33431
1.31965
1.30987
1.30010
1.29032
1.28055
1.27566
1.27077
1.29032
1.26588
1.25611
1.25122
1.25122
1.24633
1.25122
1.27077
1.31965
1.39785
1.54448
1.67155
1.83773
2.01369
2.17009
2.30694
2.40469
2.45357
2.46823
2.44379
2.39980
2.33138
2.25318
2.17498
2.10166
2.00880
1.93060
1.85728
1.78397
1.71554
1.64712
1.59335
1.53959
1.52004
1.47605
1.44673
1.43206
1.43206
1.43695
1.45161
1.47605
1.49560
1.52004
1.56403
1.55914
1.56891
1.57380
1.57380
1.56891
1.56403
1.54936
1.52981
1.51026
1.49560
1.48094
1.45161
1.42717
1.41251
1.39296
1.37341
1.35875
1.34409
1.32942
1.31476
1.32942
1.29521
1.28543
1.27566
1.27077
1.25611
1.25611
1.25122
1.24633
1.24145
1.23656
1.23656
1.24145
1.25611
1.29521
1.36852
1.47605
1.62757
1.79863
1.97458
2.14076
2.28250
2.39003
2.45357
2.47312
2.47801
2.40958
2.34115
2.26295
2.17986
2.09677
2.03324
1.95992
1.85239
1.77908
1.71065
1.64712
1.58847
1.53470
1.50049
1.47605
1.44184
1.42717
1.42717
1.43206
1.45161
1.47116
1.49071
1.51515
1.53470
1.55425
1.56891
1.59824
1.60313
1.60313
1.57380
1.55914
1.54448
1.52493
1.50538
1.48583
1.46139
1.44184
1.42229
1.40274
1.38807
1.36852
1.37341
1.34409
1.32942
1.31476
1.30499
1.29521
1.28543
1.28055
1.27566
1.26588
1.26100
1.25611
1.25122
1.24633
1.25122
1.25611
1.26588
1.28543
1.33920
1.42717
1.56403
1.72043
1.89150
2.06745
2.21896
2.34115
2.43891
2.46334
2.47801
2.43402
2.37537
2.30205
2.21896
2.14076
2.05767
1.97947
1.89638
1.82307
1.74976
1.68133
1.61779
1.57869
1.51515
1.47605
1.44673
1.43206
1.42717
1.43206
1.44184
1.46139
1.48094
1.51026
1.52981
1.55425
1.57869
1.58358
1.58847
1.58847
1.57869
1.56891
1.55914
1.53959
1.52493
1.50538
1.48583
1.46628
1.46628
1.42717
1.40762
1.38807
1.37341
1.36364
1.34897
1.33920
1.32942
1.31476
1.30499
1.29521
1.30499
1.28543
1.28055
1.27077
1.26100
1.25611
1.25611
1.25611
1.26588
1.30010
1.35875
1.45650
1.58847
1.74976
1.95503
2.11632
2.26295
2.38025
2.46334
2.49267
2.49267
2.45846
2.40469
2.33138
2.25318
2.17009
2.08700
2.00391
1.92571
1.86217
1.77908
1.72043
1.65200
1.59824
1.54936
1.51026
1.48094
1.46139
1.45650
1.48583
1.49560
1.51515
1.51515
1.52981
1.54936
1.56891
1.57869
1.58847
1.59824
1.59824
1.59335
1.57869
1.56891
1.55425
1.53470
1.53959
1.50049
1.47605
1.45161
1.43206
1.41251
1.39296
1.37830
1.36364
1.35386
1.33920
1.32942
1.31965
1.33431
1.30987
1.30010
1.29521
1.28543
1.28055
1.27077
1.26588
1.26100
1.26100
1.28055
1.34897
1.39785
1.51026
1.65689
1.82307
1.99902
2.16520
2.30694
2.40958
2.47312
2.49267
2.47801
2.43402
2.37048
2.30694
2.22874
2.13099
2.05279
1.96970
1.90616
1.82307
1.75464
1.69110
1.62757
1.57380
1.52981
1.49560
1.50049
1.46139
1.45650
1.45650
1.47116
1.48583
1.50049
1.52004
1.53959
1.55914
1.56891
1.57380
1.57869
1.57380
1.56891
1.55425
1.55914
1.52493
1.50538
1.48094
1.46139
1.44184
1.41740
1.40274
1.38319
1.39296
1.35875
1.33920
1.32454
1.31476
1.30010
1.29032
1.28055
1.27566
1.26588
1.26100
1.25611
1.25122
1.24633
1.24145
1.24145
1.24633
1.27566
1.31476
1.38807
1.51026
1.66178
1.83284
2.01369
2.17498
2.31672
2.41447
2.46823
2.48289
2.46334
2.41935
2.36070
2.29228
2.18964
2.10166
2.01857
1.94037
1.86706
1.79374
1.72532
1.65689
1.60313
1.55425
1.51026
1.47605
1.45161
1.44184
1.43695
1.44184
1.45650
1.49560
1.51026
1.51515
1.52981
1.54448
1.55914
1.56403
1.56403
1.55914
1.54936
1.53959
1.52004
1.50538
1.48583
1.46628
1.44673
1.42717
1.41251
1.41251
1.38319
1.35386
1.33920
1.31965
1.30987
1.30010
1.29032
1.28055
1.27077
1.26588
1.25611
1.25122
1.25122
1.24633
1.23656
1.26100
1.25122
1.24145
1.25611
1.29032
1.35875
1.46628
1.60313
1.77419
1.95503
2.12121
2.26784
2.38025
2.44379
2.49267
2.45357
2.43402
2.34604
2.26784
2.18964
2.12121
2.02346
1.94037
1.88172
1.78886
1.72043
1.65689
1.59824
1.54448
1.50049
1.46628
1.44673
1.43206
1.42717
1.43206
1.44184
1.47116
1.49560
1.52493
1.54936
1.54936
1.55914
1.56403
1.56403
1.55914
1.54936
1.53959
1.52004
1.50538
1.48583
1.46628
1.44673
1.43695
1.43206
1.39296
1.37341
1.35875
1.33920
1.32942
1.31476
1.30499
1.29032
1.28055
1.27077
1.26588
1.25611
1.25122
1.24633
1.24633
1.24633
1.25122
1.24145
1.24633
1.24145
1.26588
1.31476
1.39785
1.52981
1.68622
1.86217
2.03812
2.19941
2.33138
2.41935
2.46334
2.46823
2.43402
2.38025
2.30694
2.22385
2.14076
2.05767
1.97947
1.90127
1.82307
1.74976
1.68133
1.61779
1.55914
1.51026
1.47605
1.44673
1.45161
1.43695
1.42717
1.43695
1.45161
1.47116
1.49071
1.51515
1.53470
1.54936
1.56403
1.56891
1.56891
1.55914
1.55425
1.53959
1.52493
1.51515
1.49071
1.47116
1.45161
1.43206
1.41251
1.39785
1.37830
1.36364
1.34897
1.33431
1.32454
1.30987
1.30010
1.30499
1.28543
1.28055
1.27077
1.26588
1.26100
1.25611
1.25611
1.25122
1.24633
1.24633
1.25122
1.28055
1.33431
1.42229
1.54448
1.70088
1.87683
2.04790
2.20430
2.33138
2.41935
2.47801
2.46823
2.43891
2.39003
2.31672
2.23851
2.16031
2.06745
1.98436
1.90127
1.82796
1.74976
1.68133
1.62268
1.56403
1.52004
1.47605
1.44673
1.43206
1.42717
1.43206
1.44673
1.46139
1.48583
1.51026
1.53470
1.55425
1.56891
1.58358
1.58847
1.58847
1.58358
1.57380
1.56403
1.54936
1.52981
1.51515
1.49071
1.47116
1.45161
1.43206
1.41251
1.41740
1.39296
1.37341
1.35875
1.34409
1.32942
1.31965
1.31476
1.30499
1.30010
1.29032
1.28543
1.28055
1.27566
1.27566
1.27077
1.26588
1.26588
1.28055
1.31476
1.37830
1.49560
1.62268
1.79374
1.96481
2.13099
2.28250
2.39980
2.47312
2.50733
2.50244
2.46334
2.40469
2.33138
2.24829
2.16520
2.08211
1.99902
1.92082
1.84262
1.79863
1.70088
1.64223
1.58358
1.54448
1.50538
1.48094
1.46628
1.46139
1.46628
1.47605
1.49071
1.51026
1.52981
1.55425
1.57869
1.59335
1.60313
1.60802
1.61290
1.60802
1.59824
1.58847
1.57380
1.55425
1.53470
1.51515
1.49560
1.47116
1.47605
1.46139
1.44673
1.42717
1.41251
1.39296
1.36364
1.35386
1.34409
1.33431
1.31965
1.31476
1.30987
1.30499
1.29521
1.29521
1.29032
1.28543
1.28543
1.29521
1.31965
1.36852
1.46139
1.58847
1.74487
1.91593
2.09189
2.26784
2.39003
2.48289
2.52688
2.54643
2.49267
2.43891
2.37048
2.28739
2.20430
2.12121
2.03812
1.95992
1.88172
1.80352
1.73509
1.67155
1.61290
1.55914
1.52004
1.48583
1.46628
1.48094
1.47116
1.47116
1.48583
1.50049
1.52493
1.54448
1.56403
1.58358
1.59335
1.60313
1.60313
1.59824
1.58847
1.57869
1.55914
1.53959
1.52004
1.50049
1.48094
1.45650
1.43695
1.41740
1.40274
1.38319
1.37830
1.36852
1.34897
1.33431
1.32454
1.31476
1.30499
1.29521
1.29032
1.28543
1.27566
1.27077
1.26588
1.26100
1.26100
1.26588
1.28543
1.32942
1.40762
1.52981
1.68133
1.85728
2.03812
2.20430
2.34115
2.43891
2.49756
2.51222
2.48778
2.44379
2.38025
2.30694
2.21408
2.12121
2.04301
1.96481
1.88661
1.81329
1.74487
1.68133
1.62268
1.56891
1.52493
1.49560
1.47116
1.46139
1.45650
1.46628
1.48094
1.49560
1.51515
1.53959
1.55914
1.57380
1.58358
1.59335
1.59335
1.58847
1.57869
1.55914
1.54936
1.52981
1.50538
1.48583
1.46628
1.44673
1.42717
1.41251
1.40274
1.38319
1.36364
1.34897
1.33920
1.32942
1.31476
1.30499
1.29521
1.29032
1.28055
1.27566
1.26588
1.26588
1.26588
1.26100
1.25611
1.25611
1.25122
1.26100
1.29032
1.36364
1.47605
1.59824
1.77419
1.94037
2.12121
2.27273
2.39492
2.47801
2.50733
2.50733
2.46334
2.39980
2.32649
2.24340
2.16031
2.07722
1.99413
1.91593
1.83773
1.76931
1.70088
1.64223
1.58847
1.53959
1.50049
1.47605
1.46139
1.45161
1.45650
1.46628
1.48583
1.51026
1.52981
1.54936
1.56891
1.58358
1.58847
1.59335
1.59335
1.58358
1.57380
1.55425
1.53959
1.52004
1.49560
1.47605
1.45650
1.43695
1.41740
1.39785
1.39296
1.36852
1.35386
1.33920
1.32454
1.30987
1.30010
1.29521
1.29032
1.28543
1.27566
1.27077
1.26588
1.26100
1.26100
1.25611
1.25122
1.25122
1.25122
1.25611
1.28055
1.33431
1.41740
1.54448
1.70088
1.87683
2.05767
2.21896
2.35093
2.43891
2.48778
2.49267
2.45846
2.39980
2.32649
2.24340
2.16031
2.07722
1.99413
1.91105
1.83284
1.75953
1.69110
1.63245
1.57380
1.52493
1.48583
1.45650
1.44184
1.43206
1.43695
1.44673
1.46628
1.49071
1.53959
1.55914
1.58358
1.58358
1.61290
1.59335
1.59335
1.58847
1.57869
1.56403
1.54936
1.52981
1.51026
1.48583
1.46628
1.44673
1.42717
1.40762
1.39296
1.37341
1.35875
1.33920
1.32942
1.31965
1.31476
1.30499
1.29521
1.28543
1.28055
1.27566
1.27077
1.26588
1.26100
1.26100
1.25611
1.28543
1.25611
1.26100
1.27566
1.30499
1.35386
1.43206
1.55914
1.71554
1.88661
2.06256
2.22385
2.35093
2.43891
2.48289
2.50733
2.45357
2.39492
2.32160
2.23851
2.15054
2.06745
1.97947
1.90616
1.81818
1.74487
1.68133
1.61290
1.55914
1.51026
1.47116
1.44184
1.42717
1.42229
1.42717
1.44184
1.45650
1.48094
1.51026
1.53470
1.55425
1.57380
1.58847
1.61290
1.62757
1.60802
1.59824
1.57869
1.56891
1.54936
1.52493
1.50538
1.48583
1.45650
1.43695
1.42229
1.40762
1.38807
1.37341
1.35875
1.34409
1.33431
1.32942
1.31965
1.30987
1.30499
1.29521
1.29032
1.28543
1.28055
1.27566
1.27566
1.27077
1.26588
1.26588
1.26588
1.28543
1.32454
1.39296
1.50538
1.64712
1.81818
1.99413
2.16520
2.30694
2.41935
2.48289
2.50733
2.49267
2.44868
2.40469
2.31672
2.22385
2.14076
2.05767
1.97458
1.89638
1.84262
1.77908
1.70577
1.64712
1.59824
1.53959
1.51515
1.48583
1.47605
1.44184
1.45650
1.48583
1.48583
1.51026
1.53470
1.55425
1.57380
1.58847
1.60313
1.60313
1.60802
1.60313
1.59824
1.58358
1.56891
1.54936
1.52981
1.50538
1.48583
1.46628
1.44673
1.42717
1.40762
1.39296
1.37341
1.35875
1.34409
1.33431
1.32454
1.31476
1.30499
1.30010
1.29032
1.28543
1.28055
1.27566
1.27077
1.26588
1.26588
1.26100
1.26100
1.27566
1.30987
1.37341
1.48094
1.61779
1.78397
1.96481
2.14076
2.28739
2.40469
2.48289
2.51711
2.50733
2.48289
2.41447
2.34115
2.25806
2.18475
2.08700
2.00391
1.95015
1.84751
1.77419
1.70577
1.64223
1.58358
1.53470
1.49560
1.46628
1.44184
1.43206
1.43206
1.43695
1.45161
1.47116
1.49071
1.51515
1.53470
1.55425
1.56891
1.57380
1.57869
1.57869
1.57380
1.56403
1.54936
1.52981
1.51026
1.49071
1.47116
1.44673
1.42717
1.40762
1.38807
1.37341
1.35386
1.33431
1.31965
1.30987
1.30010
1.29032
1.28055
1.27077
1.26100
1.25611
1.25122
1.24633
1.24145
1.23656
1.24145
1.23167
1.23167
1.23167
1.23656
1.26588
1.32454
1.41251
1.54448
1.71065
1.89150
2.07234
2.23851
2.37048
2.46334
2.51222
2.51711
2.48778
2.43402
2.36070
2.28250
2.19453
2.11144
2.02835
1.94526
1.86706
1.81329
1.72532
1.65689
1.59824
1.54448
1.50049
1.46628
1.44184
1.42717
1.44184
1.44184
1.45161
1.48094
1.50538
1.52004
1.54936
1.55425
1.58847
1.57869
1.58847
1.58358
1.57380
1.56891
1.55914
1.54448
1.54448
1.52493
1.47605
1.45161
1.43206
1.41251
1.39296
1.37341
1.37341
1.35386
1.34897
1.33431
1.32454
1.30987
1.30987
1.29521
1.28543
1.27077
1.27077
1.25611
1.25122
1.24633
1.24633
1.24145
1.23656
1.23656
1.23167
1.23656
1.25122
1.29032
1.35875
1.47605
1.61779
1.79374
1.96481
2.14076
2.29228
2.41447
2.51222
2.54643
2.51711
2.47801
2.41447
2.33627
2.25318
2.17009
2.08211
1.99413
1.91593
1.83773
1.76442
1.69599
1.63245
1.57380
1.52004
1.48094
1.45161
1.43206
1.41740
1.41740
1.42717
1.44673
1.46628
1.49071
1.51515
1.53959
1.56891
1.57869
1.58847
1.58847
1.58358
1.57869
1.58358
1.56403
1.56403
1.54448
1.52004
1.47605
1.45161
1.43206
1.41251
1.39296
1.37830
1.35875
1.34409
1.32942
1.31965
1.30499
1.29521
1.28543
1.27566
1.27077
1.26100
1.25611
1.25122
1.24633
1.24633
1.23656
1.23167
1.23167
1.23167
1.22678
1.23167
1.25611
1.30499
1.38319
1.50538
1.66178
1.83773
2.01857
2.18964
2.33138
2.43402
2.49267
2.51222
2.49267
2.44868
2.37537
2.29717
2.21408
2.12610
2.03812
1.95992
1.87683
1.79863
1.72532
1.65689
1.59335
1.53959
1.49071
1.45161
1.42717
1.41251
1.41251
1.41251
1.42717
1.44673
1.46628
1.49071
1.51515
1.53959
1.56403
1.57869
1.58847
1.59335
1.59335
1.58847
1.57380
1.56403
1.54448
1.52493
1.50538
1.49071
1.47116
1.45650
1.43695
1.41740
1.40274
1.38807
1.36852
1.35875
1.34897
1.34409
1.33920
1.31965
1.31476
1.30499
1.30987
1.29521
1.28543
1.29032
1.28543
1.28543
1.29032
1.28055
1.27077
1.27566
1.29521
1.33431
1.40762
1.52493
1.69110
1.86217
2.03812
2.17498
2.34604
2.42913
2.51711
2.51711
2.53177
2.46334
2.39980
2.32649
2.24340
2.16031
2.07234
1.98925
1.90616
1.82796
1.75464
1.68622
1.64712
1.56403
1.54448
1.47605
1.44673
1.42717
1.41740
1.41740
1.42717
1.44184
1.48094
1.51515
1.53959
1.54448
1.58358
1.59824
1.58847
1.59335
1.59824
1.59335
1.58358
1.56891
1.55425
1.53959
1.52004
1.50049
1.48094
1.46139
1.44673
1.42717
1.41251
1.39785
1.38319
1.39296
1.38319
1.33920
1.32942
1.31965
1.30987
1.30499
1.29521
1.29521
1.29032
1.28543
1.28055
1.28055
1.27566
1.27077
1.27566
1.28543
1.31965
1.38807
1.49071
1.62757
1.79374
1.96970
2.14076
2.29228
2.41447
2.49756
2.53666
2.53666
2.50244
2.47801
2.38514
2.30694
2.21408
2.13587
2.04790
1.96970
1.89150
1.83284
1.74487
1.67644
1.61779
1.56403
1.52493
1.49071
1.46628
1.45650
1.45650
1.46139
1.47605
1.49560
1.51515
1.53959
1.56403
1.58358
1.59824
1.61290
1.61779
1.62268
1.62268
1.61290
1.59824
1.58358
1.56891
1.54448
1.52493
1.50538
1.48583
1.46628
1.44673
1.43206
1.41740
1.39785
1.38319
1.37341
1.35875
1.34409
1.33431
1.32942
1.31965
1.30987
1.30987
1.30499
1.30499
1.29521
1.29521
1.30010
1.30987
1.29521
1.34409
1.39296
1.46139
1.58847
1.74487
1.92082
2.09189
2.25318
2.38025
2.47312
2.52199
2.53666
2.51222
2.46334
2.39492
2.32160
2.23851
2.15543
2.07234
1.99413
1.91105
1.83773
1.76442
1.69599
1.63734
1.57869
1.53959
1.50538
1.48094
1.46628
1.46139
1.46628
1.48094
1.50049
1.52004
1.53959
1.56403
1.58358
1.59824
1.60802
1.60802
1.60802
1.60802
1.59335
1.58847
1.56891
1.54936
1.52981
1.50538
1.48583
1.46628
1.45161
1.43206
1.41740
1.39785
1.38319
1.37341
1.35875
1.34897
1.35875
1.35386
1.32454
1.33920
1.30010
1.29521
1.29032
1.28543
1.28055
1.28055
1.27566
1.27077
1.27566
1.29032
1.33431
1.40274
1.52004
1.66667
1.83773
2.01857
2.18475
2.32649
2.43891
2.50733
2.53666
2.53666
2.47801
2.41447
2.34115
2.26784
2.17498
2.09189
2.00880
1.93060
1.85239
1.77908
1.71554
1.65200
1.59335
1.54936
1.51026
1.48094
1.46628
1.46139
1.46139
1.47605
1.49071
1.51026
1.53470
1.55425
1.57869
1.59335
1.60313
1.60802
1.60802
1.60313
1.59824
1.58847
1.58847
1.54448
1.52981
1.50538
1.48583
1.46628
1.44673
1.42717
1.40762
1.38807
1.37341
1.35875
1.34409
1.33431
1.32454
1.31965
1.30987
1.30499
1.29521
1.29032
1.29032
1.28543
1.28055
1.28055
1.27566
1.27077
1.27077
1.27566
1.29032
1.33431
1.40762
1.52004
1.67155
1.84751
2.01857
2.19453
2.34604
2.42424
2.48778
2.50733
2.49267
2.44868
2.38514
2.30694
2.22874
2.14565
2.06256
1.99413
1.90127
1.82307
1.75464
1.68622
1.62268
1.56891
1.52981
1.50049
1.49560
1.48094
1.44673
1.45161
1.46628
1.48583
1.51026
1.53470
1.55425
1.57380
1.58847
1.59824
1.60313
1.59824
1.59335
1.58358
1.56891
1.54936
1.52981
1.51026
1.49071
1.47116
1.45161
1.43206
1.41740
1.40274
1.38319
1.37341
1.36852
1.36364
1.33431
1.34897
1.31965
1.32942
1.29521
1.28543
1.28055
1.27566
1.27566
1.27077
1.26588
1.26100
1.26100
1.26100
1.26588
1.29032
1.34409
1.43206
1.55425
1.71065
1.88661
2.06256
2.22385
2.35093
2.45846
2.48778
2.49267
2.46334
2.41935
2.34604
2.27273
2.17986
2.09189
2.01369
1.93060
1.85239
1.77908
1.71065
1.64712
1.58847
1.53959
1.50049
1.47116
1.45161
1.44673
1.44673
1.45650
1.47605
1.49560
1.52493
1.55914
1.59335
1.61290
1.59335
1.60313
1.60313
1.60313
1.59335
1.58358
1.56891
1.54936
1.52981
1.51026
1.49071
1.47116
1.45161
1.43206
1.41740
1.39785
1.38807
1.37341
1.35875
1.34897
1.33920
1.33431
1.34897
1.33920
1.30499
1.31476
1.31476
1.31965
1.31476
1.28543
1.30499
1.27566
1.27566
1.28055
1.30010
1.33920
1.41251
1.52493
1.66667
1.82796
2.00391
2.17009
2.30694
2.41447
2.49756
2.49756
2.48289
2.46334
2.38025
2.30694
2.23363
2.13587
2.05767
1.97458
1.89638
1.83773
1.76931
1.68133
1.61779
1.56403
1.52004
1.49071
1.46628
1.45650
1.45161
1.46139
1.47605
1.49560
1.52004
1.54448
1.56891
1.58847
1.60313
1.61290
1.61779
1.61779
1.61290
1.60802
1.59335
1.57869
1.55914
1.53959
1.52004
1.50049
1.48094
1.45650
1.44184
1.42717
1.40762
1.39785
1.38319
1.36852
1.35875
1.34897
1.33920
1.33431
1.32942
1.32454
1.33431
1.32942
1.30499
1.31476
1.30499
1.30010
1.30010
1.33431
1.33920
1.40762
1.51026
1.64223
1.80841
1.97947
2.14565
2.29717
2.40958
2.48778
2.52199
2.51222
2.47801
2.41935
2.34604
2.26784
2.18964
2.10166
2.02346
1.94526
1.89150
1.81329
1.73509
1.67155
1.61290
1.56891
1.52981
1.50049
1.48583
1.47605
1.48094
1.49071
1.50049
1.52004
1.53959
1.56403
1.58358
1.59824
1.60802
1.61290
1.61779
1.61290
1.60313
1.59335
1.58358
1.54936
1.52981
1.50538
1.48583
1.46628
1.44673
1.42717
1.41251
1.39296
1.37830
1.36364
1.35386
1.33920
1.32942
1.31965
1.30987
1.30987
1.30499
1.30499
1.30010
1.30987
1.28543
1.28055
1.27566
1.27566
1.28543
1.31965
1.38807
1.48583
1.63245
1.79863
1.99413
2.17009
2.29228
2.40958
2.48289
2.51711
2.50733
2.46823
2.43891
2.35582
2.25806
2.17986
2.10166
2.02835
1.94526
1.87195
1.80352
1.73509
1.67644
1.62268
1.57380
1.53959
1.51026
1.50049
1.51026
1.51515
1.49560
1.51026
1.52981
1.54936
1.56891
1.58358
1.59824
1.60313
1.60802
1.60313
1.59824
1.58847
1.57380
1.55914
1.54448
1.52004
1.50049
1.47605
1.46628
1.43695
1.43206
1.40274
1.38319
1.36364
1.35386
1.33920
1.32942
1.32454
1.31476
1.30499
1.29521
1.29521
1.29032
1.28543
1.30010
1.28543
1.27077
1.26588
1.26588
1.27566
1.30499
1.35386
1.44673
1.57380
1.73509
1.91593
2.11144
2.24829
2.37537
2.45846
2.50244
2.50733
2.47801
2.41935
2.35093
2.27273
2.18964
2.11144
2.02835
1.95503
1.89638
1.80841
1.76931
1.68133
1.62268
1.57380
1.53470
1.51026
1.49071
1.48583
1.48583
1.49560
1.51026
1.52981
1.54936
1.56891
1.58358
1.59335
1.60313
1.60313
1.60313
1.59335
1.58358
1.56891
1.55914
1.54448
1.52004
1.50049
1.49071
1.44673
1.42717
1.41251
1.39296
1.37830
1.36852
1.34897
1.33920
1.32942
1.32454
1.31476
1.30987
1.30987
1.32454
1.29032
1.28543
1.28055
1.28055
1.27566
1.27077
1.27077
1.27566
1.29521
1.33920
1.41251
1.52493
1.67155
1.84262
2.01857
2.17986
2.31672
2.41935
2.49267
2.50244
2.49267
2.43891
2.36070
2.29228
2.19453
2.11632
2.03812
1.97458
1.88661
1.81329
1.74487
1.68133
1.62268
1.57380
1.53470
1.50049
1.48583
1.47605
1.48583
1.49560
1.52981
1.55425
1.54936
1.56891
1.58358
1.59824
1.60802
1.61290
1.61290
1.60802
1.60313
1.57869
1.55914
1.53959
1.52004
1.50049
1.48094
1.46139
1.44673
1.42717
1.40762
1.39785
1.37830
1.36852
1.35875
1.35386
1.34409
1.32454
1.31965
1.30987
1.30499
1.30010
1.29521
1.29032
1.29032
1.28055
1.28055
1.28543
1.29032
1.31965
1.37341
1.44673
1.56403
1.72043
1.88661
2.05767
2.21408
2.34604
2.43402
2.48289
2.49267
2.46823
2.41447
2.34115
2.26784
2.19941
2.10166
2.01857
1.94037
1.86706
1.79863
1.73021
1.67155
1.61779
1.56891
1.53470
1.50538
1.49071
1.48583
1.49071
1.50538
1.51515
1.53470
1.55425
1.57380
1.58847
1.60313
1.60802
1.61290
1.60802
1.60313
1.59335
1.57869
1.56403
1.54936
1.52981
1.52981
1.51026
1.49071
1.44673
1.42717
1.40762
1.39296
1.38319
1.36364
1.35386
1.34897
1.33920
1.33431
1.32942
1.32942
1.32942
1.30987
1.30010
1.30010
1.29521
1.28543
1.28543
1.29032
1.30010
1.33431
1.40762
1.52004
1.62757
1.78886
1.96481
2.13099
2.28250
2.39492
2.46823
2.50244
2.49756
2.45846
2.40469
2.33138
2.25318
2.17498
2.09189
2.01369
1.93548
1.87195
1.79863
1.74487
1.69599
1.62268
1.57380
1.53959
1.51515
1.50049
1.49560
1.50049
1.50538
1.52981
1.54936
1.58847
1.57869
1.59824
1.60802
1.61290
1.61290
1.60802
1.59824
1.58358
1.56891
1.56403
1.55425
1.51026
1.48583
1.46628
1.44673
1.42717
1.40762
1.39296
1.37830
1.36364
1.34897
1.33431
1.32942
1.31965
1.31476
1.30987
1.30499
1.30499
1.32454
1.29032
1.28543
1.28055
1.27566
1.27077
1.27566
1.29521
1.33920
1.41740
1.53959
1.68622
1.86706
2.06256
2.21896
2.33138
2.42913
2.48289
2.49756
2.47312
2.42424
2.35582
2.27761
2.19453
2.14076
2.03812
1.96481
1.89150
1.82796
1.75953
1.70088
1.64712
1.59824
1.55425
1.52493
1.50049
1.49071
1.49560
1.50049
1.50538
1.52004
1.53470
1.55425
1.56891
1.57869
1.58358
1.58358
1.58358
1.57380
1.56403
1.55425
1.55425
1.51026
1.48583
1.46628
1.44673
1.42717
1.40762
1.38807
1.37341
1.35875
1.34897
1.33431
1.33920
1.30499
1.29521
1.28543
1.28055
1.27566
1.27077
1.26588
1.26100
1.27077
1.25611
1.24633
1.25122
1.24633
1.24633
1.26100
1.29521
1.35875
1.45650
1.59824
1.76931
1.95503
2.11144
2.26295
2.37537
2.44379
2.46823
2.45846
2.41935
2.35582
2.27761
2.19941
2.12121
2.04301
1.96481
1.89150
1.82307
1.75953
1.69599
1.63734
1.58358
1.53959
1.50538
1.48094
1.46628
1.46628
1.47116
1.49071
1.52004
1.51026
1.52981
1.54448
1.55914
1.56891
1.56891
1.56891
1.56891
1.57380
1.53470
1.51515
1.49560
1.47605
1.45650
1.43206
1.41251
1.39785
1.37830
1.35875
1.34409
1.34897
1.30987
1.29521
1.28543
1.27566
1.26588
1.26100
1.25122
1.24633
1.24145
1.23167
1.23167
1.23167
1.23167
1.22678
1.22678
1.24633
1.24145
1.23656
1.27566
1.34897
1.46139
1.60802
1.78397
1.95992
2.13099
2.27273
2.39003
2.43402
2.45357
2.43402
2.39003
2.32160
2.24340
2.16520
2.10166
2.00391
1.92571
1.85239
1.81329
1.74487
1.65200
1.59824
1.54936
1.50538
1.47116
1.44673
1.43695
1.43695
1.43695
1.45650
1.48094
1.49071
1.51026
1.52981
1.54448
1.55425
1.55425
1.55425
1.54936
1.53959
1.52493
1.51026
1.49560
1.49071
1.44673
1.42717
1.40762
1.39296
1.37341
1.35386
1.33431
1.31965
1.31476
1.30987
1.30010
1.27566
1.26588
1.25611
1.25122
1.24633
1.24145
1.23656
1.23167
1.23167
1.22190
1.22678
1.22190
1.22190
1.23656
1.26100
1.27566
1.34897
1.45650
1.59824
1.77419
1.95015
2.12121
2.28250
2.39980
2.44379
2.46334
2.44868
2.40469
2.33627
2.26295
2.17986
2.10655
2.01369
1.93548
1.85728
1.78397
1.71554
1.65200
1.59335
1.53959
1.50049
1.46628
1.44673
1.43695
1.43695
1.44673
1.46139
1.48583
1.52981
1.52493
1.54448
1.55914
1.56891
1.57869
1.57869
1.56891
1.56403
1.55425
1.53470
1.52004
1.50538
1.50049
1.45650
1.43695
1.41740
1.40274
1.38319
1.36852
1.35386
1.33920
1.32942
1.31965
1.32942
1.29521
1.29032
1.28055
1.27566
1.27077
1.26588
1.26100
1.26100
1.26100
1.24633
1.25122
1.25122
1.26100
1.28543
1.33431
1.42717
1.55914
1.72532
1.91105
2.06256
2.21896
2.34604
2.42913
2.47312
2.48289
2.44868
2.39492
2.32649
2.26784
2.16031
2.07722
1.99413
1.91593
1.83773
1.76442
1.70088
1.64223
1.58358
1.55425
1.49560
1.46628
1.44673
1.44184
1.44673
1.47605
1.50049
1.49071
1.51515
1.53959
1.55914
1.57869
1.58847
1.59824
1.59824
1.59824
1.59335
1.57380
1.55425
1.53959
1.52004
1.49560
1.47605
1.45650
1.44184
1.42229
1.41740
1.38807
1.37341
1.35875
1.34897
1.33431
1.32454
1.31476
1.30987
1.30010
1.30010
1.29032
1.28543
1.28055
1.28055
1.27566
1.27077
1.27077
1.28055
1.31965
1.38319
1.44184
1.55914
1.72043
1.89150
2.07234
2.22874
2.36070
2.46823
2.52688
2.50244
2.47801
2.42424
2.35582
2.27761
2.19941
2.11632
2.03324
1.95503
1.90127
1.81329
1.74976
1.67644
1.61779
1.56403
1.52493
1.49071
1.47116
1.46628
1.47605
1.46628
1.48094
1.49560
1.52004
1.53959
1.56403
1.57869
1.59335
1.59824
1.61290
1.58847
1.57869
1.56403
1.54936
1.52981
1.51026
1.48583
1.47116
1.45161
1.44184
1.40762
1.38807
1.37341
1.35386
1.34409
1.32942
1.31965
1.31476
1.29521
1.28543
1.28055
1.27566
1.27077
1.26588
1.26100
1.26100
1.25611
1.26588
1.28055
1.25611
1.28543
1.33920
1.43206
1.56403
1.73021
1.91105
2.08211
2.23851
2.36559
2.45357
2.49267
2.49756
2.46823
2.40958
2.34115
2.27761
2.17986
2.09677
2.01857
1.94526
1.86706
1.79863
1.73021
1.67155
1.63245
1.55914
1.51515
1.48583
1.46139
1.45161
1.45161
1.46139
1.47605
1.49560
1.51515
1.55914
1.55425
1.56891
1.57869
1.58358
1.57869
1.57869
1.56403
1.55425
1.54448
1.52004
1.49560
1.47605
1.45650
1.43206
1.41251
1.39785
1.38319
1.38319
1.34897
1.33431
1.31965
1.30987
1.30010
1.29032
1.28543
1.28543
1.28055
1.26588
1.25611
1.25611
1.25122
1.24145
1.24633
1.24633
1.25611
1.28543
1.31965
1.40274
1.52981
1.68133
1.85728
2.03324
2.19941
2.34115
2.42424
2.47312
2.48289
2.45846
2.40958
2.34115
2.26295
2.18475
2.10166
2.02346
1.94526
1.87195
1.79863
1.73509
1.67155
1.61290
1.56403
1.52493
1.49071
1.49071
1.48583
1.45650
1.46139
1.47605
1.49560
1.51515
1.53470
1.55425
1.57380
1.58358
1.58358
1.58358
1.57380
1.56403
1.54936
1.53470
1.51515
1.49560
1.47605
1.47605
1.43206
1.41251
1.39785
1.37830
1.36364
1.34897
1.33431
1.32454
1.32454
1.30010
1.29521
1.28543
1.27566
1.27077
1.27077
1.28055
1.26100
1.25611
1.25122
1.25122
1.24633
1.25122
1.26100
1.30010
1.36852
1.47116
1.61290
1.78397
1.95992
2.12610
2.27273
2.38514
2.45357
2.47801
2.45846
2.41447
2.35582
2.27761
2.19941
2.12121
2.03324
1.95503
1.88172
1.80841
1.73998
1.67644
1.62268
1.59335
1.52493
1.48583
1.46628
1.45161
1.45161
1.45650
1.47605
1.50049
1.53470
1.55425
1.55425
1.57380
1.58358
1.58847
1.59335
1.58847
1.59824
1.56891
1.55425
1.53470
1.51515
1.49560
1.47605
1.45650
1.44184
1.44673
1.40274
1.38319
1.36852
1.35875
1.34409
1.32942
1.31965
1.31476
1.32942
1.29521
1.28543
1.28055
1.27566
1.26588
1.26588
1.26100
1.26588
1.28055
1.25122
1.26100
1.28543
1.34409
1.43206
1.56891
1.73509
1.89638
2.07234
2.22385
2.34604
2.42424
2.46823
2.46823
2.43402
2.38025
2.30694
2.22874
2.15054
2.06745
1.98436
1.90616
1.83284
1.75953
1.69110
1.62757
1.57380
1.52981
1.51026
1.46628
1.45161
1.45161
1.45650
1.47116
1.49560
1.52004
1.54448
1.56403
1.58358
1.59824
1.60802
1.61290
1.61290
1.60802
1.60313
1.60802
1.56403
1.54448
1.52493
1.50538
1.48583
1.46628
1.44673
1.44184
1.40762
1.39296
1.37830
1.36364
1.35386
1.34409
1.33431
1.32454
1.31965
1.31476
1.33431
1.30010
1.29521
1.29032
1.28543
1.28055
1.28543
1.31965
1.32454
1.38319
1.48094
1.61779
1.77908
1.95503
2.13587
2.26784
2.38025
2.45846
2.49267
2.47801
2.45357
2.39980
2.31183
2.23363
2.15054
2.07722
1.99413
1.91593
1.86217
1.78397
1.73998
1.64712
1.59824
1.54936
1.51515
1.48583
1.47605
1.47116
1.47605
1.51026
1.50049
1.52004
1.53959
1.55914
1.57380
1.59335
1.60313
1.62757
1.59824
1.58847
1.57380
1.56403
1.54448
1.52493
1.51515
1.50049
1.46139
1.44184
1.42229
1.40762
1.38807
1.37341
1.35875
1.34409
1.34409
1.31965
1.30987
1.30499
1.29521
1.29032
1.28543
1.28055
1.27566
1.27077
1.26588
1.26100
1.26588
1.28055
1.32942
1.42229
1.52004
1.67155
1.84262
2.01857
2.18475
2.32649
2.42913
2.49756
2.49756
2.48289
2.43402
2.36559
2.29228
2.21408
2.14076
2.05767
1.98436
1.91105
1.83773
1.77419
1.71554
1.67155
1.62757
1.55914
1.52981
1.50538
1.49071
1.49560
1.50049
1.52981
1.52981
1.54936
1.56403
1.57869
1.59335
1.60313
1.60802
1.60802
1.62268
1.58847
1.57380
1.55425
1.53470
1.52493
1.52493
1.47605
1.45650
1.43695
1.41740
1.40274
1.38807
1.37341
1.35875
1.34409
1.33431
1.32454
1.31965
1.33431
1.30010
1.29521
1.29032
1.28543
1.28055
1.28055
1.27566
1.30010
1.28055
1.30987
1.37341
1.46628
1.59824
1.76931
1.94526
2.12121
2.26784
2.38514
2.46334
2.49756
2.49267
2.45846
2.39980
2.33138
2.25806
2.17498
2.09677
2.02346
1.95015
1.88172
1.84262
1.75464
1.69599
1.64223
1.59824
1.57869
1.53470
1.52493
1.52004
1.52493
1.53470
1.54936
1.56891
1.58847
1.61779
1.60802
1.61779
1.62268
1.61779
1.61290
1.60802
1.60802
1.56891
1.54936
1.52981
1.51026
1.49071
1.47605
1.47605
1.43206
1.41740
1.40274
1.38807
1.37830
1.36852
1.35386
1.35386
1.33920
1.32942
1.32454
1.31965
1.31476
1.30987
1.30987
1.32454
1.29521
1.29521
1.30499
1.32942
1.38319
1.47605
1.59335
1.74976
1.91593
2.08700
2.23363
2.35582
2.42913
2.46823
2.46823
2.43402
2.37537
2.30694
2.23363
2.16520
2.08211
2.00880
1.93548
1.86706
1.79863
1.73998
1.68622
1.62757
1.58358
1.54936
1.52981
1.51515
1.51515
1.53959
1.53470
1.54936
1.56891
1.58358
1.59824
1.61290
1.61779
1.62757
1.61779
1.60802
1.59824
1.57869
1.56403
1.54448
1.52981
1.50538
1.48583
1.46628
1.44673
1.43206
1.41740
1.41740
1.38807
1.37830
1.36364
1.35875
1.34409
1.34409
1.35875
1.32942
1.32454
1.31965
1.30987
1.30499
1.31476
1.30010
1.30010
1.32454
1.36852
1.44673
1.57869
1.70088
1.86706
2.03324
2.18475
2.31183
2.39980
2.45357
2.46334
2.43891
2.39003
2.32649
2.25806
2.17986
2.12610
2.03324
1.95992
1.89638
1.82796
1.76931
1.71554
1.65689
1.61290
1.57380
1.54448
1.52981
1.52981
1.52004
1.52981
1.53959
1.55425
1.56891
1.58358
1.60313
1.61779
1.60313
1.60313
1.59335
1.58358
1.58847
1.55425
1.53470
1.51026
1.49071
1.47605
1.46628
1.43206
1.41251
1.39785
1.37830
1.36852
1.34897
1.34409
1.33431
1.33920
1.30987
1.30010
1.29521
1.29032
1.28055
1.28055
1.27077
1.26100
1.26100
1.27077
1.30010
1.38319
1.44673
1.57380
1.73021
1.89638
2.06256
2.20430
2.31672
2.38514
2.41935
2.43891
2.37537
2.32160
2.25806
2.18964
2.14565
2.05279
1.98436
1.95015
1.86217
1.79863
1.74487
1.68622
1.63734
1.59335
1.55425
1.52981
1.51026
1.50538
1.51026
1.50049
1.51026
1.52004
1.52981
1.53959
1.54936
1.55425
1.54936
1.56403
1.53470
1.52493
1.50538
1.49071
1.47116
1.46628
1.43206
1.41251
1.39296
1.37341
1.35875
1.34409
1.32454
1.30987
1.29521
1.28543
1.27077
1.27077
1.27077
1.24633
1.24633
1.24145
1.23656
1.22678
1.22190
1.24633
1.21701
1.22678
1.25611
1.31965
1.41251
1.54936
1.71065
1.90616
2.03812
2.17986
2.28250
2.34604
2.37048
2.37048
2.31672
2.26295
2.19453
2.14076
2.05767
1.99413
1.94526
1.86706
1.80841
1.74976
1.69599
1.64223
1.59335
1.56403
1.51515
1.49071
1.47116
1.46139
1.46628
1.47116
1.48094
1.51515
1.49560
1.50538
1.51026
1.50538
1.51026
1.49560
1.48583
1.47116
1.45650
1.44184
1.44673
1.40274
1.38319
1.36364
1.34897
1.33920
1.33431
1.30010
1.28543
1.27566
1.26100
1.25122
1.24145
1.24145
1.25122
1.22190
1.21212
1.20723
1.20235
1.19746
1.21701
1.18280
1.18280
1.19257
1.21212
1.26588
1.37341
1.46628
1.61779
1.77908
1.94526
2.09189
2.21408
2.27761
2.31672
2.31672
2.28739
2.23363
2.17498
2.10655
2.04790
1.97458
1.90616
1.87195
1.79863
1.73021
1.67155
1.64712
1.56891
1.52493
1.48583
1.46628
1.44673
1.43695
1.43206
1.43695
1.45161
1.48583
1.46628
1.47605
1.48094
1.48094
1.48094
1.48094
1.46628
1.45650
1.44184
1.42229
1.40762
1.40274
1.36852
1.35386
1.33431
1.31965
1.32942
1.29032
1.27566
1.26588
1.25122
1.24633
1.24145
1.22190
1.21701
1.20723
1.20235
1.19257
1.19257
1.20723
1.17791
1.17302
1.17302
1.17302
1.20235
1.21212
1.26588
1.35386
1.47605
1.63734
1.78397
1.94037
2.07722
2.17986
2.25318
2.27761
2.27273
2.24340
2.19453
2.12610
2.05767
1.99413
1.92082
1.85728
1.79374
1.73998
1.67644
1.64712
1.57380
1.52981
1.48583
1.45650
1.45650
1.41740
1.41251
1.41251
1.42229
1.43695
1.45161
1.46139
1.47116
1.48094
1.48583
1.49071
1.47605
1.47116
1.46139
1.44673
1.43206
1.42717
1.39785
1.38319
1.36364
1.34897
1.33431
1.31476
1.30010
1.28543
1.27077
1.26588
1.27077
1.24145
1.23656
1.22678
1.21701
1.21701
1.24145
1.20723
1.20235
1.19746
1.19257
1.19257
1.19746
1.23167
1.24145
1.30499
1.39785
1.52004
1.67155
1.82307
1.96481
2.09189
2.18964
2.24829
2.27273
2.27273
2.23363
2.17986
2.13587
2.05279
1.98925
1.92571
1.86217
1.81329
1.74487
1.69110
1.63734
1.58847
1.54448
1.50538
1.48094
1.46628
1.44673
1.44184
1.44673
1.45161
1.47116
1.49560
1.49071
1.50049
1.50538
1.51515
1.52493
1.51026
1.50049
1.49071
1.47605
1.45650
1.44673
1.43695
1.41251
1.39296
1.37341
1.35875
1.34409
1.35386
1.31476
1.30010
1.28543
1.27566
1.26588
1.25611
1.25611
1.24145
1.23167
1.22678
1.21701
1.21701
1.23167
1.20235
1.20235
1.21701
1.24633
1.30499
1.40762
1.51515
1.65689
1.80841
1.95992
2.11144
2.18475
2.24829
2.28250
2.28250
2.24829
2.19941
2.14565
2.07722
2.01369
1.97458
1.88661
1.82796
1.76931
1.71065
1.66178
1.62757
1.56403
1.52493
1.49071
1.47116
1.46139
1.44184
1.44184
1.44673
1.45161
1.46139
1.48094
1.47605
1.48094
1.48583
1.49071
1.48583
1.48094
1.47116
1.45650
1.44673
1.43206
1.40762
1.39296
1.37830
1.35875
1.33920
1.32454
1.31965
1.29521
1.28055
1.27077
1.26100
1.25611
1.24145
1.23167
1.22190
1.21212
1.21212
1.22678
1.19746
1.19257
1.18768
1.18280
1.19746
1.21212
1.25122
1.31965
1.42717
1.56891
1.70577
1.85728
2.00391
2.12121
2.21408
2.28739
2.28250
2.27273
2.24340
2.17986
2.12121
2.06256
1.99413
1.93060
1.86706
1.80841
1.75464
1.69599
1.64712
1.59824
1.55425
1.52981
1.48583
1.46628
1.45161
1.44673
1.46139
1.44673
1.45161
1.46139
1.47116
1.48094
1.48583
1.49071
1.49071
1.48583
1.48583
1.47116
1.45650
1.44184
1.42717
1.41740
1.40274
1.40274
1.36364
1.34897
1.32942
1.31965
1.30499
1.31476
1.28055
1.27077
1.26100
1.25122
1.24633
1.25611
1.22678
1.22190
1.21701
1.21212
1.20723
1.20235
1.19746
1.20235
1.22190
1.26100
1.33920
1.43206
1.55914
1.71065
1.86217
2.01369
2.14076
2.22385
2.27761
2.30205
2.29717
2.25318
2.19941
2.14076
2.10166
2.00880
1.94037
1.87195
1.81329
1.75464
1.69599
1.64223
1.59824
1.55914
1.51515
1.48583
1.46139
1.45650
1.45161
1.44184
1.44673
1.45650
1.46628
1.48094
1.50049
1.49560
1.50049
1.50049
1.49560
1.49071
1.49560
1.46628
1.45650
1.44184
1.42717
1.41251
1.41251
1.37830
1.36364
1.34409
1.33431
1.33431
1.30499
1.29521
1.28055
1.27077
1.26588
1.25611
1.24633
1.23656
1.23167
1.23167
1.22190
1.21701
1.20723
1.20235
1.20723
1.24633
1.25122
1.30499
1.39296
1.51515
1.64223
1.78886
1.93060
2.05767
2.15054
2.20919
2.24340
2.23851
2.21408
2.17009
2.11632
2.04790
1.98436
1.92082
1.85239
1.81818
1.73509
1.68133
1.63734
1.57869
1.53470
1.50049
1.47605
1.45161
1.43695
1.43206
1.42717
1.44184
1.44184
1.45650
1.46628
1.48094
1.49071
1.49560
1.49560
1.49560
1.49560
1.49560
1.47605
1.46628
1.45161
1.43695
1.42717
1.42229
1.39296
1.38319
1.36852
1.35386
1.34409
1.35875
1.31965
1.30987
1.29521
1.29032
1.29032
1.27077
1.26100
1.25611
1.24633
1.26588
1.23167
1.22678
1.22190
1.22190
1.25122
1.28543
1.35386
1.44184
1.56403
1.69599
1.82796
1.95015
2.06256
2.14565
2.19453
2.21408
2.20919
2.17986
2.13587
2.09677
2.02346
1.95992
1.89638
1.83284
1.77419
1.72043
1.67155
1.63245
1.57380
1.53959
1.50538
1.48094
1.46139
1.44673
1.44184
1.44673
1.45161
1.45650
1.46139
1.47116
1.48583
1.49560
1.50049
1.50049
1.50538
1.50538
1.50049
1.50538
1.48094
1.46628
1.45161
1.44184
1.42717
1.42717
1.39785
1.38319
1.36852
1.35386
1.33920
1.33431
1.34409
1.30987
1.30010
1.29032
1.28543
1.29032
1.27077
1.26588
1.25611
1.25122
1.25611
1.25611
1.28543
1.32942
1.41740
1.50538
1.62268
1.74976
1.87683
1.98925
2.08211
2.15054
2.20430
2.19941
2.18964
2.17498
2.11144
2.05767
2.00391
1.93548
1.89150
1.82307
1.76442
1.71554
1.66667
1.61779
1.58358
1.53959
1.51026
1.48583
1.46628
1.45650
1.47605
1.44184
1.44184
1.45161
1.46139
1.46628
1.47116
1.47605
1.48583
1.50049
1.48094
1.48094
1.47116
1.46628
1.47116
1.43695
1.42717
1.41251
1.39785
1.40274
1.37341
1.35875
1.34897
1.33920
1.34409
1.31476
1.30499
1.29521
1.29032
1.28543
1.27077
1.26100
1.25122
1.24633
1.25122
1.23167
1.23656
1.25122
1.29032
1.35875
1.44184
1.54936
1.67155
1.79863
1.92082
2.04301
2.09189
2.14076
2.16031
2.16031
2.13099
2.09677
2.04301
1.98925
1.93548
1.87683
1.82796
1.76931
1.72043
1.67155
1.62757
1.58358
1.55425
1.51515
1.49071
1.47116
1.45650
1.46139
1.44673
1.44673
1.45161
1.45650
1.46139
1.49071
1.47116
1.47116
1.47116
1.46628
1.47116
1.46628
1.45161
1.44184
1.42717
1.42229
1.41740
1.39296
1.37830
1.36364
1.35386
1.34409
1.35386
1.32454
1.31476
1.30499
1.29032
1.30010
1.27566
1.26588
1.26100
1.25122
1.27077
1.24145
1.23656
1.23656
1.25122
1.28055
1.32942
1.40274
1.49560
1.61290
1.73998
1.85239
1.95992
2.04790
2.11144
2.17009
2.17986
2.14076
2.10655
2.06256
2.02835
1.95992
1.91105
1.85239
1.80352
1.77908
1.71065
1.66178
1.62268
1.58358
1.54936
1.52493
1.52493
1.48583
1.47605
1.47116
1.47116
1.47605
1.48094
1.48094
1.48094
1.48583
1.49560
1.49560
1.49560
1.49071
1.49071
1.50049
1.47116
1.46139
1.44673
1.43695
1.42717
1.41251
1.40274
1.38807
1.37830
1.37830
1.35875
1.34897
1.33431
1.32942
1.31965
1.33431
1.30010
1.29521
1.29032
1.28055
1.28543
1.27566
1.27077
1.27566
1.30010
1.34409
1.39785
1.48094
1.57869
1.70088
1.84262
1.93548
2.03324
2.10655
2.16520
2.18475
2.17009
2.17009
2.11144
2.06745
2.00880
1.95503
1.90616
1.85239
1.83773
1.78397
1.72043
1.67644
1.63245
1.59824
1.57380
1.55425
1.52981
1.52004
1.51515
1.51515
1.52004
1.51515
1.51515
1.52493
1.52493
1.53470
1.53470
1.53470
1.53470
1.53470
1.53470
1.52004
1.51026
1.50049
1.49071
1.47605
1.46628
1.45650
1.44673
1.43695
1.45161
1.41251
1.40274
1.39296
1.38319
1.37341
1.36364
1.35386
1.34897
1.34897
1.33431
1.32454
1.32454
1.32454
1.32942
1.35386
1.39785
1.46628
1.56403
1.65689
1.77419
1.88661
2.00880
2.07234
2.14076
2.17498
2.19941
2.17986
2.15543
2.11144
2.06256
2.03324
1.95992
1.91105
1.85728
1.80841
1.76442
1.72043
1.67644
1.64223
1.60313
1.57869
1.55914
1.54448
1.54448
1.53470
1.52004
1.52004
1.52493
1.52981
1.55425
1.53470
1.53959
1.54448
1.54936
1.53470
1.53470
1.52493
1.51515
1.51026
1.49560
1.48094
1.47116
1.45161
1.44673
1.44184
1.41740
1.40762
1.39785
1.39296
1.41251
1.37341
1.36364
1.35386
1.34897
1.35386
1.33431
1.32454
1.31965
1.31965
1.32942
1.34409
1.38319
1.44673
1.53470
1.64223
1.75953
1.88172
1.99413
2.10655
2.16520
2.21408
2.23363
2.22874
2.20919
2.19941
2.12121
2.07234
2.01857
1.96481
1.93548
1.85728
1.80841
1.76442
1.71554
1.68133
1.64712
1.62268
1.58847
1.56891
1.55914
1.55425
1.57380
1.54448
1.54936
1.54936
1.55425
1.57380
1.55914
1.56403
1.56403
1.55914
1.56891
1.54448
1.53470
1.52493
1.51515
1.49560
1.48583
1.47116
1.46139
1.45650
1.43695
1.42717
1.41740
1.41251
1.42229
1.38807
1.37830
1.36852
1.37341
1.35386
1.34409
1.33920
1.32942
1.34409
1.32454
1.33431
1.35875
1.41251
1.48094
1.57380
1.69110
1.81818
1.93548
2.04790
2.14076
2.21408
2.25318
2.25806
2.24829
2.21896
2.17498
2.13099
2.07234
2.01857
1.96970
1.91593
1.86706
1.81818
1.76931
1.72532
1.69110
1.65200
1.62268
1.60313
1.61290
1.57380
1.56891
1.56891
1.59335
1.56891
1.57380
1.57869
1.59335
1.58358
1.57869
1.57869
1.57380
1.57380
1.55425
1.54448
1.53470
1.52493
1.53959
1.49560
1.48583
1.47116
1.46139
1.44673
1.43206
1.42229
1.41251
1.42717
1.39296
1.38319
1.37341
1.36852
1.36852
1.35386
1.34409
1.33920
1.34897
1.33431
1.34409
1.37341
1.43206
1.50538
1.60802
1.72532
1.86706
1.96970
2.07722
2.16031
2.21896
2.27761
2.25318
2.23851
2.20919
2.15543
2.10655
2.05279
1.99902
1.94526
1.89150
1.84262
1.79863
1.74976
1.71065
1.67155
1.63734
1.61290
1.59824
1.57380
1.56403
1.55914
1.55914
1.58358
1.55914
1.56403
1.57380
1.57869
1.57380
1.57380
1.57380
1.56403
1.58847
1.54936
1.53959
1.52981
1.52004
1.50538
1.49560
1.48583
1.49560
1.46139
1.44673
1.43695
1.43695
1.41251
1.40274
1.39785
1.38807
1.39785
1.37341
1.36364
1.35386
1.35386
1.34409
1.33431
1.33431
1.33431
1.36364
1.40762
1.48094
1.56891
1.69110
1.80352
1.92571
2.03324
2.13099
2.18964
2.22874
2.24340
2.22874
2.19941
2.15543
2.12121
2.05767
2.02346
1.95015
1.91593
1.84751
1.79863
1.75464
1.71065
1.66667
1.64223
1.60802
1.58358
1.56403
1.56891
1.55425
1.54936
1.55425
1.56891
1.55914
1.56403
1.57380
1.57380
1.57380
1.57380
1.56891
1.57380
1.55914
1.55425
1.53959
1.53470
1.53470
1.51026
1.49560
1.48583
1.48583
1.46139
1.45161
1.44184
1.43695
1.42229
1.41251
1.40274
1.39785
1.38807
1.37830
1.36852
1.36852
1.36364
1.34897
1.34409
1.35386
1.37341
1.41740
1.48094
1.57869
1.69599
1.81329
1.94037
2.05767
2.17009
2.22385
2.26295
2.28739
2.27273
2.24340
2.20919
2.15054
2.09677
2.04790
1.98436
1.93060
1.87683
1.82307
1.77419
1.73021
1.69110
1.65200
1.62268
1.59335
1.57869
1.56403
1.55914
1.55425
1.55914
1.56891
1.56403
1.56891
1.57380
1.57869
1.59824
1.57869
1.57380
1.56891
1.56403
1.57869
1.54936
1.53470
1.52004
1.52004
1.49560
1.48094
1.46628
1.46139
1.44184
1.43695
1.42717
1.41740
1.40274
1.39296
1.37830
1.37341
1.36364
1.35386
1.34409
1.33920
1.33431
1.32942
1.33431
1.34897
1.40274
1.45650
1.54448
1.65689
1.78397
1.91593
2.03324
2.14076
2.22385
2.27761
2.29717
2.29717
2.29228
2.22874
2.17986
2.13099
2.06745
2.01369
1.95503
1.90616
1.85239
1.79863
1.75464
1.71065
1.67155
1.63734
1.61290
1.58358
1.56891
1.55914
1.55914
1.55425
1.55425
1.55914
1.56403
1.57869
1.56891
1.56891
1.56891
1.56891
1.58358
1.55425
1.54936
1.53470
1.52981
1.53959
1.50049
1.48583
1.48583
1.46628
1.45161
1.44184
1.43206
1.44184
1.40274
1.39296
1.37830
1.37341
1.36364
1.35386
1.34409
1.33920
1.32942
1.32454
1.31476
1.30987
1.34409
1.33431
1.37341
1.44673
1.55914
1.66178
1.79374
1.93060
2.05767
2.16520
2.24340
2.28739
2.30694
2.30205
2.26784
2.22385
2.17009
2.11632
2.05767
2.01369
1.94037
1.88661
1.83284
1.77908
1.73021
1.68622
1.64223
1.60802
1.58847
1.55914
1.54448
1.53470
1.52493
1.53470
1.53470
1.53959
1.54448
1.55425
1.55425
1.55914
1.55914
1.55914
1.55425
1.54448
1.53470
1.53470
1.52004
1.50538
1.49560
1.49071
1.46628
1.45650
1.44184
1.43206
1.41740
1.40274
1.39296
1.38807
1.37341
1.36364
1.35386
1.34409
1.35875
1.32454
1.31965
1.30987
1.30987
1.30010
1.30010
1.31476
1.34897
1.42229
1.49560
1.61290
1.74487
1.89150
2.01369
2.12610
2.21896
2.27273
2.30205
2.30694
2.27761
2.23363
2.18475
2.12121
2.06256
1.99902
1.93548
1.88172
1.82307
1.76931
1.72532
1.67155
1.62757
1.59335
1.55914
1.53959
1.52004
1.51515
1.53470
1.51026
1.51515
1.52493
1.53470
1.53470
1.54448
1.54936
1.55914
1.54936
1.54936
1.54448
1.54448
1.52493
1.51515
1.50538
1.51026
1.48094
1.46628
1.45650
1.47116
1.43206
1.42229
1.40762
1.40274
1.38807
1.37830
1.37341
1.35875
1.35875
1.34409
1.33920
1.32942
1.32942
1.31476
1.30987
1.30987
1.31476
1.33431
1.37830
1.45161
1.55914
1.70577
1.81818
1.95992
2.08700
2.21896
2.26784
2.31183
2.33138
2.31183
2.27761
2.22874
2.17009
2.11144
2.07234
1.98436
1.92082
1.86217
1.80352
1.74976
1.70088
1.65689
1.61290
1.58847
1.55914
1.53959
1.52493
1.52004
1.52004
1.52493
1.52981
1.53959
1.54936
1.55425
1.56403
1.59824
1.57380
1.57380
1.57869
1.57869
1.55914
1.55425
1.54936
1.53959
1.52004
1.51026
1.50049
1.48583
1.47116
1.46139
1.45161
1.45650
1.42229
1.41251
1.39785
1.39296
1.37830
1.37341
1.36364
1.35875
1.34409
1.33920
1.32942
1.32942
1.32942
1.34409
1.37830
1.45650
1.53959
1.65689
1.78886
1.94037
2.05767
2.17009
2.25806
2.32649
2.34115
2.34115
2.34115
2.27273
2.21408
2.17009
2.09189
2.03324
1.96481
1.90616
1.84751
1.78886
1.75953
1.68622
1.64712
1.61290
1.57869
1.55425
1.53959
1.53470
1.52493
1.52981
1.52981
1.54448
1.55914
1.55914
1.56891
1.58358
1.61290
1.59335
1.59335
1.59335
1.61290
1.57869
1.56891
1.55914
1.56891
1.52981
1.52004
1.50538
1.49560
1.47605
1.46628
1.45161
1.44184
1.42717
1.41740
1.40762
1.39785
1.41251
1.37341
1.36364
1.35875
1.34409
1.33431
1.32942
1.33920
1.35386
1.39296
1.46628
1.57380
1.69599
1.83773
1.98436
2.12121
2.23363
2.31672
2.37537
2.39492
2.38514
2.35093
2.30694
2.24340
2.17986
2.12121
2.04790
1.98436
1.93060
1.87683
1.82307
1.74487
1.69599
1.65200
1.61290
1.57869
1.55425
1.54448
1.52981
1.52493
1.52981
1.53959
1.57380
1.55914
1.56891
1.57869
1.60802
1.58847
1.59335
1.59335
1.59335
1.58358
1.56891
1.57380
1.54936
1.53470
1.52004
1.51026
1.49560
1.48094
1.46628
1.48094
1.43695
1.42229
1.40762
1.40274
1.38319
1.37341
1.37341
1.35875
1.34897
1.33920
1.34409
1.32454
1.31965
1.31965
1.33920
1.36852
1.43695
1.52981
1.67155
1.80352
1.95015
2.09677
2.24829
2.32160
2.38514
2.41447
2.41447
2.38514
2.34115
2.28250
2.23363
2.15054
2.08700
2.01369
1.95015
1.88661
1.82307
1.79374
1.71554
1.66667
1.62757
1.58847
1.56403
1.54448
1.53470
1.53470
1.53470
1.53959
1.54936
1.56403
1.57380
1.58358
1.58847
1.60313
1.60313
1.59824
1.59824
1.60313
1.57869
1.56891
1.55425
1.53959
1.52493
1.51026
1.50049
1.51026
1.46628
1.45650
1.43695
1.43695
1.41251
1.40274
1.38807
1.37830
1.36852
1.35875
1.34897
1.34897
1.32942
1.32454
1.31476
1.31965
1.31476
1.32942
1.36364
1.43206
1.52981
1.66178
1.80841
1.96970
2.11632
2.24340
2.34604
2.40469
2.42913
2.43891
2.39980
2.34604
2.28739
2.24340
2.14565
2.08700
2.00880
1.94037
1.87683
1.81329
1.75953
1.70577
1.65689
1.61290
1.57869
1.55425
1.53959
1.52981
1.54936
1.53470
1.53959
1.55914
1.56403
1.57869
1.59335
1.60313
1.60313
1.60313
1.60313
1.60313
1.58847
1.57869
1.56891
1.57869
1.53470
1.52004
1.51026
1.49560
1.47605
1.46139
1.44673
1.44673
1.42229
1.40762
1.39785
1.41740
1.37830
1.36852
1.36364
1.34897
1.34409
1.33431
1.32942
1.33920
1.31476
1.31476
1.31476
1.34409
1.38807
1.47116
1.58358
1.72043
1.87683
2.02835
2.17498
2.28250
2.36070
2.40958
2.41935
2.40469
2.36070
2.30694
2.24340
2.17009
2.10166
2.02835
1.97458
1.90127
1.84262
1.76442
1.70577
1.66667
1.61290
1.57869
1.54936
1.54936
1.52004
1.51515
1.51515
1.54448
1.53470
1.54936
1.56403
1.57380
1.58847
1.59824
1.61779
1.60313
1.59824
1.59824
1.58358
1.57380
1.56403
1.55914
1.52981
1.51515
1.50049
1.51515
1.47116
1.45650
1.44673
1.42717
1.41740
1.40274
1.39785
1.38319
1.37341
1.36852
1.35875
1.34897
1.34409
1.34897
1.32454
1.31965
1.31965
1.32454
1.33920
1.37830
1.45650
1.55914
1.69599
1.84751
1.99902
2.14076
2.26784
2.35582
2.40469
2.42424
2.41447
2.39003
2.31672
2.25318
2.20919
2.11144
2.04301
1.96970
1.90127
1.83773
1.77908
1.72532
1.66667
1.62268
1.58358
1.57380
1.52493
1.51026
1.50538
1.50538
1.51026
1.52004
1.53470
1.54448
1.55914
1.57380
1.60313
1.58847
1.58847
1.58847
1.58358
1.57380
1.56403
1.55425
1.53959
1.52004
1.51026
1.52493
1.48094
1.46139
1.45161
1.45161
1.42229
1.40762
1.41740
1.38319
1.37341
1.36852
1.35386
1.34409
1.33920
1.35386
1.32454
1.31476
1.31476
1.31476
1.31476
1.33920
1.38807
1.49560
1.58847
1.73021
1.88661
2.07234
2.18475
2.30205
2.40469
2.42424
2.43891
2.41935
2.37537
2.31672
2.25318
2.17986
2.11144
2.06745
1.96970
1.90127
1.84262
1.77908
1.72532
1.68622
1.62268
1.57869
1.54936
1.52493
1.51026
1.50538
1.50538
1.52493
1.52004
1.52981
1.54448
1.58358
1.56891
1.57380
1.57869
1.57869
1.57380
1.56403
1.58358
1.54448
1.52981
1.54936
1.50538
1.48583
1.47605
1.45161
1.43695
1.42717
1.40762
1.39785
1.38319
1.37341
1.36364
1.35386
1.33920
1.35386
1.32454
1.31965
1.31476
1.30499
1.30010
1.29032
1.30499
1.29521
1.31965
1.39296
1.45650
1.57380
1.72532
1.88172
2.04790
2.19453
2.31672
2.39980
2.44379
2.45357
2.45846
2.38514
2.32160
2.25318
2.17986
2.10655
2.03812
1.96970
1.89638
1.83773
1.78397
1.71554
1.66667
1.62268
1.57869
1.54936
1.52493
1.52981
1.51026
1.51026
1.52004
1.52981
1.54448
1.55914
1.57380
1.60802
1.58847
1.58847
1.58847
1.58358
1.57380
1.56403
1.54936
1.53470
1.52004
1.50538
1.49071
1.47116
1.45161
1.44184
1.42229
1.40762
1.39296
1.38807
1.36852
1.35875
1.34897
1.35386
1.32942
1.31965
1.31476
1.30499
1.30010
1.29521
1.28543
1.28543
1.28055
1.31476
1.33920
1.40762
1.51515
1.64712
1.80841
1.97458
2.13099
2.26295
2.36070
2.42424
2.47801
2.43891
2.39980
2.34604
2.27761
2.20430
2.13587
2.05767
1.98925
1.93060
1.87195
1.78886
1.73021
1.67644
1.65689
1.58358
1.54936
1.52981
1.51026
1.50538
1.50538
1.51515
1.52004
1.53470
1.55425
1.55914
1.57380
1.58358
1.61290
1.58358
1.58358
1.58358
1.56403
1.54936
1.53959
1.55425
1.51026
1.49071
1.47605
1.45650
1.44184
1.42717
1.43206
1.39785
1.38319
1.37830
1.37341
1.35386
1.34409
1.35386
1.32454
1.31476
1.31476
1.30499
1.30010
1.29521
1.31965
1.28543
1.29032
1.30987
1.37341
1.41740
1.52004
1.66178
1.82307
1.98436
2.13587
2.27273
2.36559
2.42424
2.44379
2.42913
2.38514
2.33138
2.26784
2.18475
2.11144
2.03812
1.96481
1.89638
1.82796
1.77908
1.70577
1.65200
1.60313
1.56403
1.52981
1.51515
1.50049
1.49560
1.50538
1.53470
1.52493
1.53959
1.55914
1.60313
1.58358
1.59335
1.59824
1.59824
1.59335
1.58847
1.57869
1.57380
1.54936
1.52981
1.51515
1.50049
1.48094
1.46628
1.45161
1.43695
1.42229
1.40762
1.39296
1.38319
1.36852
1.36852
1.35386
1.34409
1.33920
1.32942
1.32454
1.31965
1.31965
1.30499
1.30499
1.30010
1.33431
1.32942
1.37830
1.46628
1.58847
1.71554
1.87683
2.05767
2.17986
2.29717
2.38025
2.42913
2.43402
2.40958
2.37048
2.30694
2.23851
2.16520
2.08700
2.02346
1.94526
1.87683
1.81329
1.74976
1.72043
1.63734
1.59335
1.55914
1.52981
1.50538
1.50049
1.49560
1.50049
1.51026
1.52981
1.53959
1.55914
1.57380
1.58358
1.58847
1.59335
1.59824
1.58847
1.57869
1.57869
1.55914
1.54448
1.52981
1.51026
1.49560
1.48094
1.46628
1.44673
1.42717
1.41740
1.39785
1.38807
1.37830
1.39296
1.35875
1.34897
1.34409
1.33431
1.32454
1.31965
1.30499
1.30010
1.29521
1.29032
1.29521
1.31965
1.39785
1.46139
1.57869
1.73998
1.88172
2.04301
2.18964
2.30694
2.39003
2.43402
2.43891
2.41935
2.37537
2.34115
2.24340
2.17009
2.09189
2.02346
1.94526
1.87683
1.81329
1.74976
1.69599
1.64223
1.59824
1.55914
1.52981
1.50538
1.50049
1.49071
1.49560
1.50538
1.54448
1.53470
1.54936
1.57380
1.57869
1.58847
1.59824
1.59335
1.58847
1.58358
1.57380
1.55914
1.56891
1.52981
1.51026
1.49560
1.47116
1.45650
1.44184
1.45161
1.41251
1.39296
1.38807
1.36852
1.35875
1.34897
1.34897
1.32942
1.31965
1.31476
1.30987
1.30499
1.29521
1.28543
1.28543
1.29032
1.33431
1.35386
1.43695
1.54936
1.69110
1.85239
2.01857
2.16031
2.28250
2.37048
2.44379
2.42913
2.40958
2.38025
2.30205
2.23363
2.15543
2.08211
2.00880
1.93548
1.86706
1.79863
1.75464
1.68133
1.62757
1.60802
1.53959
1.51026
1.49560
1.48094
1.47116
1.48583
1.48583
1.50049
1.52004
1.52981
1.54448
1.55914
1.56403
1.56891
1.56403
1.55914
1.55425
1.54448
1.53959
1.51515
1.49560
1.48583
1.46139
1.44184
1.42717
1.40762
1.39296
1.37830
1.39296
1.35386
1.33920
1.33431
1.34897
1.31476
1.30987
1.29521
1.28543
1.28543
1.28055
1.27566
1.27077
1.28543
1.26588
1.28543
1.33920
1.40274
1.51026
1.65689
1.81329
1.98436
2.13587
2.28250
2.36070
2.41447
2.42913
2.41447
2.37537
2.33627
2.24340
2.17009
2.09189
2.01857
1.94526
1.87683
1.80841
1.74487
1.69110
1.63245
1.58847
1.54936
1.51515
1.49560
1.48583
1.48583
1.48583
1.49560
1.51026
1.52493
1.53959
1.55425
1.56891
1.56891
1.56891
1.57380
1.56403
1.55914
1.54448
1.54936
1.51515
1.50049
1.48094
1.46139
1.44184
1.42717
1.43695
1.38807
1.37341
1.36852
1.34897
1.33431
1.32942
1.33920
1.30499
1.30010
1.31476
1.28543
1.27566
1.27566
1.26588
1.26100
1.26100
1.28543
1.26588
1.29521
1.35875
1.44184
1.56403
1.72043
1.88661
2.04790
2.19453
2.30694
2.38514
2.42424
2.41935
2.39003
2.33627
2.28250
2.19453
2.12610
2.04301
1.99413
1.89150
1.82307
1.75464
1.69599
1.63734
1.58358
1.54448
1.50538
1.48094
1.46628
1.46139
1.46139
1.46628
1.48583
1.50049
1.52004
1.53470
1.54936
1.55914
1.56403
1.56403
1.56403
1.56891
1.54448
1.52981
1.52004
1.52493
1.48094
1.46628
1.46139
1.42717
1.40762
1.39785
1.37341
1.36364
1.34897
1.35386
1.32454
1.31476
1.30987
1.29521
1.29032
1.28543
1.27566
1.27077
1.27077
1.26588
1.25611
1.25611
1.27077
1.27077
1.30499
1.38807
1.47605
1.60802
1.77419
1.93548
2.09677
2.23851
2.33627
2.39980
2.42424
2.40469
2.36070
2.30205
2.22385
2.14565
2.06745
1.98925
1.91105
1.83773
1.76931
1.70577
1.64712
1.58847
1.53959
1.50049
1.47605
1.45161
1.44184
1.44184
1.44673
1.45650
1.47116
1.49560
1.51026
1.52981
1.54448
1.57380
1.55914
1.55914
1.55914
1.54936
1.53959
1.52493
1.51026
1.49071
1.48583
1.45650
1.43695
1.41740
1.40274
1.38807
1.36852
1.36852
1.34409
1.33431
1.32942
1.31476
1.30499
1.30010
1.29032
1.28543
1.28055
1.27566
1.27077
1.27077
1.26100
1.26100
1.26100
1.29521
1.30987
1.37830
1.48583
1.62268
1.77908
1.95015
2.10655
2.24340
2.34115
2.40469
2.42913
2.41935
2.37537
2.31183
2.24340
2.17009
2.07722
1.99902
1.92082
1.84751
1.77419
1.73509
1.64223
1.58847
1.53959
1.49560
1.46628
1.45161
1.43695
1.43695
1.45161
1.46139
1.48094
1.50049
1.52004
1.53959
1.55914
1.56891
1.57380
1.58358
1.57869
1.57380
1.56403
1.55425
1.53959
1.52493
1.50538
1.49071
1.47116
1.48094
1.43206
1.41740
1.41251
1.38807
1.37341
1.36852
1.35386
1.34409
1.33431
1.32454
1.31476
1.30987
1.32454
1.29521
1.29032
1.29032
1.27566
1.27566
1.29032
1.31476
1.36364
1.46628
1.58847
1.74487
1.91105
2.07234
2.21896
2.34115
2.41447
2.45357
2.45357
2.41935
2.36559
2.29717
2.21896
2.13587
2.05279
1.97458
1.90127
1.82796
1.75464
1.69110
1.63734
1.57869
1.52981
1.50049
1.47116
1.45650
1.46628
1.45650
1.46628
1.49071
1.50538
1.52493
1.55425
1.56403
1.57869
1.59335
1.59824
1.59824
1.60313
1.58847
1.57869
1.57380
1.54936
1.53470
1.52004
1.50049
1.48094
1.46628
1.44673
1.43206
1.42229
1.40274
1.39296
1.38319
1.37341
1.35875
1.35386
1.34409
1.33431
1.32942
1.31965
1.31476
1.30987
1.31476
1.30499
1.31965
1.37341
1.42229
1.52981
1.68133
1.82796
1.99413
2.15543
2.29228
2.39980
2.46823
2.49267
2.48289
2.44379
2.39003
2.31672
2.23851
2.15543
2.07722
1.99902
1.92571
1.85239
1.78886
1.72532
1.66178
1.60802
1.57380
1.53470
1.51026
1.50049
1.49071
1.49560
1.50538
1.52004
1.53959
1.55914
1.57380
1.58847
1.60313
1.60802
1.61290
1.61290
1.60313
1.59824
1.58847
1.57380
1.55914
1.55425
1.52004
1.50049
1.49071
1.46628
1.45161
1.43695
1.42229
1.41251
1.39785
1.40762
1.37830
1.36852
1.36364
1.34897
1.33920
1.33431
1.32454
1.31965
1.30987
1.33920
1.31965
1.34897
1.41740
1.50538
1.63734
1.79374
1.95992
2.12610
2.27761
2.38514
2.45846
2.51222
2.48778
2.45357
2.39980
2.33138
2.24829
2.16520
2.08211
2.01369
1.94526
1.87195
1.78397
1.72043
1.66178
1.60802
1.56891
1.52981
1.50538
1.50538
1.48094
1.48583
1.50538
1.51515
1.52981
1.55425
1.56891
1.57869
1.59335
1.59824
1.59824
1.60313
1.60802
1.58358
1.57380
1.55425
1.53470
1.51515
1.50538
1.47605
1.46139
1.45650
1.42717
1.41251
1.40762
1.38807
1.37341
1.36852
1.35386
1.34409
1.36364
1.32454
1.31476
1.31476
1.30010
1.29521
1.29521
1.29032
1.30010
1.33431
1.38807
1.48094
1.61290
1.76442
1.93548
2.09677
2.23851
2.35093
2.42913
2.45357
2.45357
2.41935
2.35582
2.28739
2.21408
2.13099
2.07722
1.96970
1.89638
1.82307
1.76442
1.68622
1.63245
1.57869
1.53470
1.50538
1.49560
1.47116
1.47116
1.48094
1.48094
1.50538
1.52004
1.53959
1.55914
1.56891
1.57380
1.58358
1.57869
1.57869
1.57380
1.55914
1.54448
1.53470
1.51026
1.49071
1.49071
1.45650
1.43695
1.42229
1.39785
1.38807
1.38319
1.35875
1.34409
1.34409
1.32942
1.31476
1.32454
1.30499
1.30010
1.30010
1.29032
1.28543
1.28055
1.27566
1.28543
1.30987
1.35875
1.44673
1.56891
1.71554
1.88172
2.05767
2.19453
2.31183
2.41447
2.42913
2.43402
2.39492
2.34115
2.27273
2.18964
2.11144
2.02835
1.95503
1.87195
1.79863
1.73021
1.66667
1.60313
1.55425
1.51515
1.48094
1.45161
1.45650
1.44184
1.44673
1.46139
1.47605
1.49071
1.51515
1.55914
1.54448
1.55425
1.55914
1.56403
1.55914
1.54936
1.53959
1.52493
1.50538
1.48583
1.46628
1.45650
1.42717
1.41251
1.39296
1.37830
1.36364
1.36852
1.33920
1.32942
1.31476
1.30499
1.30010
1.29032
1.28055
1.27077
1.29521
1.26588
1.26100
1.26100
1.25611
1.25611
1.27566
1.30499
1.37341
1.48094
1.60802
1.76931
1.93548
2.09677
2.22874
2.33138
2.39003
2.40469
2.39492
2.34115
2.27761
2.22385
2.12121
2.06256
1.95503
1.87683
1.80352
1.73021
1.66178
1.62268
1.54936
1.50049
1.49071
1.43695
1.42717
1.41740
1.41740
1.44184
1.44673
1.46628
1.48583
1.50538
1.52493
1.53959
1.54936
1.55425
1.55914
1.54936
1.53959
1.52981
1.51515
1.49560
1.48094
1.45650
1.43695
1.42229
1.39785
1.38319
1.38807
1.35386
1.33920
1.33920
1.31965
1.30499
1.30499
1.29032
1.28543
1.28055
1.27566
1.26588
1.25611
1.26100
1.25122
1.25122
1.26100
1.28055
1.32942
1.42229
1.53959
1.69110
1.86217
2.02346
2.17498
2.29228
2.37048
2.40469
2.40469
2.37048
2.31672
2.24340
2.16031
2.08211
1.99902
1.92082
1.84262
1.76931
1.70088
1.63734
1.57869
1.53959
1.48583
1.45161
1.45161
1.42229
1.42229
1.43695
1.44184
1.45650
1.50538
1.49560
1.51515
1.56403
1.54448
1.55425
1.57380
1.55914
1.55425
1.56891
1.52493
1.51026
1.49071
1.47116
1.45650
1.43206
1.41740
1.40274
1.38319
1.36852
1.36364
1.34409
1.32942
1.32454
1.30987
1.30499
1.30010
1.29032
1.28543
1.28055
1.27566
1.27077
1.27077
1.26100
1.26100
1.27077
1.32454
1.34897
1.43695
1.57869
1.70577
1.86706
2.02835
2.17498
2.28739
2.37048
2.40469
2.41935
2.37537
2.32160
2.25806
2.17009
2.09189
2.00391
1.92571
1.84751
1.77419
1.70088
1.63734
1.57869
1.52493
1.49560
1.45161
1.42717
1.42229
1.42229
1.43206
1.45650
1.47605
1.50538
1.55425
1.55914
1.57869
1.60802
1.61290
1.62268
1.64712
1.62268
1.61290
1.61290
1.58847
1.56891
1.54936
1.52493
1.50538
1.48094
1.46139
1.46139
1.42229
1.40762
1.39296
1.37830
1.36852
1.35386
1.34409
1.33431
1.33431
1.31965
1.30987
1.33431
1.30010
1.29521
1.29032
1.29521
1.30987
1.34897
1.41740
1.53470
1.66178
1.82307
2.00391
2.14565
2.28250
2.38025
2.43891
2.47312
2.44379
2.39980
2.33627
2.26295
2.17986
2.10655
2.01857
1.95015
1.86706
1.81329
1.72043
1.66178
1.60313
1.55425
1.51515
1.48583
1.46628
1.47605
1.45650
1.46139
1.49071
1.49560
1.51515
1.54936
1.54936
1.56403
1.58358
1.58358
1.57869
1.60802
1.57380
1.56403
1.55425
1.52981
1.51026
1.52004
1.47116
1.45650
1.43695
1.41740
1.39785
1.41251
1.36852
1.35875
1.34409
1.32942
1.32454
1.31476
1.30499
1.30010
1.29032
1.28543
1.28543
1.27077
1.27077
1.28543
1.29521
1.34409
1.44673
1.53959
1.68622
1.85239
2.01857
2.17498
2.30205
2.39492
2.44868
2.45357
2.42913
2.40469
2.31183
2.23851
2.16031
2.07722
1.99902
1.92082
1.84751
1.78397
1.70577
1.64712
1.58847
1.54448
1.50538
1.48094
1.46139
1.46139
1.46139
1.47116
1.49071
1.50538
1.52004
1.54448
1.55914
1.56891
1.59335
1.57869
1.58358
1.57380
1.56891
1.55914
1.53959
1.52004
1.51026
1.48583
1.46628
1.47605
1.42717
1.41251
1.39785
1.38319
1.37341
1.35875
1.34409
1.34409
1.32454
1.31476
1.32942
1.30499
1.30010
1.29521
1.29032
1.28543
1.28055
1.28055
1.30499
1.34897
1.43206
1.54936
1.70088
1.87195
2.03812
2.19453
2.35093
2.41447
2.46334
2.49267
2.44379
2.39492
2.33138
2.24829
2.17009
2.08700
2.00880
1.93060
1.85728
1.78886
1.72532
1.66178
1.60802
1.56403
1.52981
1.49560
1.48583
1.47605
1.47605
1.49071
1.50049
1.52004
1.53959
1.55914
1.60313
1.59335
1.60313
1.62757
1.60313
1.59335
1.61290
1.56891
1.55425
1.52981
1.51026
1.50538
1.47116
1.45161
1.44673
1.41740
1.39785
1.41251
1.37341
1.35875
1.36364
1.33431
1.32942
1.34409
1.30987
1.30499
1.30010
1.29032
1.28055
1.30499
1.27566
1.28543
1.30010
1.34409
1.45161
1.53959
1.68622
1.87683
2.02346
2.17986
2.32160
2.39980
2.45357
2.46334
2.43402
2.38514
2.32160
2.24340
2.16520
2.08211
2.02346
1.92571
1.84751
1.77908
1.73998
1.65200
1.59824
1.54936
1.51026
1.49071
1.47116
1.46628
1.48094
1.48094
1.49560
1.52493
1.53959
1.55425
1.57380
1.58358
1.60313
1.59335
1.58847
1.60313
1.57380
1.55914
1.54448
1.52493
1.50538
1.48094
1.46139
1.45650
1.42229
1.40762
1.39296
1.37830
1.36364
1.34897
1.33920
1.32942
1.31965
1.31476
1.30987
1.31965
1.29521
1.29032
1.28543
1.27566
1.28055
1.28055
1.29521
1.35875
1.42229
1.53959
1.68622
1.85239
2.03812
2.17986
2.31183
2.41447
2.44868
2.46334
2.43402
2.38514
2.31672
2.25318
2.15543
2.07722
1.99413
1.92082
1.84262
1.77419
1.70577
1.64712
1.59335
1.56891
1.51515
1.48583
1.48094
1.47116
1.47605
1.50049
1.50538
1.52493
1.54936
1.56403
1.58358
1.59335
1.60313
1.60802
1.59824
1.59335
1.58847
1.56891
1.54936
1.54936
1.51026
1.49071
1.47116
1.45161
1.43695
1.41740
1.40274
1.38807
1.37341
1.36364
1.36852
1.34409
1.32942
1.35386
1.31965
1.31476
1.30987
1.30010
1.30010
1.29032
1.28055
1.28543
1.29521
1.33431
1.39785
1.49560
1.63734
1.79374
1.95992
2.14565
2.26784
2.38025
2.44379
2.47312
2.46823
2.42424
2.36559
2.29228
2.21408
2.13099
2.05279
2.00391
1.90127
1.82796
1.75953
1.70088
1.63734
1.58847
1.54936
1.51515
1.49560
1.48583
1.51515
1.49071
1.50538
1.52493
1.54448
1.56403
1.57869
1.59335
1.63245
1.60802
1.61290
1.60802
1.59824
1.59335
1.57380
1.55425
1.53959
1.51515
1.50049
1.47605
1.45650
1.45161
1.42717
1.40762
1.41740
1.38319
1.37341
1.35875
1.34897
1.34409
1.33431
1.32454
1.31965
1.30987
1.30499
1.30010
1.29521
1.29521
1.32942
1.34409
1.40762
1.52981
1.64712
1.81329
1.98436
2.14565
2.29228
2.39492
2.46334
2.48778
2.47312
2.43402
2.37537
2.30205
2.22385
2.14076
2.06256
1.98436
1.91105
1.83773
1.77419
1.70577
1.65200
1.59824
1.55425
1.52981
1.50049
1.48583
1.48583
1.49071
1.50538
1.52004
1.53959
1.55914
1.57380
1.58847
1.61779
1.60313
1.60313
1.59335
1.58847
1.57869
1.55425
1.53470
1.52004
1.49560
1.48094
1.45650
1.43695
1.42717
1.39785
1.38319
1.38807
1.35386
1.34409
1.33920
1.32454
1.30987
1.30499
1.29521
1.29521
1.28543
1.28055
1.27566
1.27077
1.27077
1.27566
1.30987
1.38807
1.46139
1.59335
1.76931
1.93548
2.10655
2.25318
2.37048
2.44868
2.47801
2.48778
2.43891
2.38025
2.31672
2.23363
2.16031
2.07722
2.02346
1.92571
1.85239
1.78886
1.73021
1.66178
1.61290
1.56403
1.52981
1.50538
1.49071
1.48583
1.49071
1.49071
1.50538
1.54448
1.53959
1.55914
1.56891
1.58358
1.58358
1.58358
1.58358
1.56891
1.55914
1.55425
1.52493
1.50538
1.50049
1.46628
1.44673
1.42717
1.40762
1.39296
1.37341
1.35875
1.36364
1.33431
1.32454
1.31476
1.30499
1.31965
1.28543
1.28055
1.27566
1.27077
1.27077
1.26100
1.25611
1.28543
1.27077
1.29032
1.37341
1.44184
1.57869
1.73509
1.91593
2.08700
2.24340
2.36559
2.44379
2.48289
2.47801
2.44379
2.39003
2.31183
2.23363
2.17009
2.07234
1.99413
1.92082
1.84751
1.77908
1.71554
1.65200
1.63245
1.55914
1.52493
1.49560
1.48583
1.49560
1.48094
1.49560
1.50538
1.52493
1.54936
1.55914
1.57380
1.58358
1.59335
1.59335
1.58358
1.57380
1.56403
1.54448
1.52493
1.51026
1.48583
1.46139
1.45650
1.42229
1.40274
1.38807
1.36852
1.36364
1.33920
1.32942
1.31965
1.30987
1.31965
1.29521
1.29032
1.28055
1.27566
1.27077
1.26588
1.26588
1.26100
1.25122
1.28055
1.26100
1.28055
1.34409
1.41251
1.53959
1.69110
1.86217
2.06256
2.19941
2.35093
2.42424
2.47312
2.47801
2.44868
2.39980
2.32649
2.24829
2.16520
2.09189
2.00391
1.94037
1.87683
1.78397
1.72043
1.68133
1.60313
1.55914
1.52004
1.49071
1.48094
1.47116
1.47116
1.48583
1.50049
1.51515
1.56403
1.55914
1.57380
1.58358
1.58847
1.59335
1.58847
1.58358
1.56891
1.55425
1.54936
1.52004
1.50049
1.47605
1.45650
1.45161
1.41740
1.40274
1.41251
1.36852
1.35875
1.34897
1.33431
1.32942
1.31476
1.30499
1.32942
1.30010
1.29521
1.29032
1.28543
1.30499
1.28055
1.28055
1.27077
1.27077
1.29521
1.29521
1.33431
1.44673
1.53470
1.68622
1.85239
2.02835
2.19453
2.32649
2.41935
2.47312
2.47801
2.45357
2.40469
2.33138
2.25318
2.18964
2.08700
2.00391
1.92571
1.85728
1.78886
1.72043
1.65689
1.60313
1.55914
1.52493
1.49560
1.47605
1.50049
1.47605
1.48583
1.50049
1.52004
1.56891
1.55914
1.57869
1.58847
1.59824
1.60313
1.59824
1.58847
1.59824
1.56403
1.54936
1.52981
1.51026
1.50049
1.46628
1.45161
1.43206
1.41251
1.40762
1.38319
1.37341
1.37341
1.34409
1.33920
1.32454
1.31476
1.31476
1.30499
1.29521
1.31476
1.28543
1.28543
1.27566
1.27077
1.28543
1.26588
1.27566
1.29032
1.33431
1.40274
1.51515
1.67155
1.82796
2.00880
2.16520
2.30694
2.43402
2.46823
2.50733
2.46823
2.42424
2.36559
2.28739
2.20430
2.12121
2.05279
1.96481
1.89150
1.81818
1.76442
1.69110
1.64223
1.57869
1.53470
1.51515
1.48094
1.47116
1.47116
1.47605
1.49071
1.50049
1.52493
1.54448
1.56403
1.60313
1.58847
1.59824
1.59824
1.59824
1.60802
1.57869
1.56403
1.54448
1.52493
1.51515
1.48583
1.46628
1.44184
1.42229
1.40274
1.38319
1.37341
1.35386
1.33920
1.35386
1.31476
1.30987
1.30010
1.28543
1.30987
1.27566
1.27077
1.27077
1.26588
1.26588
1.25611
1.25611
1.26100
1.28055
1.32454
1.39785
1.51026
1.67155
1.82796
2.00391
2.16520
2.30694
2.42424
2.46823
2.49267
2.46823
2.42424
2.35582
2.27761
2.19453
2.11144
2.02835
1.95015
1.87683
1.80352
1.73509
1.67155
1.61290
1.56403
1.54448
1.48094
1.46139
1.44184
1.44184
1.46628
1.45650
1.47605
1.49560
1.51026
1.53959
1.54936
1.56403
1.56891
1.57380
1.58358
1.56403
1.55914
1.53959
1.52493
1.52493
1.48094
1.46628
1.44673
1.42717
1.40762
1.38807
1.36852
1.35386
1.33920
1.32454
1.31476
1.30987
1.29521
1.28543
1.27566
1.27077
1.26588
1.25611
1.26100
1.25122
1.25122
1.24633
1.24145
1.24633
1.24633
1.27566
1.34409
1.41740
1.54936
1.70577
1.87683
2.05767
2.21408
2.34604
2.43402
2.47801
2.48289
2.45357
2.39492
2.33627
2.24340
2.17986
2.07234
1.99413
1.91105
1.83284
1.76442
1.69599
1.62757
1.57380
1.52004
1.49071
1.45161
1.43695
1.42229
1.42229
1.43695
1.45161
1.47116
1.49560
1.51515
1.53959
1.55425
1.56403
1.57380
1.57380
1.57380
1.56403
1.55425
1.54448
1.51515
1.49560
1.47605
1.45650
1.44184
1.41251
1.39785
1.37830
1.36364
1.34897
1.33431
1.31965
1.30987
1.29521
1.29032
1.28055
1.27077
1.27566
1.26100
1.25611
1.28055
1.25122
1.24633
1.24633
1.23656
1.24145
1.25122
1.28543
1.33920
1.43206
1.57869
1.73021
1.91105
2.08211
2.23851
2.36070
2.44868
2.48778
2.48778
2.45357
2.39492
2.31672
2.23851
2.15054
2.06745
1.97947
1.90616
1.82796
1.78397
1.68622
1.62757
1.56403
1.52004
1.48094
1.45161
1.46139
1.43206
1.44184
1.45161
1.46628
1.49071
1.51515
1.53959
1.55914
1.57380
1.59824
1.59335
1.59824
1.59824
1.58847
1.57869
1.56403
1.54448
1.55425
1.51026
1.49071
1.46628
1.44673
1.43206
1.41251
1.40762
1.38319
1.36852
1.35875
1.34409
1.33920
1.32454
1.30987
1.30010
1.29032
1.30987
1.27566
1.27077
1.25611
1.25122
1.27566
1.24145
1.24145
1.24633
1.27566
1.34897
1.41251
1.53959
1.69110
1.86706
2.04301
2.21408
2.35582
2.45846
2.51711
2.53666
2.51711
2.47312
2.40469
2.34115
2.23851
2.16520
2.06256
1.97947
1.89638
1.81818
1.74976
1.68133
1.62268
1.56891
1.52981
1.50538
1.48583
1.48094
1.48094
1.49071
1.52004
1.52981
1.55425
1.57869
1.59824
1.61779
1.62757
1.63734
1.66667
1.63734
1.63245
1.62268
1.60802
1.61779
1.56891
1.54936
1.52493
1.50538
1.51026
1.46139
1.44673
1.42717
1.40762
1.42229
1.38319
1.37341
1.36852
1.34897
1.34409
1.33431
1.32942
1.34409
1.31965
1.30987
1.33920
1.30499
1.30499
1.30010
1.30987
1.36364
1.39296
1.49071
1.61290
1.76931
1.94037
2.11144
2.26784
2.38514
2.46823
2.50733
2.50733
2.47801
2.42913
2.34604
2.26784
2.18475
2.10655
2.01857
1.94037
1.86706
1.78886
1.72043
1.65689
1.60313
1.55425
1.51515
1.49560
1.47116
1.46628
1.47116
1.48583
1.50538
1.52493
1.54936
1.56891
1.58847
1.61290
1.60802
1.61290
1.60802
1.60313
1.59335
1.57869
1.56403
1.53959
1.52004
1.50049
1.48094
1.47605
1.43695
1.42229
1.42717
1.38807
1.38319
1.35875
1.34897
1.33920
1.32454
1.32454
1.31476
1.30499
1.30010
1.29521
1.29521
1.28543
1.28543
1.28055
1.28055
1.29032
1.30987
1.35386
1.45650
1.56403
1.71065
1.88172
2.06256
2.21896
2.34604
2.43891
2.48778
2.50733
2.46823
2.41935
2.35093
2.27273
2.18964
2.10655
2.04301
1.94526
1.87195
1.80352
1.73509
1.67155
1.61290
1.56403
1.52004
1.49071
1.48094
1.46628
1.47116
1.48094
1.49560
1.51515
1.53959
1.58847
1.57869
1.59335
1.60313
1.60802
1.63734
1.59824
1.59824
1.57380
1.56403
1.53959
1.52004
1.49560
1.47116
1.46628
1.43206
1.41740
1.39785
1.37830
1.36852
1.35386
1.34409
1.33431
1.32454
1.31476
1.30499
1.33431
1.29521
1.29521
1.28543
1.28055
1.27566
1.27566
1.30010
1.27566
1.29032
1.33431
1.40274
1.52493
1.65689
1.82796
1.99902
2.16520
2.30694
2.40469
2.46334
2.47801
2.45846
2.42913
2.34604
2.26784
2.18475
2.10655
2.02346
1.94526
1.87195
1.79863
1.74976
1.66667
1.61290
1.56403
1.52493
1.49071
1.47116
1.48094
1.46628
1.47605
1.51026
1.51026
1.54936
1.55425
1.57869
1.58847
1.59335
1.62757
1.59824
1.59335
1.58358
1.56891
1.57869
1.53470
1.52981
1.49071
1.47116
1.45161
1.43206
1.41251
1.39296
1.40762
1.36364
1.35386
1.33920
1.32942
1.31965
1.30987
1.30987
1.30010
1.29521
1.29032
1.28543
1.30010
1.27566
1.27566
1.26588
1.27077
1.28055
1.30499
1.37341
1.46139
1.58847
1.77908
1.92082
2.09189
2.23851
2.35582
2.42913
2.46334
2.45846
2.42424
2.36559
2.28739
2.20919
2.12610
2.05279
1.96970
1.89638
1.84262
1.75464
1.69110
1.63245
1.58358
1.53470
1.50538
1.48094
1.47116
1.49560
1.48094
1.49560
1.51026
1.52981
1.54936
1.56891
1.59824
1.59335
1.60313
1.60313
1.59824
1.59335
1.57869
1.56403
1.54448
1.52004
1.52493
1.48094
1.46628
1.44184
1.42229
1.41251
1.39296
1.38319
1.36364
1.35386
1.33920
1.33431
1.34409
1.31476
1.31476
1.30499
1.30010
1.29521
1.29032
1.29032
1.28543
1.29521
1.28055
1.28543
1.30499
1.34897
1.42717
1.53959
1.71554
1.85239
2.02835
2.17498
2.30694
2.39980
2.44868
2.45846
2.43891
2.39003
2.31672
2.24340
2.16031
2.08211
1.99902
1.93060
1.87683
1.77908
1.71554
1.65200
1.60313
1.55425
1.51515
1.49560
1.47116
1.46628
1.49560
1.48094
1.50049
1.52004
1.53959
1.55914
1.57869
1.59824
1.60313
1.60313
1.60313
1.59824
1.60313
1.57380
1.55425
1.53470
1.51515
1.49560
1.47605
1.47605
1.43695
1.42229
1.40274
1.38807
1.37341
1.35875
1.37830
1.33920
1.33431
1.32454
1.31476
1.33920
1.30499
1.30499
1.29521
1.29032
1.28543
1.28055
1.30499
1.28543
1.30499
1.33431
1.40274
1.50538
1.64223
1.83284
1.96970
2.13587
2.26784
2.37537
2.43891
2.46334
2.47312
2.40469
2.34604
2.30205
2.19941
2.12121
2.04301
1.96481
1.89150
1.82307
1.75464
1.69110
1.63245
1.58358
1.55425
1.51026
1.49071
1.47605
1.47605
1.50538
1.49560
1.51515
1.53470
1.55425
1.59824
1.58847
1.60802
1.60802
1.61290
1.60802
1.60313
1.61779
1.57380
1.55425
1.53470
1.51515
1.50049
1.47605
1.45650
1.43695
1.41740
1.40762
1.38807
1.37341
1.38807
1.34897
1.33920
1.33431
1.32454
1.32454
1.31476
1.30987
1.30499
1.30010
1.29521
1.29032
1.30987
1.29032
1.30499
1.33431
1.40274
1.52493
1.63734
1.79863
1.95992
2.12610
2.26295
2.37048
2.43891
2.46334
2.44868
2.40958
2.34604
2.27273
2.19453
2.11144
2.03324
1.95503
1.88172
1.81329
1.74976
1.68622
1.65200
1.58358
1.54448
1.51026
1.48583
1.47605
1.47605
1.48094
1.49071
1.51026
1.54936
1.54936
1.59335
1.57869
1.58847
1.59335
1.59335
1.58847
1.58358
1.58358
1.55425
1.53959
1.51515
1.49560
1.47605
1.45161
1.46628
1.41740
1.40274
1.38319
1.36852
1.35386
1.34409
1.33431
1.32454
1.31476
1.30499
1.29521
1.31965
1.28543
1.28543
1.28055
1.27077
1.30010
1.26588
1.26588
1.27566
1.30010
1.35875
1.44673
1.58358
1.72532
1.89638
2.05767
2.20430
2.32160
2.39980
2.43891
2.43891
2.40469
2.35582
2.28250
2.20919
2.12610
2.06745
1.97458
1.89638
1.82796
1.75953
1.70088
1.63734
1.58847
1.54448
1.51026
1.50538
1.47116
1.47116
1.47116
1.48094
1.49560
1.51026
1.52981
1.54448
1.58358
1.57380
1.58358
1.58358
1.58847
1.57380
1.57380
1.54448
1.52981
1.50538
1.48583
1.46628
1.44673
1.45650
1.40762
1.38807
1.36852
1.35875
1.33920
1.32942
1.31476
1.30499
1.30499
1.29032
1.28543
1.28055
1.27077
1.27077
1.26588
1.26100
1.25611
1.28543
1.25611
1.26100
1.26588
1.29032
1.34897
1.43695
1.57380
1.72043
1.89150
2.05767
2.20919
2.33627
2.40958
2.44379
2.44379
2.41447
2.35093
2.28250
2.21408
2.12121
2.04301
1.96970
1.89150
1.81818
1.75464
1.68622
1.63245
1.57380
1.52981
1.49560
1.47116
1.47116
1.45161
1.45650
1.46628
1.48583
1.52981
1.52004
1.54448
1.55914
1.56891
1.57380
1.57380
1.58358
1.56403
1.55425
1.53959
1.52004
1.52493
1.48094
1.46139
1.43695
1.42229
1.40274
1.38319
1.36852
1.34897
1.33920
1.32454
1.30987
1.30499
1.29521
1.29521
1.28543
1.28055
1.27077
1.27077
1.28055
1.26100
1.26100
1.25611
1.25611
1.25122
1.25611
1.27077
1.30987
1.37830
1.48583
1.64712
1.78397
1.98436
2.11632
2.25318
2.35093
2.41935
2.43402
2.41935
2.37537
2.31183
2.23851
2.15543
2.07722
1.99902
1.91593
1.84262
1.77419
1.70577
1.64223
1.58358
1.53470
1.49071
1.46139
1.44673
1.43206
1.43206
1.44184
1.45650
1.48094
1.49560
1.51515
1.55425
1.54936
1.57380
1.56891
1.56891
1.56403
1.55425
1.53959
1.52493
1.51026
1.48583
1.47116
1.44673
1.42717
1.40762
1.38807
1.39296
1.35875
1.35386
1.32942
1.31965
1.30499
1.30010
1.28543
1.28055
1.27566
1.27077
1.27077
1.26100
1.26100
1.27566
1.25611
1.25611
1.25122
1.25122
1.25611
1.27077
1.31476
1.38807
1.52981
1.64223
1.82796
1.97947
2.14565
2.27273
2.37537
2.42913
2.44379
2.42424
2.37537
2.32160
2.22874
2.17009
2.06745
1.98436
1.91105
1.85728
1.75953
1.69110
1.63245
1.57380
1.53959
1.49071
1.48094
1.44184
1.46628
1.44184
1.46139
1.47605
1.49071
1.51515
1.53959
1.58358
1.57380
1.58358
1.58847
1.58847
1.58358
1.57380
1.57380
1.54936
1.53470
1.51026
1.49071
1.50049
1.45161
1.44673
1.41251
1.40274
1.38319
1.36852
1.35386
1.34409
1.34897
1.31965
1.31965
1.30499
1.30010
1.29521
1.29032
1.30010
1.28055
1.28055
1.27566
1.27077
1.26588
1.27077
1.27566
1.28543
1.32942
1.39296
1.49560
1.62757
1.78886
1.97947
2.12121
2.28739
2.36559
2.43891
2.45846
2.47312
2.40958
2.34604
2.27273
2.18964
2.10655
2.02835
1.95015
1.87195
1.81329
1.73021
1.68622
1.61290
1.57869
1.52004
1.49560
1.46628
1.45650
1.45650
1.46628
1.48583
1.50049
1.53470
1.54448
1.56891
1.58358
1.59335
1.60313
1.60802
1.60802
1.59824
1.59824
1.57869
1.56403
1.54448
1.52981
1.50538
1.48583
1.49560
1.44673
1.43695
1.41740
1.40274
1.38807
1.37341
1.36364
1.35386
1.36852
1.33431
1.35386
1.31965
1.31476
1.30987
1.30499
1.30010
1.29521
1.29032
1.29032
1.29521
1.29032
1.31476
1.35386
1.42717
1.53959
1.68622
1.84751
2.01857
2.17986
2.31183
2.42913
2.47312
2.49267
2.47801
2.43402
2.38514
2.29228
2.24340
2.13099
2.05279
1.99413
1.89638
1.82796
1.75953
1.70088
1.64223
1.59335
1.54936
1.53470
1.49560
1.49071
1.48094
1.49071
1.50538
1.52493
1.54448
1.56891
1.58847
1.61290
1.62757
1.63245
1.64712
1.63734
1.63245
1.62268
1.60802
1.61779
1.57380
1.56403
1.53470
1.51515
1.49560
1.47605
1.45650
1.43695
1.42229
1.40762
1.39785
1.38319
1.37341
1.35875
1.34897
1.33920
1.33431
1.32942
1.31965
1.32454
1.31476
1.30987
1.30499
1.30499
1.30010
1.31476
1.33920
1.39785
1.48583
1.61290
1.76442
1.93548
2.10166
2.25318
2.37537
2.45357
2.50244
2.49756
2.46823
2.42913
2.34604
2.28250
2.18964
2.11144
2.03324
1.95503
1.87683
1.80841
1.74487
1.68133
1.62757
1.57869
1.56403
1.51515
1.49560
1.48583
1.48583
1.49560
1.51026
1.53470
1.55425
1.57869
1.59824
1.63245
1.62268
1.65200
1.62757
1.62757
1.61290
1.60313
1.58358
1.56403
1.57380
1.52004
1.50538
1.48094
1.46628
1.44184
1.43206
1.40274
1.38807
1.37341
1.35875
1.34897
1.33920
1.33431
1.32454
1.30987
1.30987
1.30010
1.30010
1.29521
1.29521
1.28543
1.28543
1.30987
1.28055
1.30010
1.32942
1.39296
1.49071
1.62268
1.78397
1.95503
2.12610
2.27273
2.40469
2.45846
2.49267
2.48289
2.44868
2.38514
2.31183
2.23363
2.15543
2.07234
1.98925
1.91593
1.84262
1.79374
1.71554
1.66667
1.60313
1.56403
1.52004
1.49560
1.48094
1.47605
1.47605
1.49071
1.53959
1.52981
1.56891
1.57380
1.59335
1.60313
1.61290
1.61290
1.60802
1.60313
1.59335
1.59824
1.55914
1.54448
1.52004
1.49560
1.47605
1.45650
1.44184
1.41740
1.40762
1.38319
1.36852
1.34897
1.33431
1.32942
1.31476
1.33920
1.30010
1.31965
1.28543
1.28543
1.27566
1.27566
1.27566
1.27077
1.30010
1.26588
1.29521
1.27566
1.30987
1.34897
1.44184
1.54936
1.70577
1.86706
2.04790
2.19453
2.33138
2.41447
2.46823
2.47312
2.44868
2.39492
2.32649
2.27273
2.16520
2.08700
2.00880
1.92571
1.85239
1.78397
1.71554
1.67644
1.59824
1.54936
1.51026
1.51026
1.46139
1.45650
1.45650
1.46628
1.48094
1.50538
1.52493
1.54936
1.56891
1.58358
1.59824
1.60313
1.63245
1.59824
1.59824
1.57380
1.56403
1.53959
1.52004
1.50049
1.47605
1.46139
1.44184
1.43695
1.40274
1.41251
1.36852
1.35875
1.33920
1.32942
1.31476
1.30987
1.30010
1.29521
1.31476
1.28543
1.30987
1.27566
1.27566
1.27077
1.29521
1.26588
1.26588
1.26588
1.28543
1.31965
1.39296
1.50049
1.64223
1.80352
1.97947
2.14076
2.28250
2.40958
2.44868
2.49756
2.45357
2.40958
2.34115
2.26295
2.17986
2.09677
2.01369
1.93548
1.85728
1.78397
1.72532
1.65689
1.60802
1.54936
1.51515
1.47605
1.45650
1.44184
1.44673
1.45161
1.47116
1.48583
1.51026
1.53470
1.55914
1.57869
1.59335
1.61290
1.60313
1.60802
1.59335
1.58358
1.56891
1.55425
1.53470
1.51515
1.51026
1.47116
1.45650
1.43206
1.41740
1.39785
1.38319
1.36852
1.35875
1.34409
1.33431
1.35386
1.31476
1.31476
1.30010
1.30010
1.29032
1.29032
1.28543
1.28055
1.27566
1.27566
1.27077
1.27077
1.27566
1.30010
1.34897
1.43206
1.54936
1.70088
1.86706
2.04790
2.18964
2.34604
2.40958
2.47312
2.47312
2.45357
2.39492
2.33138
2.24829
2.17986
2.08700
2.00391
1.92571
1.85728
1.77419
1.71065
1.64223
1.59824
1.53959
1.51026
1.46628
1.45161
1.44184
1.44673
1.45650
1.47605
1.50049
1.52493
1.57380
1.56891
1.61779
1.60313
1.64223
1.61290
1.62757
1.60313
1.59335
1.57869
1.58358
1.54448
1.54448
1.50049
1.49071
1.46139
1.44673
1.42717
1.41251
1.39296
1.37830
1.36364
1.34897
1.34409
1.32942
1.32454
1.31965
1.30987
1.30010
1.29521
1.29521
1.30987
1.28543
1.29032
1.27566
1.30499
1.27566
1.31965
1.32454
1.39785
1.50049
1.64223
1.80352
1.97458
2.13587
2.28250
2.39003
2.46334
2.49267
2.48289
2.45357
2.39003
2.31672
2.23851
2.15543
2.07234
2.01369
1.91593
1.83773
1.76931
1.70577
1.64712
1.58847
1.54448
1.51026
1.48094
1.46628
1.46139
1.49071
1.48094
1.52004
1.52004
1.54448
1.56403
1.58358
1.59824
1.61290
1.61779
1.62268
1.63734
1.60802
1.62268
1.57380
1.55914
1.53959
1.51515
1.49560
1.47116
1.45161
1.43206
1.41740
1.39785
1.38319
1.36852
1.35386
1.33920
1.35386
1.31965
1.32942
1.30499
1.30010
1.29032
1.29032
1.28055
1.27566
1.27566
1.27077
1.26588
1.27077
1.28055
1.30987
1.37341
1.46628
1.60313
1.76442
1.93548
2.10655
2.25318
2.37537
2.44868
2.48778
2.48778
2.45846
2.40958
2.33627
2.26784
2.17986
2.09677
2.01857
1.93548
1.86217
1.78886
1.72043
1.66178
1.60313
1.55914
1.51515
1.48583
1.46628
1.45161
1.45650
1.46139
1.49071
1.50049
1.52004
1.53959
1.56403
1.59824
1.58847
1.62268
1.59824
1.59335
1.58847
1.57380
1.55914
1.56403
1.52004
1.52004
1.48094
1.46628
1.44184
1.42229
1.40274
1.38807
1.36852
1.35386
1.34409
1.32942
1.31965
1.30987
1.30010
1.29521
1.28543
1.28055
1.27566
1.27077
1.27077
1.26588
1.26588
1.26100
1.27077
1.26588
1.29521
1.32454
1.42717
1.51026
1.67644
1.82307
2.02346
2.16520
2.30694
2.41935
2.48289
2.50733
2.49267
2.45357
2.39003
2.31672
2.23363
2.15054
2.06745
1.98925
1.93548
1.83773
1.76931
1.73021
1.64223
1.59335
1.54448
1.52981
1.48583
1.47116
1.46139
1.46628
1.47605
1.49071
1.51026
1.52981
1.55425
1.56891
1.58847
1.59824
1.60313
1.60313
1.59824
1.58358
1.58358
1.55425
1.53470
1.51515
1.50049
1.47605
1.46628
1.43695
1.42229
1.40274
1.38807
1.36852
1.35875
1.34409
1.32942
1.31965
1.30987
1.30499
1.29521
1.29032
1.28543
1.29521
1.27566
1.30010
1.27566
1.29521
1.26588
1.28543
1.27077
1.29032
1.32454
1.39785
1.49560
1.64712
1.79863
1.99902
2.14076
2.29228
2.39980
2.47801
2.49756
2.49756
2.44868
2.39003
2.33138
2.23851
2.15543
2.08211
1.99413
1.93060
1.83773
1.76931
1.70577
1.64223
1.58847
1.54448
1.52981
1.47605
1.49071
1.45650
1.46139
1.47116
1.50049
1.51026
1.55914
1.55425
1.58358
1.58358
1.59824
1.59824
1.59824
1.59335
1.58358
1.56891
1.54936
1.53470
1.51026
1.49071
1.47116
1.45161
1.43206
1.41251
1.39296
1.38319
1.36852
1.34897
1.33920
1.32454
1.31965
1.30499
1.29521
1.29032
1.29032
1.28055
1.27566
1.29032
1.26588
1.27566
1.26588
1.29032
1.25611
1.26100
1.26588
1.29521
1.33920
1.45650
1.54936
1.73509
1.87683
2.05279
2.20919
2.35093
2.43402
2.48778
2.49756
2.46823
2.41935
2.35093
2.27273
2.20430
2.10655
2.02346
1.95015
1.86217
1.78886
1.74976
1.65689
1.59824
1.54448
1.50538
1.47116
1.47605
1.44184
1.47116
1.45161
1.47605
1.49071
1.51515
1.53470
1.55425
1.57380
1.58847
1.62268
1.59824
1.60802
1.59335
1.58358
1.56891
1.55425
1.53470
1.51515
1.49071
1.47605
1.45161
1.43695
1.41740
1.40274
1.38319
1.37341
1.35875
1.34897
1.33431
1.32454
1.34409
1.30499
1.30499
1.29521
1.29032
1.28543
1.30499
1.28055
1.30010
1.27566
1.30010
1.27077
1.28055
1.28543
1.31965
1.37830
1.47605
1.60802
1.76442
1.93548
2.10166
2.24829
2.37048
2.44868
2.48778
2.48289
2.45357
2.40958
2.32649
2.25318
2.16520
2.08211
2.02346
1.92082
1.84262
1.77419
1.70088
1.64223
1.58358
1.53470
1.49560
1.46628
1.45161
1.44673
1.48094
1.46628
1.49071
1.50538
1.52981
1.54936
1.57380
1.58847
1.60313
1.60802
1.60802
1.61290
1.60802
1.61290
1.57869
1.56891
1.54448
1.52493
1.50538
1.48583
1.46628
1.44673
1.43206
1.41251
1.39785
1.38319
1.36852
1.35386
1.34409
1.33431
1.32454
1.31965
1.30987
1.30010
1.29521
1.29521
1.29032
1.29032
1.28543
1.28055
1.27566
1.27566
1.31476
1.30987
1.39296
1.45650
1.58358
1.73509
1.90616
2.07722
2.26295
2.36070
2.45357
2.50244
2.51222
2.48778
2.43891
2.37048
2.29717
2.21408
2.14076
2.05279
1.96970
1.89150
1.81818
1.74976
1.68133
1.62757
1.57380
1.52981
1.49560
1.49560
1.46139
1.49071
1.47116
1.49560
1.50049
1.54936
1.54448
1.59335
1.58358
1.63245
1.61290
1.62757
1.61779
1.61779
1.60313
1.59335
1.57380
1.55425
1.52981
1.51515
1.49071
1.46628
1.44673
1.42717
1.41251
1.39296
1.38319
1.36364
1.35386
1.33920
1.33431
1.31476
1.30987
1.30010
1.29521
1.28543
1.28543
1.28055
1.28055
1.27566
1.27077
1.26588
1.26588
1.27566
1.30010
1.34897
1.43695
1.55914
1.71554
1.88661
2.06256
2.21896
2.35093
2.44379
2.49756
2.50733
2.48778
2.46334
2.37537
2.30205
2.21408
2.13099
2.05279
1.97458
1.89638
1.82307
1.75464
1.69110
1.62757
1.57869
1.53470
1.50049
1.47605
1.46628
1.46139
1.47116
1.48094
1.49560
1.51515
1.53959
1.55914
1.57869
1.58847
1.60313
1.60313
1.60313
1.59335
1.58847
1.56891
1.55425
1.53470
1.51515
1.52493
1.47605
1.46139
1.43695
1.42229
1.40274
1.38807
1.36852
1.36364
1.33920
1.33431
1.31965
1.31476
1.30010
1.29521
1.28543
1.28055
1.28055
1.27566
1.27566
1.27077
1.29032
1.26588
1.29032
1.26588
1.28055
1.30499
1.39296
1.46139
1.61779
1.75464
1.95503
2.10655
2.28739
2.39003
2.47312
2.51711
2.52199
2.48778
2.43891
2.36559
2.28739
2.20430
2.11632
2.06256
1.95992
1.88172
1.81818
1.73998
1.67644
1.62268
1.56891
1.52981
1.50049
1.48094
1.49071
1.47116
1.49560
1.49560
1.52004
1.53959
1.56403
1.57869
1.59824
1.60802
1.61290
1.61290
1.61290
1.59824
1.58847
1.57380
1.55425
1.53470
1.51515
1.49560
1.47116
1.45161
1.43695
1.41740
1.39785
1.38319
1.36852
1.36852
1.34409
1.34409
1.32454
1.33431
1.30499
1.31965
1.29032
1.31476
1.28543
1.28055
1.27566
1.29521
1.27566
1.29032
1.27566
1.30010
1.28543
1.32942
1.36364
1.47116
1.57869
1.73998
1.90616
2.08211
2.23851
2.37537
2.45357
2.50244
2.50733
2.48289
2.42913
2.36070
2.30694
2.19941
2.11632
2.05279
1.95503
1.87683
1.81818
1.73509
1.67155
1.61290
1.59335
1.52004
1.51026
1.47116
1.47605
1.46139
1.48094
1.49071
1.52981
1.52981
1.56891
1.57380
1.60802
1.59824
1.63734
1.60802
1.62268
1.59824
1.61290
1.56891
1.54936
1.52981
1.53959
1.49071
1.48094
1.45161
1.43695
1.41740
1.39785
1.38319
1.36852
1.35386
1.35875
1.32942
1.32454
1.30987
1.30499
1.29521
1.29521
1.28543
1.28055
1.28055
1.28055
1.27566
1.27566
1.27077
1.27077
1.27077
1.28055
1.30010
1.34409
1.42229
1.53959
1.68622
1.85728
2.03324
2.19453
2.33627
2.43402
2.49267
2.51222
2.49267
2.44379
2.37537
2.29717
2.21408
2.13099
2.04790
1.96481
1.88661
1.81329
1.73998
1.68133
1.61779
1.56403
1.52493
1.49071
1.47116
1.46139
1.47605
1.47116
1.49071
1.50538
1.53470
1.55425
1.59335
1.59335
1.62268
1.61779
1.64712
1.61779
1.63245
1.60313
1.58358
1.56891
1.55425
1.52981
1.52981
1.48583
1.48583
1.45161
1.46139
1.41251
1.39785
1.38319
1.36852
1.35386
1.34409
1.32942
1.32454
1.31476
1.30499
1.30010
1.29521
1.29032
1.28543
1.28543
1.28543
1.28543
1.28055
1.28055
1.28055
1.29032
1.30987
1.35875
1.44184
1.56403
1.70577
1.88661
2.04301
2.23363
2.33627
2.42913
2.48778
2.50244
2.47801
2.45357
2.36559
2.31672
2.20919
2.12610
2.06745
1.96481
1.89150
1.81329
1.74976
1.68133
1.62268
1.56891
1.52493
1.49071
1.47116
1.46139
1.46139
1.47116
1.48583
1.50538
1.52981
1.58358
1.57380
1.60802
1.60802
1.61779
1.62268
1.62268
1.61290
1.60802
1.59335
1.57380
1.55425
1.53470
1.52004
1.49560
1.47605
1.45650
1.44673
1.41740
1.41251
1.38807
1.37830
1.36364
1.34897
1.33920
1.32942
1.31965
1.31476
1.30987
1.30010
1.30010
1.29521
1.29521
1.29032
1.29032
1.28543
1.28543
1.29032
1.30499
1.34409
1.42229
1.53470
1.71065
1.84751
2.04790
2.18964
2.33627
2.43402
2.50244
2.52688
2.51222
2.46823
2.40958
2.33138
2.25318
2.17009
2.08700
2.02346
1.93060
1.85728
1.79374
1.72043
1.66178
1.60802
1.55914
1.52493
1.49560
1.48094
1.47116
1.48583
1.48583
1.52493
1.52004
1.54936
1.56403
1.58847
1.60313
1.61779
1.61779
1.62268
1.61779
1.60802
1.59335
1.57869
1.55914
1.53959
1.52004
1.50538
1.47605
1.46628
1.43695
1.43206
1.40274
1.39785
1.36852
1.37341
1.33920
1.33431
1.31965
1.31476
1.30499
1.30010
1.29032
1.29032
1.28055
1.28055
1.27077
1.27077
1.26588
1.26100
1.26588
1.29032
1.32942
1.41251
1.52004
1.69599
1.84262
2.01857
2.18475
2.32649
2.43402
2.49756
2.52199
2.50733
2.46334
2.40469
2.32160
2.25318
2.15543
2.07234
1.99413
1.91593
1.84262
1.77419
1.72043
1.64712
1.59335
1.54448
1.50538
1.48094
1.46628
1.46139
1.46139
1.47605
1.49071
1.51026
1.53959
1.55914
1.59335
1.59335
1.62757
1.60802
1.62757
1.60313
1.59335
1.58358
1.56403
1.54448
1.52493
1.50538
1.51026
1.46628
1.44184
1.42229
1.40274
1.38807
1.37341
1.35875
1.34409
1.33431
1.31965
1.31476
1.30499
1.29521
1.29032
1.28543
1.27566
1.27566
1.27077
1.29032
1.26588
1.27566
1.26100
1.27077
1.29032
1.34409
1.41251
1.54448
1.68622
1.87683
2.03812
2.22385
2.34604
2.46334
2.50733
2.53177
2.50244
2.45357
2.38514
2.30694
2.22385
2.15543
2.05767
1.97947
1.90127
1.83284
1.75953
1.71554
1.64223
1.58847
1.53959
1.52493
1.48583
1.47116
1.47116
1.47605
1.49071
1.53470
1.52981
1.56403
1.56891
1.58847
1.60313
1.60802
1.60802
1.62757
1.59824
1.60802
1.56891
1.57869
1.52981
1.51515
1.49071
1.48583
1.45161
1.44184
1.41251
1.41251
1.37830
1.39296
1.34897
1.34409
1.32942
1.33431
1.30987
1.30499
1.29521
1.29032
1.28055
1.28055
1.27566
1.29032
1.26588
1.27077
1.26588
1.28543
1.26588
1.28543
1.31965
1.39785
1.49071
1.65689
1.79863
1.98436
2.14565
2.30205
2.40469
2.47312
2.49756
2.48778
2.44379
2.40958
2.30694
2.22385
2.14076
2.05767
1.97947
1.90127
1.82796
1.75464
1.69110
1.63245
1.57869
1.53470
1.50049
1.47116
1.45650
1.45161
1.45650
1.46628
1.48583
1.51026
1.53470
1.55425
1.59824
1.58847
1.62268
1.60313
1.61290
1.59824
1.59335
1.56891
1.55425
1.53470
1.52004
1.50049
1.47605
1.45650
1.43695
1.42717
1.40274
1.41251
1.37341
1.35875
1.34409
1.32942
1.31965
1.31476
1.30499
1.30010
1.29521
1.31476
1.28543
1.28055
1.27566
1.27566
1.27077
1.27077
1.27566
1.27566
1.28543
1.30499
1.36364
1.44673
1.59824
1.72532
1.89638
2.07234
2.22874
2.36070
2.44868
2.49756
2.50244
2.46823
2.41447
2.34604
2.25806
2.17498
2.09189
2.00880
1.95503
1.84751
1.77908
1.71065
1.64712
1.58847
1.56891
1.50049
1.48583
1.45161
1.46139
1.45161
1.48583
1.48094
1.51026
1.52981
1.55425
1.57380
1.59335
1.60802
1.64223
1.61290
1.63734
1.60313
1.59335
1.57869
1.55914
1.54448
1.52004
1.50538
1.48094
1.47116
1.44184
1.44673
1.41251
1.40274
1.38319
1.37341
1.35875
1.34897
1.33920
1.33431
1.32454
1.31965
1.30987
1.30987
1.30010
1.30010
1.29521
1.30987
1.28543
1.30010
1.28543
1.31476
1.31965
1.39785
1.45161
1.59824
1.72043
1.88661
2.05767
2.21408
2.34604
2.43402
2.48778
2.49756
2.48289
2.42913
2.36070
2.28250
2.21408
2.11632
2.03812
1.95503
1.88172
1.80841
1.73998
1.68133
1.62268
1.57380
1.52981
1.51026
1.48094
1.49071
1.46628
1.49560
1.49071
1.52493
1.52981
1.58358
1.57380
1.61779
1.60802
1.62268
1.62268
1.62268
1.62268
1.60802
1.60313
1.57869
1.56403
1.53959
1.52981
1.50049
1.48094
1.46139
1.44673
1.42717
1.40762
1.39785
1.38319
1.37341
1.35386
1.36852
1.33431
1.32942
1.32454
1.31476
1.31476
1.30987
1.30499
1.30010
1.29521
1.29032
1.29032
1.29521
1.32454
1.36852
1.45161
1.56891
1.73509
1.88172
2.05279
2.21408
2.34115
2.43891
2.49267
2.52688
2.48289
2.43891
2.37048
2.29717
2.21408
2.15543
2.04790
1.96481
1.88661
1.81329
1.74487
1.68622
1.61779
1.57869
1.52493
1.50049
1.47116
1.47116
1.45650
1.48094
1.47605
1.51026
1.51515
1.53959
1.56403
1.57869
1.59335
1.60802
1.61290
1.60802
1.60313
1.59335
1.57869
1.55914
1.54448
1.52004
1.50538
1.48094
1.46139
1.44673
1.42717
1.40762
1.39296
1.37830
1.36364
1.34897
1.33920
1.32942
1.31965
1.31476
1.30499
1.30010
1.29032
1.29032
1.28055
1.28055
1.27077
1.29521
1.27077
1.27566
1.29521
1.34409
1.43206
1.54936
1.70577
1.87195
2.04301
2.19453
2.34115
2.41447
2.48289
2.47801
2.44868
2.39980
2.35093
2.25806
2.17009
2.11144
2.00880
1.92571
1.84262
1.77908
1.70088
1.63734
1.58358
1.52981
1.49560
1.45650
1.44184
1.42229
1.42229
1.43206
1.44673
1.47116
1.49071
1.52004
1.53959
1.57869
1.56891
1.57869
1.58847
1.57869
1.57869
1.56403
1.54448
1.52981
1.51026
1.49560
1.47605
1.45650
1.43206
1.42229
1.39785
1.38807
1.36364
1.35875
1.33431
1.34409
1.30987
1.31476
1.29032
1.28543
1.27566
1.27077
1.26588
1.26100
1.25611
1.25122
1.25122
1.24633
1.25122
1.25122
1.27566
1.30499
1.38807
1.49071
1.64223
1.80841
1.98925
2.15543
2.29717
2.41447
2.46334
2.51222
2.46823
2.44868
2.35582
2.27761
2.19453
2.11144
2.02346
1.94037
1.86217
1.78886
1.71554
1.65200
1.59335
1.55914
1.49560
1.46139
1.43695
1.42717
1.42717
1.43206
1.44673
1.46628
1.49071
1.51515
1.53959
1.55914
1.57869
1.58358
1.61779
1.58847
