72.99383543285981
76.55928264387666
78.82169493038532
78.50785420161658
78.16987951807228
80.54020291693087
82.91052631578947
82.25930680359434
78.99125294802519
76.93477027793533
76.62092954916659
76.62092954916659
76.30708882039787
78.31240880162146
80.51317418284019
80.51317418284019
79.47291444258045
81.299804623901
83.3051246051246
82.97549497549497
81.85088985088984
82.97549497549497
83.98973998973999
80.80120438741129
77.67127928158256
78.02692363722691
79.52397998710076
79.52397998710076
78.82169493038532
81.25291444258045
83.25823442380404
82.5906301106301
81.49524549524548
83.01525972758849
84.0295047418335
82.37982911625426
79.48992551402189
80.58531012940651
82.5906301106301
82.26904022806461
79.8378207158695
79.8378207158695
81.52929996832435
81.85088985088984
80.48100048100048
80.48100048100048
83.77729677729677
86.27179127179127
85.56950621507583
81.63777930744531
79.81088912612475
80.51317418284017
80.82701491160893
78.9184519927705
78.21616693605506
79.90764618850991
81.47823442380404
80.17519949929587
79.13493975903614
81.299804623901
82.94948024948025
82.29826073728512
80.81801125703565
81.91339587242027
82.9025900681597
81.56675517134917
79.45712554171955
80.89915085817523
82.5906301106301
82.92025974025972
82.54552289815447
84.88977020014825
87.05463506501312
87.05463506501312
85.4501280227596
87.09954887218043
88.25455968688844
87.87982284478318
85.47080028839221
85.87719298245614
86.63679468942627
86.63679468942627
85.07539118065432
85.87719298245614
88.2862155388471
89.44122635355511
87.87982284478318
87.03220379716413
87.85643686681492
87.49143344917992
84.19513715288363
81.85088985088984
82.5906301106301
82.92025974025972
81.88
81.88
84.84666666666666
85.88692640692639
84.79154179154179
83.60487512487512
85.53128205128205
84.84666666666666
82.1016064257028
77.56435152374202
77.56435152374202
80.69427662957074
82.94948024948025
81.9844200085164
77.9567644459771
76.30708882039787
77.95676444597711
78.54812657222296
76.81318681318682
72.3963133640553
69.93548387096774
70.48720800889878
75.62472923130963
82.74149433807929
89.14629193927868
89.90589364624881
83.8213866039953
75.83260680034874
69.21774193548387
67.70195246179966
69.00693779904306
74.14155318365844
80.52220752220751
83.28745493302455
81.3314109769806
76.46654611211574
73.7012987012987
73.7012987012987
77.44155844155844
80.55344655344655
79.96208442720071
75.43921599128879
71.02234254215728
69.65766071235916
71.86884083658276
77.00636205899363
82.39869945133103
84.0081027063039
80.45456368634021
75.32303215480866
71.5024487756122
71.5024487756122
73.81789593008374
77.9851200103513
79.80376624279063
79.18355718355718
76.63615110126737
75.39519249560288
76.66662106703146
79.56967150496561
81.14025974025972
80.17519949929587
76.7076670317634
74.28039430449068
74.28039430449068
76.7076670317634
79.13493975903614
78.82857142857142
77.25798319327731
75.98655462184874
77.25798319327731
80.23383458646616
82.18987854251012
81.22481830154626
78.85449490268766
78.5078542016166
78.82169493038532
78.82169493038532
77.83250073464589
78.82169493038532
78.82169493038532
77.90232620728632
76.9131320115469
77.54856262288112
78.46793134598012
78.78952122854561
79.80376624279063
79.80376624279063
78.56280763712614
76.91313201154689
76.59929128277817
76.59929128277817
75.41607566167306
75.41607566167306
77.67127928158257
79.81955514365151
80.45498575498576
79.44074074074072
79.77871542428504
80.44631973745898
80.44631973745898
78.53775681862055
76.92835356364768
77.9425985778927
79.18355718355718
79.48992551402189
77.23472189411238
76.59929128277817
77.2347218941124
80.21057328730123
80.84600389863547
79.90420495683654
77.84772228674667
78.1773519163763
79.11915085817523
78.49894179894179
79.18355718355718
79.85116149673112
82.16284980841942
83.25823442380404
84.70025974025972
82.38857142857142
77.90857142857143
74.55798319327731
75.49978213507625
76.62919389978212
75.77250940780351
73.95386317536419
75.86242609420262
77.9600691918457
78.8369164824861
77.22751322751323
78.5974025974026
82.03369603369603
83.6430992886689
81.95162003621405
77.63847930928021
75.43771392806148
76.08893344025661
77.90757967269595
77.90757967269595
74.94091300602926
72.57054263565891
72.86274509803921
74.25882352941176
75.6873949579832
77.59595787682161
79.16654611211573
78.57518398586988
75.80993657505284
73.94714587737843
75.48030694542322
76.33699143740182
76.92835356364768
75.68739495798319
77.59595787682161
79.90764618850991
80.51317418284019
77.74792677202315
76.05644751956828
77.02150776053213
78.48372024684102
76.7076670317634
73.74100036509674
74.05484109386548
76.8200885046825
79.78675517134917
79.78675517134917
79.11915085817523
79.80376624279063
79.18355718355718
76.28571428571428
71.62450315641804
71.03314103017219
73.6093940454496
76.31456121870188
76.31456121870188
74.53850800362427
75.15871706285773
77.70612314514753
79.1683356314564
77.67127928158256
74.83838803489822
76.14142295940638
77.63847930928021
77.63847930928021
75.15222876366694
76.14142295940638
78.28969882147533
79.16654611211573
76.4012987012987
75.43623846033483
76.05644751956828
77.21229167541244
76.31456121870188
75.10299003322258
76.04478897502153
77.90757967269593
78.80531012940651
76.43493975903614
74.0076670317634
74.64309764309763
75.77250940780351
75.49978213507625
72.8627450980392
73.46827309236947
76.16827309236947
78.16987951807228
77.27214906136172
76.62092954916659
77.58598979013044
77.87819225251076
76.38113590263691
73.95386317536419
75.19482178102868
77.34309764309762
78.49894179894179
77.25798319327731
76.60676368108219
78.21616693605506
77.92396447367476
75.09257529021771
72.0546006066734
72.64596273291926
74.265780730897
73.73830820342448
72.04307010818638
72.63443223443223
75.21068524970963
76.02907605430734
74.33383795906923
72.8367816091954
74.98505747126435
78.28969882147534
78.57518398586988
75.87518398586988
72.83720930232558
73.73493975903614
76.77291444258044
78.20148587115187
77.59595787682161
75.39519249560288
75.7015608260676
76.94251943173208
76.65703426733754
74.9220945083014
73.38893344025661
74.88598979013045
75.15871706285772
73.79403523305962
72.58246404758032
73.14694607717863
73.67441860465115
72.83720930232558
73.12941176470588
74.86435152374202
75.7015608260676
74.04467653388919
72.86146091278408
74.72425161045851
76.98666389696717
77.27214906136172
74.57214906136173
74.265780730897
76.81318681318682
79.18355718355718
78.02771302771302
73.86048894744546
72.04184271500613
73.19768687085029
73.71362889983578
72.12964669738864
70.70107526881719
72.70268169452001
75.78372024684101
76.62092954916659
74.35851726265793
73.14694607717863
75.34771145839736
79.61544372612963
80.82701491160893
78.34076436599565
74.07303209826338
72.0242516104585
73.20746723156361
74.86435152374202
74.33687899626949
71.56968117271722
70.99199354594238
73.88983644378527
76.65703426733754
76.65703426733754
74.28666389696718
74.60050462573591
77.08675517134918
79.13553565915406
78.21616693605506
76.91313201154689
78.2489669083574
79.1683356314564
78.27060517474584
77.58598979013044
77.90757967269595
78.19978213507625
76.05150627300728
76.05150627300728
77.29246487867177
77.013468013468
74.9158249158249
74.91582491582491
76.37803740213377
77.23472189411238
76.59929128277817
78.2489669083574
79.1683356314564
77.70612314514753
74.87323189846317
74.87323189846319
76.02907605430734
76.02907605430734
76.02907605430734
77.63847930928021
78.21616693605506
76.71911058618122
75.10970733120834
77.36491095111785
78.54812657222296
77.9567644459771
76.30708882039787
78.31240880162146
79.52397998710076
78.34076436599565
76.02907605430734
76.68029556650245
77.86351118760757
76.98666389696717
75.41607566167306
77.06575128725231
78.88439751969163
79.18355718355718
77.84772228674667
77.84772228674667
76.97087499610628
73.88983644378527
71.79219334614217
73.28924969601601
75.45091952523802
75.45091952523802
74.53155080213904
76.44011372097745
78.21616693605506
77.63847930928021
76.02907605430734
77.01827025004677
77.89511754068717
77.30375541444131
75.39519249560288
77.00459575057576
78.21616693605506
77.92396447367476
76.31456121870188
76.965780730897
77.25798319327731
76.38113590263691
75.72991639044179
78.34076436599565
80.48904022806461
79.86883116883116
78.1773519163763
79.58261507427105
81.19201832924392
80.57180927001048
77.30375541444131
76.31456121870188
77.58598979013044
78.1773519163763
76.96578073089701
75.69435215946844
77.6503961155124
79.85116149673112
81.1225900681597
81.47823442380404
83.70053371286247
83.70053371286247
80.79748327492831
76.66662106703146
76.66662106703146
76.95882352941176
76.10213903743315
73.95386317536419
74.87323189846319
76.64928511354078
76.93477027793533
75.15871706285772
75.48030694542322
78.38335738335738
80.48100048100048
78.94783941295569
75.75930381062697
75.12387319929276
76.02160365600332
76.02160365600332
74.55939116969445
73.66166071298389
75.48030694542322
76.63615110126737
75.7989417989418
72.64596273291926
71.4901185770751
73.86048894744546
75.77250940780351
76.33699143740182
75.7015608260676
77.61012374490602
78.50785420161658
77.32463858051148
75.12387319929276
75.75930381062699
78.24555435624025
79.45712554171955
78.21616693605506
76.91313201154689
78.60461126400176
80.85981488391127
81.49524549524548
79.80376624279063
80.15941059843499
81.17365561268
79.96208442720071
75.69435215946842
72.30973677485305
73.20746723156361
74.86435152374202
75.1370787964693
74.23934833975873
75.48030694542322
76.94251943173208
77.23472189411238
74.86435152374202
73.96662106703145
74.265780730897
74.53850800362427
72.91869000564652
71.4901185770751
72.95233106338397
74.57214906136171
74.57214906136173
73.38893344025661
74.9220945083014
76.65703426733754
75.57783760193396
72.17520916704748
70.99199354594238
70.48720800889878
69.54008463011593
68.46088796471237
69.4931460292285
70.94505494505493
70.94505494505493
72.99383543285981
74.94987938890378
75.4773519163763
74.85714285714286
75.16351118760757
75.7152353255386
75.12387319929276
75.12387319929276
75.4093583636873
74.844876334089
75.15871706285773
76.69187813090251
77.84772228674667
76.92835356364768
77.59595787682161
77.29679821295606
75.90071978158352
71.83048703352308
71.25279940674824
73.25440583245104
74.83838803489822
74.83838803489822
75.47381864623244
78.30670989291679
80.12535612535612
78.88439751969163
76.92835356364768
77.9425985778927
78.54812657222296
77.39228241637879
74.55939116969445
75.5244514106583
76.98666389696717
77.27214906136172
74.04467653388919
73.73830820342448
74.32967032967034
75.4088669950739
73.45282303902994
72.57597574838954
74.07303209826338
75.15222876366694
74.33383795906923
72.01839080459769
72.89523809523808
73.7136288998358
72.94803750198633
69.7694660734149
68.69026940801135
69.99525474525474
70.96264604960257
70.45786051255897
69.15287517531557
71.06489563567362
72.64887783812078
73.15366337516438
70.74765586577766
70.74765586577765
71.27512839325018
71.5194660734149
68.7636603028308
67.0136603028308
68.31864564007421
69.24613152804642
68.79204989539335
65.87932262266608
66.37330967169476
68.0499187768753
68.93991877687529
68.44593172784661
69.52512839325018
70.49251969759801
70.25332596859465
68.66934376614748
70.0036765997307
71.25279940674824
71.25279940674824
70.70107526881719
71.5194660734149
72.28505747126437
70.53505747126437
68.70673758865247
69.52512839325018
71.0084617265835
71.0084617265835
69.6741288930003
70.77800486199256
72.0546006066734
72.30973677485304
72.0242516104585
74.39462198082887
76.05150627300728
75.23311546840958
72.86274509803921
73.46827309236947
75.16351118760757
75.43623846033483
72.66904063678257
70.97380254154447
72.74985575662208
74.91152558584409
75.45091952523802
73.40213903743316
74.0076670317634
75.78372024684101
76.05644751956828
73.04491201585128
69.96387346353029
69.42447952413634
69.42447952413634
68.03249516441005
66.31978038777775
67.5963761324586
69.75395189003436
70.45673758865247
68.4773561453535
68.4773561453535
69.75395189003436
70.70107526881719
68.98836049218491
67.95610242766878
68.98836049218491
69.69114619080301
68.97340425531914
68.19079555966698
70.5968030690537
72.3468030690537
71.61362229102167
68.73421052631579
69.00693779904306
70.79545454545453
71.76284584980237
69.97432910339089
69.17412930319108
69.69007133217659
69.92926506117993
68.4773561453535
67.961414116368
69.23800986104885
69.46739130434783
67.19117647058823
66.40856777493606
68.15856777493606
70.95072463768116
71.2058608058608
71.2058608058608
73.20746723156361
73.73493975903614
71.75555831573718
68.04123711340206
68.04123711340206
69.23800986104885
68.7931488801054
66.36890645586298
66.62404262404263
69.04828504828504
70.94505494505493
70.44026940801135
70.99199354594238
71.5194660734149
70.34764250527797
67.37167594310452
66.58906724745233
68.01054018445323
68.91899313501145
68.42500608598276
69.75933891956596
72.11233769557576
72.86146091278408
70.55973677485305
68.44593172784661
67.45761478163493
66.56761478163493
64.58207460398569
63.673621653427475
66.31362165342748
69.84848484848484
71.4901185770751
69.7401185770751
69.7401185770751
69.99525474525473
70.22946527157052
69.69007133217659
71.05475316197469
72.30387596899223
72.04307010818638
71.75758494379183
73.75919136949464
75.12387319929276
73.0563595876775
69.11733819598831
68.01346222699604
68.25265595599942
68.25265595599942
66.09508019842366
66.84420341563198
69.04828504828504
69.95673799884325
68.96842105263157
68.7017543859649
72.26632434745399
74.61932312346379
73.60939404544959
69.81061355764473
68.44593172784661
69.4558608058608
69.92926506117993
69.92926506117993
70.74765586577765
71.24164291480633
69.7897339989799
68.20575179653272
69.26108776491218
70.45786051255897
69.51073713377613
66.59800986104887
66.3483604921849
68.8794660734149
70.73685737776273
70.01911544227886
67.26330967169477
67.77925170068026
69.52925170068026
70.21754385964911
68.28012889366272
66.30074745036376
67.28906439657544
67.97735655554428
67.53249557460083
65.41996810207337
65.65916183107672
68.08340425531915
69.20761478163493
68.28012889366272
66.76433941997851
69.4095406583686
71.34695562435499
71.11274509803921
67.55909090909091
67.55909090909091
69.30909090909091
70.70107526881719
68.7636603028308
67.73140223831467
68.7636603028308
69.21774193548387
67.82575757575758
67.29828504828504
68.01602698376891
68.46088796471237
68.20575179653272
68.4554011653967
68.4554011653967
66.81376743680644
64.53755260304683
65.00114457266159
66.14879125222316
67.22823333833597
66.10402281202018
64.95637613245862
66.1531488801054
68.26567635263288
68.48583714422223
67.06436420722133
66.07604726100965
68.01346222699604
69.18528579513298
68.72169382551823
68.20575179653272
69.23800986104885
69.46739130434783
66.21261682242991
62.950480900099805
64.7004809000998
71.10823444804026
75.49978213507625
73.07553971083382
67.44303341813335
63.673621653427475
64.3478640776699
64.75851485148515
64.13637892915504
64.13637892915504
65.47207460398567
66.30996810207336
65.2084829535585
65.94166373159055
67.5832974601808
68.91899313501145
68.1858123569794
69.80563035495715
71.0547531619747
71.29394689097805
68.70673758865247
69.24613152804642
69.99525474525473
69.99525474525474
67.29828504828504
66.54916183107673
67.51655313542454
67.961414116368
66.59800986104887
64.95637613245862
66.40828504828505
68.26567635263288
69.65766071235916
68.4351332398317
68.95107526881719
69.4558608058608
68.35437565734594
65.76955717549777
64.78124022928608
66.35612963312008
67.45761478163493
67.22340425531914
68.5
70.25
72.0
71.47252747252747
71.47252747252747
72.90109890109889
72.90109890109889
69.24395604395605
64.35384615384615
63.60472293663782
63.80032733224221
63.412809190007096
62.26516251044552
65.72670097198399
69.04828504828504
70.19593172784661
68.6801422541624
69.4803420543622
70.75693779904306
70.75693779904304
67.84421052631578
66.56761478163493
67.55593172784661
68.21655028454765
67.28906439657544
67.28906439657544
68.74097331240188
70.16244624940276
70.16244624940276
72.42485853591144
73.20746723156361
71.09493975903614
66.0978640776699
64.58207460398569
64.58207460398569
64.99272537780092
64.52913340818617
67.44186068091345
69.01675008474746
67.73399560571632
63.80412547584619
63.804125475846185
64.64201897393386
65.24033830166496
63.05539558480734
64.95216548157723
66.260989010989
68.20673799884325
67.9516018306636
71.13017325923505
72.91869000564652
70.64247517188693
65.9517678209854
64.646782483742
65.28136358891135
65.48467598182968
63.05539558480734
65.2129713423831
67.48918617614268
68.52648221343873
65.33161041856694
63.47421911421911
65.11585284280936
65.72590615583297
64.9043676942945
62.424840467616576
64.2440675516153
65.50152438050071
65.70483677341903
63.47495891560507
65.15156802078559
66.93379580551652
68.91933598316575
68.91933598316575
71.93087148688275
73.48019450429088
72.02828558846444
67.86910340518588
67.06890360498608
66.62404262404263
65.78614912595495
64.56362165342748
66.72119741100323
69.71666666666665
69.48728522336768
70.02667916276162
70.2933458294283
70.75693779904304
67.63272537780094
67.1052528503284
67.83843362836043
69.17412930319108
68.1858123569794
68.7017543859649
69.95087719298243
68.82666666666665
65.63179487179485
64.14846153846153
64.58437990580848
65.62167594310452
64.94743351886208
66.62404262404263
67.77168930360419
67.77168930360419
66.09508019842366
67.10500927643784
70.36646100300584
72.04307010818638
68.27235359728294
64.58365914644251
60.7074619491444
59.31875817019276
57.413486561950855
58.965671138206645
61.967515670485966
64.3000300030003
64.51151515151516
66.1531488801054
68.31072463768115
68.52648221343873
65.84755244755243
63.47421911421911
63.47421911421911
63.47421911421911
62.85208319188901
63.760536142447215
66.18981653946956
68.1753567171188
67.2669037665606
66.31978038777775
66.81376743680644
66.81376743680644
65.94166373159055
63.87278727872787
66.29702970297029
68.11625678696902
68.7636603028308
66.12366030283081
66.88925170068026
67.11395189003436
66.29241342849589
64.13483767092015
65.08196104970298
84.099055066797
107.02329749103943
104.3984126984127
87.09285714285714
65.07706766917292
65.67538699690402
63.96384853536555
62.420814479638
64.44737994453364
65.2689184060721
65.47625678696902
65.9810423240126
66.64166088071364
67.06890360498608
65.61699468915964
67.86910340518588
69.26108776491218
68.81622678396872
65.6920143627266
64.97427242724272
67.13184818481847
68.95107526881719
69.18528579513298
69.72467973452693
71.59414710136863
72.32732787940068
71.27199191102123
71.56419437340153
75.04680306905371
76.38113590263691
73.27234269463207
69.29574694995122
68.4773561453535
68.03249516441005
66.45760576057606
64.3000300030003
66.19679989977018
69.60000918621608
72.29697888318577
71.54785566597745
71.26885880077369
71.26885880077369
70.12121212121212
67.20848484848484
66.40828504828505
68.5658608058608
70.17360274134467
68.95107526881719
68.4351332398317
69.46739130434783
84.04497751124438
75.55862068965517
71.90147783251231
57.797295880934904
67.33898867090356
95.54158607350095
118.2649903288201
116.47647358240863
89.726937404301
67.7526563661902
67.7526563661902
66.89791446943148
63.38800381933392
62.47955086877571
62.27623847585738
61.90995192865683
60.6770514957564
61.95980597478753
67.49288746426406
70.88336365474024
70.22274509803921
67.11395189003436
66.59800986104887
65.97587393871876
64.29811252487487
62.876639587873974
62.87663958787398
64.10954002077442
64.1095400207744
67.64440321583179
70.34137291280148
72.27878787878787
70.49027113237639
70.21754385964911
70.75693779904306
70.52272727272727
67.88272727272727
66.57774193548387
67.29548387096774
68.18548387096774
67.0136603028308
67.5184458398744
70.10565514219998
72.58246404758032
110.13850800362427
125.60318549375151
127.37923870882912
93.38864196380202
77.35948244407645
74.03410621159071
69.96387346353029
69.16367366333048
68.46088796471237
67.51376458592952
68.31396438612933
69.76587330195576
70.71299668073861
70.71299668073861
72.07767851053671
73.38266384778012
73.66166071298389
74.25302283922974
73.98029556650246
73.7012987012987
73.7012987012987
73.17382617382617
72.90109890109889
72.60193923723335
73.40213903743314
73.40213903743316
74.64309764309763
75.49978213507625
75.49978213507625
71.85281602002502
70.99613152804642
70.99613152804642
70.52272727272727
67.82575757575758
66.30996810207336
68.33269537480064
70.22946527157052
70.4686590005739
68.91933598316575
69.99853264856932
71.54785566597745
71.30866193697409
67.49480187671296
64.58207460398569
65.31525538201772
68.0499187768753
68.93991877687529
67.5184458398744
65.62167594310452
66.84420341563198
67.53249557460083
67.1052528503284
64.78124022928608
64.78124022928608
67.9054526505282
69.97432910339089
70.96264604960257
68.93991877687529
68.20673799884325
69.00693779904306
69.24114832535884
67.9054526505282
64.99272537780092
65.2319191068043
65.2319191068043
64.41038064526583
63.70759494664771
66.03160756769003
67.7431460292285
66.6637039431157
63.92904054825813
64.40244480357728
64.6097831844742
64.41038064526583
62.62815286053491
64.44737994453364
67.64225173940542
68.27683284457478
65.84755244755243
62.85208319188901
65.00965894946475
67.9437248835307
68.78161838161837
64.6446153235144
62.53208785098693
63.206330275229355
64.14846153846153
63.326923076923066
63.56113360323885
63.76053614244722
62.818404879215045
61.69419435289926
61.2991874180865
61.66547396528704
60.45641736151346
61.47356021865632
61.66188679245282
61.28872117400419
59.52505144923355
59.716965195864276
60.88036388867473
62.02189769111527
63.25479812401571
65.5310129577753
67.76089081558928
64.92197534509486
60.44142614601019
58.62219906201146
59.66313473452608
60.52262290449228
59.91256959146867
59.91256959146867
59.91256959146867
59.15188583078491
60.315284523595366
62.07895424836601
63.24235294117646
63.87693404634581
65.24033830166496
66.78337235739251
65.55047192449207
62.07031091241617
61.16185796185796
63.06900081900082
65.18575757575758
65.18575757575758
66.40828504828505
65.98946151887327
64.75656108597283
62.64403361344537
64.92024844720497
65.31525538201772
63.37343720019954
59.9338236736295
62.163701531443465
64.76613826996268
65.52682203064643
62.901937238019705
63.36552920763446
63.76824413976116
63.57633039313043
61.82998394448454
63.856549409380186
65.50152438050071
65.70483677341903
63.47495891560507
64.40244480357728
65.71126833298905
65.51186579378069
62.56623931623931
62.11215768358625
64.29710040044387
67.48706455814995
68.90853749515085
70.73685737776273
73.19768687085029
72.23029556650246
68.41643550624133
64.3478640776699
65.06560601315377
65.06560601315377
64.44347009082367
63.27164652268674
66.8065097177441
69.03638757555808
68.60046920821114
64.8662034739454
64.38267206477732
65.5068825910931
66.32842105263157
64.58207460398569
64.11848263437093
64.77910119107196
65.61699468915964
64.95637613245862
65.41996810207337
69.27278195488722
73.34135338345865
73.10714285714286
70.16278195488721
69.00693779904306
68.33269537480064
65.62626262626262
61.50447874976177
61.949339730705226
64.65577247924324
65.04329062147835
62.09410063620589
59.952747252747244
61.66428571428571
63.33072122052704
63.33072122052704
61.04333804295694
61.88123154104462
61.50099122061738
60.275216503450636
57.436301032956216
58.833684210526314
61.672599681020735
63.47421911421911
62.07683593664901
60.843935503748575
63.273215900770914
66.03400333366017
66.63232266139124
62.90782396915062
60.72288125229301
62.031704781704775
62.93940493468794
62.55188679245282
60.45283018867924
64.03522012578615
68.72148603188532
71.78793394000674
68.99577707726164
66.40856777493606
63.92904054825813
62.23110732091314
58.883762188169776
59.08707458108811
62.32804186416065
65.22130536425095
65.8558864694203
66.33941787858839
68.01602698376891
67.58878425949649
64.77198572023903
62.4479730991967
65.57218552043882
69.15457545754575
69.3660606060606
66.88925170068026
66.12366030283081
65.70483677341903
63.152161649315346
61.125596184419706
61.76017728958905
62.85979118920295
61.6963924963925
60.65909645909645
63.28398125172318
64.8662034739454
64.47868533171028
61.107273671455765
61.7678922281568
65.88967610465765
69.01675008474746
67.73399560571632
65.48188688969009
67.0312099070982
66.63620297228545
63.68701298701298
58.832467532467525
59.63812524109553
63.290100924986106
65.89253766350532
66.76464136872121
67.51376458592952
67.51376458592952
66.2310101068984
65.48188688969009
65.03702590874663
64.64201897393386
62.26147186147186
63.16992481203007
64.62298603651986
65.01799297133262
63.682297296501986
65.3589064016825
66.87104232401262
66.6637039431157
63.92904054825813
63.92904054825813
66.46039155019736
80.73892091515042
89.00320662943612
95.61518619916218
81.53996922712746
72.8216018801887
67.2888189758662
69.82016997780545
68.7621156881284
65.1515680207856
64.1632510745739
63.38800381933392
61.518255920174255
58.81182317163625
60.86982490590738
62.33685787294034
62.521696917592465
60.65202175711785
61.90947858600325
64.91460369905722
66.33941787858839
66.11925708699903
65.40151515151516
66.54916183107673
65.3162613981763
63.02887822060619
59.9018042405164
61.35486546500619
64.11565289789544
65.66783747415123
64.6097831844742
64.6097831844742
64.6097831844742
64.02286250303071
61.26207507014146
60.851424296326215
63.91787220444763
65.97587393871876
65.58086700390601
62.51441909578459
61.85380053908355
63.76094339622641
64.55117647058823
63.534033613445374
62.225210084033606
64.5014249177932
66.88197203025521
67.30079555966697
64.82126833298905
63.673621653427475
65.78614912595495
68.26567635263288
68.26567635263288
65.13600602296255
62.65647879628462
64.29811252487487
65.75117374936465
65.55177121015629
62.485323302034885
62.48532330203488
67.07627352827923
71.47705426998385
71.93113590263692
67.14458128078817
65.56059907834101
66.03400333366017
66.22960772926456
63.03964357155846
61.25741578682754
63.93634555271384
65.73432535069364
65.5310129577753
65.03702590874661
68.59068009769493
71.32534349255249
68.9447963800905
64.55324869305451
63.33072122052704
63.52632561613143
62.38479181369089
61.71054938944847
63.192706407687965
64.74489098394375
63.90699748585608
65.61971226248838
68.7439246837305
71.73939393939392
72.84326990838618
74.30548239469505
72.14790663711929
66.21335220205034
59.721655686257456
59.294412961985024
60.16953587250617
60.16953587250617
58.98363784345092
61.00177843302008
62.29699672823837
62.11215768358625
61.67623931623931
62.93369614512471
63.49877551020408
61.38201875344732
59.928957528957525
60.32396446377028
64.29811252487487
67.68858871535105
68.31072463768115
66.88925170068026
66.88925170068026
67.3251700680272
65.8721088435374
63.07995198079231
65.01736694677871
68.94723707664883
69.80197897340753
66.41150278293135
64.38877551020408
62.74380053908355
61.997273671455766
60.89578852294092
64.47817846004783
66.9024667415195
66.49181596770426
63.29694417283247
64.7488530886589
66.49519953730479
66.49519953730479
62.44085388295913
60.89781982723158
62.609358288770046
63.92904054825813
63.92904054825813
63.03904054825813
65.77370394311569
67.31673799884325
66.10768139506966
61.878397165785444
59.932648177931185
60.72288125229301
61.07596828427912
60.315284523595366
61.394726609708165
65.79839633447881
68.98836049218491
68.11625678696902
67.08399872245289
65.47625678696902
63.92407221071323
60.55266055045871
60.98857891780565
61.35486546500619
61.909478586003246
59.70989049388567
61.32303124721335
63.65629837730272
65.00114457266159
63.38800381933392
61.442254831479666
62.98528888720722
65.04329062147835
65.44600555360505
63.902971497877495
65.35488041370394
67.88623141564317
67.88623141564317
64.75656108597283
64.00743786876453
63.40911854103343
63.40911854103343
61.224175824175816
62.901937238019705
66.29241342849589
65.3502821652637
62.40109217999125
59.60893531724616
59.9752218644467
60.147036536261375
58.62404188385496
60.021425061425056
62.57410018552875
63.49877551020408
62.289718906430494
62.06955811484113
63.08670097198399
62.89837439818748
61.47356021865632
60.65202175711785
62.93940493468794
62.751078360891434
61.630798640611715
59.343415463041616
61.17671700795865
63.77915374647787
64.15939406690511
61.95980597478753
61.2991874180865
63.44054080154514
65.20421052631579
63.806827348745685
61.2852336448598
61.72115201220674
63.77915374647787
64.55440100171786
62.536260412148714
60.858498998304825
63.08837685611879
66.03400333366017
66.42901026847292
64.82126833298905
65.83119741100322
66.45333333333332
64.68966360856268
60.55266055045871
60.34117540194386
61.89335997819965
62.639886845827434
61.269149772120066
61.916553287981856
63.14945372088229
63.334292765534414
61.31615217596526
59.89133799643409
61.07723602548934
64.26720018319543
66.36625678696902
65.95560601315377
63.92904054825813
63.92904054825813
64.13235294117646
62.609358288770046
60.70221543162719
61.78165751773999
64.84768622587396
65.44600555360505
64.57390184838917
65.05743325755725
67.33364809131685
67.5451332398317
65.72590615583297
64.99272537780092
67.1052528503284
68.20673799884325
67.5184458398744
66.06653692404797
67.81653692404797
69.75395189003436
69.98333333333332
66.72119741100323
64.78378244501684
66.26711577835016
70.9578231292517
76.19987944544906
79.16654611211573
80.10834505391466
71.48416347381864
64.0274067170619
58.805551198176666
60.35437491715829
60.7074619491444
60.296811175329154
60.11197213067704
60.29341963322546
60.09401709401709
60.09401709401709
61.054103393909216
63.98816932797515
66.93379580551652
68.6801422541624
68.6801422541624
69.42926547137071
68.52081252081251
67.77168930360419
67.2669037665606
67.48706455814995
66.55957867017774
67.06436420722133
67.06436420722133
65.80690737833594
63.07224398347837
63.999729871450576
65.25718670033598
65.46049909325431
64.5330132052821
66.73709483793516
72.49591836734693
76.43493975903614
74.91915028535192
69.36766513683708
65.42864374514787
65.19443321883207
64.58437990580848
62.93940493468794
62.710023491388974
62.909426030597345
63.90699748585608
64.37058945547082
65.42864374514787
66.07604726100965
67.06436420722133
67.5184458398744
67.7431460292285
67.48800986104885
67.961414116368
67.30079555966697
66.56761478163493
66.56761478163493
66.56761478163493
65.02458072590738
63.87693404634581
64.53755260304683
64.74489098394375
63.90699748585608
62.827555399743275
64.40244480357728
65.68519928260841
65.89253766350532
64.74489098394375
66.72427242724272
68.05996810207336
67.63272537780094
64.57390184838917
64.33969132207338
65.67538699690402
66.09421052631578
64.78538699690401
63.24235294117646
65.09974424552429
68.99577707726164
71.02234254215728
67.95589463403586
64.69444290746786
61.8776443682104
60.629355839240624
58.83137604126083
59.62160911562265
60.49673202614379
60.86989764459243
61.07723602548934
62.24063471829979
61.86746909985116
60.86989764459243
61.288721174004195
61.28872117400419
60.55595959595959
58.61414141414141
59.17922077922077
59.35736923626831
59.53551769331585
58.610842368640526
58.97712891584107
59.72365578346886
60.26809078771694
60.08325174306482
60.27885613866921
63.03964357155846
65.28248435048171
63.815451383448746
60.33529037137284
59.25584828526004
58.92126181909463
58.74944714727996
58.15112781954887
59.19206349206349
60.27157831686134
61.949339730705226
62.909426030597345
61.49532473963409
58.3773610501897
58.37736105018969
59.41829672270432
59.758885098690925
59.17196441724744
61.87839716578544
63.9951539225422
63.44054080154514
61.10727367145577
62.23148419777156
64.65577247924324
65.24269316068671
64.33424021012851
63.25479812401571
61.419588913602446
58.746486205101505
59.16530973451327
60.040432645034414
60.20920634920635
58.81182317163625
61.0546639505595
61.401417197312746
60.510228946311415
58.08594066483974
60.917758846657925
62.1891874180865
62.74380053908355
61.23166461675345
63.3730180002121
66.18981653946956
66.18981653946956
63.123787831335584
61.51604589585172
60.55595959595959
60.55595959595959
59.734421134421126
61.97726191334438
63.29694417283247
62.909426030597345
63.138807473896314
63.13880747389631
61.890518944926534
59.41829672270432
59.02328978789156
59.716965195864276
59.9018042405164
60.7074619491444
62.25964652540019
62.07480748074807
61.46475416772446
62.56623931623931
62.93940493468794
62.36356021865631
61.262075070141464
61.262075070141464
61.077236025489334
61.07723602548934
61.07723602548934
61.077236025489334
60.86989764459243
61.25741578682754
62.420814479638
63.729638009049765
65.21179502728927
65.8463761324586
66.31978038777775
67.77168930360419
67.77168930360419
66.19679989977018
65.6920143627266
65.6920143627266
65.08196104970298
64.36421911421911
65.03846153846153
65.86
65.40591836734694
64.95183673469387
64.5330132052821
65.22130536425095
65.00114457266159
64.5984296405349
64.5984296405349
64.38267206477732
64.18706766917293
64.18706766917293
64.62298603651986
65.42864374514787
65.66783747415123
66.83966104228816
66.03400333366017
63.46154247456742
61.85380053908355
62.248807473896306
62.63632561613143
62.85208319188901
62.85208319188901
63.25479812401571
63.03904054825813
63.66117647058823
63.66117647058823
65.51856777493606
65.73432535069364
65.5310129577753
65.28136358891135
66.9229973175016
67.98105160717864
67.98105160717864
66.33941787858839
64.32127728901924
62.929292929292934
63.37415391023639
64.33424021012851
64.33424021012851
65.03702590874661
65.44767668256188
65.2319191068043
67.06023898941618
68.8794660734149
69.09522364917248
68.01602698376891
69.04828504828504
69.2684458398744
66.53378244501684
65.50152438050071
66.9229973175016
67.76089081558928
65.94166373159055
65.6920143627266
66.83966104228816
67.48706455814995
66.5399411793671
67.81653692404797
68.27061855670104
66.59285714285714
64.61347569955817
65.33121763504204
66.13687534367006
65.26477163845416
66.56975697569756
68.14464637953157
68.79204989539335
66.31524099001302
68.72124849939975
70.92533013205282
71.15003032140692
68.27061855670104
68.27061855670104
68.27061855670104
66.55908009516256
63.91908009516256
65.63179487179485
67.34333333333333
67.34333333333333
64.3478640776699
64.82126833298904
68.01299247092008
69.29574694995122
67.1108042330936
63.500256565750796
64.20304226436892
66.38798498122652
66.18467258830819
64.6097831844742
64.6097831844742
66.12191910680428
65.71126833298905
64.3478640776699
64.58207460398569
65.20421052631579
64.99272537780092
63.65702970297029
64.54702970297029
64.75851485148515
64.75851485148515
64.75851485148515
64.97427242724272
64.97427242724272
64.52019079458967
65.42864374514787
66.07604726100965
65.42864374514787
65.19443321883207
65.41913340818618
65.63061855670102
64.74061855670104
64.74061855670104
64.95637613245862
66.81376743680644
70.52808863914154
72.42485853591143
71.00338559891054
68.48583714422223
68.48583714422223
68.48583714422223
66.41696069135955
66.41696069135955
68.35437565734594
69.4558608058608
67.55909090909091
67.29828504828504
68.01602698376891
68.46088796471237
67.23836049218491
68.27061855670104
68.73421052631579
68.28012889366272
67.00353314898186
67.99185009519354
68.6801422541624
67.7526563661902
68.28012889366272
71.22448979591837
73.42857142857143
71.91278195488721
69.95673799884325
71.08614976354913
71.32534349255249
69.00133087151018
65.89253766350532
66.9024667415195
67.32970946579194
65.84755244755243
64.5984296405349
66.24006336912515
68.1858123569794
67.49752019801055
66.07604726100965
67.86456400742114
69.03638757555808
67.97833328588104
64.44347009082367
64.44347009082367
66.18981653946955
66.3931289323879
65.00114457266159
66.78966131907308
68.33269537480064
67.9054526505282
64.99272537780092
67.06023898941618
69.3842516104585
69.3842516104585
65.57039155019737
64.58207460398569
65.94547885930484
66.35612963312008
64.81309557739252
64.33969132207338
66.6637039431157
68.20673799884325
66.89791446943148
65.44600555360505
66.17918633163708
67.48800986104885
67.0431488801054
65.8463761324586
67.5963761324586
68.50482908301682
67.22207460398569
65.24269316068671
65.00848263437094
65.21179502728927
63.92904054825813
64.646782483742
65.28136358891135
66.11925708699903
67.42424242424242
68.57188910380398
68.571889103804
68.85088596900776
69.34487301803644
69.56503380962579
68.23070097604258
68.23070097604258
67.5832974601808
65.94166373159055
65.6920143627266
65.48467598182968
63.871535228502005
62.47955086877571
63.334292765534414
64.31285241369275
63.2755563763967
64.95216548157723
66.260989010989
67.08252747252746
65.18575757575758
66.6690909090909
67.10500927643784
65.8721088435374
63.714533085961655
63.93923327531575
64.53755260304683
64.11030987877442
65.56221879460085
66.64166088071364
66.03160756769003
64.3549984625095
65.30212184129235
66.12366030283081
64.8662034739454
64.8662034739454
65.99041400026118
67.02771003755723
65.8558864694203
67.10500927643784
69.2625850340136
68.82666666666665
66.03450980392157
65.02458072590738
65.68519928260841
65.48188688969007
64.33424021012851
65.03702590874661
65.8749194068343
65.65916183107672
65.41996810207337
67.57754385964911
68.7017543859649
67.57754385964911
66.56761478163493
68.08340425531915
68.97340425531914
67.39851485148515
65.64851485148515
66.87104232401262
67.7431460292285
66.43432249981673
64.9824135839903
65.92953696277314
66.78427885953184
65.70483677341903
65.46049909325431
66.63232266139124
67.48706455814995
66.33941787858839
67.10500927643784
67.79330143540669
67.36605871113426
66.35612963312008
67.60525244013762
68.94094811496825
68.94094811496825
69.75933891956596
70.24287032873406
68.8794660734149
66.3483604921849
66.3483604921849
66.3483604921849
64.8662034739454
64.8662034739454
66.47394540942928
67.51124144672532
66.79349951124145
66.54916183107673
66.76932262266608
66.31524099001302
67.06436420722133
67.06436420722133
66.41696069135955
66.16182452317992
67.5832974601808
68.01054018445323
65.94166373159055
65.2084829535585
64.57390184838917
77.87699990012982
96.4697124507371
99.80126325287614
86.70965034965033
67.88272727272727
66.09421052631578
65.27267206477731
63.76053614244722
62.63632561613143
62.835728155339794
63.457864077669896
64.11848263437093
64.74061855670104
64.52913340818617
64.99272537780092
68.18444951573197
69.5201451905626
68.6116922400044
68.05996810207336
70.41296687808315
71.08720930232558
67.62567084078711
64.14846153846153
66.1711888111888
68.8501185770751
68.43129504766333
65.3070826264212
66.36241859480064
68.63863342856024
68.8501185770751
66.37330967169476
67.70764250527797
68.59764250527797
68.16172413793103
66.82739130434783
68.57739130434783
69.01330967169477
67.59183673469387
68.1435608726249
70.0809758386113
70.3056760279654
68.97134319438219
71.28679034885374
72.48356309650053
70.6261717921527
68.31072463768115
69.64505747126437
71.0084617265835
68.63512839325018
67.55593172784661
68.0499187768753
68.0499187768753
66.59800986104887
67.93234269463207
69.7897339989799
68.71029191286709
66.17918633163708
66.43432249981673
67.51376458592952
66.8531460292285
67.6533458294283
70.1844514106583
70.18445141065831
66.64958821560093
64.58207460398569
65.47207460398569
65.88272537780094
64.97427242724272
65.6920143627266
66.56411806794247
66.3483604921849
67.11395189003436
68.31072463768115
68.31072463768115
66.37330967169476
65.64012889366272
64.81859043212425
63.56113360323885
64.2943143812709
66.72359477829323
68.4351332398317
68.95107526881719
69.4558608058608
67.1684776282907
64.3763207655456
63.62719754833728
64.6057571964956
64.20304226436892
63.96384853536555
65.5068825910931
66.11693590411672
65.65334393450196
66.13687534367006
66.56411806794247
66.11925708699903
67.42424242424242
69.58181818181816
70.2560606060606
68.95107526881719
71.26652242328875
73.56824656121978
72.39642299308284
67.92340008103555
66.09508019842366
64.83762336953825
63.03964357155846
61.46475416772446
64.65962596259625
66.9024667415195
66.69512836062259
64.53755260304683
66.78966131907308
68.33269537480064
67.69811426963129
65.22130536425095
66.20962231046263
67.06436420722133
66.20962231046263
65.70483677341903
66.87666034155598
67.29548387096774
66.57774193548387
67.88272727272727
69.00693779904304
67.69811426963129
65.67538699690402
66.40856777493606
67.26330967169477
67.49752019801055
68.28012889366272
68.28012889366272
66.53378244501684
65.25718670033598
66.42901026847292
67.48706455814995
67.24787082914659
68.83185303159375
70.0036765997307
69.09522364917248
66.33941787858839
66.58906724745233
67.0339282283958
66.386524712534
65.89253766350532
67.08931041115213
67.30079555966697
65.72590615583297
65.2319191068043
65.89253766350532
65.48188688969007
64.33424021012851
63.88937922918505
63.4943722943723
63.067129570099866
64.96389946686975
66.41696069135955
66.20962231046263
64.5330132052821
64.7577133946362
64.3549984625095
63.500256565750796
64.69702931339759
66.64277830125184
66.24006336912515
65.99041400026118
66.97873094647287
68.23618777535827
66.20962231046263
66.20962231046263
67.13710819843485
67.55593172784661
65.65916183107672
67.20848484848484
68.33269537480064
66.53471557682084
64.2826068607946
65.27092380700628
67.51376458592952
66.2310101068984
63.90699748585608
64.13637892915504
64.54702970297029
64.13637892915504
64.13637892915504
64.78378244501684
64.98709483793516
64.7577133946362
66.17918633163708
66.81376743680644
65.73432535069364
64.76693404634581
64.98709483793516
64.78378244501684
63.682297296501986
64.13637892915504
64.54702970297029
63.74137199434229
62.85137199434229
63.27861471861472
63.47421911421911
62.652680652680644
63.56113360323885
66.24006336912515
67.06160183066362
64.92024844720497
64.18706766917293
63.56493174684283
62.124729471242325
59.60313576735644
60.88589024638757
62.32609252198807
61.95980597478753
60.47764895654803
61.71054938944847
63.47421911421911
62.713535353535356
61.10039460020768
61.31615217596526
62.686889249672625
63.26273396570426
62.22543792840821
63.56113360323885
63.96384853536555
63.57633039313043
61.43497700967178
62.74380053908355
63.131318681318675
62.56623931623931
62.11215768358625
64.05790667144049
65.64012889366272
64.78538699690401
65.2689184060721
66.87666034155598
66.27834101382489
63.84906061680255
63.60472293663782
63.80032733224221
62.858196069010035
60.09740863612079
62.2823513529784
64.04602107774905
64.04602107774905
61.10039460020768
61.10039460020768
62.49777777777778
62.87094339622641
61.66188679245282
62.09780515979976
63.0953766150585
63.28729036168922
63.74137199434229
63.95285714285714
63.5726168224299
62.89837439818748
62.686889249672625
62.686889249672625
62.05230814450328
61.64165737068804
62.02189769111527
61.42357836338418
61.83422913719943
61.83422913719943
61.83422913719943
61.028571428571425
62.04571428571428
62.44072122052704
62.63632561613143
62.21750208671966
63.2755563763967
63.2755563763967
62.67723704866561
62.241318681318674
62.44072122052704
62.44072122052704
61.818585298196936
62.65647879628462
62.85208319188901
62.45707625707625
61.82249515190691
62.85979118920295
63.45811051693404
63.25479812401571
63.25479812401571
63.05148573109737
62.464565049653885
61.829983944484546
62.033296337402874
62.225210084033606
61.246650435875274
60.648331108144184
61.66547396528704
62.04571428571428
61.66547396528704
60.648331108144184
61.88123154104462
62.26147186147186
61.88123154104462
60.648331108144184
61.45398881677219
61.83422913719943
61.45398881677219
60.648331108144184
63.02887822060619
63.80412547584619
61.87506143643733
58.92943495889596
58.92943495889595
60.11197213067704
59.930524628128616
59.93052462812861
60.6770514957564
60.49890303870885
60.1038961038961
61.121038961038956
63.06285714285714
62.49777777777778
60.91555555555556
61.57617411225659
66.35012047240984
69.05655322094785
67.18687806047323
61.878397165785444
60.13205071713955
59.94372414334304
59.43732300536296
57.9427021709363
58.92126181909463
60.72288125229301
61.25741578682754
60.46718271246573
60.86989764459243
61.43497700967178
61.246650435875274
61.45398881677219
61.64959321237658
62.424840467616576
62.21750208671966
65.15156802078559
66.6637039431157
66.0653846153846
63.534033613445374
62.225210084033606
61.30053475935828
58.9332713322483
57.23533810490331
59.1771562867215
61.34110732091314
61.875641855447675
61.25350593311758
62.536260412148714
62.536260412148714
61.216578152660624
60.34447444744474
60.9095538125241
61.269149772120066
60.65909645909645
61.25741578682754
61.630581405276175
60.86989764459242
60.86989764459243
61.25741578682754
61.630581405276175
61.227866473149476
63.41280919000709
64.62186579378067
63.6797345305485
60.55266055045871
61.44266055045871
62.1891874180865
62.37063492063492
60.27157831686134
61.949339730705226
63.11273842351568
63.902971497877495
63.24235294117646
65.77370394311569
64.61030525030525
60.90319781228872
57.20844811753903
59.226588707108185
62.514872615712946
62.514872615712946
62.29471182412359
61.89199689199689
61.532400932400925
60.69450743431325
60.49890303870886
60.85849899830482
61.48063492063492
62.286292629262924
62.286292629262924
62.07480748074807
62.07480748074807
62.4479730991967
62.659458247711555
63.76094339622641
63.95285714285714
62.011038961038956
60.29950049950049
62.44085388295913
63.96384853536555
63.02171727213337
61.27537082348749
63.057598608218406
64.6097831844742
63.83453592923419
62.471131673915046
63.5726168224299
63.95285714285714
62.1891874180865
60.47764895654803
61.71054938944847
61.89199689199689
60.77171717171717
60.99187796330653
61.17671700795865
61.00177843302008
60.35437491715829
62.64175809472839
63.93697638994668
62.20664335664335
62.44085388295913
63.2623923444976
63.62198830409356
61.48063492063492
62.14125347733595
63.304652170146404
61.53570807076752
58.58651808549506
58.58651808549506
60.35546218487394
61.626890756302515
62.48163265306122
63.49877551020408
62.75224864257629
60.55266055045871
60.98857891780565
62.13011272024619
62.49639926744674
61.4383449777697
62.721099456800836
65.97587393871876
66.386524712534
63.609149399076216
61.540272946213534
59.294412961985024
58.78801182400494
58.17795851098133
60.013167721394595
62.01418969380133
63.05148573109738
66.86534579135851
68.85088596900775
66.69331021143199
62.4844432163581
60.49890303870886
60.32396446377028
58.883762188169776
59.08707458108811
60.992346189330014
62.24063471829979
60.20211311496819
60.62935583924063
63.446154378498086
66.56411806794247
66.13687534367006
65.89253766350532
64.81309557739252
62.567235593164014
59.08707458108811
59.08707458108811
59.96219749160925
60.315284523595366
59.716965195864276
62.90692935357037
65.10651744568796
64.72627712526071
63.77915374647787
62.32609252198807
61.606718942801415
59.73704378232679
61.41480519617068
61.949339730705226
60.86982490590738
59.79038281979458
62.73600929733595
64.40244480357728
63.99972987145058
62.21750208671966
64.69702931339759
65.3070826264212
63.43733472726154
59.12259829017035
58.91525990927344
58.746486205101505
58.257624441293146
55.89036101418317
57.52616768538807
59.65083612040132
60.67325335215242
59.20622038511946
59.40562292432783
59.960236045324876
59.79146234115295
58.12502683491162
59.334083438685205
62.00718614718615
63.08670097198399
62.06955811484113
62.74380053908355
65.56059907834101
65.7562034739454
62.74944671718865
59.02494802494802
59.846486486486484
61.75175809472839
62.85137199434229
61.83422913719943
63.90310559006211
65.3561668145519
65.55177121015629
61.75256172399028
62.20664335664335
62.81669666966696
63.549458247711556
61.450401643937965
62.55188679245283
64.19686176357334
65.19443321883207
65.19443321883207
67.13184818481847
68.70673758865247
66.05306786388184
61.737916348730316
60.37451209341117
59.68083668543845
58.83656791073489
57.819425053592035
60.492527762092976
62.06955811484113
60.79812954341256
60.79812954341256
60.79812954341256
60.79812954341256
58.125026834911615
57.57041371391456
60.74898514248599
63.206330275229355
68.44720930232558
70.19720930232558
71.80495123780945
70.96774193548387
67.9089184060721
64.0126050420168
61.16111989350195
58.95678552817687
58.29915006019658
55.72454825218969
57.330563289783676
58.33495200451721
59.0042822042822
57.9046683046683
59.63500133797163
61.967515670485966
62.875215823469134
61.504478749761766
59.891337996434096
60.68157107079591
60.50012356824749
60.13383702104694
59.93052462812861
61.27537082348749
61.64165737068803
61.442254831479666
61.03953989935297
60.32016632016631
60.51956885937467
59.577437596142495
59.07103645816242
57.40460095192108
58.74944714727996
61.80852340936374
63.47495891560507
62.49639926744674
62.060480900099805
63.806827348745685
66.09421052631578
66.98421052631579
