HR_time,RR-interval,heart_rate
1.1984971907186148,858,72.99383543285981
1.9662844535227275,773,76.55928264387666
2.7059819384193724,745,78.82169493038532
3.483132460525974,783,78.50785420161658
4.260282982632576,783,78.16987951807228
5.009343726831711,754,80.54020291693087
5.720951433820888,716,82.91052631578947
6.432559140810065,716,82.25930680359434
7.200346403614178,773,78.99125294802519
8.005586703628248,811,76.93477027793533
8.77337396643236,773,76.62092954916659
9.550524488538962,783,76.62092954916659
10.355764788553032,811,76.30708882039787
11.132915310659634,783,78.31240880162146
11.8538862769513,726,80.51317418284019
12.593583761847945,745,80.51317418284019
13.370734283954546,783,79.47291444258045
14.11979502815368,754,81.299804623901
14.81267621653788,698,83.3051246051246
15.533647182829547,726,82.97549497549497
16.29207118633117,764,81.85088985088984
17.013042152622837,726,82.97549497549497
17.705923341007036,698,83.98973998973999
18.436257566601192,735,80.80120438741129
19.25086112591775,820,77.67127928158256
20.028011648024354,783,78.02692363722691
20.74898261431602,726,79.52397998710076
21.516769877120133,773,79.52397998710076
22.293920399226735,783,78.82169493038532
23.03361788412338,745,81.25291444258045
23.73586233181007,707,83.25823442380404
24.456833298101735,726,82.5906301106301
25.21525730160336,764,81.49524549524548
25.945591527197514,735,83.01525972758849
26.629109456279224,688,84.0295047418335
27.35944368187338,735,82.37982911625426
28.136594203979982,783,79.48992551402189
28.895018207481606,764,80.58531012940651
29.597262655168294,707,82.5906301106301
30.31823362145996,726,82.26904022806461
31.086020884264073,773,79.8378207158695
31.853808147068186,773,79.8378207158695
32.57477911335985,726,81.52929996832435
33.29575007965152,726,81.85088985088984
34.05417408315314,764,80.48100048100048
34.812598086654766,764,80.48100048100048
35.53356905294643,726,83.77729677729677
36.20772372272565,679,86.27179127179127
36.90060491110985,698,85.56950621507583
37.6403023960065,745,81.63777930744531
38.4174529181131,783,79.81088912612475
39.157150403009744,745,80.51317418284017
39.87812136930141,726,80.82701491160893
40.645908632105524,773,78.9184519927705
41.441785672817105,801,78.21616693605506
42.18148315771375,745,79.90764618850991
42.902454124005416,726,81.47823442380404
43.65151486820455,754,80.17519949929587
44.42866539031115,783,79.13493975903614
45.17772613451029,754,81.299804623901
45.870607322894486,698,82.94948024948025
46.60094154848864,735,82.29826073728512
47.368728811292755,773,80.81801125703565
48.09906303688691,735,81.91339587242027
48.8013074845736,707,82.9025900681597
49.541004969470244,745,81.56675517134917
50.30879223227436,773,79.45712554171955
51.06721623577598,764,80.89915085817523
51.76946068346267,707,82.5906301106301
52.490431649754335,726,82.92025974025972
53.23949239395347,754,82.54552289815447
53.95110010094265,716,84.88977020014825
54.61589151141938,669,87.05463506501312
55.308772699803576,698,87.05463506501312
56.02038040679275,716,85.4501280227596
56.72262485447944,707,87.09954887218043
57.37805300565368,660,88.25455968688844
58.06157093473539,688,87.87982284478318
58.77317864172457,716,85.47080028839221
59.48478634871375,716,85.87719298245614
60.15894101849297,679,86.63679468942627
60.851822206877166,698,86.63679468942627
61.56342991386635,716,85.07539118065432
62.27503762085553,716,85.87719298245614
62.94919229063475,679,88.2862155388471
63.60462044180899,660,89.44122635355511
64.28813837089069,688,87.87982284478318
64.99974607787988,716,87.03220379716413
65.67390074765909,679,87.85643686681492
66.33869215813583,669,87.49143344917992
67.0596631244275,726,84.19513715288363
67.81808712792912,764,81.85088985088984
68.53905809422079,726,82.5906301106301
69.24130254190747,707,82.92025974025972
69.99036328610661,754,81.88
70.73942403030574,754,81.88
71.44166847799244,707,84.84666666666666
72.11582314777165,679,85.88692640692639
72.83679411406332,726,84.79154179154179
73.56712833965747,735,83.60487512487512
74.26937278734417,707,85.53128205128205
74.94352745712338,679,84.84666666666666
75.69258820132252,754,82.1016064257028
76.46973872342912,783,77.56435152374202
77.2656157641407,801,77.56435152374202
78.01467650833983,754,80.69427662957074
78.70755769672404,698,82.94948024948025
79.43789192231819,735,81.9844200085164
80.2150424444248,783,77.9567644459771
81.02028274443886,811,76.30708882039787
81.79743326654547,783,77.95676444597711
82.52776749213962,735,78.54812657222296
83.31428127354872,792,76.81318681318682
84.14761135147025,839,72.3963133640553
85.01839446660173,877,69.93548387096774
85.88917758173324,877,70.48720800889878
86.70378114104979,820,75.62472923130963
87.41538884803897,716,82.74149433807929
88.0801802585157,669,89.14629193927868
88.72624515038746,650,89.90589364624881
89.41912633877165,698,83.8213866039953
90.25245641669319,839,75.83260680034874
91.12323953182468,877,69.21774193548387
92.02211242486365,905,67.70195246179966
92.91162205860012,896,69.00693779904306
93.73558887721916,830,74.14155318365844
94.46592310281332,735,80.52220752220751
95.15880429119751,698,83.28745493302455
95.89850177609416,745,81.3314109769806
96.68501555750325,792,76.46654611211574
97.5183456354248,839,73.7012987012987
98.34231245404384,830,73.7012987012987
99.12882623545293,792,77.44155844155844
99.8497972017446,726,80.55344655344655
100.58013142733876,735,79.96208442720071
101.38537172735282,811,75.43921599128879
102.24679158318183,867,71.02234254215728
103.11757469831332,877,69.65766071235916
103.96963129483984,858,71.86884083658276
104.75614507624893,792,77.00636205899363
105.4677527832381,716,82.39869945133103
106.1606339716223,698,84.0081027063039
106.90033145651896,745,80.45456368634021
107.71493501583551,820,75.32303215480866
108.55762835305953,849,71.5024487756122
109.41904820888854,867,71.5024487756122
110.23365176820509,820,73.81789593008374
111.00143903100921,773,77.9851200103513
111.73177325660336,735,79.80376624279063
112.49019726010499,764,79.18355718355718
113.27671104151408,792,76.63615110126737
114.08195134152815,811,75.39519249560288
114.87782838223973,801,76.66662106703146
115.62688912643887,754,79.56967150496561
116.34786009273053,726,81.14025974025972
117.09692083692967,754,80.17519949929587
117.87407135903626,783,76.7076670317634
118.69803817765532,830,74.28039430449068
119.52200499627436,830,74.28039430449068
120.29915551838096,783,76.7076670317634
121.0482162625801,754,79.13493975903614
121.79727700677923,754,78.82857142857142
122.58379078818832,792,77.25798319327731
123.3796678288999,801,75.98655462184874
124.166181610309,792,77.25798319327731
124.91524235450812,754,80.23383458646616
125.62685006149731,716,82.18987854251012
126.35718428709146,735,81.22481830154626
127.13433480919807,783,78.85449490268766
127.91148533130466,783,78.5078542016166
128.6511828162013,745,78.82169493038532
129.41897007900542,773,78.82169493038532
130.19612060111203,783,77.83250073464589
130.96390786391615,773,78.82169493038532
131.70360534881277,745,78.82169493038532
132.48075587091938,783,77.90232620728632
133.27663291163097,801,76.9131320115469
134.0444201744351,773,77.54856262288112
134.8028441779367,764,78.46793134598012
135.5706314407408,773,78.78952122854561
136.32905544424244,764,79.80376624279063
137.0593896698366,735,79.80376624279063
137.8271769326407,773,78.56280763712614
138.62305397335228,801,76.91313201154689
139.4002044954589,783,76.59929128277817
140.17735501756547,783,76.59929128277817
140.97323205827706,801,75.41607566167306
141.78783561759363,820,75.41607566167306
142.56498613970024,783,77.67127928158257
143.29532036529437,735,79.81955514365151
144.04438110949351,754,80.45498575498576
144.80280511299515,764,79.44074074074072
145.56122911649678,764,79.77871542428504
146.3009266013934,745,80.44631973745898
147.04062408629005,745,80.44631973745898
147.79904808979168,764,78.53775681862055
148.59492513050327,801,76.92835356364768
149.38143891191234,792,77.9425985778927
150.1117731375065,735,79.18355718355718
150.87019714100813,764,79.48992551402189
151.64734766311474,783,77.23472189411238
152.4432247038263,801,76.59929128277817
153.2203752259329,783,77.2347218941124
153.97879922943454,764,80.21057328730123
154.69040693642373,716,80.84600389863547
155.44883093992533,764,79.90420495683654
156.23534472133443,792,77.84772228674667
157.00313198413855,773,78.1773519163763
157.7521927283377,754,79.11915085817523
158.5106167318393,764,78.49894179894179
159.2971305132484,792,79.18355718355718
160.02746473884255,735,79.85116149673112
160.7671622237392,745,82.16284980841942
161.48813319003085,726,83.25823442380404
162.19037763771755,707,84.70025974025972
162.89262208540424,707,82.38857142857142
163.67913586681334,792,77.90857142857143
164.51246594473486,839,74.55798319327731
165.30834298544644,801,75.49978213507625
166.06676698894807,764,76.62919389978212
166.86264402965963,801,75.77250940780351
167.6866108482787,830,73.95386317536419
168.50121440759526,820,75.86242609420262
169.2409118924919,745,77.9600691918457
169.9993358959935,764,78.8369164824861
170.7858496774026,792,77.22751322751323
171.5723634588117,792,78.5974025974026
172.29333442510338,726,82.03369603369603
172.98621561348756,698,83.6430992886689
173.7259130983842,745,81.95162003621405
174.49370036118833,773,77.63847930928021
175.3083039205049,820,75.43771392806148
176.11354422051895,811,76.08893344025661
176.8626049647181,754,77.90757967269595
177.62102896821972,764,77.90757967269595
178.4262692682338,811,74.94091300602926
179.2689626054578,849,72.57054263565891
180.10229268337935,839,72.86274509803921
180.89816972409093,801,74.25882352941176
181.6940467648025,801,75.6873949579832
182.4805605462116,792,77.59595787682161
183.22025803110824,745,79.16654611211573
183.96931877530739,754,78.57518398586988
184.77455907532143,811,75.80993657505284
185.5985258939405,830,73.94714587737843
186.40376619395457,811,75.48030694542322
187.1621901974562,764,76.33699143740182
187.95806723816776,801,76.92835356364768
188.74458101957686,792,75.68739495798319
189.54045806028844,801,77.59595787682161
190.2801555451851,745,79.90764618850991
191.00112651147674,726,80.51317418284019
191.77827703358335,783,77.74792677202315
192.6022438522024,830,76.05644751956828
193.3700311150065,773,77.02150776053213
194.11909185920564,754,78.48372024684102
194.89624238131225,783,76.7076670317634
195.7202091999313,830,73.74100036509674
196.5629025371553,849,74.05484109386548
197.33068979995943,773,76.8200885046825
198.07038728485608,745,79.78675517134917
198.81944802905522,754,79.78675517134917
199.58723529185932,773,79.11915085817523
200.34565929536095,764,79.80376624279063
201.0759935209551,735,79.18355718355718
201.8625073023642,792,76.28571428571428
202.7145638988907,858,71.62450315641804
203.5947102733247,886,71.03314103017219
204.39995057333877,811,73.6093940454496
205.16773783614286,773,76.31456121870188
205.95425161755196,792,76.31456121870188
206.75949191756604,811,74.53850800362427
207.5834587361851,830,75.15871706285773
208.35124599898919,773,77.70612314514753
209.08158022458335,735,79.1683356314564
209.85873074668996,783,77.67127928158256
210.67333430600652,820,74.83838803489822
211.48793786532306,820,76.14142295940638
212.2276353502197,745,77.63847930928021
212.99542261302383,773,77.63847930928021
213.8100261723404,820,75.15222876366694
214.62462973165694,820,76.14142295940638
215.3643272165536,745,78.28969882147533
216.11338796075273,754,79.16654611211573
216.8999017421618,792,76.4012987012987
217.72386856078086,830,75.43623846033483
218.50101908288747,783,76.05644751956828
219.2688063456916,773,77.21229167541244
220.05532012710066,792,76.31456121870188
220.86056042711473,811,75.10299003322258
221.6658007271288,811,76.04478897502153
222.42422473063044,764,77.90757967269593
223.17328547482956,754,78.80531012940651
223.95043599693616,783,76.43493975903614
224.7837660748577,839,74.0076670317634
225.60773289347676,830,74.64309764309763
226.36615689697837,764,75.77250940780351
227.16203393768996,801,75.49978213507625
227.9953640156115,839,72.8627450980392
228.8380573528355,849,73.46827309236947
229.61520787494212,783,76.16827309236947
230.36426861914126,754,78.16987951807228
231.14141914124787,783,77.27214906136172
231.94665944126191,811,76.62092954916659
232.71444670406603,773,77.58598979013044
233.46350744826518,754,77.87819225251076
234.25938448897676,801,76.38113590263691
235.0739880482933,820,73.95386317536419
235.89795486691236,830,75.19482178102868
236.656378870414,764,77.34309764309762
237.40543961461313,754,78.49894179894179
238.1919533960222,792,77.25798319327731
238.9878304367338,801,76.60676368108219
239.7556176995379,773,78.21616693605506
240.49531518443453,745,77.92396447367476
241.3005554844486,811,75.09257529021771
242.16197534027762,867,72.0546006066734
242.99530541819917,839,72.64596273291926
243.78181919960824,792,74.265780730897
244.5870594996223,811,73.73830820342448
245.43911609614884,858,72.04307010818638
246.28180943337287,849,72.63443223443223
247.06832321478194,792,75.21068524970963
247.83611047758606,773,76.02907605430734
248.65071403690263,820,74.33383795906923
249.49340737412663,849,72.8367816091954
250.3080109334432,820,74.98505747126435
251.05707167764234,754,78.28969882147534
251.796769162539,745,78.57518398586988
252.60200946255304,811,75.87518398586988
253.4353395404746,839,72.83720930232558
254.26866961839613,839,73.73493975903614
255.04582014050274,783,76.77291444258044
255.78551762539936,745,78.20148587115187
256.5720314068085,792,77.59595787682161
257.36790844752005,801,75.39519249560288
258.1731487475341,811,75.7015608260676
258.9502992696407,783,76.94251943173208
259.7087232731423,764,76.65703426733754
260.5233268324589,820,74.9220945083014
261.3566569103804,839,73.38893344025661
262.1618972103945,811,74.88598979013045
262.9296844731986,773,75.15871706285772
263.7536512918177,830,73.79403523305962
264.60570788834417,858,72.58246404758032
265.41094818835825,811,73.14694607717863
266.2161884883723,811,73.67441860465115
267.04951856629384,839,72.83720930232558
267.8828486442154,839,73.12941176470588
268.678725684927,801,74.86435152374202
269.45587620703355,783,75.7015608260676
270.26111650704763,811,74.04467653388919
271.1131731035742,858,72.86146091278408
271.9277766628907,820,74.72425161045851
272.67683740708986,754,76.98666389696717
273.45398792919644,783,77.27214906136172
274.2592282292105,811,74.57214906136173
275.09255830713204,839,74.265780730897
275.87907208854114,792,76.81318681318682
276.6094063141353,735,79.18355718355718
277.3678303176369,764,78.02771302771302
278.19179713625596,830,73.86048894744546
279.05321699208497,867,72.04184271500613
279.86782055140156,820,73.19768687085029
280.6543343328106,792,73.71362889983578
281.49702767003464,849,72.12964669738864
282.36781078516617,877,70.70107526881719
283.2011408630877,839,72.70268169452001
283.97829138519427,783,75.78372024684101
284.7460786479984,773,76.62092954916659
285.55131894801247,811,74.35851726265793
286.40337554453896,858,73.14694607717863
287.20861584455304,811,75.34771145839736
287.9483133294497,745,79.61544372612963
288.66928429574136,726,80.82701491160893
289.4370715585455,773,78.34076436599565
290.251675117862,820,74.07303209826338
291.1037317143886,858,72.0242516104585
291.9370617923101,839,73.20746723156361
292.71421231441667,783,74.86435152374202
293.5100893551283,801,74.33687899626949
294.3621459516548,858,71.56968117271722
295.23292906678626,877,70.99199354594238
296.04753262610285,820,73.88983644378527
296.80595662960445,764,76.65703426733754
297.5831071517111,783,76.65703426733754
298.3977107110276,820,74.28666389696718
299.23104078894914,839,74.60050462573591
299.99882805175326,773,77.08675517134918
300.73852553664995,745,79.13553565915406
301.506312799454,773,78.21616693605506
302.3021898401656,801,76.91313201154689
303.0793403622722,783,78.2489669083574
303.80967458786637,735,79.1683356314564
304.5774618506705,773,78.27060517474584
305.38270215068457,811,77.58598979013044
306.1317628948837,754,77.90757967269595
306.8901868983853,764,78.19978213507625
307.68606393909687,801,76.05150627300728
308.50066749841346,820,76.05150627300728
309.25909150191507,764,77.29246487867177
310.01751550541667,764,77.013468013468
310.8414823240357,830,74.9158249158249
311.6654491426548,830,74.91582491582491
312.42387314615644,764,76.37803740213377
313.201023668263,783,77.23472189411238
313.9969007089746,801,76.59929128277817
314.7740512310812,783,78.2489669083574
315.5043854566754,735,79.1683356314564
316.27217271947944,773,77.70612314514753
317.0961395380985,830,74.87323189846317
317.9107430974151,820,74.87323189846319
318.67853036021916,773,76.02907605430734
319.46504414162825,792,76.02907605430734
320.27964770094485,820,76.02907605430734
321.04743496374897,773,77.63847930928021
321.7871324486456,745,78.21616693605506
322.58300948935715,801,76.71911058618122
323.39761304867375,820,75.10970733120834
324.18412683008285,792,77.36491095111785
324.91446105567695,735,78.54812657222296
325.6916115777836,783,77.9567644459771
326.49685187779767,811,76.30708882039787
327.27400239990425,783,78.31240880162146
327.9949733661959,726,79.52397998710076
328.762760629,773,78.34076436599565
329.5773641883166,820,76.02907605430734
330.3638779697257,792,76.68029556650245
331.1129387139248,754,77.86351118760757
331.89008923603143,783,76.98666389696717
332.70469279534797,820,75.41607566167306
333.5005698360595,801,77.06575128725231
334.2309040616537,735,78.88439751969163
334.98932806515535,764,79.18355718355718
335.77584184656445,792,77.84772228674667
336.5436291093685,773,77.84772228674667
337.30205311287017,764,76.97087499610628
338.1166566721867,820,73.88983644378527
338.98743978731824,877,71.79219334614217
339.81140660593724,830,73.28924969601601
340.57919386874136,773,75.45091952523802
341.375070909453,801,75.45091952523802
342.199037728072,830,74.53155080213904
342.9949147687836,801,76.44011372097745
343.7346122536802,745,78.21616693605506
344.50239951648433,773,77.63847930928021
345.31700307580087,820,76.02907605430734
346.10351685720997,792,77.01827025004677
346.84321434210665,745,77.89511754068717
347.62972812351575,792,77.30375541444131
348.43496842352977,811,75.39519249560288
349.2308454642414,801,77.00459575057576
349.970542949138,745,78.21616693605506
350.7383302119421,773,77.92396447367476
351.5435705119562,811,76.31456121870188
352.3300842933653,792,76.965780730897
353.07914503756444,754,77.25798319327731
353.875022078276,801,76.38113590263691
354.68962563759254,820,75.72991639044179
355.45741290039666,773,78.34076436599565
356.17838386668836,726,80.48904022806461
356.9274446108875,754,79.86883116883116
357.71395839229655,792,78.1773519163763
358.48174565510067,773,79.58261507427105
359.19335336208985,716,81.19201832924392
359.9330508469865,745,80.57180927001048
360.7195646283956,792,77.30375541444131
361.52480492840965,811,76.31456121870188
362.29259219121377,773,77.58598979013044
363.0416529354129,754,78.1773519163763
363.828166716822,792,76.96578073089701
364.6334070168361,811,75.69435215946844
365.4199207982452,792,77.6503961155124
366.1502550238393,735,79.85116149673112
366.889952508736,745,81.1225900681597
367.6390132529351,754,81.47823442380404
368.35998421922676,726,83.70053371286247
369.04350214830845,688,83.70053371286247
369.7925628925076,754,80.79748327492831
370.59780319252167,811,76.66662106703146
371.3936802332333,801,76.66662106703146
372.14274097743237,754,76.95882352941176
372.938618018144,801,76.10213903743315
373.76258483676304,830,73.95386317536419
374.5771883960796,820,74.87323189846319
375.3449756588837,773,76.64928511354078
376.1127629216878,773,76.93477027793533
376.9180032217019,811,75.15871706285772
377.7419700403209,830,75.48030694542322
378.50039404382255,764,78.38335738335738
379.2213650101142,726,80.48100048100048
379.97978901361586,764,78.94783941295569
380.7850293136299,811,75.75930381062697
381.5996328729465,820,75.12387319929276
382.37678339505305,783,76.02160365600332
383.1539339171597,783,76.02160365600332
383.96853747647623,820,74.55939116969445
384.7925042950953,830,73.66166071298389
385.59774459510936,811,75.48030694542322
386.35616859861096,764,76.63615110126737
387.14268238002006,792,75.7989417989418
387.9760124579416,839,72.64596273291926
388.8374323137706,867,71.4901185770751
389.66139913238965,830,73.86048894744546
390.41982313589125,764,75.77250940780351
391.21570017660287,801,76.33699143740182
392.02094047661694,811,75.7015608260676
392.7980909987235,783,77.61012374490602
393.53778848362015,745,78.50785420161658
394.3149390057268,783,77.32463858051148
395.1295425650433,820,75.12387319929276
395.9347828650574,811,75.75930381062699
396.693206868559,764,78.24555435624025
397.4329043534557,745,79.45712554171955
398.2006916162598,773,78.21616693605506
398.99656865697136,801,76.91313201154689
399.77371917907794,783,78.60461126400176
400.49469014536965,726,80.85981488391127
401.22502437096375,735,81.49524549524548
401.9834483744654,764,79.80376624279063
402.75123563726953,773,80.15941059843499
403.4722066035612,726,81.17365561268
404.20254082915534,735,79.96208442720071
405.0077811291694,811,75.69435215946842
405.8598377256959,858,72.30973677485305
406.6931678036175,839,73.20746723156361
407.47031832572407,783,74.86435152374202
408.2661953664356,801,75.1370787964693
409.0901621850547,830,74.23934833975873
409.89540248506876,811,75.48030694542322
410.65382648857036,764,76.94251943173208
411.430977010677,783,77.23472189411238
412.22685405138856,801,74.86435152374202
413.0601841293101,839,73.96662106703145
413.86542442932415,811,74.265780730897
414.65193821073325,792,74.53850800362427
415.4759050293523,830,72.91869000564652
416.3373248851813,867,71.4901185770751
417.17065496310283,839,72.95233106338397
417.94780548520947,783,74.57214906136171
418.75304578522355,811,74.57214906136173
419.58637586314507,839,73.38893344025661
420.4009794224616,820,74.9220945083014
421.15940342596326,764,76.65703426733754
421.93655394806984,783,75.57783760193396
422.78861054459634,858,72.17520916704748
423.65939365972787,877,70.99199354594238
424.4739972190444,820,70.48720800889878
425.3447803341759,877,69.54008463011593
426.25301648651737,915,68.46088796471237
427.10507308304386,858,69.4931460292285
427.9384031609654,839,70.94505494505493
428.79045975749193,858,70.94505494505493
429.6425163540184,858,72.99383543285981
430.41030361682255,773,74.94987938890378
431.19681739823164,792,75.4773519163763
432.03014747615316,839,74.85714285714286
432.81666125756226,792,75.16351118760757
433.5938117796689,783,75.7152353255386
434.40841533898544,820,75.12387319929276
435.2136556389995,811,75.12387319929276
435.9908061611061,783,75.4093583636873
436.79604646112017,811,74.844876334089
437.6200132797392,830,75.15871706285773
438.38780054254335,773,76.69187813090251
439.14622454604495,764,77.84772228674667
439.93273832745405,792,76.92835356364768
440.7286153681656,801,77.59595787682161
441.4683128530623,745,77.29679821295606
442.26418989377385,801,75.90071978158352
443.1068832309979,849,71.83048703352308
443.97766634612935,877,71.25279940674824
444.79226990544595,820,73.25440583245104
445.56942042755253,783,74.83838803489822
446.38402398686907,820,74.83838803489822
447.19862754618566,820,75.47381864623244
447.95705154968726,764,78.30670989291679
448.6873857752814,735,80.12535612535612
449.44580977878303,764,78.88439751969163
450.24168681949465,801,76.92835356364768
451.02820060090374,792,77.9425985778927
451.75853482649785,735,78.54812657222296
452.5356853486045,783,77.39228241637879
453.35965216722354,830,74.55939116969445
454.1742557265401,820,75.5244514106583
454.9233164707392,754,76.98666389696717
455.7004669928458,783,77.27214906136172
456.5057072928599,811,74.04467653388919
457.3577638893864,858,73.73830820342448
458.1442776707955,792,74.32967032967034
458.9307914522046,792,75.4088669950739
459.74539501152117,820,73.45282303902994
460.59745160804766,858,72.57597574838954
461.4120551673642,820,74.07303209826338
462.1798424301683,773,75.15222876366694
462.9944459894849,820,74.33383795906923
463.8371393267089,849,72.01839080459769
464.6798326639329,849,72.89523809523808
465.466346445342,792,73.7136288998358
466.28095000465856,820,72.94803750198633
467.1517331197901,877,69.7694660734149
468.05060601282906,905,68.69026940801135
468.90266260935556,858,69.99525474525474
469.7266294279746,830,70.96264604960257
470.5880492838036,867,70.45786051255897
471.4588323989351,877,69.15287517531557
472.3296155140666,877,71.06489563567362
473.1254925547782,801,72.64887783812078
473.94009611409473,820,73.15366337516438
474.7921527106213,858,70.74765586577766
475.6722990850552,886,70.74765586577765
476.4869026443718,820,71.27512839325018
477.3202327222933,839,71.5194660734149
478.1910158374248,877,68.7636603028308
479.10861524906875,924,67.0136603028308
480.0074881421077,905,68.31864564007421
480.8314549607268,830,69.24613152804642
481.71160133516076,886,68.79204989539335
482.6292007468047,924,65.87932262266608
483.56552667705364,943,66.37330967169476
484.4269465328826,867,68.0499187768753
485.27900312940915,858,68.93991877687529
486.1778760224481,905,68.44593172784661
487.05802239688205,886,69.52512839325018
487.87262595619865,820,70.49251969759801
488.73404581202766,867,70.25332596859465
489.6235554457641,896,68.66934376614748
490.4943385608956,877,70.0036765997307
491.3089421202122,820,71.25279940674824
492.1516354574362,849,71.25279940674824
493.0224185725677,877,70.70107526881719
493.8557486504892,839,71.5194660734149
494.6703522098058,820,72.28505747126437
495.51304554702983,849,70.53505747126437
496.41191844006875,905,68.70673758865247
497.29206481450274,886,69.52512839325018
498.10666837381933,820,71.0084617265835
498.9493617110433,849,71.0084617265835
499.8295080854773,886,69.6741288930003
500.6909279413063,867,70.77800486199256
501.4961682413204,811,72.0546006066734
502.3294983192419,839,72.30973677485304
503.18155491576846,858,72.0242516104585
503.996158475085,820,74.39462198082887
504.7545824785866,764,76.05150627300728
505.5504595192982,801,75.23311546840958
506.39315285652225,849,72.86274509803921
507.22648293444377,839,73.46827309236947
508.00363345655035,783,75.16351118760757
508.79014723795945,792,75.43623846033483
509.6141140565785,830,72.66904063678257
510.48489717171,877,70.97380254154447
511.327590508934,849,72.74985575662208
512.0953777717382,773,74.91152558584409
512.8912548124497,801,75.45091952523802
513.7152216310687,830,73.40213903743316
514.5485517089903,839,74.0076670317634
515.3257022310969,783,75.78372024684101
516.0934894939011,773,76.05644751956828
516.91745631252,830,73.04491201585128
517.7976026869541,886,69.96387346353029
518.6683858020856,877,69.42447952413634
519.5110791393096,849,69.42447952413634
520.3912255137435,886,68.03249516441005
521.31818818469,933,66.31978038777775
522.2264243370314,915,67.5963761324586
523.059754414953,839,69.75395189003436
523.902447752177,849,70.45673758865247
524.782594126611,886,68.4773561453535
525.6908302789524,915,68.4773561453535
526.5335236161765,849,69.75395189003436
527.366853694098,839,70.70107526881719
528.2376368092295,877,68.98836049218491
529.145872961571,915,67.95610242766878
530.0166560767025,877,68.98836049218491
530.8499861546239,839,69.69114619080301
531.730132529058,886,68.97340425531914
532.629005422097,905,68.19079555966698
533.490425277926,867,70.5968030690537
534.2863023186375,801,72.3468030690537
535.119632396559,839,71.61362229102167
536.0091420302955,896,68.73421052631579
536.9080149233345,905,69.00693779904306
537.7319817419535,830,70.79545454545453
538.5559485605726,830,71.76284584980237
539.4173684164016,867,69.97432910339089
540.306878050138,896,69.17412930319108
541.1589346466645,858,69.69007133217659
542.0016279838886,849,69.92926506117993
542.8817743583226,886,68.4773561453535
543.790010510664,915,67.961414116368
544.6514303664931,867,69.23800986104885
545.4847604444145,839,69.46739130434783
546.3836333374535,905,67.19117647058823
547.3386857863075,962,66.40856777493606
548.2001056421365,867,68.15856777493606
549.0334357200579,839,70.95072463768116
549.876129057282,849,71.2058608058608
550.7281856538085,858,71.2058608058608
551.5615157317301,839,73.20746723156361
552.3386662538367,783,73.73493975903614
553.1719963317581,839,71.75555831573718
554.0802324840996,915,68.04123711340206
554.9884686364411,915,68.04123711340206
555.8217987143626,839,69.23800986104885
556.6832185701916,867,68.7931488801054
557.610181241138,933,66.36890645586298
558.5371439120845,933,66.62404262404263
559.389200508611,858,69.04828504828504
560.2225305865326,839,70.94505494505493
561.0745871830591,858,70.44026940801135
561.9453702981905,877,70.99199354594238
562.7599738575071,820,71.5194660734149
563.5933039354286,839,70.34764250527797
564.5109033470726,924,67.37167594310452
565.437866018019,933,66.58906724745233
566.299285873848,867,68.01054018445323
567.160705729677,867,68.91899313501145
568.0502153634135,896,68.42500608598276
568.9303617378474,886,69.75933891956596
569.744965297164,820,72.11233769557576
570.5502055971781,811,72.86146091278408
571.4022621937046,858,70.55973677485305
572.3011350867436,905,68.44593172784661
573.1812814611775,886,67.45761478163493
574.0707910949141,896,66.56761478163493
575.007117025163,943,64.58207460398569
575.9715327333193,971,63.673621653427475
576.8984954042658,933,66.31362165342748
577.7318254821873,839,69.84848484848484
578.5557923008063,830,71.4901185770751
579.4172121566353,867,69.7401185770751
580.3160850496743,905,69.7401185770751
581.1400518682933,830,69.99525474525473
581.9921084648198,858,70.22946527157052
582.8816180985564,896,69.69007133217659
583.7243114357804,849,71.05475316197469
584.5295517357944,811,72.30387596899223
585.3722450730185,849,72.04307010818638
586.224301669545,858,71.75758494379183
587.0389052288615,820,73.75919136949464
587.8160557509681,783,75.12387319929276
588.6212960509822,811,73.0563595876775
589.5108056847187,896,69.11733819598831
590.4284050963626,924,68.01346222699604
591.2710984335866,849,68.25265595599942
592.1512448080206,886,68.25265595599942
593.0688442196646,924,66.09508019842366
593.995806890611,933,66.84420341563198
594.8478634871375,858,69.04828504828504
595.6811935650591,839,69.95673799884325
596.5707031987955,896,68.96842105263157
597.460212832532,896,68.7017543859649
598.302906169756,849,72.26632434745399
599.0706934325601,773,74.61932312346379
599.8759337325741,811,73.60939404544959
600.7560801070082,886,69.81061355764473
601.6549530000472,905,68.44593172784661
602.5070095965737,858,69.4558608058608
603.3497029337976,849,69.92926506117993
604.2298493082317,886,69.92926506117993
605.0819059047582,858,70.74765586577765
605.8965094640747,820,71.24164291480633
606.7579293199037,867,69.7897339989799
607.6661654722452,915,68.20575179653272
608.5369485873766,877,69.26108776491218
609.3609154059957,830,70.45786051255897
610.2223352618247,867,69.51073713377613
611.1305714141662,915,66.59800986104887
612.0668973444151,943,66.3483604921849
612.9376804595466,877,68.8794660734149
613.7522840188632,820,70.73685737776273
614.6137038746922,867,70.01911544227886
615.5125767677312,905,67.26330967169477
616.430176179375,924,67.77925170068026
617.272869516599,849,69.52925170068026
618.1061995945206,839,70.21754385964911
618.995709228257,896,68.28012889366272
619.9133086399011,924,66.30074745036376
620.8215447922424,915,67.28906439657544
621.673601388769,858,67.97735655554428
622.5631110225055,896,67.53249557460083
623.4900736934519,933,65.41996810207337
624.4263996237008,943,65.65916183107672
625.3065459981348,886,68.08340425531915
626.1398760760563,839,69.20761478163493
627.0293857097928,896,68.28012889366272
627.9469851214368,924,66.76433941997851
628.8364947551732,896,69.4095406583686
629.6323717958848,801,71.34695562435499
630.4750651331088,849,71.11274509803921
631.3739380261478,905,67.55909090909091
632.3009006970942,933,67.55909090909091
633.1435940343182,849,69.30909090909091
633.9769241122398,839,70.70107526881719
634.8477072273713,877,68.7636603028308
635.7653066390152,924,67.73140223831467
636.6360897541467,877,68.7636603028308
637.4694198320682,839,69.21774193548387
638.3682927251072,905,67.82575757575758
639.2952553960537,933,67.29828504828504
640.1473119925802,858,68.01602698376891
641.0180951077116,877,68.46088796471237
641.9263312600531,915,68.20575179653272
642.7877511158821,867,68.4554011653967
643.6491709717111,867,68.4554011653967
644.5574071240526,915,66.81376743680644
645.484369794999,933,64.53755260304683
646.4394222438528,962,65.00114457266159
647.3289318775893,896,66.14879125222316
648.2090782520233,886,67.22823333833597
649.1173144043647,915,66.10402281202018
650.0536403346136,943,64.95637613245862
650.9806030055602,933,66.1531488801054
651.8420228613892,867,68.26567635263288
652.6940794579157,858,68.48583714422223
653.6116788695596,924,67.06436420722133
654.5292782812036,924,66.07604726100965
655.41878791494,896,68.01346222699604
656.261481252164,849,69.18528579513298
657.1322643672955,877,68.72169382551823
658.0405005196369,915,68.20575179653272
658.9019203754659,867,69.23800986104885
659.7352504533875,839,69.46739130434783
660.6341233464265,905,66.21261682242991
661.6359920917928,1009,62.950480900099805
662.6004077999492,971,64.7004809000998
663.4337378778707,839,71.10823444804026
664.1921618813724,764,75.49978213507625
664.9880389220839,801,73.07553971083382
665.9150015930304,933,67.44303341813335
666.8794173011868,971,63.673621653427475
667.8157432314357,943,64.3478640776699
668.7146161244747,905,64.75851485148515
669.660305314026,952,64.13637892915504
670.6247210221824,971,64.13637892915504
671.5235939152213,905,65.47207460398567
672.4131035489579,896,66.30996810207336
673.3400662199043,933,65.2084829535585
674.2857554094556,952,65.94166373159055
675.1471752652847,867,67.5832974601808
676.0085951211137,867,68.91899313501145
676.8981047548501,896,68.1858123569794
677.7876143885867,896,69.80563035495715
678.5928546886007,811,71.0547531619747
679.4355480258247,849,71.29394689097805
680.3156944002587,886,68.70673758865247
681.2145672932977,905,69.24613152804642
682.0385341119168,830,69.99525474525473
682.8905907084433,858,69.99525474525474
683.7894636014822,905,67.29828504828504
684.7164262724286,933,66.54916183107673
685.5965726468626,886,67.51655313542454
686.4579925026916,867,67.961414116368
687.3662286550331,915,66.59800986104887
688.302554585282,943,64.95637613245862
689.2295172562284,933,66.40828504828505
690.0815738527549,858,68.26567635263288
690.9429937085839,867,69.65766071235916
691.8137768237154,877,68.4351332398317
692.7126497167544,905,68.95107526881719
693.5553430539784,849,69.4558608058608
694.4073996505049,858,68.35437565734594
695.3530888400563,952,65.76955717549777
696.2987780296078,952,64.78124022928608
697.1882876633442,896,66.35612963312008
698.0684340377782,886,67.45761478163493
698.9673069308171,905,67.22340425531914
699.8661798238561,905,68.5
700.6995099017777,839,70.25
701.5328399796992,839,72.0
702.3661700576207,839,71.47252747252747
703.2182266541472,858,71.47252747252747
704.0515567320688,839,72.90109890109889
704.8380705134779,792,72.90109890109889
705.6901271100044,858,69.24395604395605
706.6732693367658,990,64.35384615384615
707.6470483042247,981,63.60472293663782
708.5271946786586,886,63.80032733224221
709.5009736461175,981,63.412809190007096
710.4934791321814,999,62.26516251044552
711.4204418031278,933,65.72670097198399
712.2537718810493,839,69.04828504828504
713.1058284775759,858,70.19593172784661
713.9859748520098,886,68.6801422541624
714.8754844857463,896,69.4803420543622
715.6994513043653,830,70.75693779904306
716.5327813822869,839,70.75693779904304
717.4222910160233,896,67.84421052631578
718.3586169462723,943,66.56761478163493
719.2387633207062,886,67.55593172784661
720.0908199172327,858,68.21655028454765
720.9990560695742,915,67.28906439657544
721.9166554812182,924,67.28906439657544
722.7687120777447,858,68.74097331240188
723.6207686742712,858,70.16244624940276
724.4821885301002,867,70.16244624940276
725.3342451266267,858,72.42485853591144
726.1113956487333,783,73.20746723156361
726.9447257266548,839,71.09493975903614
727.8810516569038,943,66.0978640776699
728.8454673650601,971,64.58207460398569
729.7349769987966,896,64.58207460398569
730.6713029290455,943,64.99272537780092
731.616992118597,952,64.52913340818617
732.5252282709383,915,67.44186068091345
733.3491950895574,830,69.01675008474746
734.2293414639914,886,67.73399560571632
735.1937571721478,971,63.80412547584619
736.1768993989092,990,63.804125475846185
737.0570457733431,886,64.64201897393386
737.9840084442895,933,65.24033830166496
738.9390608931435,962,63.05539558480734
739.9128398606024,981,64.95216548157723
740.7648964571289,858,66.260989010989
741.6637693501679,905,68.20673799884325
742.5532789839043,896,67.9516018306636
743.4146988397333,867,71.13017325923505
744.2012126211424,792,72.91869000564652
745.0251794397615,830,70.64247517188693
745.9802318886153,962,65.9517678209854
746.9446475967717,971,64.646782483742
747.8154307119032,877,65.28136358891135
748.7423933828496,933,65.48467598182968
749.6974458317035,962,63.05539558480734
750.6712247991624,981,65.2129713423831
751.5139181363865,849,67.48918617614268
752.3753379922155,867,68.52648221343873
753.3023006631619,933,65.33161041856694
754.2760796306208,981,63.47421911421911
755.2124055608697,943,65.11585284280936
756.0738254166987,867,65.72590615583297
757.01951460625,952,64.9043676942945
757.9932935737089,981,62.424840467616576
758.9577092818653,971,64.2440675516153
759.8284923969968,877,65.50152438050071
760.7460918086408,924,65.70483677341903
761.7011442574947,962,63.47495891560507
762.665559965651,971,65.15156802078559
763.5176165621775,858,66.93379580551652
764.3977629366116,886,68.91933598316575
765.2779093110455,886,68.91933598316575
766.129965907572,858,71.93087148688275
766.9071164296787,783,73.48019450429088
767.7310832482976,830,72.02828558846444
768.6393194006391,915,67.86910340518588
769.5662820715855,933,67.06890360498608
770.418338668112,858,66.62404262404263
771.3453013390586,933,65.78614912595495
772.3097170472149,971,64.56362165342748
773.2085899402539,905,66.72119741100323
774.0512832774779,849,69.71666666666665
774.893976614702,849,69.48728522336768
775.8022127670433,915,70.02667916276162
776.6261795856624,830,70.2933458294283
777.459509663584,839,70.75693779904304
778.3490192973204,896,67.63272537780094
779.2947084868719,952,67.1052528503284
780.1467650833983,858,67.83843362836043
781.0081849392274,867,69.17412930319108
781.8976945729638,896,68.1858123569794
782.7872042067003,896,68.7017543859649
783.6298975439244,849,69.95087719298243
784.4725908811483,849,68.82666666666665
785.4089168113973,943,65.63179487179485
786.3826957788561,981,64.14846153846153
787.2815686718951,905,64.58437990580848
788.199168083539,924,65.62167594310452
789.1261307544854,933,64.94743351886208
790.0530934254319,933,66.62404262404263
790.9051500219584,858,67.77168930360419
791.7852963963924,886,67.77168930360419
792.7122590673388,933,66.09508019842366
793.6298584789828,924,67.10500927643784
794.4725518162068,849,70.36646100300584
795.2777921162209,811,72.04307010818638
796.1298487127474,858,68.27235359728294
797.1317174581137,1009,64.58365914644251
798.0774066476652,952,60.7074619491444
799.0980019116364,1028,59.31875817019276
800.1747767314226,1084,57.413486561950855
801.214098513999,1047,58.965671138206645
802.1597877035504,952,61.967515670485966
803.0867503744968,933,64.3000300030003
804.0137130454433,933,64.51151515151516
804.9500389756922,943,66.1531488801054
805.8114588315211,867,68.31072463768115
806.6541521687452,849,68.52648221343873
807.5811148396916,933,65.84755244755243
808.5548938071505,981,63.47421911421911
809.4912197373994,943,63.47421911421911
810.4181824083458,933,63.47421911421911
811.3919613758047,981,62.85208319188901
812.3563770839611,971,63.760536142447215
813.2458867176975,896,66.18981653946956
814.1166698328291,877,68.1753567171188
814.996816207263,886,67.2669037665606
815.9237788782095,933,66.31978038777775
816.8320150305509,915,66.81376743680644
817.6934348863799,867,66.81376743680644
818.6203975573263,933,65.94166373159055
819.5660867468778,952,63.87278727872787
820.5117759364292,952,66.29702970297029
821.3451060143507,839,68.11625678696902
822.2158891294822,877,68.7636603028308
823.1334885411261,924,66.12366030283081
824.069814471375,943,66.88925170068026
824.9125078085991,849,67.11395189003436
825.8207439609406,915,66.29241342849589
826.7945229283994,981,64.13483767092015
827.7214855993459,933,65.08196104970298
828.5922687144773,877,84.099055066797
829.0978847168118,509,107.02329749103943
829.5473211633313,452,104.3984126984127
830.5304633900926,990,87.09285714285714
831.4293362831315,905,65.07706766917292
832.318845916868,896,65.67538699690402
833.273898365722,962,63.96384853536555
834.2476773331808,981,62.420814479638
835.2027297820347,962,64.44737994453364
836.0735128971662,877,65.2689184060721
837.0098388274151,943,65.47625678696902
837.9555280169665,952,65.9810423240126
838.8075846134931,858,66.64166088071364
839.7158207658345,915,67.06890360498608
840.642783436781,933,65.61699468915964
841.5510195891223,915,67.86910340518588
842.3749864077414,830,69.26108776491218
843.2457695228729,877,68.81622678396872
844.1727321938193,933,65.6920143627266
845.1184213833708,952,64.97427242724272
846.0172942764098,905,67.13184818481847
846.8599876136337,849,68.95107526881719
847.7307707287653,877,69.18528579513298
848.6202803625017,896,69.72467973452693
849.4442471811208,830,71.59414710136863
850.2494874811348,811,72.32732787940068
851.1109073369638,867,71.27199191102123
851.9723271927928,867,71.56419437340153
852.7682042335044,801,75.04680306905371
853.5172649777036,754,76.38113590263691
854.3318685370201,820,73.27234269463207
855.2401046893616,915,69.29574694995122
856.1202510637955,886,68.4773561453535
856.9629444010195,849,68.03249516441005
857.889907071966,933,66.45760576057606
858.8355962615174,952,64.3000300030003
859.7625589324638,933,66.19679989977018
860.6146155289904,858,69.60000918621608
861.4292190883069,820,72.29697888318577
862.253185906926,830,71.54785566597745
863.1333322813599,886,71.26885880077369
863.957299099979,830,71.26885880077369
864.781265918598,830,70.12121212121212
865.7082285895444,933,67.20848484848484
866.6445545197934,943,66.40828504828505
867.4966111163199,858,68.5658608058608
868.339304453544,849,70.17360274134467
869.2100875686754,877,68.95107526881719
870.1089604617143,905,68.4351332398317
870.9703803175433,867,69.46739130434783
871.8037103954649,839,84.04497751124438
872.3467794350092,547,75.55862068965517
873.7044520338702,962,71.90147783251231
874.6875942606316,405,57.797295880934904
875.5677406350655,990,67.33898867090356
876.3917074536846,886,95.54158607350095
876.8036908629941,830,118.2649903288201
877.2437640502111,858,116.47647358240863
878.1332736839476,896,89.726937404301
879.0508730955916,924,67.7526563661902
879.902929692118,858,67.7526563661902
880.7924393258545,896,66.89791446943148
881.7474917747085,962,63.38800381933392
882.7493605200748,1009,62.47955086877571
883.6763231910212,933,62.27623847585738
884.6407388991776,971,61.90995192865683
885.6613341631489,1028,60.6770514957564
886.6444763899102,990,61.95980597478753
887.5527125422517,915,67.49288746426406
888.3485895829633,801,70.88336365474024
889.1912829201873,849,70.22274509803921
890.1276088504362,943,67.11395189003436
891.0358450027777,915,66.59800986104887
891.8972648586067,867,65.97587393871876
892.8616805667631,971,64.29811252487487
893.8448227935245,990,62.876639587873974
894.7624222051684,924,62.87663958787398
895.7268379133247,971,64.10954002077442
896.6538005842712,933,64.1095400207744
897.5713999959152,924,67.64440321583179
898.3953668145342,830,70.34137291280148
899.2193336331533,830,72.27878787878787
900.0620269703772,849,70.49027113237639
900.9515366041137,896,70.21754385964911
901.7848666820353,839,70.75693779904306
902.6088335006543,830,70.52272727272727
903.5077063936933,905,67.88272727272727
904.4440323239422,943,66.57774193548387
905.3148154390736,877,67.29548387096774
906.1855985542052,877,68.18548387096774
907.0844714472441,905,67.0136603028308
908.002070858888,924,67.5184458398744
908.8541274554145,858,70.10565514219998
909.6593677554287,811,72.58246404758032
910.4833345740477,830,110.13850800362427
910.8110486496348,830,125.60318549375151
911.3073013926668,773,127.37923870882912
912.0750886554708,745,93.38864196380202
912.8147861403675,830,77.35948244407645
913.6387529589865,886,74.03410621159071
914.5188993334206,877,69.96387346353029
915.389682448552,858,69.16367366333048
916.2417390450786,915,68.46088796471237
917.14997519742,915,67.51376458592952
918.0582113497615,830,68.31396438612933
918.8821781683805,858,69.76587330195576
919.734234764907,877,70.71299668073861
920.6050178800385,830,70.71299668073861
921.4289846986576,811,72.07767851053671
922.2342249986716,830,73.38266384778012
923.0581918172907,820,73.66166071298389
923.8727953766072,792,74.25302283922974
924.6593091580163,839,73.98029556650246
925.4926392359379,830,73.7012987012987
926.3166060545569,792,73.7012987012987
927.103119835966,858,73.17382617382617
927.9551764324925,839,72.90109890109889
928.7885065104141,801,72.60193923723335
929.5843835511256,830,73.40213903743314
930.4083503697447,839,73.40213903743316
931.2416804476662,764,74.64309764309763
932.0001044511679,801,75.49978213507625
932.7959814918794,839,75.49978213507625
933.629311569801,886,71.85281602002502
934.5094579442349,830,70.99613152804642
935.333424762854,839,70.99613152804642
936.1667548407755,905,70.52272727272727
937.0656277338145,933,67.82575757575758
937.9925904047609,896,66.30996810207336
938.8821000384974,830,68.33269537480064
939.7060668571164,858,70.22946527157052
940.5581234536429,886,70.4686590005739
941.438269828077,886,68.91933598316575
942.3184162025109,820,69.99853264856932
943.1330197618274,830,71.54785566597745
943.9569865804465,896,71.30866193697409
944.8464962141829,971,67.49480187671296
945.8109119223394,943,64.58207460398569
946.7472378525883,867,65.31525538201772
947.6086577084172,858,68.0499187768753
948.4607143049438,905,68.93991877687529
949.3595871979828,924,67.5184458398744
950.2771866096267,933,65.62167594310452
951.2041492805731,858,66.84420341563198
952.0562058770996,896,67.53249557460083
952.9457155108361,952,67.1052528503284
953.8914047003875,952,64.78124022928608
954.837093889939,896,64.78124022928608
955.7266035236754,830,67.9054526505282
956.5505703422945,867,69.97432910339089
957.4119901981235,858,70.96264604960257
958.26404679465,905,68.93991877687529
959.1629196876889,896,68.20673799884325
960.0524293214254,830,69.00693779904306
960.8763961400444,896,69.24114832535884
961.7659057737809,952,67.9054526505282
962.7115949633323,943,64.99272537780092
963.6479208935813,886,65.2319191068043
964.5280672680152,952,65.2319191068043
965.4737564575667,981,64.41038064526583
966.4475354250255,915,63.70759494664771
967.355771577367,858,66.03160756769003
968.2078281738935,905,67.7431460292285
969.1067010669325,962,66.6637039431157
970.0617535157863,971,63.92904054825813
971.0261692239427,886,64.40244480357728
971.9063155983768,952,64.6097831844742
972.8520047879281,981,64.41038064526583
973.825783755387,962,62.62815286053491
974.7808362042409,877,64.44737994453364
975.6516193193723,849,67.64225173940542
976.4943126565964,933,68.27683284457478
977.4212753275428,981,65.84755244755243
978.3950542950017,971,62.85208319188901
979.3594700031581,849,65.00965894946475
980.2021633403821,858,67.9437248835307
981.0542199369087,933,68.78161838161837
981.9811826078551,1028,64.6446153235144
983.0017778718263,943,62.53208785098693
983.9381038020753,905,63.206330275229355
984.8369766951142,981,64.14846153846153
985.8107556625731,981,63.326923076923066
986.784534630032,896,63.56113360323885
987.6740442637685,971,63.76053614244722
988.6384599719248,1028,62.818404879215045
989.6590552358962,943,61.69419435289926
990.5953811661451,990,61.2991874180865
991.5785233929065,1009,61.66547396528704
992.5803921382728,999,60.45641736151346
993.5728976243366,943,61.47356021865632
994.5092235545856,999,61.66188679245282
995.5017290406495,1018,61.28872117400419
996.5129610453183,1028,59.52505144923355
997.5335563092896,990,59.716965195864276
998.516698536051,962,60.88036388867473
999.4717509849048,971,62.02189769111527
1000.4361666930612,933,63.25479812401571
1001.3631293640077,867,65.5310129577753
1002.2245492198367,877,67.76089081558928
1003.0953323349681,1075,64.92197534509486
1004.162743895452,1075,60.44142614601019
1005.2301554559357,952,58.62219906201146
1006.1758446454871,1018,59.66313473452608
1007.187076650156,1028,60.52262290449228
1008.2076719141272,981,59.91256959146867
1009.1814508815861,1018,59.91256959146867
1010.1926828862549,1028,59.91256959146867
1011.2132781502263,1018,59.15188583078491
1012.2245101548951,962,60.315284523595366
1013.179562603749,943,62.07895424836601
1014.1158885339979,962,63.24235294117646
1015.0709409828518,933,63.87693404634581
1015.9979036537983,886,65.24033830166496
1016.8780500282322,896,66.78337235739251
1017.7675596619687,990,65.55047192449207
1018.7507018887301,1047,62.07031091241617
1019.7900236713064,933,61.16185796185796
1020.7169863422528,905,63.06900081900082
1021.6158592352917,943,65.18575757575758
1022.5521851655407,933,65.18575757575758
1023.4791478364871,858,66.40828504828505
1024.3312044330137,962,65.98946151887327
1025.2862568818675,990,64.75656108597283
1026.269399108629,943,62.64403361344537
1027.2057250388777,867,64.92024844720497
1028.0671448947069,971,65.31525538201772
1029.0315606028632,1037,63.37343720019954
1030.061519126137,1018,59.9338236736295
1031.0727511308057,877,62.163701531443465
1031.9435342459374,915,64.76613826996268
1032.8517703982789,981,65.52682203064643
1033.8255493657377,990,62.901937238019705
1034.808691592499,896,63.36552920763446
1035.6982012262354,962,63.76824413976116
1036.6532536750894,999,63.57633039313043
1037.6457591611531,971,61.82998394448454
1038.6101748693095,877,63.856549409380186
1039.4809579844411,924,65.50152438050071
1040.3985573960852,962,65.70483677341903
1041.353609844939,971,63.47495891560507
1042.3180255530954,886,64.40244480357728
1043.1981719275293,905,65.71126833298905
1044.0970448205683,981,65.51186579378069
1045.0708237880272,1018,62.56623931623931
1046.0820557926959,924,62.11215768358625
1046.99965520434,886,64.29710040044387
1047.8798015787738,877,67.48706455814995
1048.7505846939055,867,68.90853749515085
1049.6120045497344,820,70.73685737776273
1050.426608109051,792,73.19768687085029
1051.2131218904601,905,72.23029556650246
1052.111994783499,971,68.41643550624133
1053.0764104916555,943,64.3478640776699
1054.0127364219043,877,65.06560601315377
1054.883519537036,971,65.06560601315377
1055.8479352451923,971,64.44347009082367
1056.8123509533486,924,63.27164652268674
1057.7299503649924,830,66.8065097177441
1058.5539171836115,877,69.03638757555808
1059.4247002987431,943,68.60046920821114
1060.361026228992,981,64.8662034739454
1061.3348051964508,896,64.38267206477732
1062.2243148301873,896,65.5068825910931
1063.1138244639237,943,66.32842105263157
1064.0501503941728,971,64.58207460398569
1065.0145661023291,915,64.11848263437093
1065.9228022546706,915,64.77910119107196
1066.831038407012,933,65.61699468915964
1067.7580010779584,943,64.95637613245862
1068.6943270082074,896,65.41996810207337
1069.583836641944,792,69.27278195488722
1070.3703504233529,792,73.34135338345865
1071.156864204762,905,73.10714285714286
1072.055737097801,896,70.16278195488721
1072.9452467315375,830,69.00693779904306
1073.7692135501566,933,68.33269537480064
1074.6961762211029,1018,65.62626262626262
1075.7074082257718,999,61.50447874976177
1076.6999137118355,915,61.949339730705226
1077.608149864177,896,64.65577247924324
1078.4976594979134,981,65.04329062147835
1079.4714384653723,1056,62.09410063620589
1080.5201235072511,990,59.952747252747244
1081.5032657340125,905,61.66428571428571
1082.4021386270515,971,63.33072122052704
1083.3665543352079,990,63.33072122052704
1084.3496965619693,1009,61.04333804295694
1085.3515653073357,933,61.88123154104462
1086.278527978282,1009,61.50099122061738
1087.2803967236484,1075,60.275216503450636
1088.347808284132,1075,57.436301032956216
1089.4152198446159,943,58.833684210526314
1090.351545774865,933,61.672599681020735
1091.2785084458112,981,63.47421911421911
1092.25228741327,1009,62.07683593664901
1093.2541561586365,990,60.843935503748575
1094.237298385398,877,63.273215900770914
1095.1080815005294,886,66.03400333366017
1095.9882278749633,962,66.63232266139124
1096.9432803238171,1047,62.90782396915062
1097.9826021063934,981,60.72288125229301
1098.9563810738523,905,62.031704781704775
1099.8552539668913,999,62.93940493468794
1100.8477594529552,999,62.55188679245282
1101.840264939019,999,60.45283018867924
1102.8327704250828,849,64.03522012578615
1103.675463762307,811,68.72148603188532
1104.480704062321,867,71.78793394000674
1105.34212391815,962,68.99577707726164
1106.2971763670039,905,66.40856777493606
1107.1960492600429,971,63.92904054825813
1108.1604649681992,1047,62.23110732091314
1109.1997867507755,1066,58.883762188169776
1110.2578350519568,962,59.08707458108811
1111.2128875008107,896,62.32804186416065
1112.1023971345471,924,65.22130536425095
1113.0199965461911,933,65.8558864694203
1113.9469592171376,877,66.33941787858839
1114.817742332269,858,68.01602698376891
1115.6697989287954,952,67.58878425949649
1116.615488118347,999,64.77198572023903
1117.607993604411,952,62.4479730991967
1118.5536827939623,830,65.57218552043882
1119.3776496125813,849,69.15457545754575
1120.2203429498054,943,69.3660606060606
1121.1566688800542,924,66.88925170068026
1122.0742682916982,877,66.12366030283081
1122.9450514068296,962,65.70483677341903
1123.9001038556835,1047,63.152161649315346
1124.9394256382598,962,61.125596184419706
1125.8944780871138,933,61.76017728958905
1126.8214407580601,990,62.85979118920295
1127.8045829848215,1018,61.6963924963925
1128.8158149894903,981,60.65909645909645
1129.7895939569491,877,63.28398125172318
1130.6603770720808,943,64.8662034739454
1131.5967030023296,999,64.47868533171028
1132.5892084883935,1028,61.107273671455765
1133.6098037523648,915,61.7678922281568
1134.5180399047063,830,65.88967610465765
1135.3420067233253,886,69.01675008474746
1136.2221530977592,971,67.73399560571632
1137.1865688059156,915,65.48188688969009
1138.094804958257,830,67.0312099070982
1138.9187717768762,990,66.63620297228545
1139.9019140036376,1056,63.68701298701298
1140.9505990455164,1037,58.832467532467525
1141.9805575687901,952,59.63812524109553
1142.9262467583414,886,63.290100924986106
1143.8063931327756,915,65.89253766350532
1144.7146292851169,915,66.76464136872121
1145.6228654374584,858,67.51376458592952
1146.474922033985,915,67.51376458592952
1147.3831581863265,971,66.2310101068984
1148.3475738944828,886,65.48188688969009
1149.2277202689168,933,65.03702590874663
1150.1546829398633,990,64.64201897393386
1151.1378251666245,990,62.26147186147186
1152.1209673933859,896,63.16992481203007
1153.0104770271223,924,64.62298603651986
1153.9280764387663,971,65.01799297133262
1154.8924921469227,952,63.682297296501986
1155.8381813364742,858,65.3589064016825
1156.6902379330006,905,66.87104232401262
1157.5891108260396,962,66.6637039431157
1158.5441632748934,971,63.92904054825813
1159.5085789830498,905,63.92904054825813
1160.4074518760888,858,66.46039155019736
1161.2595084726154,575,80.73892091515042
1161.8306672900671,1330,89.00320662943612
1162.4860954412413,962,95.61518619916218
1163.1508868517183,924,81.53996922712746
1164.1059393005721,820,72.8216018801887
1165.0235387122161,858,67.2888189758662
1165.8381422715327,971,69.82016997780545
1166.690198868059,962,68.7621156881284
1167.6546145762154,896,65.1515680207856
1168.6096670250693,1009,64.1632510745739
1169.499176658806,1056,63.38800381933392
1170.5010454041721,1018,61.518255920174255
1171.549730446051,915,58.81182317163625
1172.56096245072,981,60.86982490590738
1173.4691986030612,1009,62.33685787294034
1174.44297757052,999,62.521696917592465
1175.4448463158865,924,60.65202175711785
1176.4373518019504,877,61.90947858600325
1177.3549512135942,933,64.91460369905722
1178.2257343287258,933,66.33941787858839
1179.1526969996721,905,66.11925708699903
1180.0796596706186,886,65.40151515151516
1180.9785325636576,990,66.54916183107673
1181.8586789380915,1009,65.3162613981763
1182.841821164853,1028,63.02887822060619
1183.8436899102192,924,59.9018042405164
1184.8642851741906,886,61.35486546500619
1185.7818845858346,952,64.11565289789544
1186.6620309602686,971,65.66783747415123
1187.60772014982,886,64.6097831844742
1188.5721358579763,952,64.6097831844742
1189.4522822324102,999,64.6097831844742
1190.3979714219618,1009,64.02286250303071
1191.3904769080254,971,61.26207507014146
1192.3923456533919,867,60.851424296326215
1193.3567613615483,915,63.91787220444763
1194.2181812173774,990,65.97587393871876
1195.1264173697186,999,65.58086700390601
1196.10955959648,943,62.51441909578459
1197.102065082544,905,61.85380053908355
1198.0383910127928,962,63.76094339622641
1198.9372639058317,990,64.55117647058823
1199.8923163546858,962,63.534033613445374
1200.875458581447,867,62.225210084033606
1201.830511030301,886,64.5014249177932
1202.69193088613,943,66.88197203025521
1203.572077260564,971,67.30079555966697
1204.508403190813,933,64.82126833298905
1205.4728188989693,858,63.673621653427475
1206.3997815699156,867,65.78614912595495
1207.2518381664422,933,68.26567635263288
1208.113258022271,990,68.26567635263288
1209.0402206932176,971,65.13600602296255
1210.023362919979,867,62.65647879628462
1210.9877786281354,924,64.29811252487487
1211.8491984839643,981,65.75117374936465
1212.7667978956083,999,65.55177121015629
1213.7405768630672,924,62.485323302034885
1214.733082349131,801,62.48532330203488
1215.650681760775,820,67.07627352827923
1216.4465588014866,905,71.47705426998385
1217.2611623608032,990,71.93113590263692
1218.1600352538421,877,67.14458128078817
1219.1431774806035,886,65.56059907834101
1220.013960595735,981,66.03400333366017
1220.8941069701689,1018,66.22960772926456
1221.8678859376278,962,63.03964357155846
1222.8791179422967,867,61.25741578682754
1223.8341703911506,933,63.93634555271384
1224.6955902469795,971,65.73432535069364
1225.622552917926,886,65.5310129577753
1226.5869686260824,801,65.03702590874661
1227.4671150005163,858,68.59068009769493
1228.262992041228,990,71.32534349255249
1229.1150486377544,971,68.9447963800905
1230.0981908645158,905,64.55324869305451
1231.0626065726722,981,63.33072122052704
1231.9614794657111,1028,63.52632561613143
1232.93525843317,933,62.38479181369089
1233.9558536971413,915,61.71054938944847
1234.8828163680878,952,63.192706407687965
1235.7910525204293,971,64.74489098394375
1236.7367417099806,849,63.90699748585608
1237.701157418137,830,65.61971226248838
1238.543850755361,849,68.7439246837305
1239.3678175739801,811,71.73939393939392
1240.2105109112042,783,72.84326990838618
1241.0157512112182,933,74.30548239469505
1241.7929017333247,1066,72.14790663711929
1242.7198644042712,1047,66.21335220205034
1243.7779127054525,952,59.721655686257456
1244.8172344880288,1018,59.294412961985024
1245.7629236775801,1047,60.16953587250617
1246.774155682249,1009,60.16953587250617
1247.8134774648254,924,58.98363784345092
1248.8153462101916,981,61.00177843302008
1249.7329456218356,1018,62.29699672823837
1250.7067245892945,943,62.11215768358625
1251.7179565939632,924,61.67623931623931
1252.6542825242122,990,62.93369614512471
1253.5718819358563,1047,63.49877551020408
1254.5550241626174,990,61.38201875344732
1255.594345945194,971,59.928957528957525
1256.577488171955,867,60.32396446377028
1257.5419038801115,849,64.29811252487487
1258.4033237359406,943,67.68858871535105
1259.2460170731647,924,68.31072463768115
1260.1823430034135,849,66.88925170068026
1261.0999424150575,924,66.88925170068026
1261.9426357522816,990,67.3251700680272
1262.8602351639254,962,65.8721088435374
1263.8433773906868,849,63.07995198079231
1264.7984298395406,830,65.01736694677871
1265.6411231767647,924,68.94723707664883
1266.4650899953838,990,69.80197897340753
1267.3826894070278,905,66.41150278293135
1268.3658316337892,999,64.38877551020408
1269.264704526828,1028,62.74380053908355
1270.2572100128918,952,61.997273671455766
1271.2778052768633,849,60.89578852294092
1272.2234944664146,915,64.47817846004783
1273.0661878036387,971,66.9024667415195
1273.97442395598,981,66.49181596770426
1274.9388396641364,858,63.29694417283247
1275.9126186315953,896,64.7488530886589
1276.7646752281219,981,66.49519953730479
1277.6541848618583,1037,66.49519953730479
1278.6279638293172,962,62.44085388295913
1279.657922352591,905,60.89781982723158
1280.6129748014448,971,62.609358288770046
1281.5118476944838,962,63.92904054825813
1282.4762634026404,943,63.92904054825813
1283.4313158514942,858,63.03904054825813
1284.367641781743,896,65.77370394311569
1285.2196983782696,999,67.31673799884325
1286.109208012006,1047,66.10768139506966
1287.10171349807,981,61.878397165785444
1288.1410352806463,962,59.932648177931185
1289.1148142481052,1028,60.72288125229301
1290.069866696959,1018,61.07596828427912
1291.0904619609303,915,60.315284523595366
1292.1016939655992,839,61.394726609708165
1293.0099301179405,877,65.79839633447881
1293.843260195862,952,68.98836049218491
1294.7140433109937,877,68.11625678696902
1295.659732500545,943,67.08399872245289
1296.5305156156764,1028,65.47625678696902
1297.4668415459255,1028,63.92407221071323
1298.4874368098967,924,60.55266055045871
1299.508032073868,1009,60.98857891780565
1300.425631485512,999,61.35486546500619
1301.4275002308784,1028,61.909478586003246
1302.4200057169421,933,59.70989049388567
1303.4406009809136,896,61.32303124721335
1304.3675636518599,962,63.65629837730272
1305.2570732855963,1009,65.00114457266159
1306.2121257344504,981,63.38800381933392
1307.2139944798166,896,61.442254831479666
1308.1877734472755,915,62.98528888720722
1309.077283081012,962,65.04329062147835
1309.9855192333534,962,65.44600555360505
1310.9405716822073,858,63.902971497877495
1311.8956241310614,858,65.35488041370394
1312.7476807275877,962,67.88623141564317
1313.5997373241144,990,67.88623141564317
1314.5547897729682,886,64.75656108597283
1315.5379319997296,990,64.00743786876453
1316.4180783741635,990,63.40911854103343
1317.401220600925,981,63.40911854103343
1318.3843628276863,915,61.224175824175816
1319.3581417951452,849,62.901937238019705
1320.2663779474865,1028,66.29241342849589
1321.1090712847106,1056,65.3502821652637
1322.1296665486818,962,62.40109217999125
1323.1783515905606,1009,59.60893531724616
1324.1334040394147,1047,59.9752218644467
1325.135272784781,1037,60.147036536261375
1326.1745945673572,943,58.62404188385496
1327.2045530906312,924,60.021425061425056
1328.14087902088,990,62.57410018552875
1329.058478432524,999,63.49877551020408
1330.0416206592854,933,62.289718906430494
1331.034126145349,943,62.06955811484113
1331.9610888162956,1009,63.08670097198399
1332.8974147465444,999,62.89837439818748
1333.8992834919109,981,61.47356021865632
1334.8917889779748,905,60.65202175711785
1335.8655679454337,1009,62.93940493468794
1336.7644408384724,1037,62.751078360891434
1337.7663095838388,1009,61.630798640611715
1338.7962681071126,924,59.343415463041616
1339.798136852479,915,61.17671700795865
1340.715736264123,990,63.77915374647787
1341.6239724164643,1028,64.15939406690511
1342.6071146432257,943,61.95980597478753
1343.6277099071972,896,61.2991874180865
1344.564035837446,943,63.44054080154514
1345.4535454711825,1009,65.20421052631579
1346.3898714014315,1009,63.806827348745685
1347.3917401467977,924,61.2852336448598
1348.3936088921641,915,61.72115201220674
1349.311208303808,971,63.77915374647787
1350.2194444561494,1018,64.55440100171786
1351.1838601643058,990,62.536260412148714
1352.1950921689747,877,60.858498998304825
1353.1782343957361,886,63.08837685611879
1354.0490175108675,971,66.03400333366017
1354.9291638853015,943,66.42901026847292
1355.8935795934578,849,64.82126833298905
1356.8299055237069,943,65.83119741100322
1357.6725988609307,1028,66.45333333333332
1358.6089247911798,1028,64.68966360856268
1359.629520055151,952,60.55266055045871
1360.6501153191225,952,60.34117540194386
1361.5958045086738,990,61.89335997819965
1362.5414936982252,1018,62.639886845827434
1363.5246359249866,924,61.269149772120066
1364.5358679296555,933,61.916553287981856
1365.4534673412993,1009,63.14945372088229
1366.3804300122458,1018,63.334292765534414
1367.382298757612,999,61.31615217596526
1368.393530762281,952,59.89133799643409
1369.386036248345,877,61.07723602548934
1370.3317254378962,905,64.26720018319543
1371.2025085530277,971,66.36625678696902
1372.1013814460666,962,65.95560601315377
1373.065797154223,905,63.92904054825813
1374.020849603077,962,63.92904054825813
1374.9197224961158,1037,64.13235294117646
1375.8747749449699,990,62.609358288770046
1376.9047334682436,915,60.70221543162719
1377.887875695005,896,61.78165751773999
1378.7961118473465,962,64.84768622587396
1379.685621481083,952,65.44600555360505
1380.6406739299368,877,64.57390184838917
1381.5863631194882,867,65.05743325755725
1382.4571462346198,943,67.33364809131685
1383.3185660904487,952,67.5451332398317
1384.2548920206975,896,65.72590615583297
1385.200581210249,858,64.99272537780092
1386.0900908439855,905,67.1052528503284
1386.942147440512,924,68.20673799884325
1387.841020333551,915,67.5184458398744
1388.758619745195,839,66.06653692404797
1389.6668558975364,849,67.81653692404797
1390.500185975458,905,69.75395189003436
1391.342879312682,971,69.98333333333332
1392.241752205721,924,66.72119741100323
1393.2061679138774,849,64.78378244501684
1394.1237673255212,792,66.26711577835016
1394.9664606627452,745,70.9578231292517
1395.7529744441542,754,76.19987944544906
1396.492671929051,764,79.16654611211573
1397.2417326732502,1094,80.10834505391466
1398.0001566767517,1047,71.48416347381864
1399.0862947558405,952,64.0274067170619
1400.1256165384168,1009,58.805551198176666
1401.0713057279681,1028,60.35437491715829
1402.0731744733346,971,60.7074619491444
1403.0937697373058,1018,60.296811175329154
1404.0581854454622,1018,60.11197213067704
1405.0694174501311,981,60.29341963322546
1406.0806494547999,1018,60.09401709401709
1407.0544284222588,971,60.09401709401709
1408.0656604269277,858,61.054103393909216
1409.030076135084,886,63.98816932797515
1409.8821327316105,896,66.93379580551652
1410.7622791060444,858,68.6801422541624
1411.651788739781,858,68.6801422541624
1412.5038453363074,933,69.42926547137071
1413.355901932834,886,68.52081252081251
1414.2828646037804,877,67.77168930360419
1415.1630109782145,924,67.2669037665606
1416.033794093346,924,67.48706455814995
1416.95139350499,858,66.55957867017774
1417.8689929166337,924,67.06436420722133
1418.7210495131603,981,67.06436420722133
1419.6386489248043,971,65.80690737833594
1420.6124278922632,886,63.07224398347837
1421.5768436004196,924,63.999729871450576
1422.4569899748535,962,65.25718670033598
1423.3745893864975,924,65.46049909325431
1424.3296418353514,839,64.5330132052821
1425.2472412469951,754,66.73709483793516
1426.0805713249167,783,72.49591836734693
1426.8296320691159,896,76.43493975903614
1427.6067825912226,952,74.91915028535192
1428.496292224959,924,69.36766513683708
1429.4419814145103,905,65.42864374514787
1430.3595808261543,981,65.19443321883207
1431.2584537191933,999,64.58437990580848
1432.2322326866522,915,62.93940493468794
1433.2247381727161,971,62.710023491388974
1434.1329743250574,952,62.909426030597345
1435.097390033214,896,63.90699748585608
1436.0430792227653,924,64.37058945547082
1436.9325888565018,924,65.42864374514787
1437.8501882681458,858,66.07604726100965
1438.7677876797895,905,67.06436420722133
1439.6198442763161,915,67.5184458398744
1440.518717169355,867,67.7431460292285
1441.4269533216966,886,67.48800986104885
1442.2883731775255,943,67.961414116368
1443.1685195519594,896,67.30079555966697
1444.1048454822085,886,66.56761478163493
1444.994355115945,943,66.56761478163493
1445.8745014903789,962,66.56761478163493
1446.810827420628,933,65.02458072590738
1447.7658798694818,915,63.87693404634581
1448.692842540428,952,64.53755260304683
1449.6010786927695,971,64.74489098394375
1450.546767882321,962,63.90699748585608
1451.5111835904775,886,62.827555399743275
1452.4662360393313,915,64.40244480357728
1453.3463824137652,952,65.68519928260841
1454.2546185661067,933,65.89253766350532
1455.200307755658,839,64.74489098394375
1456.1272704266046,896,66.72427242724272
1456.9606005045262,952,68.05996810207336
1457.8501101382626,962,67.63272537780094
1458.795799327814,905,64.57390184838917
1459.7508517766678,896,64.33969132207338
1460.6497246697068,943,65.67538699690402
1461.5392343034432,962,66.09421052631578
1462.4755602336922,962,64.78538699690401
1463.430612682546,867,63.24235294117646
1464.3856651314,811,65.09974424552429
1465.247084987229,877,68.99577707726164
1466.052325287243,999,71.02234254215728
1466.9231084023745,933,67.95589463403586
1467.9156138884384,999,64.69444290746786
1468.842576559385,1066,61.8776443682104
1469.8350820454486,1018,60.629355839240624
1470.89313034663,962,58.83137604126083
1471.904362351299,1018,59.62160911562265
1472.8594148001528,999,60.49673202614379
1473.8706468048215,952,60.86989764459243
1474.8631522908854,962,61.07723602548934
1475.8088414804367,1018,62.24063471829979
1476.7638939292908,999,61.86746909985116
1477.7751259339595,943,60.86989764459243
1478.7676314200235,1018,61.288721174004195
1479.7039573502723,1037,61.28872117400419
1480.7151893549412,1037,60.55595959595959
1481.745147878215,990,58.61414141414141
1482.7751064014888,1028,59.17922077922077
1483.7582486282502,1028,59.35736923626831
1484.7788438922214,1037,59.53551769331585
1485.7994391561929,1009,58.610842368640526
1486.8293976794666,990,58.97712891584107
1487.8312664248328,1009,59.72365578346886
1488.8144086515942,1018,60.26809078771694
1489.8162773969607,981,60.08325174306482
1490.8275094016294,886,60.27885613866921
1491.8012883690883,915,63.03964357155846
1492.6814347435222,1056,65.28248435048171
1493.5896708958637,1047,63.815451383448746
1494.6383559377425,962,60.33529037137284
1495.6776777203188,1075,59.25584828526004
1496.6327301691726,1056,58.92126181909463
1497.7001417296565,990,58.74944714727996
1498.7488267715353,1018,58.15112781954887
1499.7319689982967,999,59.19206349206349
1500.7432010029654,915,60.27157831686134
1501.7357064890293,971,61.949339730705226
1502.6439426413708,1075,62.909426030597345
1503.6083583495272,1066,61.49532473963409
1504.675769910011,971,58.3773610501897
1505.7338182111923,1018,58.37736105018969
1506.6982339193487,1047,59.41829672270432
1507.7094659240174,999,59.758885098690925
1508.7487877065937,896,59.17196441724744
1509.7412931926576,943,61.87839716578544
1510.630802826394,1028,63.9951539225422
1511.567128756643,999,63.44054080154514
1512.5877240206144,896,61.10727367145577
1513.580229506678,915,62.23148419777156
1514.4697391404147,971,64.65577247924324
1515.377975292756,933,65.24269316068671
1516.3423910009126,962,64.33424021012851
1517.2693536718589,1066,63.25479812401571
1518.2244061207127,1066,61.419588913602446
1519.282454421894,943,58.746486205101505
1520.3405027230754,1018,59.16530973451327
1521.2768286533242,1056,60.040432645034414
1522.2880606579931,1009,60.20920634920635
1523.336745699872,915,58.81182317163625
1524.3386144452381,1037,61.0546639505595
1525.2468505975796,1056,61.401417197312746
1526.2768091208534,1028,60.510228946311415
1527.3254941627322,905,58.08594066483974
1528.3460894267037,990,60.917758846657925
1529.2449623197426,999,62.1891874180865
1530.228104546504,971,62.74380053908355
1531.2206100325677,896,61.23166461675345
1532.185025740724,877,63.3730180002121
1533.0745353744605,971,66.18981653946956
1533.9453184895922,1037,66.18981653946956
1534.9097341977485,943,63.123787831335584
1535.9396927210223,1018,61.51604589585172
1536.8760186512714,1037,60.55595959595959
1537.88725065594,981,60.55595959595959
1538.9172091792138,915,59.734421134421126
1539.8909881466727,971,61.97726191334438
1540.7992242990142,999,63.29694417283247
1541.7636400071706,905,62.909426030597345
1542.7561454932345,971,63.138807473896314
1543.6550183862735,1066,63.13880747389631
1544.6194340944298,1018,61.890518944926534
1545.6774823956112,990,59.41829672270432
1546.6887144002799,1028,59.02328978789156
1547.6718566270413,1009,59.716965195864276
1548.6924518910125,952,59.9018042405164
1549.694320636379,952,60.7074619491444
1550.6400098259303,1018,62.25964652540019
1551.5856990154819,981,62.07480748074807
1552.5969310201506,905,61.46475416772446
1553.5707099876095,999,62.56623931623931
1554.4695828806484,1009,62.93940493468794
1555.4620883667124,952,62.36356021865631
1556.4639571120786,999,61.262075070141464
1557.4096463016301,1018,61.262075070141464
1558.4021517876938,952,61.077236025489334
1559.4133837923628,999,61.07723602548934
1560.359072981914,1018,61.07723602548934
1561.351578467978,962,61.077236025489334
1562.3628104726467,981,60.86989764459243
1563.3178629215006,962,61.25741578682754
1564.2916418889595,905,62.420814479638
1565.2466943378136,915,63.729638009049765
1566.1455672308525,933,65.21179502728927
1567.0538033831938,886,65.8463761324586
1567.9807660541403,858,66.31978038777775
1568.8609124285742,933,67.77168930360419
1569.7129690251008,952,67.77168930360419
1570.6399316960471,877,66.19679989977018
1571.5856208855987,933,65.6920143627266
1572.4564040007301,981,65.6920143627266
1573.3833666716766,905,65.08196104970298
1574.3571456391355,905,64.36421911421911
1575.2560185321745,943,65.03846153846153
1576.1548914252132,924,65.86
1577.0912173554623,924,65.40591836734694
1578.0088167671063,962,64.95183673469387
1578.92641617875,896,64.5330132052821
1579.8814686276041,933,65.22130536425095
1580.7709782613406,981,65.00114457266159
1581.6979409322869,896,64.5984296405349
1582.6717198997458,943,64.5984296405349
1583.5612295334822,990,64.38267206477732
1584.4975554637313,896,64.18706766917293
1585.4806976904927,924,64.18706766917293
1586.370207324229,952,64.62298603651986
1587.287806735873,886,65.42864374514787
1588.2334959254244,877,65.66783747415123
1589.1136422998584,990,66.83966104228816
1589.9844254149898,999,66.03400333366017
1590.9675676417512,943,63.46154247456742
1591.9600731278151,971,61.85380053908355
1592.896399058064,981,62.248807473896306
1593.8608147662203,933,62.63632561613143
1594.8345937336792,971,62.85208319188901
1595.7615564046257,962,62.85208319188901
1596.725972112782,943,63.25479812401571
1597.681024561636,943,63.03904054825813
1598.617350491885,962,63.66117647058823
1599.5536764221338,867,63.66117647058823
1600.5087288709876,933,65.51856777493606
1601.3701487268168,971,65.73432535069364
1602.297111397763,877,65.5310129577753
1603.2615271059194,867,65.28136358891135
1604.132310221051,924,66.9229973175016
1604.99373007688,877,67.98105160717864
1605.911329488524,933,67.98105160717864
1606.7821126036554,1018,66.33941787858839
1607.709075274602,933,64.32127728901924
1608.7203072792706,915,62.929292929292934
1609.6472699502172,971,63.37415391023639
1610.5555061025586,933,64.33424021012851
1611.519921810715,886,64.33424021012851
1612.4468844816613,952,65.03702590874661
1613.3270308560955,943,65.44767668256188
1614.2727200456468,820,65.2319191068043
1615.2090459758956,877,67.06023898941618
1616.0236495352124,933,68.8794660734149
1616.8944326503438,858,69.09522364917248
1617.82139532129,839,68.01602698376891
1618.6734519178167,924,69.04828504828504
1619.5067819957383,971,69.2684458398744
1620.4243814073823,877,66.53378244501684
1621.3887971155386,867,65.50152438050071
1622.25958023067,933,66.9229973175016
1623.121000086499,952,67.76089081558928
1624.0479627574455,877,65.94166373159055
1624.9936519469968,886,65.6920143627266
1625.8644350621285,924,66.83966104228816
1626.7445814365624,915,67.48706455814995
1627.6621808482064,839,66.5399411793671
1628.5704170005476,905,67.81653692404797
1629.4037470784692,990,68.27061855670104
1630.3026199715082,915,66.59285714285714
1631.2857621982696,877,64.61347569955817
1632.193998350611,952,65.33121763504204
1633.0647814657425,952,66.13687534367006
1634.010470655294,830,65.26477163845416
1634.9561598448454,886,66.56975697569756
1635.7801266634644,924,68.14464637953157
1636.6602730378984,924,68.79204989539335
1637.5778724495424,801,66.31524099001302
1638.4954718611864,839,68.72124849939975
1639.291348901898,915,70.92533013205282
1640.1246789798195,905,71.15003032140692
1641.032915132161,839,68.27061855670104
1641.9317880252,915,68.27061855670104
1642.7651181031213,981,68.27061855670104
1643.6733542554628,943,66.55908009516256
1644.6471332229216,849,63.91908009516256
1645.5834591531707,905,65.63179487179485
1646.4261524903945,943,67.34333333333333
1647.3250253834335,971,67.34333333333333
1648.2613513136826,886,64.3478640776699
1649.225767021839,820,64.82126833298904
1650.1059133962729,915,68.01299247092008
1650.9205169555894,981,69.29574694995122
1651.8287531079309,962,67.1108042330936
1652.8025320753898,886,63.500256565750796
1653.7575845242436,886,64.20304226436892
1654.6377308986775,971,66.38798498122652
1655.5178772731117,952,66.18467258830819
1656.482292981268,886,64.6097831844742
1657.4279821708194,905,64.6097831844742
1658.3081285452533,971,66.12191910680428
1659.2070014382923,943,65.71126833298905
1660.1714171464487,896,64.3478640776699
1661.1077430766977,943,64.58207460398569
1661.9972527104342,952,65.20421052631579
1662.933578640683,952,64.99272537780092
1663.8792678302345,905,63.65702970297029
1664.8249570197859,943,64.54702970297029
1665.7238299128248,952,64.75851485148515
1666.6601558430737,905,64.75851485148515
1667.6058450326252,933,64.75851485148515
1668.5047179256642,952,64.97427242724272
1669.4316805966105,924,64.97427242724272
1670.377369786162,896,64.52019079458967
1671.2949691978058,924,65.42864374514787
1672.1844788315423,952,66.07604726100965
1673.1020782431863,905,65.42864374514787
1674.0477674327376,915,65.19443321883207
1674.9466403257766,943,65.41913340818618
1675.854876478118,943,65.63061855670102
1676.791202408367,915,64.74061855670104
1677.727528338616,933,64.74061855670104
1678.6357644909574,867,64.95637613245862
1679.562727161904,783,66.81376743680644
1680.4241470177328,858,70.52808863914154
1681.2012975398395,924,72.42485853591143
1682.053354136366,867,71.00338559891054
1682.97095354801,858,68.48583714422223
1683.8323734038388,924,68.48583714422223
1684.6844300003654,952,68.48583714422223
1685.6020294120094,858,66.41696069135955
1686.5477186015607,849,66.41696069135955
1687.3997751980874,905,68.35437565734594
1688.2424685353112,933,69.4558608058608
1689.1413414283502,858,67.55909090909091
1690.0683040992967,877,67.29828504828504
1690.920360695823,915,68.01602698376891
1691.7911438109547,905,68.46088796471237
1692.6993799632962,839,67.23836049218491
1693.5982528563352,896,68.27061855670104
1694.4315829342565,924,68.73421052631579
1695.3210925679932,886,68.28012889366272
1696.238691979637,858,67.00353314898186
1697.118838354071,896,67.99185009519354
1697.9708949505975,924,68.6801422541624
1698.860404584334,839,67.7526563661902
1699.778003995978,792,68.28012889366272
1700.6113340738996,839,71.22448979591837
1701.3978478553086,896,73.42857142857143
1702.2311779332301,858,71.91278195488721
1703.1206875669666,801,69.95673799884325
1703.9727441634932,886,71.08614976354913
1704.7686212042047,952,71.32534349255249
1705.6487675786386,915,69.00133087151018
1706.5944567681902,849,65.89253766350532
1707.5026929205314,933,66.9024667415195
1708.3453862577555,981,67.32970946579194
1709.272348928702,896,65.84755244755243
1710.246127896161,867,64.5984296405349
1711.1356375298974,896,66.24006336912515
1711.9970573857263,924,68.1858123569794
1712.8865670194627,924,67.49752019801055
1713.8041664311068,830,66.07604726100965
1714.7217658427508,877,67.86456400742114
1715.5457326613698,971,69.03638757555808
1716.4165157765012,971,67.97833328588104
1717.3809314846576,877,64.44347009082367
1718.345347192814,896,64.44347009082367
1719.2161303079456,962,66.18981653946955
1720.105639941682,933,66.3931289323879
1721.060692390536,830,65.00114457266159
1721.9876550614822,896,66.78966131907308
1722.8116218801013,952,68.33269537480064
1723.7011315138377,943,67.9054526505282
1724.6468207033893,820,64.99272537780092
1725.583146633638,858,67.06023898941618
1726.3977501929546,943,69.3842516104585
1727.2498067894812,971,69.3842516104585
1728.18613271973,896,65.57039155019737
1729.1505484278864,886,64.58207460398569
1730.040058061623,952,65.94547885930484
1730.920204436057,962,66.35612963312008
1731.8658936256084,905,64.81309557739252
1732.8209460744622,858,64.33969132207338
1733.7198189675012,896,66.6637039431157
1734.5718755640278,962,68.20673799884325
1735.4613851977642,915,66.89791446943148
1736.416437646618,867,65.44600555360505
1737.3246737989596,905,66.17918633163708
1738.1860936547885,933,67.48800986104885
1739.0849665478274,915,67.0431488801054
1740.011929218774,839,65.8463761324586
1740.9201653711154,896,67.5963761324586
1741.753495449037,971,68.50482908301682
1742.6430050827735,915,67.22207460398569
1743.6074207909298,905,65.24269316068671
1744.5156569432713,962,65.00848263437094
1745.4145298363103,971,65.21179502728927
1746.3695822851641,877,63.92904054825813
1747.3339979933205,933,64.646782483742
1748.204781108452,933,65.28136358891135
1749.1317437793984,830,66.11925708699903
1750.0587064503447,886,67.42424242424242
1750.8826732689638,933,68.57188910380398
1751.762819643398,820,68.571889103804
1752.6897823143443,867,68.85088596900776
1753.5043858736608,924,69.34487301803644
1754.36580572949,867,69.56503380962579
1755.283405141134,867,68.23070097604258
1756.1448249969628,952,68.23070097604258
1757.0062448527917,933,67.5832974601808
1757.9519340423433,877,65.94166373159055
1758.8788967132896,962,65.6920143627266
1759.7496798284212,1009,65.48467598182968
1760.704732277275,933,63.871535228502005
1761.7066010226413,924,62.47955086877571
1762.6335636935878,962,63.334292765534414
1763.5511631052318,981,64.31285241369275
1764.5062155540857,858,63.2755563763967
1765.4799945215445,905,64.95216548157723
1766.3320511180711,943,66.260989010989
1767.23092401111,933,67.08252747252746
1768.167249941359,849,65.18575757575758
1769.0942126123055,924,66.6690909090909
1769.9369059495293,990,67.10500927643784
1770.8545053611733,933,65.8721088435374
1771.8376475879347,915,63.714533085961655
1772.764610258881,962,63.93923327531575
1773.6728464112225,952,64.53755260304683
1774.6278988600764,858,64.11030987877442
1775.573588049628,915,65.56221879460085
1776.4256446461543,981,66.64166088071364
1777.3338807984958,924,66.03160756769003
1778.3076597659547,877,64.3549984625095
1779.2252591775987,943,65.30212184129235
1780.09604229273,981,66.12366030283081
1781.0323682229791,877,64.8662034739454
1782.006147190438,896,64.8662034739454
1782.8769303055694,933,65.99041400026118
1783.7664399393059,924,67.02771003755723
1784.6934026102524,849,65.8558864694203
1785.6110020218962,849,67.10500927643784
1786.4536953591203,943,69.2625850340136
1787.2963886963444,962,68.82666666666665
1788.2327146265932,886,66.03450980392157
1789.187767075447,915,65.02458072590738
1790.0679134498812,971,65.68519928260841
1790.9761496022224,933,65.48188688969007
1791.940565310379,886,64.33424021012851
1792.8675279813253,933,65.03702590874661
1793.7476743557593,943,65.8749194068343
1794.6746370267058,896,65.65916183107672
1795.6109629569546,849,65.41996810207337
1796.5004725906913,896,67.57754385964911
1797.3431659279152,943,68.7017543859649
1798.2326755616516,886,67.57754385964911
1799.1690014919006,839,66.56761478163493
1800.0491478663346,905,68.08340425531915
1800.8824779442562,952,68.97340425531914
1801.7813508372951,905,67.39851485148515
1802.7270400268465,858,65.64851485148515
1803.6259129198854,915,66.87104232401262
1804.477969516412,962,67.7431460292285
1805.3862056687535,915,66.43432249981673
1806.3412581176074,877,64.9824135839903
1807.2494942699489,924,65.92953696277314
1808.1202773850803,962,66.78427885953184
1809.0378767967243,886,65.70483677341903
1809.9929292455781,877,65.46049909325431
1810.873075620012,924,66.63232266139124
1811.7438587351435,933,67.48706455814995
1812.6614581467875,849,66.33941787858839
1813.588420817734,896,67.10500927643784
1814.4311141549579,952,67.79330143540669
1815.3206237886943,886,67.36605871113426
1816.2663129782459,849,66.35612963312008
1817.1464593526798,896,67.60525244013762
1817.989152689904,886,68.94094811496825
1818.8786623236404,820,68.94094811496825
1819.7588086980743,877,69.75933891956596
1820.5734122573908,943,70.24287032873406
1821.4441953725222,915,68.8794660734149
1822.3805213027713,877,66.3483604921849
1823.2887574551128,943,66.3483604921849
1824.1595405702442,981,66.3483604921849
1825.0958665004932,877,64.8662034739454
1826.0696454679521,877,64.8662034739454
1826.9404285830835,933,66.47394540942928
1827.811211698215,905,67.51124144672532
1828.7381743691615,886,66.79349951124145
1829.6370472622004,924,66.54916183107673
1830.5171936366344,924,66.76932262266608
1831.4347930482784,858,66.31524099001302
1832.3523924599222,924,67.06436420722133
1833.2044490564488,952,67.06436420722133
1834.1220484680928,867,66.41696069135955
1835.067737657644,867,66.16182452317992
1835.929157513473,933,67.5832974601808
1836.7905773693021,952,68.01054018445323
1837.7175400402487,896,65.94166373159055
1838.6632292298,962,65.2084829535585
1839.5527388635364,584,64.57390184838917
1840.5077913123903,490,77.87699990012982
1841.0883133891446,830,96.4697124507371
1841.5752028728741,943,99.80126325287614
1842.3991696914932,905,86.70965034965033
1843.335495621742,896,67.88272727272727
1844.234368514781,981,66.09421052631578
1845.1238781485174,971,65.27267206477731
1846.0976571159763,943,63.76053614244722
1847.0620728241327,971,62.63632561613143
1847.9983987543817,943,62.835728155339794
1848.962814462538,915,63.457864077669896
1849.8991403927869,943,64.11848263437093
1850.8073765451284,952,64.74061855670104
1851.7437024753774,896,64.52913340818617
1852.6893916649287,820,64.99272537780092
1853.5789012986652,896,68.18444951573197
1854.3935048579817,933,69.5201451905626
1855.2830144917182,839,68.6116922400044
1856.2099771626647,811,68.05996810207336
1857.0433072405863,905,70.41296687808315
1857.8485475406003,981,71.08720930232558
1858.7474204336393,943,67.62567084078711
1859.7211994010981,830,64.14846153846153
1860.657525331347,867,66.1711888111888
1861.481492149966,962,68.8501185770751
1862.3429120057951,952,68.43129504766333
1863.297964454649,830,65.3070826264212
1864.2436536442003,867,66.36241859480064
1865.0676204628194,943,68.63863342856024
1865.9290403186485,924,68.8501185770751
1866.8653662488973,820,66.37330967169476
1867.7829656605413,905,67.70764250527797
1868.5975692198579,943,68.59764250527797
1869.4964421128968,867,68.16172413793103
1870.4327680431456,839,66.82739130434783
1871.2941878989748,924,68.57739130434783
1872.1275179768963,924,69.01330967169477
1873.0451173885401,820,67.59183673469387
1873.9627168001841,849,68.1435608726249
1874.7773203595007,915,70.0809758386113
1875.6200136967248,867,70.3056760279654
1876.5282498490662,773,68.97134319438219
1877.3896697048951,867,71.28679034885374
1878.1574569676993,943,72.48356309650053
1879.0188768235282,849,70.6261717921527
1879.9552027537773,820,68.31072463768115
1880.7978960910013,886,69.64505747126437
1881.612499650318,943,71.0084617265835
1882.4926460247518,858,68.63512839325018
1883.4289719550006,867,67.55593172784661
1884.2810285515272,943,68.0499187768753
1885.1424484073561,915,68.0499187768753
1886.0787743376052,820,66.59800986104887
1886.9870104899467,867,67.93234269463207
1887.8016140492632,962,69.7897339989799
1888.663033905092,915,68.71029191286709
1889.618086353946,858,66.17918633163708
1890.5263225062874,915,66.43432249981673
1891.378379102814,943,67.51376458592952
1892.2866152551555,830,66.8531460292285
1893.2229411854044,820,67.6533458294283
1894.0469080040234,943,70.1844514106583
1894.86151156334,971,70.18445141065831
1895.797837493589,896,66.64958821560093
1896.7622532017454,905,64.58207460398569
1897.6517628354818,952,65.47207460398569
1898.5506357285208,933,65.88272537780094
1899.496324918072,877,64.97427242724272
1900.4232875890186,915,65.6920143627266
1901.29407070415,943,66.56411806794247
1902.2023068564915,849,66.3483604921849
1903.1386327867403,867,67.11395189003436
1903.9813261239644,943,68.31072463768115
1904.8427459797936,924,68.31072463768115
1905.7790719100424,896,66.37330967169476
1906.6966713216864,981,65.64012889366272
1907.5861809554228,981,64.81859043212425
1908.5599599228817,867,63.56113360323885
1909.5337388903406,877,64.2943143812709
1910.3951587461695,905,66.72359477829323
1911.2659418613011,849,68.4351332398317
1912.16481475434,858,68.95107526881719
1913.007508091564,1009,69.4558608058608
1913.8595646880906,962,67.1684776282907
1914.8614334334568,886,64.3763207655456
1915.8164858823109,962,63.62719754833728
1916.6966322567448,981,64.6057571964956
1917.6516847055987,896,64.20304226436892
1918.6254636730575,896,63.96384853536555
1919.514973306794,952,65.5068825910931
1920.4044829405304,915,66.11693590411672
1921.3501721300818,877,65.65334393450196
1922.2584082824233,933,66.13687534367006
1923.129191397555,933,66.56411806794247
1924.0561540685012,830,66.11925708699903
1924.9831167394477,849,67.42424242424242
1925.8070835580668,905,69.58181818181816
1926.6497768952906,877,70.2560606060606
1927.5486497883296,773,68.95107526881719
1928.4194329034613,820,71.26652242328875
1929.1872201662654,924,73.56824656121978
1930.001823725582,933,72.39642299308284
1930.9194231372257,886,67.92340008103555
1931.8463858081723,981,66.09508019842366
1932.7265321826062,1018,64.83762336953825
1933.700311150065,952,63.03964357155846
1934.711543154734,849,61.46475416772446
1935.6572323442854,915,64.65962596259625
1936.4999256815095,962,66.9024667415195
1937.4081618338507,933,66.69512836062259
1938.3632142827048,830,64.53755260304683
1939.290176953651,896,66.78966131907308
1940.1141437722702,962,68.33269537480064
1941.0036534060066,924,67.69811426963129
1941.9587058548605,858,65.22130536425095
1942.8763052665045,924,66.20962231046263
1943.728361863031,962,67.06436420722133
1944.6459612746748,877,66.20962231046263
1945.601013723529,877,65.70483677341903
1946.4717968386603,943,66.87666034155598
1947.3425799537918,905,67.29548387096774
1948.2789058840408,830,66.57774193548387
1949.1777787770798,896,67.88272727272727
1950.0017455956988,962,69.00693779904304
1950.8912552294353,905,67.69811426963129
1951.8463076782891,867,65.67538699690402
1952.745180571328,924,66.40856777493606
1953.606600427157,896,67.26330967169477
1954.524199838801,839,67.49752019801055
1955.4137094725374,924,68.28012889366272
1956.247039550459,971,68.28012889366272
1957.164638962103,886,66.53378244501684
1958.1290546702594,877,65.25718670033598
1959.0092010446933,924,66.42901026847292
1959.8799841598247,896,67.48706455814995
1960.7975835714687,820,67.24787082914659
1961.6870932052052,877,68.83185303159375
1962.5016967645217,933,70.0036765997307
1963.3724798796534,924,69.09522364917248
1964.2994425505997,867,66.33941787858839
1965.2170419622437,915,66.58906724745233
1966.0784618180726,952,67.0339282283958
1966.986697970414,886,66.386524712534
1967.9323871599656,867,65.89253766350532
1968.8125335343996,943,67.08931041115213
1969.6739533902285,952,67.30079555966697
1970.6102793204775,886,65.72590615583297
1971.5559685100288,915,65.2319191068043
1972.4361148844628,971,65.89253766350532
1973.3443510368043,933,65.48188688969007
1974.3087667449606,933,64.33424021012851
1975.2357294159071,990,63.88937922918505
1976.1626920868534,952,63.4943722943723
1977.1458343136148,858,63.067129570099866
1978.0915235031664,924,64.96389946686975
1978.9435800996928,962,66.41696069135955
1979.8611795113368,924,66.20962231046263
1980.8162319601906,915,64.5330132052821
1981.7338313718346,981,64.7577133946362
1982.6420675241761,962,64.3549984625095
1983.615846491635,867,63.500256565750796
1984.5708989404889,896,64.69702931339759
1985.4323187963178,981,66.64277830125184
1986.3218284300542,877,66.24006336912515
1987.295607397513,858,65.99041400026118
1988.1663905126447,924,66.97873094647287
1989.0184471091711,962,68.23618777535827
1989.9360465208151,858,66.20962231046263
1990.891098969669,886,66.20962231046263
1991.7431555661956,943,67.13710819843485
1992.6233019406295,933,67.55593172784661
1993.5596278708783,830,65.65916183107672
1994.4865905418249,896,67.20848484848484
1995.310557360444,1018,68.33269537480064
1996.2000669941804,915,66.53471557682084
1997.2112989988493,858,64.2826068607946
1998.1195351511906,915,65.27092380700628
1998.9715917477172,971,67.51376458592952
1999.8798279000587,952,66.2310101068984
2000.844243608215,905,63.90699748585608
2001.7899327977664,952,64.13637892915504
2002.6888056908053,971,64.54702970297029
2003.6344948803567,905,64.13637892915504
2004.5989105885133,924,64.13637892915504
2005.4977834815522,962,64.78378244501684
2006.415382893196,915,64.98709483793516
2007.3704353420499,867,64.7577133946362
2008.2786714943913,933,66.17918633163708
2009.1400913502205,962,66.81376743680644
2010.0670540211668,905,65.73432535069364
2011.0221064700208,924,64.76693404634581
2011.9209793630598,971,64.98709483793516
2012.8385787747036,952,64.78378244501684
2013.80299448286,905,63.682297296501986
2014.7486836724115,952,64.13637892915504
2015.6475565654505,990,64.54702970297029
2016.5932457550018,943,63.74137199434229
2017.5763879817632,933,62.85137199434229
2018.512713912012,981,63.27861471861472
2019.4396765829586,981,63.47421911421911
2020.4134555504174,896,62.652680652680644
2021.3872345178763,867,63.56113360323885
2022.2767441516128,943,66.24006336912515
2023.1381640074417,990,67.06160183066362
2024.0744899376907,896,64.92024844720497
2025.0576321644521,971,64.18706766917293
2025.9471417981886,1066,63.56493174684283
2026.911557506345,1009,62.124729471242325
2027.9696058075262,915,59.60313576735644
2028.9714745528925,990,60.88589024638757
2029.879710705234,1028,62.32609252198807
2030.8628529319953,981,61.95980597478753
2031.8834481959666,933,60.47764895654803
2032.8572271634255,943,61.71054938944847
2033.784189834372,1018,63.47421911421911
2034.7205157646208,1009,62.713535353535356
2035.7317477692898,933,61.10039460020768
2036.733616514656,952,61.31615217596526
2037.6605791856025,981,62.686889249672625
2038.6062683751538,981,63.26273396570426
2039.5800473426127,896,62.22543792840821
2040.5538263100716,962,63.56113360323885
2041.443335943808,999,63.96384853536555
2042.398388392662,990,63.57633039313043
2043.3908938787258,905,61.43497700967178
2044.3740361054872,981,62.74380053908355
2045.2729089985262,1018,63.131318681318675
2046.246687965985,924,62.56623931623931
2047.2579199706538,896,62.11215768358625
2048.175519382298,943,64.05790667144049
2049.0650290160343,962,65.64012889366272
2050.0013549462833,877,64.78538699690401
2050.956407395137,877,65.2689184060721
2051.827190510269,990,66.87666034155598
2052.6979736254,981,66.27834101382489
2053.6811158521614,886,63.84906061680255
2054.6548948196205,981,63.60472293663782
2055.5350411940544,1028,63.80032733224221
2056.508820161513,1009,62.858196069010035
2057.5294154254843,886,60.09740863612079
2058.531284170851,943,62.2823513529784
2059.411430545285,1009,64.04602107774905
2060.3477564755335,1018,64.04602107774905
2061.3496252209,943,61.10039460020768
2062.360857225569,943,61.10039460020768
2063.297183155818,999,62.49777777777778
2064.2335090860665,999,62.87094339622641
2065.2260145721307,924,61.66188679245282
2066.2185200581944,952,62.09780515979976
2067.1361194698384,990,63.0953766150585
2068.08180865939,905,63.28729036168922
2069.064950886151,943,63.74137199434229
2069.96382377919,1009,63.95285714285714
2070.900149709439,933,63.5726168224299
2071.9020184548053,952,62.89837439818748
2072.828981125752,1009,62.686889249672625
2073.7746703153034,962,62.686889249672625
2074.7765390606696,971,62.05230814450328
2075.7315915095232,990,61.64165737068804
2076.69600721768,990,62.02189769111527
2077.679149444441,952,61.42357836338418
2078.6622916712026,990,61.83422913719943
2079.607980860754,990,61.83422913719943
2080.5911230875154,990,61.83422913719943
2081.5742653142765,943,61.028571428571425
2082.557407541038,971,62.04571428571428
2083.4937334712868,981,62.44072122052704
2084.4581491794434,962,62.63632561613143
2085.4319281469025,924,62.21750208671966
2086.386980595756,981,63.2755563763967
2087.3045800074,990,63.2755563763967
2088.2783589748587,943,62.67723704866561
2089.2615012016204,971,62.241318681318674
2090.1978271318694,990,62.44072122052704
2091.1622428400256,971,62.44072122052704
2092.145385066787,933,61.818585298196936
2093.1098007749433,981,62.65647879628462
2094.03676344589,990,62.85208319188901
2095.0105424133485,962,62.45707625707625
2095.99368464011,933,61.82249515190691
2096.9487370889638,962,62.85979118920295
2097.8756997599103,971,63.45811051693404
2098.8307522087644,933,63.25479812401571
2099.7951679169205,971,63.25479812401571
2100.722130587867,999,63.05148573109737
2101.6865462960236,962,62.464565049653885
2102.6790517820873,962,61.829983944484546
2103.6341042309414,990,62.033296337402874
2104.589156679795,1009,62.225210084033606
2105.5722989065566,990,61.246650435875274
2106.574167651923,943,60.648331108144184
2107.557309878684,990,61.66547396528704
2108.493635808933,1009,62.04571428571428
2109.476778035694,990,61.66547396528704
2110.478646781061,933,60.648331108144184
2111.461789007822,990,61.88123154104462
2112.3887516787686,1009,62.26147186147186
2113.3718939055298,990,61.88123154104462
2114.3737626508964,952,60.648331108144184
2115.3569048776576,990,61.45398881677219
2116.302594067209,1009,61.83422913719943
2117.2857362939703,990,61.45398881677219
2118.2876050393365,886,60.648331108144184
2119.270747266098,971,63.02887822060619
2120.150893640532,1094,63.80412547584619
2121.1153093486887,1018,61.87506143643733
2122.201447427777,971,58.92943495889596
2123.2126794324463,1028,58.92943495889595
2124.1770951406024,1028,60.11197213067704
2125.1976904045737,971,59.930524628128616
2126.218285668545,990,59.93052462812861
2127.1827013767015,1037,60.6770514957564
2128.1658436034627,990,60.49890303870885
2129.1958021267365,943,60.1038961038961
2130.178944353498,943,61.121038961038956
2131.115270283747,1018,63.06285714285714
2132.0515962139957,1018,62.49777777777778
2133.062828218665,915,60.91555555555556
2134.0740602233336,820,61.57617411225659
2134.982296375675,896,66.35012047240984
2135.7968999349914,999,69.05655322094785
2136.686409568728,1047,67.18687806047323
2137.678915054792,971,61.878397165785444
2138.7182368373683,1009,60.13205071713955
2139.6826525455244,1075,59.94372414334304
2140.684521290891,1047,59.43732300536296
2141.7519328513745,962,57.9427021709363
2142.7912546339508,981,58.92126181909463
2143.746307082805,1018,60.72288125229301
2144.720086050264,999,61.25741578682754
2145.7313180549327,962,60.46718271246573
2146.7238235409964,990,60.86989764459243
2147.6788759898504,1009,61.43497700967178
2148.6620182166116,952,61.246650435875274
2149.663886961978,981,61.45398881677219
2150.6095761515294,971,61.64959321237658
2151.5833551189885,962,62.424840467616576
2152.5477708271446,858,62.21750208671966
2153.5028232759987,905,65.15156802078559
2154.354879872525,990,66.6637039431157
2155.253752765564,962,66.0653846153846
2156.2368949923252,962,63.534033613445374
2157.1919474411793,1037,62.225210084033606
2158.1469998900334,1084,61.30053475935828
2159.176958413307,1047,58.9332713322483
2160.253733233093,943,57.23533810490331
2161.29305501567,971,59.1771562867215
2162.2293809459184,1018,61.34110732091314
2163.193796654075,971,61.875641855447675
2164.2050286587437,915,61.25350593311758
2165.1694443669003,1018,62.536260412148714
2166.0776805192413,1037,62.536260412148714
2167.0889125239105,952,61.216578152660624
2168.1188710471843,990,60.34447444744474
2169.0645602367354,1018,60.9095538125241
2170.047702463497,981,61.269149772120066
2171.0589344681657,962,60.65909645909645
2172.032713435625,999,61.25741578682754
2172.9877658844784,1018,61.630581405276175
2173.9802713705426,962,60.86989764459242
2174.9915033752113,981,60.86989764459243
2175.946555824065,999,61.25741578682754
2176.920334791524,981,61.630581405276175
2177.9128402775877,886,61.227866473149476
2178.886619245047,943,63.41280919000709
2179.766765619481,1028,64.62186579378067
2180.70309154973,1028,63.6797345305485
2181.723686813701,905,60.55266055045871
2182.7442820776723,990,61.44266055045871
2183.6431549707113,1018,62.1891874180865
2184.6262971974725,999,62.37063492063492
2185.6375292021416,915,60.27157831686134
2186.6300346882053,962,61.949339730705226
2187.538270840547,962,63.11273842351568
2188.4933232894005,943,63.902971497877495
2189.4483757382545,858,63.24235294117646
2190.3847016685036,1018,65.77370394311569
2191.23675826503,650,64.61030525030525
2192.2479902696987,490,60.90319781228872
2193.3809446453,1018,57.20844811753903
2194.392176649969,924,59.226588707108185
2195.309776061613,962,62.514872615712946
2196.2648285104665,1018,62.514872615712946
2197.2760605151357,933,62.29471182412359
2198.2030231860817,981,61.89199689199689
2199.176802153541,1037,61.532400932400925
2200.2067606768146,971,60.69450743431325
2201.1711763849707,990,60.49890303870886
2202.1543186117324,1018,60.85849899830482
2203.165550616401,943,61.48063492063492
2204.10187654665,952,62.286292629262924
2205.0475657362017,1018,62.286292629262924
2206.0587977408704,952,62.07480748074807
2207.0044869304215,952,62.07480748074807
2207.950176119973,999,62.4479730991967
2208.942681606037,943,62.659458247711555
2209.879007536286,905,63.76094339622641
2210.777880429325,990,63.95285714285714
2211.7610226560864,1037,62.011038961038956
2212.79098117936,981,60.29950049950049
2213.764760146819,896,62.44085388295913
2214.6542697805553,962,63.96384853536555
2215.6093222294094,1028,63.02171727213337
2216.6299174933806,971,61.27537082348749
2217.594333201537,886,63.057598608218406
2218.474479575971,952,64.6097831844742
2219.4201687655222,1009,63.83453592923419
2220.422037510889,943,62.471131673915046
2221.3583634411375,905,63.5726168224299
2222.2572363341765,990,63.95285714285714
2223.240378560938,1028,62.1891874180865
2224.2609738249093,981,60.47764895654803
2225.234752792368,933,61.71054938944847
2226.1617154633145,1018,61.89199689199689
2227.1729474679832,1037,60.77171717171717
2228.202905991257,924,60.99187796330653
2229.120505402901,1009,61.17671700795865
2230.1223741482677,1047,61.00177843302008
2231.161695930844,952,60.35437491715829
2232.107385120395,905,62.64175809472839
2233.006258013434,981,63.93697638994668
2233.980036980893,1037,62.20664335664335
2235.009995504167,896,62.44085388295913
2235.8995051379034,943,63.2623923444976
2236.8358310681524,1018,63.62198830409356
2237.847063072821,990,61.48063492063492
2238.8302052995823,915,62.14125347733595
2239.738441451924,962,63.304652170146404
2240.693493900778,1084,61.53570807076752
2241.770268720564,1056,58.58651808549506
2242.818953762443,962,58.58651808549506
2243.7740062112966,990,60.35546218487394
2244.7571484380583,990,61.626890756302515
2245.7402906648194,924,62.48163265306122
2246.6578900764634,943,63.49877551020408
2247.5942160067125,1028,62.75224864257629
2248.6148112706837,1028,60.55266055045871
2249.635406534655,924,60.98857891780565
2250.553005946299,971,62.13011272024619
2251.517421654455,1009,62.49639926744674
2252.519290399822,971,61.4383449777697
2253.483706107978,915,62.721099456800836
2254.3919422603194,867,65.97587393871876
2255.2533621161483,952,66.386524712534
2256.1990513057,1047,63.609149399076216
2257.238373088276,952,61.540272946213534
2258.1840622778277,1066,59.294412961985024
2259.242110579009,1075,58.78801182400494
2260.3095221394924,981,58.17795851098133
2261.2833011069515,971,60.013167721394595
2262.247716815108,971,62.01418969380133
2263.2121325232642,933,63.05148573109738
2264.1390951942108,820,66.86534579135851
2264.953698753527,886,68.85088596900775
2265.833845127961,1037,66.69331021143199
2266.8638036512352,990,62.4844432163581
2267.8469458779964,971,60.49890303870886
2268.811361586153,1047,60.32396446377028
2269.8506833687293,679,58.883762188169776
2270.9087316699106,386,59.08707458108811
2271.863784118764,962,60.992346189330014
2272.809473308316,952,62.24063471829979
2273.8019787943795,999,60.20211311496819
2274.860027095561,1066,60.62935583924063
2275.7869897665073,933,63.446154378498086
2276.6577728816387,877,66.56411806794247
2277.56600903398,915,66.13687534367006
2278.5116982235318,952,65.89253766350532
2279.3918445979657,886,64.81309557739252
2280.3468970468193,962,62.567235593164014
2281.4049453480006,1066,59.08707458108811
2282.444267130577,1047,59.08707458108811
2283.399319579431,962,59.96219749160925
2284.4105515840997,1018,60.315284523595366
2285.431146848071,1028,59.716965195864276
2286.4142890748326,990,62.90692935357037
2287.285072189964,877,65.10651744568796
2288.202671601608,924,64.72627712526071
2289.204540346974,1009,63.77915374647787
2290.1127764993157,915,62.32609252198807
2291.095918726077,990,61.606718942801415
2292.135240508653,1047,59.73704378232679
2293.1277459947173,999,61.41480519617068
2294.035982147059,915,61.949339730705226
2295.0472141517275,1018,60.86982490590738
2296.0958991936063,1056,59.79038281979458
2297.05095164246,962,62.73600929733595
2297.9310980168943,886,64.40244480357728
2298.8955137250505,971,63.99972987145058
2299.8692926925096,981,62.21750208671966
2300.824345141363,962,64.69702931339759
2301.685764997192,867,65.3070826264212
2302.6314541867437,952,63.43733472726154
2303.6801392286225,1056,59.12259829017035
2304.738187529804,1066,58.91525990927344
2305.693239978658,962,58.746486205101505
2306.751288279839,1066,58.257624441293146
2307.8374263589276,1094,55.89036101418317
2308.914201178714,1084,57.52616768538807
2309.887980146173,981,59.65083612040132
2310.8617591136317,981,60.67325335215242
2311.882354377603,1028,59.20622038511946
2312.9310394194817,1056,59.40562292432783
2313.8954551276383,971,59.960236045324876
2314.887960613702,999,59.79146234115295
2315.9460089148834,1066,58.12502683491162
2316.994693956762,1056,59.334083438685205
2317.931019887011,943,62.00718614718615
2318.8579825579573,933,63.08670097198399
2319.8504880440214,999,62.06955811484113
2320.8336302707826,990,62.74380053908355
2321.7325031638215,905,65.56059907834101
2322.603286278953,877,65.7562034739454
2323.577065246412,981,62.74944671718865
2324.6163870289884,1047,59.02494802494802
2325.6557088115646,1047,59.846486486486484
2326.5920347418137,943,61.75175809472839
2327.537723931365,952,62.85137199434229
2328.5208661581264,990,61.83422913719943
2329.5040083848876,990,63.90310559006211
2330.3654282407165,867,65.3561668145519
2331.2830276523605,924,65.55177121015629
2332.2568066198196,981,61.75256172399028
2333.2867651430934,1037,62.20664335664335
2334.1856380361323,905,62.81669666966696
2335.1313272256834,952,63.549458247711556
2336.1238327117476,999,61.450401643937965
2337.1163381978113,999,62.55188679245283
2338.0152110908502,905,64.19686176357334
2338.9328105024942,924,65.19443321883207
2339.878499692046,952,65.19443321883207
2340.777372585085,905,67.13184818481847
2341.6200659223086,849,68.70673758865247
2342.5002122967426,886,66.05306786388184
2343.520807560714,1028,61.737916348730316
2344.5507660839876,1037,60.37451209341117
2345.4870920142366,943,59.68083668543845
2346.545140315418,1066,58.83656791073489
2347.6219151352043,1084,57.819425053592035
2348.6050573619655,990,60.492527762092976
2349.532020032912,933,62.06955811484113
2350.5245255189757,999,60.79812954341256
2351.5732105608545,1056,60.79812954341256
2352.500173231801,933,60.79812954341256
2353.492678717865,999,60.79812954341256
2354.5413637597435,1056,58.125026834911615
2355.599412060925,1066,57.57041371391456
2356.6200073248965,1028,60.74898514248599
2357.5188802179355,905,63.206330275229355
2358.455206148184,943,68.44720930232558
2359.2604464481983,811,70.19720930232558
2360.0937765261197,839,71.80495123780945
2360.964559641251,877,70.96774193548387
2361.797889719173,839,67.9089184060721
2362.752942168027,962,64.0126050420168
2363.8016272099053,1056,61.16111989350195
2364.747316399457,952,58.95678552817687
2365.8147279599407,1075,58.29915006019658
2366.9008660390296,1094,55.72454825218969
2367.977640858816,1084,57.330563289783676
2368.960783085577,990,58.33495200451721
2369.990741608851,1037,59.0042822042822
2371.030063391427,1047,57.9046683046683
2372.0693851740034,1047,59.63500133797163
2373.015074363555,952,61.967515670485966
2373.9420370345015,933,62.875215823469134
2374.934542520565,999,61.504478749761766
2375.945774525234,1018,59.891337996434096
2376.9476432706,1009,60.68157107079591
2377.902695719454,962,60.50012356824749
2378.9232909834254,1028,60.13383702104694
2379.9438862473967,1028,59.93052462812861
2380.9083019555533,971,61.27537082348749
2381.8633544044073,962,61.64165737068803
2382.8652231497736,1009,61.442254831479666
2383.839002117232,981,61.03953989935297
2384.8127810846913,981,60.32016632016631
2385.8521028672676,1047,60.51956885937467
2386.8165185754237,971,59.577437596142495
2387.8371138393954,1028,59.07103645816242
2388.904525399879,1075,57.40460095192108
2389.9532104417576,1056,58.74944714727996
2390.9082628906117,962,61.80852340936374
2391.8258623022557,924,63.47495891560507
2392.790278010412,971,62.49639926744674
2393.7921467557785,1009,62.060480900099805
2394.728472686027,943,63.806827348745685
2395.6179823197635,896,66.09421052631578
2396.5168552128025,905,66.98421052631579
