1.63245
1.62757
1.63245
1.62268
1.61779
1.61779
1.61779
1.61779
1.61779
1.62268
1.62757
1.61779
1.61779
1.61290
1.62757
1.65200
1.65200
1.61290
1.61290
1.61290
1.61290
1.61290
1.61290
1.61779
1.61290
1.61290
1.61290
1.61290
1.60802
1.60802
1.60802
1.60802
1.60802
1.61290
1.61779
1.61290
1.61779
1.61779
1.62268
1.62268
1.62757
1.65689
1.62268
1.62268
1.62268
1.62757
1.62757
1.66667
1.62757
1.62757
1.63245
1.63245
1.62757
1.62757
1.62757
1.62757
1.63245
1.63245
1.65689
1.63734
1.64712
1.64223
1.64712
1.65200
1.65689
1.65689
1.65689
1.66178
1.65689
1.66667
1.65689
1.68133
1.65689
1.65689
1.65200
1.65200
1.65200
1.65200
1.65200
1.65200
1.65200
1.65200
1.65689
1.64712
1.67155
1.64712
1.66667
1.64223
1.64223
1.64223
1.65200
1.64712
1.68133
1.64223
1.64223
1.64712
1.64712
1.64223
1.64223
1.64223
1.64223
1.64712
1.64223
1.64223
1.64712
1.64223
1.64223
1.64223
1.64223
1.64712
1.64712
1.64712
1.64712
1.64223
1.64712
1.65200
1.64223
1.64223
1.64712
1.68133
1.63734
1.64223
1.64223
1.64223
1.64712
1.65200
1.65200
1.65200
1.65200
1.64712
1.64223
1.64223
1.65200
1.63245
1.63245
1.65200
1.63245
1.63734
1.63734
1.64223
1.64712
1.64223
1.64223
1.63734
1.64223
1.64223
1.64712
1.65200
1.63245
1.62757
1.62757
1.62757
1.64223
1.62757
1.62757
1.62757
1.62757
1.62757
1.62268
1.61779
1.61290
1.62268
1.64712
1.61290
1.61290
1.61290
1.62268
1.60802
1.60802
1.62757
1.60313
1.60313
1.60313
1.60313
1.60313
1.59824
1.59824
1.59824
1.60313
1.62757
1.59824
1.59824
1.60802
1.59824
1.59824
1.59824
1.59824
1.59824
1.59824
1.59335
1.59335
1.61290
1.58847
1.58847
1.58847
1.58847
1.59335
1.59335
1.59335
1.60802
1.59824
1.59335
1.59335
1.58847
1.59824
1.58358
1.57869
1.58847
1.62268
1.58847
1.59335
1.60313
1.63245
1.60313
1.60313
1.60802
1.60313
1.60313
1.60802
1.60802
1.61290
1.62757
1.61779
1.60802
1.60802
1.60802
1.60802
1.61290
1.61779
1.64223
1.60802
1.60802
1.60802
1.60802
1.60802
1.60313
1.60313
1.60802
1.64223
1.60313
1.60313
1.59824
1.60313
1.64223
1.60313
1.60313
1.60313
1.60313
1.60802
1.60313
1.60313
1.60313
1.60313
1.60802
1.64223
1.60802
1.60802
1.60802
1.60802
1.60802
1.61290
1.60802
1.60802
1.60802
1.64223
1.60313
1.60802
1.60802
1.60802
1.60802
1.60802
1.60802
1.61290
1.61779
1.64223
1.61779
1.61779
1.61290
1.61779
1.60802
1.62268
1.61290
1.65200
1.61779
1.62268
1.62757
1.62757
1.63245
1.63245
1.63734
1.63734
1.64712
1.64223
1.65689
1.64712
1.68133
1.64712
1.64223
1.64223
1.64223
1.64223
1.64223
1.64223
1.64223
1.64712
1.64712
1.65200
1.64712
1.65689
1.64223
1.67644
1.64223
1.63734
1.63734
1.63734
1.64223
1.63734
1.63734
1.63734
1.64223
1.63734
1.64223
1.63734
1.63734
1.67155
1.63734
1.63245
1.63734
1.67155
1.63245
1.62757
1.66667
1.63245
1.63245
1.62757
1.62757
1.62757
1.62757
1.62757
1.62757
1.63245
1.63245
1.65200
1.62757
1.62757
1.62757
1.62757
1.63245
1.62757
1.64712
1.62757
1.62757
1.64223
1.63245
1.63245
1.66178
1.63245
1.63245
1.62757
1.62757
1.64223
1.62268
1.62757
1.62757
1.62757
1.63245
1.64223
1.64223
1.64223
1.64712
1.64712
1.65200
1.65200
1.65689
1.65689
1.66178
1.66178
1.66667
1.66667
1.68133
1.66667
1.70577
1.66667
1.66667
1.66667
1.66667
1.66667
1.66667
1.66667
1.66667
1.67155
1.66667
1.68133
1.66667
1.70577
1.66667
1.66667
1.66178
1.66178
1.66178
1.66667
1.66667
1.66667
1.66667
1.66667
1.67155
1.66667
1.67644
1.66667
1.70577
1.66667
1.70577
1.66667
1.66667
1.66667
1.66667
1.66667
1.66667
1.66667
1.66178
1.66667
1.66667
1.66178
1.66178
1.66178
1.66667
1.66667
1.67155
1.68133
1.69110
1.66178
1.66178
1.66178
1.65689
1.66178
1.68622
1.66667
1.66667
1.67155
1.66667
1.70088
1.66667
1.66178
1.66178
1.66178
1.66178
1.66178
1.66667
1.67644
1.67155
1.67155
1.67644
1.67644
1.68133
1.68622
1.68622
1.68622
1.68622
1.68622
1.69110
1.68133
1.71065
1.68133
1.69110
1.68133
1.68133
1.68133
1.68133
1.68133
1.68133
1.68622
1.67644
1.68133
1.67155
1.68133
1.67155
1.67155
1.67155
1.67644
1.68622
1.66667
1.66667
1.68622
1.66667
1.66667
1.66667
1.66667
1.67155
1.67644
1.65689
1.65689
1.65689
1.65689
1.65689
1.65689
1.65200
1.65200
1.67155
1.64712
1.64712
1.64223
1.64223
1.64223
1.64223
1.64223
1.63734
1.63245
1.63245
1.64712
1.63245
1.63245
1.64223
1.63245
1.62757
1.66667
1.62268
1.61779
1.61779
1.65200
1.61290
1.61290
1.61779
1.61290
1.61290
1.64223
1.61779
1.61779
1.62268
1.64223
1.61779
1.61779
1.64223
1.61779
1.61779
1.61290
1.61290
1.61290
1.61290
1.60802
1.60802
1.60802
1.61290
1.60802
1.60802
1.60802
1.60802
1.60313
1.60802
1.60313
1.60313
1.59824
1.60313
1.59824
1.60313
1.59824
1.59824
1.59824
1.59824
1.59824
1.59824
1.59824
1.59824
1.60802
1.59824
1.59335
1.59335
1.59824
1.62268
1.59335
1.59335
1.58358
1.57869
1.56891
1.55425
1.53959
1.52981
1.55425
1.50538
1.50049
1.49071
1.49071
1.48583
1.48583
1.48094
1.49071
1.49071
1.50049
1.49560
1.51026
1.49560
1.51515
1.49071
1.52493
1.48583
1.50538
1.48583
1.50538
1.49071
1.49560
1.50049
1.50538
1.51026
1.51515
1.54448
1.52981
1.54448
1.54936
1.55425
1.55914
1.56403
1.56891
1.58358
1.60802
1.58358
1.59335
1.59335
1.59824
1.60802
1.60313
1.60802
1.60802
1.61290
1.61290
1.61779
1.61779
1.62268
1.61779
1.63245
1.62268
1.64223
1.62757
1.66667
1.62757
1.63245
1.62757
1.63245
1.63245
1.63245
1.63734
1.63245
1.63734
1.63734
1.64712
1.63734
1.66178
1.63734
1.64712
1.63245
1.63245
1.63245
1.63245
1.63245
1.63245
1.63734
1.63734
1.64223
1.63734
1.65689
1.63245
1.66178
1.63245
1.63245
1.63245
1.63245
1.63734
1.63734
1.64223
1.63734
1.64712
1.63734
1.65200
1.63245
1.66667
1.62757
1.62757
1.62757
1.63245
1.63245
1.63734
1.64223
1.64223
1.64712
1.64712
1.65689
1.64712
1.68133
1.65200
1.65689
1.65200
1.65200
1.65200
1.65200
1.65689
1.65200
1.65689
1.65200
1.65689
1.65200
1.66667
1.65689
1.69110
1.65200
1.65200
1.65200
1.65200
1.65200
1.65200
1.65200
1.64712
1.64712
1.64712
1.65689
1.64712
1.64712
1.64712
1.68622
1.64712
1.64712
1.64712
1.65200
1.65200
1.65689
1.65689
1.69110
1.65689
1.65689
1.65689
1.65689
1.66178
1.66178
1.66667
1.66178
1.66667
1.66178
1.67155
1.66178
1.68133
1.66178
1.70088
1.66667
1.66667
1.66178
1.66178
1.66178
1.66178
1.66178
1.66178
1.66667
1.66667
1.67644
1.67155
1.69110
1.67155
1.71554
1.67155
1.66667
1.66667
1.66667
1.67155
1.67155
1.68133
1.68133
1.69110
1.69110
1.71065
1.70088
1.74487
1.70577
1.70577
1.70088
1.70088
1.70088
1.70088
1.70577
1.70088
1.70577
1.70088
1.70577
1.70088
1.72532
1.70088
1.71065
1.70088
1.70088
1.70088
1.69599
1.69599
1.69110
1.69599
1.69110
1.68622
1.69599
1.71065
1.68622
1.68622
1.68622
1.68133
1.68133
1.68622
1.68133
1.68622
1.68133
1.68133
1.68133
1.67644
1.67644
1.67644
1.67644
1.68133
1.67155
1.67155
1.67155
1.67155
1.71065
1.66667
1.66667
1.66667
1.66178
1.66667
1.66178
1.66178
1.67155
1.65689
1.65689
1.65200
1.67644
1.65200
1.65200
1.69110
1.65200
1.64712
1.66667
1.64223
1.64223
1.64223
1.63734
1.63734
1.64223
1.64712
1.64712
1.65200
1.65689
1.68133
1.65689
1.66178
1.66667
1.66178
1.66178
1.66178
1.65689
1.65200
1.65200
1.64712
1.64223
1.66178
1.63734
1.63734
1.63734
1.63245
1.63245
1.64223
1.62757
1.62757
1.63245
1.62268
1.62268
1.65689
1.61779
1.61290
1.62268
1.61290
1.61290
1.60802
1.60802
1.61290
1.60802
1.60802
1.61290
1.63245
1.60802
1.60802
1.60313
1.60313
1.60313
1.60802
1.60313
1.60313
1.64223
1.60313
1.60313
1.62268
1.60313
1.60313
1.61779
1.59824
1.59824
1.60802
1.59335
1.59335
1.60313
1.59335
1.59335
1.59335
1.63245
1.59335
1.59824
1.59824
1.59824
1.60802
1.59824
1.59335
1.59824
1.59335
1.59824
1.60313
1.60313
1.60802
1.61779
1.62268
1.62757
1.64223
1.62757
1.62757
1.62757
1.63245
1.63245
1.63245
1.63245
1.63245
1.63245
1.63245
1.63245
1.62757
1.63734
1.62757
1.64712
1.62757
1.66178
1.62268
1.62268
1.62268
1.61779
1.61779
1.61779
1.61290
1.61290
1.61290
1.64712
1.61779
1.61779
1.62268
1.63245
1.63734
1.62757
1.63245
1.62757
1.62757
1.63245
1.63245
1.62757
1.63245
1.62757
1.63245
1.62757
1.63734
1.62757
1.65200
1.62757
1.63734
1.62757
1.62268
1.62268
1.62757
1.61779
1.61779
1.61779
1.61290
1.61290
1.60802
1.61779
1.60313
1.59824
1.59335
1.59335
1.58358
1.57380
1.56403
1.53959
1.51515
1.50538
1.43695
1.38807
1.31965
1.26100
1.16813
1.13881
1.05572
1.02639
1.02151
1.03128
1.05083
1.07527
1.10459
1.13392
1.16813
1.18768
1.22190
1.23656
1.27077
1.27566
1.33431
1.30987
1.32454
1.33920
1.35386
1.36852
1.37830
1.38807
1.39785
1.41251
1.41740
1.43206
1.44184
1.45650
1.46628
1.47605
1.51515
1.49071
1.49560
1.50049
1.50538
1.53470
1.51515
1.52493
1.52981
1.53470
1.54448
1.55425
1.56403
1.56891
1.57869
1.58847
1.59335
1.59824
1.60313
1.60313
1.60313
1.60802
1.60802
1.60313
1.60313
1.60802
1.61290
1.61290
1.62268
1.62268
1.63734
1.63245
1.67644
1.64223
1.64712
1.64712
1.65200
1.65200
1.65689
1.65689
1.65689
1.65689
1.65200
1.66178
1.65689
1.68133
1.66178
1.68133
1.66667
1.67155
1.67644
1.67644
1.67644
1.67644
1.67644
1.67155
1.68133
1.67644
1.70088
1.69110
1.73998
1.70577
1.71554
1.72532
1.73021
1.73509
1.73509
1.73998
1.73509
1.73509
1.73021
1.73509
1.72043
1.75464
1.71065
1.70577
1.70088
1.70088
1.70088
1.69599
1.70088
1.70088
1.70577
1.71065
1.70577
1.70088
1.70088
1.70088
1.73509
1.69110
1.68622
1.69110
1.69110
1.70577
1.69110
1.69599
1.69599
1.69599
1.69599
1.73509
1.69110
1.69110
1.69110
1.68622
1.68622
1.68622
1.69110
1.70577
1.67644
1.67644
1.67644
1.68133
1.72043
1.67644
1.67644
1.67644
1.71065
1.66667
1.66667
1.66667
1.66667
1.69110
1.65689
1.66178
1.67155
1.65200
1.65200
1.65200
1.65200
1.65200
1.65200
1.65200
1.65200
1.65200
1.67155
1.65689
1.66178
1.66667
1.67155
1.68133
1.69110
1.68622
1.69110
1.69599
1.73021
1.70088
1.70088
1.70088
1.70088
1.70088
1.69599
1.69599
1.69110
1.68622
1.68133
1.69110
1.67644
1.71065
1.67155
1.66667
1.70088
1.66667
1.67155
1.64712
1.64712
1.64223
1.64223
1.63734
1.63245
1.63245
1.63245
1.63245
1.63245
1.63734
1.63245
1.63245
1.63245
1.63245
1.62757
1.62757
1.62757
1.62268
1.61779
1.61290
1.60802
1.60802
1.61779
1.60313
1.59824
1.60313
1.59824
1.59335
1.59335
1.59335
1.58847
1.60802
1.58847
1.58847
1.62757
1.58847
1.59335
1.58847
1.59335
1.61779
1.59824
1.59824
1.59824
1.59824
1.59335
1.63245
1.59824
1.60313
1.60313
1.61290
1.62268
1.64223
1.63245
1.64223
1.64712
1.64712
1.65200
1.65200
1.69599
1.65689
1.65689
1.65200
1.65200
1.65200
1.65200
1.65200
1.65200
1.65200
1.64712
1.65200
1.64223
1.65689
1.64223
1.67644
1.63245
1.63245
1.62757
1.62757
1.62268
1.62757
1.62757
1.62757
1.62757
1.63245
1.67155
1.62757
1.62757
1.62757
1.62757
1.62757
1.66667
1.62268
1.61779
1.62757
1.61779
1.61290
1.64712
1.61290
1.61290
1.61290
1.60802
1.61290
1.60802
1.60802
1.62757
1.60313
1.59824
1.60313
1.62757
1.59824
1.60313
1.59824
1.59335
1.59824
1.59824
1.62268
1.60313
1.60313
1.60802
1.60802
1.60802
1.61290
1.61779
1.65689
1.62757
1.64223
1.65689
1.66178
1.67155
1.67644
1.68622
1.69110
1.70088
1.69110
1.72532
1.68622
1.68133
1.68133
1.68133
1.68133
1.67644
1.67644
1.67644
1.67644
1.67155
1.67644
1.66667
1.68133
1.65689
1.69599
1.65200
1.65689
1.64712
1.64223
1.65200
1.63734
1.63734
1.63734
1.63734
1.66178
1.63734
1.63734
1.64712
1.67155
1.63734
1.63734
1.63734
1.63734
1.63734
1.63245
1.63245
1.63734
1.63734
1.63734
1.64223
1.64223
1.64223
1.68622
1.64223
1.64223
1.64223
1.66178
1.64223
1.63734
1.64223
1.64712
1.68133
1.64712
1.65200
1.65689
1.65200
1.64712
1.64712
1.67155
1.65200
1.65200
1.65200
1.65200
1.65200
1.65200
1.65689
1.65689
1.66667
1.66667
1.68133
1.68622
1.71065
1.70577
1.74976
1.72043
1.72043
1.72043
1.72043
1.72043
1.71554
1.71065
1.71065
1.71065
1.70577
1.71554
1.71065
1.73021
1.70577
1.73998
1.70088
1.69599
1.69599
1.69110
1.69110
1.68622
1.68133
1.67644
1.67644
1.68622
1.67155
1.67644
1.68133
1.67155
1.67155
1.70577
1.66667
1.66667
1.66667
1.66178
1.66178
1.67644
1.65689
1.66178
1.66178
1.66178
1.66178
1.66178
1.66178
1.66667
1.65689
1.65200
1.65200
1.68622
1.64223
1.64223
1.63734
1.66667
1.63245
1.63245
1.64712
1.62757
1.62757
1.63734
1.63734
1.64223
1.64223
1.64712
1.64223
1.64223
1.64223
1.63245
1.62757
1.62757
1.62268
1.63245
1.63245
1.65689
1.64223
1.64712
1.65689
1.65689
1.65689
1.65689
1.65689
1.65689
1.65200
1.64712
1.64223
1.67155
1.63734
1.63245
1.63245
1.62757
1.62268
1.62268
1.62757
1.65689
1.61779
1.61290
1.61290
1.60802
1.60802
1.64223
1.60313
1.60802
1.60313
1.59824
1.62268
1.59824
1.59335
1.60313
1.58847
1.58847
1.62268
1.58358
1.58358
1.61779
1.58358
1.58358
1.59335
1.58847
1.58847
1.58847
1.58847
1.58358
1.57869
1.57869
1.57869
1.57380
1.56891
1.56891
1.56891
1.56403
1.56403
1.56403
1.60313
1.56891
1.57380
1.56891
1.56891
1.56891
1.56403
1.56403
1.58358
1.56403
1.56891
1.58847
1.57380
1.58358
1.58358
1.58847
1.62268
1.59335
1.59335
1.59335
1.60802
1.59824
1.60313
1.60313
1.60313
1.60313
1.60313
1.61290
1.60313
1.60313
1.61290
1.60313
1.60313
1.60313
1.60313
1.60313
1.61290
1.63734
1.59824
1.60313
1.60313
1.60802
1.60802
1.60313
1.60313
1.60313
1.63734
1.59824
1.59824
1.59824
1.59335
1.59335
1.59335
1.58847
1.58847
1.59335
1.61290
1.58847
1.59335
1.60313
1.61290
1.59335
1.59335
1.59335
1.62268
1.58847
1.58847
1.58358
1.58847
1.58847
1.59824
1.58358
1.58847
1.58847
1.61290
1.59335
1.59824
1.60313
1.60313
1.59824
1.59824
1.63245
1.59335
1.58847
1.59335
1.58847
1.59335
1.59335
1.60313
1.59824
1.60313
1.61290
1.61290
1.62268
1.62268
1.63245
1.63245
1.66178
1.64223
1.65689
1.64712
1.64712
1.64712
1.64712
1.64223
1.64223
1.64712
1.64223
1.64223
1.63734
1.64223
1.63734
1.65200
1.63734
1.67155
1.63245
1.64712
1.63245
1.63245
1.63245
1.63245
1.63734
1.63734
1.63734
1.63734
1.64223
1.64223
1.64712
1.63734
1.64712
1.63734
1.66667
1.63734
1.64712
1.63734
1.63734
1.63734
1.63734
1.64223
1.64223
1.64223
1.64223
1.64712
1.64223
1.65200
1.64223
1.67155
1.63734
1.63734
1.63734
1.63245
1.63245
1.63734
1.63734
1.63734
1.63734
1.64223
1.64223
1.64712
1.64223
1.64223
1.64223
1.64223
1.63734
1.64223
1.64223
1.64712
1.64712
1.65689
1.65689
1.67155
1.67155
1.69110
1.67644
1.71554
1.68622
1.72532
1.68622
1.69110
1.69110
1.69599
1.69599
1.69599
1.70088
1.69599
1.70088
1.69599
1.70577
1.69599
1.71065
1.69599
1.73509
1.69110
1.70088
1.68622
1.68622
1.68133
1.68622
1.68622
1.68622
1.68622
1.68133
1.68622
1.71065
1.68133
1.67644
1.67644
1.68133
1.68133
1.68133
1.70088
1.68133
1.68133
1.68133
1.68133
1.68622
1.68133
1.67644
1.67644
1.67644
1.67644
1.67155
1.67155
1.67644
1.67155
1.66667
1.66667
1.67155
1.67155
1.66178
1.66178
1.66667
1.66178
1.66178
1.66178
1.66667
1.66178
1.66667
1.66178
1.66178
1.65689
1.65200
1.66178
1.65200
1.65200
1.66178
1.67644
1.66667
1.66667
1.67644
1.71554
1.68133
1.68133
1.69599
1.68622
1.72532
1.68622
1.68622
1.68622
1.68622
1.68133
1.68622
1.68622
1.68622
1.69110
1.68622
1.69599
1.68622
1.69599
1.68133
1.71554
1.67644
1.71065
1.67155
1.67644
1.68622
1.67155
1.67155
1.66667
1.66667
1.67644
1.66178
1.65689
1.65689
1.65689
1.65200
1.64712
1.64712
1.64712
1.64223
1.64223
1.64712
1.66667
1.63734
1.63734
1.64223
1.63734
1.63245
1.63245
1.62757
1.62757
1.62268
1.62268
1.62268
1.62268
1.62268
1.61779
1.61779
1.62757
1.61779
1.62268
1.62757
1.61290
1.61290
1.61290
1.61290
1.60802
1.61290
1.61779
1.65689
1.61779
1.62268
1.62757
1.62757
1.63734
1.62757
1.62757
1.63245
1.62757
1.62268
1.62757
1.62268
1.61779
1.62268
1.61779
1.61779
1.61779
1.62268
1.62268
1.62757
1.62757
1.62757
1.62757
1.63245
1.62757
1.62757
1.62268
1.62268
1.62268
1.61779
1.61290
1.61290
1.61779
1.61290
1.61290
1.61290
1.61290
1.64712
1.60802
1.60802
1.61290
1.61290
1.61290
1.61290
1.62757
1.60802
1.61290
1.62757
1.64223
1.60802
1.60313
1.61290
1.60313
1.59824
1.59824
1.60802
1.59335
1.59335
1.59824
1.59335
1.59335
1.59335
1.60313
1.59824
1.61290
1.59335
1.59335
1.59335
1.59335
1.60313
1.59335
1.59335
1.60802
1.60802
1.61290
1.61779
1.62268
1.62757
1.62757
1.63245
1.65200
1.63245
1.65689
1.63245
1.63245
1.63245
1.63245
1.63245
1.62757
1.62757
1.62757
1.63245
1.62757
1.63734
1.63245
1.65200
1.62757
1.65689
1.62757
1.62757
1.62757
1.62757
1.62757
1.62268
1.62757
1.62268
1.62757
1.62757
1.64223
1.62757
1.65200
1.62757
1.65200
1.62268
1.62268
1.62268
1.62268
1.62268
1.65689
1.61779
1.62268
1.62268
1.62268
1.61779
1.62268
1.62268
1.62757
1.61779
1.61779
1.62757
1.61290
1.61290
1.61290
1.61290
1.60802
1.60802
1.60802
1.61779
1.60802
1.60802
1.61290
1.63245
1.61290
1.60802
1.61779
1.62757
1.61290
1.61779
1.62268
1.63245
1.66667
1.64712
1.65200
1.65200
1.66667
1.65689
1.68133
1.65689
1.69110
1.65689
1.65689
1.65689
1.65689
1.65200
1.65200
1.65200
1.64712
1.65200
1.64712
1.65200
1.64712
1.65689
1.64712
1.68133
1.64223
1.64223
1.64223
1.63734
1.63245
1.66178
1.63734
1.63245
1.63734
1.64223
1.63245
1.63245
1.63245
1.63734
1.63245
1.62757
1.62757
1.64223
1.62757
1.62757
1.62268
1.62757
1.66178
1.62268
1.62268
1.62757
1.65200
1.61779
1.62268
1.61779
1.61290
1.61779
1.61290
1.61290
1.62757
1.61290
1.61290
1.61290
1.61290
1.60802
1.60802
1.60802
1.60802
1.63734
1.60313
1.60313
1.60802
1.60802
1.60802
1.60802
1.60802
1.60313
1.60802
1.60313
1.60802
1.61290
1.61290
1.61290
1.62268
1.65200
1.63245
1.63734
1.64223
1.66178
1.64223
1.68133
1.64223
1.64223
1.64223
1.64223
1.64223
1.63734
1.64223
1.63734
1.64223
1.63734
1.63734
1.63245
1.64712
1.63245
1.67155
1.63245
1.63245
1.62757
1.62757
1.63245
1.62757
1.62757
1.66667
1.62757
1.62268
1.62268
1.63245
1.64712
1.62757
1.62757
1.63245
1.62268
1.62268
1.62268
1.62268
1.63245
1.64223
1.62268
1.62268
1.62268
1.61779
1.64223
1.61779
1.61779
1.65200
1.61290
1.61290
1.61290
1.61290
1.61779
1.61290
1.60802
1.60802
1.60802
1.60802
1.63734
1.60802
1.60802
1.61779
1.60802
1.60802
1.60802
1.60802
1.62757
1.63245
1.60802
1.60802
1.61290
1.60802
1.60313
1.61290
1.60802
1.60313
1.60802
1.64223
1.61290
1.61779
1.62268
1.64223
1.62757
1.62757
1.63245
1.63245
1.63245
1.63734
1.63245
1.64712
1.63245
1.67155
1.63245
1.62757
1.62757
1.62757
1.62757
1.62757
1.62757
1.62757
1.62757
1.62268
1.62757
1.62268
1.64223
1.62268
1.66178
1.61779
1.64223
1.62268
1.62268
1.62757
1.62268
1.62268
1.62757
1.62757
1.62757
1.62757
1.62757
1.63245
1.62757
1.62757
1.62757
1.62757
1.62757
1.62757
1.62757
1.62757
1.62268
1.62268
1.62757
1.62268
1.62268
1.62268
1.62757
1.62268
1.62268
1.62268
1.62268
1.62268
1.61779
1.61779
1.61779
1.61779
1.61779
1.62757
1.61779
1.61779
1.62268
1.62268
1.64712
1.62268
1.61779
1.61779
1.62757
1.61290
1.61290
1.61290
1.65200
1.61779
1.61779
1.62268
1.63245
1.63734
1.63734
1.64223
1.64712
1.64223
1.64712
1.63734
1.65689
1.63734
1.67155
1.63734
1.63245
1.63245
1.63245
1.63245
1.63245
1.63734
1.63245
1.63734
1.63245
1.63734
1.63245
1.64223
1.63245
1.65200
1.63245
1.65200
1.64223
1.63245
1.63734
1.67644
1.64223
1.64223
1.64223
1.64223
1.64223
1.64712
1.64712
1.64712
1.65200
1.65200
1.66178
1.65200
1.68133
1.65689
1.68133
1.65689
1.65689
1.65689
1.65689
1.65689
1.65689
1.65689
1.65689
1.66178
1.65200
1.66667
1.65200
1.68622
1.65200
1.65689
1.65689
1.66178
1.66178
1.66667
1.66667
1.66178
1.66178
1.65689
1.66178
1.65200
1.68133
1.65689
1.70577
1.66667
1.68133
1.68133
1.68133
1.68622
1.68622
1.69110
1.69110
1.69110
1.69110
1.69599
1.68622
1.69599
1.68622
1.71554
1.68133
1.69599
1.68133
1.68133
1.68133
1.68133
1.68133
1.68133
1.68133
1.67644
1.68622
1.67644
1.70577
1.67644
1.67644
1.68133
1.67644
1.67644
1.67155
1.67155
1.67644
1.68133
1.68622
1.67155
1.67155
1.67155
1.67644
1.67155
1.67644
1.67155
1.67155
1.67644
1.67155
1.67155
1.67155
1.66667
1.66667
1.66667
1.69599
1.66667
1.66178
1.67155
1.66178
1.66667
1.70577
1.66667
1.66667
1.67644
1.66667
1.66667
1.66178
1.66667
1.66178
1.66178
1.70088
1.67155
1.67644
1.68133
1.68133
1.68622
1.73021
1.69599
1.69599
1.69599
1.69599
1.69599
1.69599
1.69599
1.69110
1.69110
1.68133
1.68622
1.68133
1.70088
1.67644
1.70088
1.68133
1.67644
1.67644
1.67644
1.66667
1.66667
1.66178
1.66178
1.66178
1.68622
1.65689
1.65689
1.65689
1.66667
1.65200
1.65200
1.64712
1.64712
1.66178
1.64712
1.64712
1.65200
1.66667
1.64712
1.64712
1.64223
1.64223
1.67644
1.63734
1.63734
1.64223
1.63245
1.62757
1.66178
1.62757
1.62757
1.65689
1.62757
1.62757
1.64223
1.62268
1.62268
1.65689
1.61779
1.61779
1.62268
1.64223
1.62757
1.62757
1.63734
1.63734
1.64223
1.65200
1.64223
1.64712
1.64223
1.64223
1.64223
1.64223
1.63734
1.63734
1.63734
1.65200
1.63245
1.62757
1.62757
1.62757
1.63245
1.62757
1.62757
1.63245
1.66178
1.62757
1.62268
1.62757
1.62268
1.61779
1.62268
1.61779
1.62268
1.62268
1.65200
1.61779
1.61779
1.61779
1.62268
1.64223
1.61779
1.61779
1.61779
1.62268
1.61290
1.61290
1.64223
1.61290
1.60802
1.64223
1.60802
1.60802
1.61779
1.60313
1.60313
1.63734
1.59824
1.60313
1.60802
1.60313
1.60313
1.60313
1.60802
1.59824
1.59824
1.60313
1.60802
1.59824
1.60313
1.60313
1.64712
1.61290
1.61779
1.64712
1.61779
1.61779
1.61779
1.61779
1.61779
1.62268
1.61779
1.61290
1.61290
1.61290
1.60802
1.61290
1.60802
1.60802
1.60802
1.61779
1.61290
1.60802
1.60802
1.60802
1.61290
1.60802
1.60313
1.60313
1.60313
1.60313
1.60313
1.60313
1.60313
1.60313
1.60802
1.60313
1.59824
1.59824
1.60313
1.60313
1.61290
1.60313
1.60313
1.59824
1.59824
1.60313
1.61290
1.60313
1.60313
1.60313
1.59824
1.59824
1.59335
1.59824
1.59335
1.59335
1.59824
1.59335
1.59824
1.59824
1.63245
1.59824
1.59824
1.59824
1.59335
1.59335
1.59335
1.59335
1.61290
1.59335
1.59824
1.60313
1.63734
1.60313
1.60313
1.60802
1.60802
1.60802
1.60802
1.60802
1.60313
1.60313
1.60313
1.60313
1.60313
1.60802
1.60313
1.60313
1.60313
1.60313
1.60313
1.64223
1.60802
1.60802
1.60802
1.60313
1.60313
1.60313
1.60313
1.64223
1.60313
1.60313
1.60802
1.62757
1.60313
1.60313
1.60313
1.60313
1.60313
1.60802
1.61290
1.61290
1.60802
1.60802
1.60802
1.60802
1.61290
1.64223
1.60802
1.60802
1.63245
1.60802
1.61290
1.61290
1.61290
1.61290
1.60802
1.61290
1.60802
1.61779
1.61290
1.63245
1.60802
1.64712
1.60802
1.61290
1.61290
1.61290
1.61290
1.61779
1.62268
1.62268
1.62268
1.61779
1.62757
1.61290
1.62757
1.60802
1.63734
1.61290
1.61290
1.61290
1.61779
1.62268
1.62268
1.62757
1.62268
1.62757
1.62268
1.64712
1.61779
1.63734
1.62268
1.63245
1.62268
1.61779
1.62268
1.61779
1.61779
1.61779
1.61779
1.61779
1.62268
1.62268
1.63245
1.62268
1.66178
1.61779
1.62268
1.62268
1.61779
1.62268
1.62268
1.62268
1.62268
1.62757
1.62268
1.63245
1.62268
1.66178
1.62268
1.64712
1.62757
1.62757
1.62268
1.62757
1.62757
1.62757
1.63245
1.62757
1.63245
1.63245
1.63734
1.63245
1.65200
1.63245
1.66667
1.62757
1.62757
1.62757
1.62757
1.63245
1.62757
1.63245
1.63245
1.63734
1.63245
1.64223
1.63734
1.65689
1.63245
1.66178
1.63245
1.63245
1.63245
1.63245
1.63245
1.63245
1.63734
1.63734
1.64223
1.63734
1.65689
1.63734
1.67644
1.63245
1.63245
1.62757
1.62757
1.62757
1.62757
1.64223
1.63734
1.63734
1.64223
1.66667
1.64712
1.66178
1.64712
1.64712
1.65200
1.65200
1.65200
1.65200
1.65689
1.65200
1.66178
1.64712
1.68133
1.64712
1.64712
1.64712
1.65200
1.65200
1.65200
1.65689
1.65200
1.65689
1.65200
1.66667
1.65689
1.69110
1.65689
1.65689
1.65689
1.65689
1.66178
1.66178
1.66667
1.66178
1.66667
1.66178
1.67155
1.66667
1.69110
1.66667
1.68133
1.66667
1.66667
1.66667
1.66667
1.67155
1.66667
1.67155
1.66667
1.67644
1.66667
1.68622
1.66667
1.70088
1.66667
1.66667
1.66667
1.67155
1.67155
1.67155
1.67644
1.67155
1.67644
1.67644
1.68133
1.67155
1.70088
1.67155
1.70577
1.67155
1.67155
1.67155
1.67644
1.68133
1.67644
1.68133
1.67644
1.67644
1.67155
1.67644
1.66667
1.66667
1.70577
1.67155
1.67644
1.67644
1.71065
1.68133
1.68622
1.68622
1.70088
1.68622
1.72043
1.68622
1.69110
1.68622
1.68622
1.68133
1.68133
1.68133
1.67644
1.68133
1.67644
1.68622
1.67644
1.70577
1.68133
1.69110
1.68133
1.68133
1.67644
1.68133
1.69599
1.67644
1.67644
1.67644
1.68622
1.67644
1.67644
1.70577
1.67644
1.67644
1.67155
1.67155
1.67644
1.67155
1.67155
1.67155
1.67644
1.67644
1.67155
1.67155
1.67644
1.69110
1.67155
1.67155
1.67155
1.68133
1.66667
1.66667
1.70088
1.66178
1.66667
1.66178
1.66178
1.66178
1.67644
1.65689
1.65689
1.66178
1.66667
1.65689
1.65689
1.66178
1.66178
1.66178
1.66667
1.66178
1.65689
1.65200
1.65200
1.66178
1.65200
1.65689
1.66178
1.68622
1.66667
1.67155
1.67155
1.69599
1.67644
1.67644
1.68133
1.67155
1.67155
1.67155
1.66667
1.66667
1.66178
1.66178
1.66178
1.65689
1.65200
1.65200
1.65200
1.64712
1.64712
1.64712
1.67644
1.64712
1.64223
1.65689
1.64223
1.64223
1.67155
1.64223
1.64223
1.64223
1.63734
1.63734
1.63734
1.67155
1.63734
1.63245
1.64223
1.63245
1.63245
1.62757
1.65689
1.62757
1.63245
1.62757
1.62757
1.62757
1.62757
1.62757
1.62757
1.62268
1.62268
1.62268
1.62268
1.62268
1.61779
1.61779
1.61779
1.61290
1.61290
1.61779
1.61290
1.61290
1.62268
1.61779
1.61290
1.61290
1.61779
1.60802
1.61290
1.62268
1.61779
1.61779
1.62757
1.63245
1.63734
1.63734
1.64223
1.64712
1.65200
1.64712
1.64712
1.64223
1.64712
1.63734
1.64712
1.63734
1.67155
1.63734
1.63245
1.62757
1.62757
1.63245
1.62757
1.62757
1.62757
1.62757
1.62268
1.62268
1.62268
1.62757
1.61779
1.61779
1.61779
1.63734
1.61779
1.61779
1.61779
1.65200
1.61290
1.61290
1.61779
1.61290
1.61290
1.60802
1.61290
1.62268
1.60313
1.60313
1.61290
1.59824
1.60313
1.59824
1.59824
1.59824
1.59335
1.59335
1.59335
1.60802
1.58847
1.58847
1.58847
1.62268
1.58358
1.58358
1.61779
1.58358
1.58847
1.58358
1.57869
1.58358
1.60313
1.58358
1.58358
1.58358
1.59335
1.58358
1.58847
1.58358
1.63245
1.59335
1.60313
1.60802
1.61290
1.62268
1.62757
1.62757
1.63245
1.63734
1.63734
1.64223
1.63734
1.64712
1.63734
1.67155
1.63734
1.63734
1.63245
1.63245
1.63245
1.62757
1.63245
1.62757
1.63245
1.62757
1.63734
1.62268
1.66178
1.61779
1.61290
1.61290
1.61290
1.60802
1.60802
1.60802
1.64223
1.60802
1.60313
1.60802
1.64223
1.60313
1.60313
1.60313
1.61290
1.59824
1.59824
1.59824
1.62268
1.59335
1.59335
1.59335
1.59335
1.60313
1.59335
1.59335
1.58847
1.58847
1.58847
1.61779
1.58358
1.58358
1.59335
1.59824
1.61779
1.58358
1.58358
1.58358
1.58847
1.58358
1.57869
1.58847
1.58358
1.57869
1.62268
1.58358
1.58358
1.58847
1.58847
1.58358
1.58358
1.59335
1.59335
1.59335
1.60313
1.60313
1.61290
1.61779
1.62268
1.62268
1.63245
1.62757
1.63734
1.63245
1.64712
1.63245
1.67155
1.63245
1.63245
1.62757
1.62757
1.63245
1.62757
1.62757
1.62757
1.62757
1.62268
1.64223
1.62268
1.66178
1.61779
1.61779
1.61290
1.61290
1.61290
1.61290
1.61290
1.61290
1.61290
1.61290
1.61290
1.61779
1.61779
1.61779
1.62268
1.62268
1.62268
1.61779
1.63245
1.61779
1.61779
1.62268
1.61290
1.60802
1.60802
1.60802
1.60313
1.60313
1.60313
1.59824
1.59335
1.59335
1.59824
1.59335
1.58847
1.58847
1.62268
1.58847
1.58847
1.62757
1.58847
1.58847
1.58358
1.58358
1.62757
1.58847
1.58847
1.58847
1.58847
1.58847
1.58358
1.59335
1.57869
1.58358
1.58358
1.58847
1.58847
1.58847
1.59335
1.60313
1.63734
1.60802
1.61290
1.61290
1.64223
1.61779
1.61779
1.63734
1.61779
1.65689
1.61779
1.61779
1.62268
1.61779
1.62268
1.61779
1.62268
1.61779
1.62268
1.62268
1.63245
1.62268
1.65689
1.62268
1.66178
1.61779
1.61779
1.61779
1.61779
1.61779
1.61779
1.62268
1.61779
1.62757
1.62268
1.63734
1.62268
1.66178
1.61779
1.62268
1.62268
1.62268
1.62268
1.62268
1.62268
1.62268
1.62268
1.62268
1.62757
1.61779
1.64712
1.61779
1.62757
1.62268
1.62268
1.62268
1.62268
1.62757
1.62757
1.63245
1.62757
1.63245
1.63245
1.63734
1.63245
1.64223
1.63245
1.65200
1.63734
1.66667
1.63734
1.64223
1.64223
1.64223
1.63734
1.63245
1.63245
1.62757
1.63245
1.62757
1.63734
1.63734
1.65200
1.64223
1.68622
1.65200
1.65200
1.65689
1.65689
1.66178
1.66178
1.66667
1.66178
1.66667
1.66178
1.67155
1.66178
1.68622
1.66178
1.67155
1.66178
1.66667
1.66667
1.66667
1.67155
1.66667
1.67155
1.66667
1.67155
1.66667
1.68133
1.66667
1.71065
1.66667
1.67155
1.66667
1.67155
1.67155
1.67155
1.67644
1.67155
1.67644
1.67155
1.68133
1.67644
1.70577
1.67155
1.67155
1.67155
1.67155
1.67155
1.67155
1.67644
1.67155
1.67644
1.67644
1.68133
1.67155
1.69599
1.67155
1.69110
1.67155
1.67644
1.67155
1.67155
1.66667
1.67155
1.70088
1.67155
1.67644
1.68133
1.67644
1.67155
1.66667
1.66178
1.66178
1.69110
1.65689
1.65689
1.66178
1.66667
1.66667
1.67155
1.67644
1.68133
1.72043
1.68133
1.68622
1.68133
1.69599
1.67644
1.72043
1.68133
1.67644
1.67644
1.67644
1.67644
1.67644
1.67644
1.67644
1.68133
1.68133
1.68133
1.67644
1.68622
1.67155
1.67155
1.67155
1.67155
1.67155
1.67644
1.66667
1.66667
1.66667
1.66667
1.66178
1.66667
1.70577
1.66667
1.66178
1.67155
1.66667
1.66667
1.66667
1.68622
1.66667
1.66667
1.67155
1.67155
1.66178
1.66667
1.66178
1.66178
1.69110
1.65689
1.65689
1.66178
1.65689
1.65689
1.65689
1.66178
1.65689
1.66178
1.66178
1.66667
1.65689
1.65200
1.65200
1.64712
1.64223
1.65200
1.64712
1.64223
1.67155
1.65200
1.65689
1.67155
1.66178
1.66178
1.66178
1.66667
1.66178
1.66178
1.66178
1.66178
1.66667
1.65689
1.65689
1.65689
1.65200
1.65200
1.65689
1.65200
1.65200
1.65200
1.65200
1.65689
1.67155
1.65200
1.64712
1.65689
1.64712
1.64712
1.64712
1.68622
1.64223
1.64223
1.64223
1.64223
1.68133
1.63734
1.64223
1.63734
1.63734
1.63734
1.63734
1.64712
1.63734
1.63734
1.64712
1.63734
1.63734
1.63734
1.63734
1.63734
1.63245
1.62757
1.66667
1.62757
1.62757
1.62757
1.66178
1.62268
1.62757
1.62757
1.62268
1.62268
1.63734
1.62268
1.62268
1.62268
1.61290
1.61290
1.61779
1.61290
1.61779
1.62268
1.63245
1.63245
1.63734
1.64223
1.66667
1.64223
1.64223
1.65689
1.64223
1.63734
1.65200
1.64223
1.67644
1.64223
1.64223
1.64223
1.63734
1.63734
1.63734
1.64223
1.63734
1.64223
1.63734
1.64223
1.63734
1.63734
1.63734
1.63734
1.63734
1.63245
1.63245
1.63734
1.63245
1.63245
1.62757
1.67155
1.62757
1.63245
1.62757
1.62757
1.62757
1.65200
1.62268
1.61779
1.62757
1.62268
1.62268
1.61779
1.61779
1.62268
1.62268
1.65689
1.61290
1.61290
1.61290
1.60802
1.60802
1.61779
1.60802
1.60802
1.60313
1.60313
1.60313
1.60313
1.60313
1.60313
1.62757
1.60313
1.60313
1.59824
1.59824
1.60313
1.60313
1.60313
1.61290
1.61290
1.61779
1.62757
1.62757
1.63245
1.63245
1.63245
1.66178
1.63734
1.65689
1.63245
1.66667
1.63245
1.63245
1.63245
1.63245
1.63245
1.62757
1.63245
1.62757
1.63245
1.62757
1.63734
1.62757
1.65200
1.62757
1.64712
1.62268
1.62268
1.61779
1.62268
1.62268
1.61290
1.61290
1.61779
1.62757
1.61290
1.61290
1.61290
1.60802
1.61779
1.61290
1.61290
1.60802
1.60802
1.60802
1.60802
1.60802
1.60802
1.60313
1.60802
1.59824
1.59824
1.59824
1.63734
1.59824
1.59824
1.60802
1.59824
1.59824
1.60802
1.59335
1.59824
1.59824
1.59335
1.59335
1.59335
1.60313
1.60802
1.59824
1.59824
1.61290
1.59824
1.59824
1.59824
1.59335
1.58847
1.58847
1.59335
1.59824
1.61779
1.60313
1.60802
1.61290
1.62268
1.62268
1.62268
1.62757
1.62757
1.62757
1.62757
1.62268
1.62757
1.62757
1.62757
1.62757
1.62757
1.63734
1.62757
1.64712
1.62757
1.64223
1.62757
1.62757
1.62757
1.62757
1.62757
1.62268
1.62268
1.61779
1.62268
1.61779
1.63245
1.61779
1.65689
1.61779
1.61779
1.61779
1.61779
1.61779
1.62268
1.65689
1.61779
1.61779
1.61779
1.62757
1.61779
1.61779
1.65200
1.61779
1.61779
1.61779
1.62268
1.65200
1.61290
1.61290
1.61290
1.61290
1.61290
1.60802
1.61290
1.61290
1.61290
1.60802
1.62268
1.61290
1.61290
1.60802
1.64712
1.60802
1.60802
1.60802
1.61779
1.60802
1.60802
1.60802
1.65200
1.61290
1.61290
1.62268
1.61290
1.61290
1.60802
1.60802
1.60313
1.60313
1.61779
1.60802
1.60802
1.61290
1.61290
1.62268
1.62268
1.62757
1.62757
1.62757
1.64712
1.63245
1.67155
1.62757
1.63245
1.63245
1.63245
1.63245
1.63245
1.63734
1.63245
1.63734
1.63245
1.63734
1.63734
1.64223
1.63734
1.65200
1.64223
1.67155
1.64223
1.64712
1.64712
1.64712
1.64712
1.64712
1.65200
1.64712
1.65200
1.64712
1.65689
1.65200
1.66667
1.65200
1.69599
1.65689
1.65689
1.65689
1.65689
1.66178
1.65689
1.66178
1.66178
1.66178
1.66178
1.67155
1.66178
1.69110
1.65689
1.69599
1.65689
1.66178
1.65689
1.65689
1.65689
1.65689
1.66178
1.65689
1.66178
1.65689
1.66667
1.66178
1.68133
1.66178
1.68133
1.66178
1.66178
1.66178
1.66667
1.66178
1.66178
1.66667
1.65689
1.65689
1.65200
1.65200
1.69599
1.65689
1.66178
1.66667
1.67155
1.67644
1.68133
1.68133
1.68622
1.68622
1.69110
1.68622
1.71065
1.68622
1.70577
1.68622
1.68133
1.68133
1.68133
1.68133
1.68133
1.68622
1.68622
1.69110
1.68622
1.70577
1.67644
1.71554
1.67644
1.67644
1.67644
1.67155
1.67644
1.67155
1.67155
1.71065
1.67155
1.67155
1.67644
1.67155
1.67155
1.67155
1.67155
1.67155
1.67155
1.70088
1.66667
1.66667
1.66667
1.68622
1.67155
1.67155
1.67155
1.67644
1.67155
1.66667
1.67155
1.68622
1.66667
1.66667
1.66667
1.66667
1.67155
1.67155
1.66178
1.66667
1.66667
1.66667
1.67155
1.67644
1.67155
1.66667
1.68133
1.66178
1.65689
1.66178
1.66178
1.66178
1.66667
1.68133
1.66667
1.67155
1.67644
1.68133
1.67644
1.68133
1.68133
1.68133
1.68133
1.68622
1.68133
1.68622
1.67644
1.70088
1.67644
1.71554
1.68133
1.67644
1.68133
1.68133
1.68133
1.67644
1.67644
1.67155
1.67155
1.66667
1.70088
1.66667
1.66667
1.69110
1.66178
1.66178
1.66178
1.66178
1.66178
1.66178
1.66667
1.66178
1.66178
1.69599
1.65689
1.65689
1.65689
1.67155
1.65200
1.65689
1.65689
1.65200
1.65200
1.65200
1.65200
1.65689
1.65200
1.65200
1.65200
1.67155
1.64712
1.64712
1.64712
1.64712
1.64712
1.65200
1.65200
1.65689
1.67644
1.64712
1.64712
1.64712
1.64223
1.63734
1.64223
1.65200
1.65200
1.65689
1.68133
1.66667
1.67155
1.67155
1.67644
1.67644
1.67644
1.67644
1.67644
1.67644
1.67644
1.67644
1.66667
1.67644
1.66667
1.69110
1.65689
1.66178
1.65689
1.66178
1.65689
1.65689
1.65200
1.64712
1.65200
1.64223
1.64223
1.64223
1.63734
1.63734
1.63245
1.65689
1.63245
1.63245
1.62757
1.62757
1.63245
1.62757
1.62757
1.62757
1.62268
1.62268
1.65689
1.61779
1.61779
1.61779
1.64712
1.61779
1.61779
1.61290
1.65200
1.60802
1.61290
1.60802
1.60802
1.61779
1.60313
1.60313
1.59824
1.59824
1.59824
1.63734
1.59824
1.60313
1.59824
1.59824
1.59824
1.59824
1.60313
1.60313
1.60313
1.61290
1.61779
1.62268
1.67155
1.63734
1.64223
1.64712
1.64712
1.65200
1.67155
1.64712
1.68622
1.64712
1.64712
1.64712
1.64223
1.64223
1.64223
1.64223
1.63734
1.64223
1.63734
1.64712
1.63245
1.66667
1.62757
1.65689
1.62757
1.62268
1.62268
1.62268
1.61779
1.61779
1.65689
1.61779
1.61779
1.65689
1.61779
1.61779
1.61290
1.65200
1.61290
1.61290
1.61290
1.61290
1.60802
1.60802
1.60802
1.64223
1.60313
1.60313
1.60313
1.59824
1.60313
1.63245
1.59824
1.59824
1.59824
1.59335
1.59335
1.59335
1.59824
1.59335
1.59335
1.59824
1.58847
1.58847
1.60802
1.58847
1.59335
1.62268
1.59335
1.59824
1.59335
1.59335
1.59824
1.59824
1.60313
1.61290
1.61290
1.62757
1.64223
1.67644
1.64223
1.65689
1.65200
1.67644
1.65689
1.69110
1.65689
1.65200
1.65200
1.64712
1.64712
1.64223
1.64223
1.64223
1.64223
1.63734
1.65200
1.63734
1.67155
1.63245
1.62757
1.62757
1.62268
1.62268
1.62268
1.64712
1.61779
1.61779
1.61290
1.61290
1.63245
1.61290
1.61779
1.65200
1.61290
1.60802
1.61290
1.60802
1.60802
1.60802
1.60802
1.60313
1.60313
1.60802
1.60313
1.60313
1.59824
1.59824
1.60313
1.64223
1.59824
1.59824
1.59824
1.60313
1.59335
1.59335
1.59335
1.62757
1.58847
1.59335
1.59335
1.59335
1.60313
1.59335
1.58847
1.59335
1.61290
1.58358
1.60313
1.58358
1.58847
1.58847
1.58847
1.59335
1.60313
1.59335
1.59824
1.59824
1.59824
1.60313
1.62268
1.61290
1.62268
1.63245
1.64223
1.64712
1.65200
1.66178
1.66178
1.67155
1.66667
1.68622
1.66667
1.70088
1.65689
1.65689
1.65689
1.65689
1.65200
1.64712
1.64712
1.64712
1.64712
1.64223
1.64712
1.63734
1.65200
1.63734
1.67155
1.63245
1.64223
1.63734
1.62757
1.62757
1.63734
1.62268
1.62757
1.62268
1.66178
1.62268
1.62268
1.62757
1.62268
1.62268
1.62268
1.65689
1.61779
1.61779
1.62268
1.61779
1.61779
1.62268
1.61779
1.61779
1.61779
1.61290
1.61290
1.64712
1.60802
1.60802
1.62268
1.60313
1.60313
1.60802
1.60313
1.60313
1.60313
1.61290
1.60313
1.60313
1.60802
1.60313
1.60313
1.60313
1.61290
1.59824
1.60313
1.60313
1.60313
1.60313
1.60802
1.60802
1.60802
1.61290
1.64712
1.61290
1.61779
1.61779
1.62757
1.63245
1.64223
1.65200
1.66178
1.66667
1.67644
1.68133
1.68622
1.68622
1.69110
1.69110
1.70088
1.68622
1.72043
1.68133
1.68133
1.68133
1.67155
1.67155
1.67155
1.67155
1.67155
1.67155
1.66667
1.67155
1.66667
1.66667
1.66667
1.67644
1.66178
1.68622
1.66178
1.67155
1.66178
1.66178
1.66178
1.66178
1.70577
1.66667
1.66667
1.66178
1.68133
1.66178
1.66178
1.66178
1.66178
1.65689
1.65689
1.66667
1.65689
1.66178
1.66178
1.65689
1.65200
1.65689
1.69110
1.64712
1.64712
1.65200
1.64712
1.64712
1.65200
1.64223
1.64223
1.64712
1.64223
1.64223
1.64712
1.64223
1.64223
1.64712
1.64223
1.63734
1.64223
1.64223
1.68133
1.64712
1.65200
1.68622
1.64712
1.64712
1.65200
1.65200
1.65689
1.66667
1.67155
1.68133
1.69110
1.70088
1.71065
1.72043
1.72532
1.73021
1.73021
1.74487
1.73021
1.76442
1.72532
1.72043
1.72043
1.71065
1.71065
1.70088
1.70088
1.69599
1.70088
1.69599
1.70088
1.69110
1.68622
1.68133
1.71065
1.67644
1.67644
1.68622
1.67644
1.67644
1.67155
1.68133
1.67644
1.68133
1.67644
1.67644
1.67644
1.71065
1.67155
1.67155
1.67155
1.66667
1.66667
1.66178
1.69110
1.66178
1.66667
1.65689
1.66178
1.65689
1.65689
1.65200
1.66667
1.64712
1.64712
1.64223
1.65689
1.63734
1.63734
1.63734
1.63245
1.63245
1.63245
1.62757
1.63245
1.62757
1.62757
1.62757
1.62268
1.63734
1.62757
1.62757
1.67155
1.63734
1.64712
1.64712
1.65689
1.67155
1.67644
1.68622
1.69110
1.69599
1.70088
1.70088
1.70088
1.70088
1.70088
1.69110
1.69110
1.68133
1.68133
1.67155
1.68133
1.66178
1.69110
1.65200
1.64712
1.64223
1.64223
1.64223
1.64223
1.63245
1.63245
1.62757
1.63245
1.62757
1.62268
1.66667
1.62268
1.62757
1.62268
1.62268
1.62268
1.62268
1.62757
1.62268
1.62268
1.63245
1.61779
1.61290
1.63245
1.61290
1.61290
1.60802
1.60802
1.60802
1.60313
1.60313
1.59824
1.59824
1.59824
1.59335
1.59335
1.58847
1.58847
1.58847
1.58847
1.58358
1.59824
1.58358
1.58847
1.58847
1.58847
1.62757
1.58847
1.59824
1.59335
1.59824
1.60802
1.61290
1.62268
1.63734
1.64712
1.65689
1.67155
1.67644
1.68622
1.69110
1.69599
1.69110
1.69599
1.68622
1.70088
1.68133
1.72043
1.67644
1.67155
1.66667
1.66178
1.66178
1.65689
1.65689
1.65200
1.65200
1.64712
1.65200
1.64223
1.64223
1.64712
1.63734
1.63734
1.64223
1.65200
1.63245
1.63734
1.63734
1.63734
1.63734
1.63734
1.64223
1.67155
1.63245
1.62757
1.62757
1.63245
1.62757
1.62757
1.66178
1.62268
1.62268
1.62757
1.61779
1.61290
1.61290
1.63734
1.60802
1.60802
1.64712
1.60802
1.61779
1.60313
1.60313
1.59824
1.59824
1.60313
1.59824
1.59824
1.60313
1.59824
1.60313
1.62268
1.60802
1.60802
1.61779
1.62268
1.62757
1.64223
1.66178
1.65689
1.67155
1.68133
1.69599
1.70088
1.71065
1.70577
1.72043
1.70577
1.74487
1.69599
1.69599
1.69110
1.68622
1.68133
1.68133
1.67644
1.67155
1.67155
1.66667
1.67155
1.66178
1.68622
1.65689
1.66178
1.69110
1.68133
1.65200
1.64712
1.64712
1.68133
1.64223
1.64223
1.66178
1.64223
1.64223
1.63734
1.63734
1.63734
1.63734
1.67155
1.63734
1.63245
1.66667
1.62757
1.62757
1.63734
1.62757
1.62268
1.62268
1.62268
1.61779
1.61290
1.61779
1.61290
1.61290
1.61290
1.62757
1.60802
1.60313
1.60802
1.59824
1.60313
1.63734
1.60313
1.60802
1.61779
1.60802
1.60802
1.64712
1.61290
1.62268
1.62757
1.63245
1.64223
1.69110
1.66178
1.66667
1.71065
1.68133
1.68133
1.68622
1.68622
1.68133
1.68133
1.68133
1.67644
1.67644
1.66667
1.67155
1.66178
1.68622
1.65689
1.67155
1.65200
1.64712
1.64712
1.64712
1.64223
1.64223
1.64223
1.64223
1.63245
1.63245
1.62757
1.62757
1.62757
1.62757
1.62757
1.63245
1.62757
1.63245
1.64712
1.62757
1.62757
1.66178
1.62757
1.62757
1.65200
1.62757
1.62757
1.62757
1.64712
1.62757
1.62757
1.62757
1.62268
1.62268
1.66178
1.61779
1.61779
1.62268
1.61779
1.61779
1.61779
1.64712
1.61290
1.61290
1.63734
1.61779
1.62268
1.61779
1.62268
1.62268
1.62268
1.61779
1.62268
1.62757
1.62757
1.63245
1.64223
1.65200
1.65689
1.66178
1.67155
1.67644
1.68133
1.68133
1.68622
1.69110
1.68622
1.69110
1.68622
1.68622
1.68133
1.69110
1.67644
1.71065
1.67155
1.66667
1.66667
1.67155
1.66667
1.66178
1.66667
1.66178
1.66178
1.65689
1.65689
1.67644
1.65200
1.65200
1.67644
1.65200
1.65200
1.66178
1.68133
1.65200
1.65200
1.65200
1.64712
1.64712
1.65689
1.64712
1.64223
1.64223
1.65200
1.64223
1.64223
1.66667
1.64223
1.64223
1.64223
1.65200
1.63734
1.63734
1.63734
1.63734
1.63734
1.64223
1.63245
1.63245
1.63734
1.65200
1.63245
1.63245
1.63734
1.63245
1.62757
1.62757
1.62757
1.62757
1.62757
1.67155
1.63734
1.64712
1.65200
1.65689
1.66178
1.66667
1.66667
1.68622
1.67155
1.70577
1.67155
1.66667
1.66178
1.66178
1.66178
1.65689
1.66178
1.65689
1.66178
1.65689
1.66178
1.65200
1.68133
1.64712
1.64712
1.63734
1.63734
1.67644
1.63734
1.63734
1.63734
1.63245
1.63245
1.63245
1.63734
1.63245
1.63245
1.63245
1.62757
1.62757
1.63245
1.62268
1.62268
1.62757
1.62268
1.62268
1.66178
1.62268
1.62268
1.62268
1.61779
1.62268
1.65689
1.61290
1.61290
1.61290
1.62757
1.61290
1.61290
1.61779
1.61290
1.61290
1.60802
1.60313
1.61290
1.59824
1.59824
1.60313
1.60313
1.60313
1.60802
1.61290
1.61779
1.61779
1.62268
1.62268
1.62268
1.62268
1.66178
1.62268
1.62268
1.62268
1.63734
1.61779
1.61779
1.61290
1.61290
1.63734
1.61290
1.61779
1.61290
1.61290
1.63245
1.60802
1.60802
1.60313
1.63734
1.60313
1.60313
1.60802
1.59824
1.59824
1.60313
1.59335
1.59824
1.59335
1.59335
1.59335
1.59335
1.58847
1.58358
1.62757
1.58358
1.58358
1.58358
1.58358
1.58847
1.58847
1.58358
1.58358
1.58358
1.58358
1.57869
1.57869
1.58358
1.57380
1.57380
1.57869
1.60313
1.57380
1.57869
1.58847
1.59335
1.57380
1.57380
1.57869
1.57380
1.56891
1.60313
1.56891
1.57380
1.58358
1.56891
1.57380
1.57869
1.57869
1.58358
1.57869
1.57869
1.57869
1.57869
1.58847
1.57869
1.57869
1.60802
1.57869
1.58358
1.57869
1.57869
1.57869
1.58358
1.57869
1.57869
1.58358
1.61779
1.57869
1.58358
1.58358
1.57869
1.57869
1.57380
1.57869
1.57869
1.57380
1.57380
1.57380
1.57380
1.58847
1.57380
1.57380
1.57869
1.57380
1.57380
1.57380
1.58358
1.57380
1.57380
1.57869
1.57869
1.57869
1.57380
1.57869
1.57380
1.57380
1.57380
1.57869
1.57380
1.57380
1.59824
1.57380
1.57380
1.57869
1.60313
1.56891
1.57380
1.57869
1.56891
1.56891
1.58358
1.57869
1.57869
1.58358
1.57869
1.57869
1.57380
1.57869
1.56891
1.56891
1.56891
1.58847
1.57380
1.57380
1.57869
1.58358
1.58358
1.58358
1.58358
1.60313
1.58358
1.58358
1.58847
1.62757
1.58358
1.58847
1.58847
1.58847
1.58358
1.58847
1.58847
1.58847
1.59335
1.59335
1.59824
1.59335
1.62268
1.59824
1.60313
1.59335
1.59335
1.59335
1.59335
1.59335
1.59335
1.59824
1.59824
1.60313
1.59824
1.61290
1.59824
1.64223
1.60313
1.59824
1.60313
1.60313
1.60313
1.60313
1.60802
1.60313
1.60802
1.60802
1.61290
1.60802
1.62757
1.60802
1.63245
1.60802
1.60802
1.60802
1.60802
1.60802
1.60802
1.60802
1.60802
1.61290
1.60802
1.62268
1.61290
1.64712
1.60802
1.61290
1.60802
1.60802
1.60802
1.61290
1.61290
1.60802
1.61290
1.61290
1.61779
1.61290
1.62757
1.61779
1.63734
1.61290
1.64223
1.60802
1.60313
1.60313
1.60313
1.60313
1.60802
1.60802
1.60802
1.61779
1.62757
1.61290
1.64712
1.61290
1.61290
1.61290
1.61290
1.61290
1.61290
1.61290
1.61290
1.61290
1.61290
1.61779
1.61290
1.63245
1.61290
1.64712
1.61290
1.61779
1.62268
1.62268
1.62268
1.62268
1.62757
1.62268
1.62757
1.62757
1.63245
1.62757
1.64712
1.63245
1.67644
1.63734
1.64223
1.64223
1.64223
1.64223
1.64712
1.64712
1.64712
1.65200
1.64712
1.65689
1.65200
1.66667
1.65689
1.69110
1.65689
1.65689
1.65689
1.65689
1.65689
1.65689
1.66178
1.65689
1.66178
1.65689
1.66178
1.66178
1.67155
1.66178
1.69599
1.66667
1.66667
1.66667
1.66178
1.66178
1.66178
1.66667
1.66667
1.67155
1.66667
1.67644
1.67155
1.69110
1.66667
1.68622
1.65689
1.65689
1.65200
1.65200
1.65689
1.66178
1.66667
1.66178
1.66667
1.67155
1.67155
1.67644
1.67155
1.68133
1.67155
1.70577
1.67155
1.67155
1.66667
1.66667
1.66178
1.66178
1.66667
1.66667
1.66667
1.66667
1.66667
1.66667
1.66667
1.66667
1.66667
1.67155
1.66178
1.66178
1.66667
1.66178
1.66178
1.68133
1.66178
1.66178
1.66667
1.66178
1.66178
1.66667
1.66667
1.66667
1.70088
1.67155
1.67155
1.67155
1.67155
1.67155
1.67155
1.67644
1.67155
1.68133
1.67644
1.69599
1.67155
1.70577
1.67155
1.67155
1.67155
1.67155
1.67155
1.67155
1.67155
1.67155
1.67644
1.70577
1.67155
1.67644
1.69110
1.67155
1.67644
1.66667
1.66667
1.66178
1.66178
1.66178
1.70088
1.66178
1.66667
1.66667
1.67155
1.68622
1.71065
1.67644
1.67644
1.69110
1.67644
1.67155
1.67155
1.66667
1.67155
1.66667
1.69110
1.69599
1.65689
1.65200
1.68133
1.65200
1.65200
1.65689
1.67644
1.67155
1.64712
1.65200
1.64712
1.64712
1.64223
1.64712
1.63734
1.64223
1.66178
1.63734
1.63245
1.63245
1.63245
1.63245
1.63245
1.63245
1.62757
1.62757
1.62757
1.64223
1.62757
1.62757
1.66667
1.63245
1.63245
1.66667
1.62757
1.62268
1.63245
1.62268
1.62268
1.62268
1.62268
1.62268
1.65689
1.61779
1.61779
1.64223
1.61779
1.62268
1.62268
1.61779
1.61779
1.61779
1.61779
1.61290
1.61779
1.62757
1.61779
1.62268
1.62757
1.62757
1.64223
1.63734
1.64223
1.64712
1.64223
1.64223
1.64223
1.63734
1.63734
1.63734
1.63734
1.63734
1.63734
1.63734
1.63734
1.63245
1.63734
1.63245
1.63245
1.62757
1.63245
1.62757
1.63245
1.66667
1.62757
1.63245
1.63245
1.66667
1.62757
1.62757
1.63734
1.62757
1.62757
1.63245
1.62757
1.62757
1.62757
1.63245
1.62268
1.62268
1.62757
1.62268
1.62757
1.62268
1.62268
1.62757
1.66178
1.62757
1.62268
1.63734
1.64223
1.63734
1.61779
1.62757
1.62268
1.62268
1.62268
1.62268
1.62268
1.61779
1.62268
1.61779
1.61779
1.65689
1.62268
1.62757
1.62757
1.62268
1.62757
1.62757
1.62757
1.62757
1.62757
1.65200
1.62757
1.63245
1.64223
1.64223
1.64712
1.64223
1.64712
1.64712
1.65689
1.65200
1.66178
1.65200
1.67644
1.64712
1.67155
1.64712
1.64712
1.64712
1.64712
1.64712
1.64223
1.64712
1.64223
1.64712
1.64223
1.65689
1.64223
1.68622
1.64712
1.64223
1.64223
1.64223
1.64223
1.63734
1.64223
1.64223
1.66178
1.63734
1.64223
1.64223
1.67155
1.63734
1.63245
1.63734
1.65200
1.63245
1.63245
1.63245
1.62757
1.63245
1.66178
1.63245
1.63734
1.62757
1.62757
1.62268
1.62268
1.62268
1.62268
1.62268
1.62757
1.62268
1.62268
1.61779
1.61779
1.61290
1.61779
1.61290
1.61290
1.61779
1.60802
1.60802
1.61290
1.61290
1.61290
1.61290
1.61290
1.61779
1.61779
1.61290
1.61290
1.61290
1.63734
1.61290
1.61779
1.64223
1.62268
1.62757
1.62757
1.63245
1.64223
1.63245
1.63245
1.63734
1.63245
1.64223
1.63734
1.65200
1.63734
1.67644
1.63734
1.63734
1.63245
1.63245
1.63245
1.63245
1.63245
1.63245
1.63734
1.63245
1.63734
1.63245
1.63734
1.62757
1.66178
1.62757
1.62757
1.63734
1.62268
1.62268
1.62268
1.65200
1.61779
1.61779
1.61779
1.61779
1.61779
1.61779
1.61779
1.61290
1.61779
1.63245
1.61290
1.61290
1.61290
1.61290
1.61290
1.61779
1.60802
1.60802
1.60802
1.60802
1.61290
1.60802
1.60802
1.61290
1.60313
1.60313
1.63734
1.60802
1.60802
1.62757
1.64223
1.60313
1.60313
1.61290
1.60313
1.60313
1.60802
1.60313
1.60802
1.62757
1.61290
1.60802
1.61290
1.60802
1.60313
1.60313
1.59824
1.59824
1.60313
1.64223
1.60802
1.60802
1.62757
1.61779
1.62268
1.62757
1.63734
1.63245
1.63734
1.63734
1.64712
1.63734
1.66178
1.64223
1.67644
1.64223
1.64223
1.64223
1.64223
1.64223
1.64712
1.65200
1.65200
1.65689
1.65200
1.65689
1.64712
1.68133
1.64712
1.65200
1.64712
1.64712
1.64223
1.64712
1.64712
1.64223
1.64712
1.64223
1.65200
1.64223
1.67644
1.64223
1.64223
1.64223
1.64223
1.64223
1.64223
1.64712
1.64712
1.64712
1.64712
1.65689
1.64712
1.67644
1.65200
1.65689
1.64712
1.64712
1.65200
1.64712
1.65200
1.65200
1.65200
1.65200
1.65689
1.65200
1.67644
1.65689
1.69110
1.65200
1.65200
1.65200
1.65689
1.65689
1.66178
1.66667
1.66178
1.66178
1.65689
1.66178
1.65200
1.67155
1.65200
1.67155
1.65689
1.68622
1.66667
1.67155
1.67155
1.67644
1.68133
1.68133
1.68622
1.68133
1.69110
1.68622
1.70088
1.68622
1.72043
1.68133
1.68133
1.68133
1.68133
1.68622
1.68133
1.68622
1.68622
1.69110
1.68622
1.69110
1.68133
1.71065
1.68133
1.69599
1.68133
1.68133
1.68133
1.68133
1.68133
1.67644
1.68133
1.68133
1.69110
1.67644
1.67644
1.68133
1.67644
1.67644
1.67644
1.67644
1.67644
1.67644
1.71554
1.68133
1.68133
1.69110
1.68133
1.67644
1.68133
1.71065
1.67644
1.68133
1.67155
1.67155
1.68133
1.66667
1.66667
1.66667
1.67155
1.69110
1.67155
1.67155
1.67155
1.67155
1.66667
1.66667
1.70088
1.66178
1.66178
1.66178
1.66178
1.66178
1.66667
1.70088
1.67155
1.67155
1.67644
1.68133
1.67644
1.67644
1.67644
1.67644
1.67644
1.67644
1.67155
1.67644
1.68133
1.67155
1.67644
1.69110
1.67155
1.67155
1.67155
1.68133
1.66667
1.66667
1.66667
1.70088
1.66667
1.66178
1.66667
1.66178
1.66178
1.65689
1.69599
1.65200
1.65200
1.67644
1.65200
1.65200
1.65200
1.64712
1.64712
1.65200
1.64712
1.64712
1.64712
1.64712
1.64712
1.64712
1.65200
1.67644
1.64223
1.64712
1.64223
1.63734
1.64223
1.63734
1.63245
1.63245
1.64712
1.63734
1.63734
1.63734
1.63734
1.63734
1.65200
1.62757
1.62757
1.62268
1.62757
1.63245
1.63245
1.63734
1.64223
1.65200
1.65200
1.65200
1.65689
1.65689
1.69599
1.65689
1.65689
1.65689
1.66178
1.65689
1.66178
1.65689
1.65689
1.65200
1.67644
1.64712
1.67155
1.64712
1.64712
1.64712
1.64712
1.65689
1.64223
1.64223
1.64712
1.63734
1.63734
1.63245
1.63245
1.63734
1.62757
1.62757
1.67155
1.62757
1.63245
1.62757
1.62757
1.62757
1.62268
1.62268
1.62757
1.66178
1.61779
1.61779
1.62268
1.63245
1.62268
1.62268
1.61779
1.61779
1.61779
1.61779
1.61290
1.61290
1.64712
1.60802
1.60802
1.63245
1.60802
1.60313
1.60802
1.60802
1.61290
1.60802
1.60802
1.60802
1.62268
1.60313
1.60313
1.60802
1.61290
1.61779
1.62268
1.62757
1.65200
1.64223
1.64712
1.64712
1.64712
1.64712
1.65200
1.65200
1.65200
1.65200
1.65200
1.65200
1.65200
1.65200
1.64712
1.65200
1.64712
1.66178
1.64223
1.67155
1.64223
1.64223
1.64223
1.63734
1.63734
1.63734
1.63734
1.64712
1.62757
1.62757
1.64223
1.62268
1.62268
1.62268
1.62268
1.62268
1.62268
1.64223
1.61779
1.61779
1.61290
1.61290
1.62757
1.61290
1.61290
1.60802
1.60802
1.62268
1.60802
1.60802
1.61290
1.60802
1.60802
1.63734
1.60313
1.60802
1.60313
1.60313
1.59824
1.59824
1.60313
1.59824
1.59824
1.59824
1.59335
1.59335
1.63245
1.59824
1.63734
1.59824
1.59824
1.59824
1.59824
1.63245
1.59824
1.59824
1.60313
1.59824
1.60313
1.61290
1.63245
1.61779
1.62268
1.63245
1.63245
1.63245
1.67155
1.63734
1.63734
1.63734
1.63734
1.64223
1.63734
1.64223
1.63734
1.64223
1.63734
1.65200
1.63734
1.67155
1.63245
1.63245
1.63245
1.63245
1.63245
1.62757
1.63245
1.62757
1.63245
1.62268
1.63245
1.62268
1.62757
1.62268
1.62268
1.63734
1.62268
1.62268
1.62268
1.62757
1.61779
1.61779
1.65689
1.61779
1.62268
1.61779
1.61779
1.61779
1.61779
1.61290
1.61779
1.63734
1.61290
1.61290
1.61290
1.64223
1.60802
1.61290
1.64712
1.60802
1.61779
1.60802
1.60802
1.60802
1.64712
1.60802
1.60802
1.61290
1.61779
1.60802
1.60802
1.61779
1.60802
1.60802
1.60802
1.60802
1.61290
1.60802
1.61290
1.61290
1.60802
1.60802
1.60313
1.60313
1.59824
1.60313
1.63245
1.60313
1.60802
1.64712
1.61290
1.61290
1.65200
1.61779
1.62268
1.62268
1.61779
1.62268
1.62268
1.62268
1.62268
1.62268
1.62268
1.62757
1.62268
1.62757
1.62268
1.64223
1.62757
1.66667
1.63245
1.63245
1.63245
1.63734
1.63734
1.63734
1.64223
1.63734
1.64712
1.63734
1.66178
1.64223
1.65689
1.64712
1.64223
1.64223
1.64712
1.64712
1.64712
1.65200
1.64712
1.65689
1.64712
1.67644
1.65200
1.66667
1.65200
1.65689
1.65689
1.65689
1.66178
1.65689
1.66178
1.65689
1.66667
1.65689
1.68133
1.65689
1.67644
1.65689
1.65689
1.66178
1.66178
1.66178
1.66178
1.66178
1.66178
1.66667
1.66178
1.68133
1.66178
1.69599
1.66667
1.66667
1.66667
1.66667
1.66667
1.66667
1.67155
1.66667
1.67155
1.66178
1.67155
1.65200
1.68133
1.64712
1.64712
1.65689
1.65689
1.66178
1.68133
1.66667
1.67155
1.67644
1.67155
1.68622
1.67155
1.71065
1.67644
1.67644
1.67155
1.67155
1.67155
1.67155
1.67155
1.66667
1.67155
1.66667
1.67644
1.67155
1.70088
1.67155
1.67644
1.67155
1.66667
1.67155
1.66667
1.67155
1.70577
1.66667
1.66667
1.67155
1.71065
1.66667
1.66667
1.66667
1.67155
1.67155
1.67155
1.67155
1.69599
1.69599
1.67155
1.67155
1.67155
1.67155
1.67155
1.67644
1.67155
1.67155
1.67155
1.67155
1.68622
1.67155
1.67155
1.67644
1.66667
1.67155
1.67155
1.66667
1.66667
1.66667
1.66667
1.67644
1.66667
1.66667
1.67155
1.69110
1.67155
1.67155
1.67155
1.66667
1.66178
1.67155
1.65689
1.65200
1.65200
1.66667
1.65200
1.65200
1.68133
1.65689
1.66178
1.67155
1.66667
1.66178
1.66178
1.66178
1.66178
1.69599
1.66178
1.65689
1.66178
1.68622
1.65689
1.65200
1.65689
1.65200
1.65200
1.65689
1.65689
1.65200
1.66178
1.65200
1.65200
1.66667
1.65200
1.65200
1.65689
1.67644
1.64712
1.64712
1.65200
1.64712
1.64712
1.65689
1.64712
1.64712
1.64712
1.64223
1.65200
1.64712
1.64712
1.64712
1.65200
1.64223
1.64223
1.64223
1.65200
1.64223
1.64712
1.65689
1.64223
1.64223
1.68133
1.64223
1.64223
1.64712
1.64223
1.64223
1.64223
1.64223
1.64712
1.64223
1.64223
1.66667
1.64223
1.64223
1.64223
1.66667
1.63734
1.63245
1.62757
1.64223
1.66178
1.62268
1.62757
1.62757
1.63245
1.66178
1.63734
1.63734
1.64223
1.67644
1.63734
1.64223
1.64223
1.63734
1.64223
1.64712
1.63734
1.63734
1.63245
1.67644
1.63734
1.63734
1.63734
1.63734
1.67155
1.63734
1.63734
1.67155
1.63734
1.63245
1.67155
1.63245
1.63245
1.63245
1.63245
1.63245
1.63245
1.67155
1.63245
1.63245
1.63734
1.65689
1.63245
1.63245
1.63245
1.63245
1.63245
1.63245
1.63245
1.62757
1.62757
1.63245
1.63734
1.62757
1.62757
1.63245
1.62757
1.62757
1.62268
1.62757
1.62268
1.62268
1.63245
1.62268
1.61779
1.62757
1.61779
1.61779
1.62268
1.61779
1.62268
1.62268
1.62268
1.62268
1.61779
1.63734
1.61779
1.61779
1.61290
1.60802
1.61290
1.61779
1.61779
1.62268
1.63245
1.63245
1.63734
1.64223
1.63734
1.64223
1.64223
1.64712
1.64223
1.64712
1.64712
1.65200
1.64712
1.67644
1.64712
1.65689
1.64223
1.64712
1.64223
1.64712
1.64712
1.64712
1.64712
1.64223
1.64712
1.63734
1.66178
1.64223
1.67644
1.63734
1.63245
1.63734
1.63734
1.67155
1.63245
1.63245
1.63245
1.65200
1.63245
1.62757
1.63245
1.66178
1.62757
1.62268
1.62268
1.63245
1.62268
1.62268
1.62268
1.62268
1.61779
1.61779
1.61779
1.61290
1.61779
1.61290
1.61290
1.60802
1.64712
1.61290
1.61290
1.60802
1.60802
1.62757
1.60802
1.60802
1.61779
1.60802
1.60313
1.60313
1.60802
1.60802
1.60802
1.62757
1.61290
1.61290
1.61779
1.60802
1.60313
1.61779
1.60313
1.60313
1.63245
1.60802
1.61290
1.62757
1.63245
1.62757
1.63245
1.63245
1.63734
1.64223
1.63734
1.66178
1.63245
1.64223
1.63734
1.63245
1.63245
1.63245
1.63245
1.62757
1.63245
1.62757
1.63245
1.62757
1.64712
1.62757
1.66178
1.62757
1.62268
1.62268
1.62268
1.61779
1.61779
1.61290
1.61290
1.61779
1.64223
1.61290
1.60802
1.61290
1.61779
1.60802
1.61290
1.60802
1.60802
1.60802
1.60313
1.60802
1.61290
1.60313
1.60802
1.60802
1.60313
1.61779
1.60313
1.60313
1.63734
1.59824
1.60313
1.62757
1.59824
1.59824
1.59335
1.59335
1.60802
1.59824
1.59824
1.59824
1.59824
1.59824
1.59335
1.60802
1.59824
1.59824
1.60802
1.59824
1.59824
1.62268
1.59335
1.59824
1.59824
1.59824
1.60313
1.60802
1.60313
1.60802
1.60313
1.62268
1.59824
1.60313
1.59824
1.59824
1.60802
1.61290
1.65689
1.62268
1.62757
1.62757
1.63734
1.63734
1.64712
1.64223
1.67644
1.64223
1.64223
1.64223
1.64223
1.64223
1.64223
1.64223
1.63734
1.64223
1.63734
1.64223
1.63245
1.66178
1.63734
1.63734
1.63245
1.63245
1.63245
1.62757
1.63245
1.62757
1.63245
1.62757
1.62268
1.63734
1.62268
1.62268
1.62757
1.62757
1.62268
1.62268
1.64223
1.62268
1.61779
1.63245
1.62268
1.62268
1.62268
1.63245
1.61290
1.61290
1.62268
1.61290
1.61290
1.61290
1.60802
1.60802
1.61779
1.60802
1.60802
1.61779
1.61290
1.61290
1.60802
1.62757
1.61290
1.61290
1.61290
1.61290
1.64712
1.61779
1.61779
1.62268
1.61779
1.61779
1.62268
1.62757
1.62268
1.62757
1.63245
1.63245
1.63734
1.63245
1.63734
1.63245
1.64223
1.63245
1.67155
1.64223
1.65200
1.65689
1.66178
1.67155
1.67155
1.67644
1.68133
1.68133
1.68133
1.69110
1.68622
1.71554
1.68622
1.69599
1.68622
1.68622
1.68133
1.68133
1.68133
1.68133
1.68133
1.67644
1.68133
1.67644
1.70088
1.67155
1.69599
1.66667
1.66667
1.66667
1.66667
1.67155
1.70088
1.66667
1.66667
1.68133
1.66667
1.66178
1.69599
1.66178
1.66667
1.66178
1.66178
1.66178
1.66178
1.66178
1.66667
1.67644
1.66667
1.66667
1.66667
1.66178
1.66178
1.66667
1.66178
1.66178
1.66178
1.65689
1.65689
1.67155
1.65200
1.65200
1.69110
1.65200
1.65689
1.65200
1.65200
1.65200
1.65200
1.65200
1.65689
1.65689
1.65689
1.65689
1.65689
1.69110
1.65200
1.65200
1.65200
1.65689
1.66667
1.67155
1.67644
1.71554
1.69110
1.69599
1.70088
1.70088
1.70088
1.70577
1.70577
1.70088
1.70577
1.70088
1.70577
1.69599
1.71065
1.69110
1.73021
1.68622
1.68622
1.68622
1.68622
1.68133
1.68133
1.68133
1.67644
1.67155
1.67155
1.66667
1.67155
1.66667
1.66667
1.67644
1.66667
1.66667
1.66178
1.66667
1.69110
1.66178
1.66178
1.65689
1.66667
1.65689
1.65200
1.65200
1.65200
1.64712
1.64712
1.64223
1.64223
1.67155
1.63734
1.63734
1.66178
1.63245
1.62757
1.65200
1.62757
1.62757
1.63245
1.62268
1.62757
1.62268
1.62268
1.63245
1.62268
1.62268
1.61779
1.64712
1.61290
1.61779
1.62268
1.62757
1.63245
1.63734
1.65689
1.64712
1.65689
1.67155
1.66667
1.66667
1.67644
1.66667
1.69110
1.66667
1.68622
1.66178
1.65689
1.65200
1.64712
1.64712
1.64223
1.64712
1.64223
1.63734
1.64223
1.64712
1.63245
1.62757
1.66178
1.61779
1.62757
1.61779
1.61779
1.64712
1.61779
1.61779
1.64223
1.61290
1.62757
1.61290
1.61290
1.65200
1.61290
1.62757
1.60802
1.60802
1.60313
1.60313
1.59824
1.59824
1.60313
1.59824
1.60313
1.63245
1.59824
1.59824
1.59335
1.59335
1.59335
1.62757
1.58847
1.58847
1.58358
1.58358
1.62268
1.57869
1.58358
1.61290
1.58847
1.58847
1.60313
1.58847
1.58847
1.58358
1.58847
1.61779
1.59824
1.60313
1.62268
1.61779
1.62268
1.63245
1.65689
1.63734
1.64223
1.63734
1.64223
1.63734
1.64223
1.64223
1.64223
1.63734
1.64223
1.63734
1.65200
1.63245
1.66667
1.62757
1.62757
1.62757
1.62757
1.62757
1.62268
1.62757
1.62268
1.62757
1.61779
1.61779
1.61290
1.61290
1.61290
1.61779
1.60802
1.61290
1.64712
1.61290
1.61290
1.64712
1.61290
1.61290
1.64223
1.60802
1.61290
1.60802
1.60313
1.60313
1.60802
1.60313
1.60313
1.60802
1.60313
1.60313
1.60313
1.59824
1.59824
1.59824
1.59335
1.59335
1.59335
1.59335
1.59335
1.59335
1.59824
1.59335
1.59824
1.61290
1.59824
1.59335
1.59824
1.59335
1.59824
1.59824
1.59335
1.59824
1.60802
1.60802
1.60802
1.61779
1.61779
1.62268
1.63245
1.63245
1.63245
1.63245
1.63245
1.63734
1.63734
1.63245
1.63734
1.63734
1.64223
1.63734
1.65689
1.63245
1.66667
1.63245
1.63245
1.63245
1.63245
1.63245
1.63245
1.63245
1.62757
1.63245
1.62757
1.63245
1.62268
1.64223
1.62268
1.65689
1.61779
1.61779
1.62757
1.61779
1.61779
1.62757
1.61779
1.61779
1.61779
1.62268
1.62268
1.61779
1.61779
1.61779
1.62268
1.61290
1.61779
1.63734
1.61290
1.61290
1.61290
1.60802
1.61779
1.61290
1.61290
1.61290
1.60802
1.60802
1.62268
1.60802
1.60802
1.64223
1.60802
1.60802
1.64712
1.60802
1.60802
1.64712
1.61290
1.61779
1.61290
1.60802
1.60802
1.60802
1.60802
1.60313
1.60802
1.60802
1.61290
1.61779
1.64223
1.62268
1.62757
1.62757
1.64712
1.63245
1.67155
1.63734
1.63734
1.63245
1.63245
1.63245
1.63245
1.63245
1.63245
1.63734
1.63245
1.63734
1.63245
1.64223
1.63245
1.66178
1.63734
1.65200
1.63734
1.63734
1.63734
1.63245
1.63245
1.62757
1.62757
1.62757
1.62757
1.62268
1.62757
1.62757
1.62757
1.63245
1.62757
1.62757
1.62757
1.62757
1.64712
1.62757
1.62757
1.63734
1.62757
1.62757
1.66667
1.62757
1.62757
1.64223
1.62757
1.62268
1.62757
1.62268
1.62268
1.62268
1.62268
1.61779
1.62757
1.62268
1.62268
1.62757
1.62757
1.62757
1.62757
1.66178
1.62757
1.63245
1.63734
1.67155
1.64223
1.67644
1.64712
1.64223
1.64223
1.64223
1.64223
1.64223
1.64712
1.64223
1.65200
1.65200
1.65689
1.65689
1.67155
1.66667
1.70577
1.67155
1.67155
1.67155
1.67155
1.67155
1.67644
1.67644
1.67644
1.67644
1.67644
1.68133
1.67644
1.69110
1.67644
1.71554
1.68133
1.68133
1.68133
1.68133
1.68133
1.67644
1.68133
1.67644
1.67644
1.67644
1.68133
1.67644
1.69110
1.67644
1.72043
1.68133
1.67644
1.68133
1.68133
1.68133
1.67644
1.68133
1.67644
1.68133
1.67644
1.68622
1.67644
1.70088
1.67644
1.69110
1.68133
1.67644
1.67644
1.67644
1.67155
1.67155
1.67644
1.67155
1.67155
1.67644
1.67155
1.67155
1.67155
1.69110
1.67155
1.66667
1.70088
1.70577
1.66667
1.66667
1.69599
1.67155
1.67644
1.67155
1.67155
1.67155
1.66178
1.65689
1.66667
1.66178
1.65689
1.66667
1.67644
1.66667
1.67644
1.67644
1.68133
1.68133
1.70577
1.68622
1.71065
1.68622
1.68622
1.68622
1.68622
1.68622
1.68622
1.68622
1.68133
1.68133
1.68133
1.68622
1.68133
1.69110
1.67644
1.71065
1.67644
1.69599
1.67155
1.67155
1.67155
1.70577
1.66667
1.66667
1.70577
1.66178
1.66667
1.69599
1.65689
1.65689
1.65200
1.65200
1.65200
1.65200
1.64712
1.64712
1.64712
1.67155
1.64223
1.67644
1.64223
1.64223
1.63734
1.64223
1.63734
1.63734
1.66667
1.63245
1.63245
1.63245
1.62757
1.62757
1.64223
1.62268
1.62757
1.62268
1.62268
1.64223
1.62757
1.62757
1.62757
1.62268
1.63245
1.61779
1.62268
1.61779
1.62268
1.62268
1.62757
1.64712
1.63245
1.63734
1.66178
1.64223
1.64223
1.64223
1.66667
1.64223
1.64223
1.66178
1.63734
1.63734
1.64223
1.64712
1.63734
1.63734
1.64223
1.63734
1.63734
1.63734
1.63734
1.63734
1.67155
1.63245
1.63245
1.63734
1.63245
1.63245
1.63245
1.62757
1.62757
1.62757
1.62757
1.64223
1.62268
1.62268
1.66178
1.62268
1.62268
1.62757
1.61779
1.61779
1.61779
1.61779
1.61290
1.63245
1.61290
1.61290
1.65200
1.61290
1.61290
1.62757
1.60802
1.60802
1.60802
1.61290
1.60802
1.60802
1.60313
1.60802
1.60313
1.62757
1.60313
1.60313
1.64223
1.60802
1.60802
1.60313
1.60802
1.61290
1.60802
1.60313
1.61290
1.60313
1.60802
1.61290
1.61290
1.61779
1.65689
1.62757
1.63245
1.63734
1.64223
1.67644
1.64712
1.66178
1.64712
1.64712
1.64712
1.64712
1.64712
1.64712
1.65200
1.64712
1.65200
1.64712
1.65200
1.64712
1.65689
1.64712
1.68622
1.64712
1.64223
1.64223
1.64223
1.64223
1.63734
1.63734
1.63734
1.63734
1.63734
1.63734
1.66178
1.63245
1.63734
1.63245
1.62757
1.65689
1.62268
1.62268
1.66178
1.62268
1.62268
1.61779
1.62268
1.64223
1.61779
1.61290
1.63245
1.61290
1.61290
1.64712
1.60802
1.60313
1.64712
1.60313
1.60313
1.62757
1.60313
1.60313
1.60313
1.59824
1.60313
1.59824
1.59824
1.62757
1.59824
1.59824
1.60802
1.59824
1.59824
1.60313
1.60802
1.60313
1.61290
1.61779
1.60313
1.60313
1.60313
1.60802
1.62268
1.62268
1.62757
1.65200
1.64223
1.64712
1.65200
1.65689
1.65689
1.66178
1.66178
1.67155
1.65689
1.69110
1.65689
1.66178
1.65689
1.65200
1.65200
1.64712
1.64712
1.64223
1.64223
1.63734
1.64223
1.63734
1.64712
1.63245
1.64223
1.62757
1.62757
1.62268
1.65689
1.62268
1.61779
1.61779
1.61779
1.61779
1.62268
1.61779
1.61779
1.62268
1.61779
1.61290
1.64712
1.61290
1.61290
1.61290
1.63245
1.60802
1.60802
1.61779
1.60802
1.60313
1.61290
1.59824
1.59824
1.61290
1.59335
1.59335
1.59824
1.59335
1.59335
1.60802
1.59335
1.59335
1.60313
1.59335
1.58847
1.62757
1.59335
1.59335
1.59824
1.59335
1.59335
1.58847
1.58847
1.62757
1.58847
1.59824
1.59335
1.59824
1.59824
1.59824
1.59824
1.59824
1.60313
1.62268
1.60802
1.61290
1.62268
1.64223
1.65200
1.64712
1.65689
1.66178
1.67155
1.67644
1.67155
1.67644
1.67644
1.67644
1.67155
1.68133
1.66667
1.70088
1.65689
1.65689
1.65200
1.65200
1.65200
1.64712
1.64712
1.64712
1.64712
1.63734
1.64712
1.63734
1.63734
1.63245
1.63245
1.63245
1.62757
1.62757
1.62757
1.62757
1.62268
1.62268
1.63245
1.62268
1.62268
1.62757
1.62268
1.62268
1.62268
1.62268
1.61779
1.61779
1.61779
1.61290
1.61290
1.61290
1.60802
1.60802
1.60802
1.60313
1.60313
1.61290
1.59824
1.60313
1.60313
1.59824
1.59824
1.63734
1.59824
1.60313
1.59824
1.59824
1.60313
1.59824
1.59824
1.60313
1.59824
1.59824
1.60313
1.59824
1.59335
1.59824
1.59335
1.59824
1.59824
1.61290
1.59824
1.60313
1.64223
1.60313
1.61290
1.60802
1.61290
1.61779
1.62757
1.63734
1.64712
1.65200
1.66178
1.67155
1.68133
1.68622
1.69110
1.69599
1.69110
1.69599
1.69110
1.70088
1.68622
1.70577
1.68622
1.70577
1.68133
1.67644
1.67155
1.67155
1.67155
1.67155
1.67155
1.66667
1.66667
1.66178
1.67644
1.65689
1.66178
1.66178
1.65689
1.66178
1.67644
1.66178
1.65689
1.66667
1.66178
1.66178
1.65689
1.65689
1.66667
1.65689
1.66178
1.65689
1.65200
1.65689
1.65689
1.65200
1.65200
1.67644
1.65200
1.64712
1.65200
1.68622
1.64712
1.64223
1.64223
1.64223
1.66178
1.63734
1.65200
1.63734
1.64223
1.63734
1.63734
1.64223
1.63734
1.64223
1.64223
1.64223
1.64712
1.63734
1.64223
1.64712
1.63734
1.64223
1.64223
1.64223
1.66178
1.64223
1.64223
1.64223
1.64712
1.65200
1.65200
1.65689
1.66667
1.71554
1.68622
1.70577
1.71065
1.71554
1.72532
1.73021
1.73509
1.73509
1.73509
1.73021
1.73021
1.72043
1.73998
1.71554
1.74487
1.70577
1.70088
1.69599
1.69599
1.69599
1.69110
1.69110
1.71065
1.68622
1.68133
1.68133
1.71065
1.67644
1.67644
1.67155
1.67644
1.69110
1.67644
1.67644
1.67155
1.67155
1.69110
1.67155
1.66667
1.66667
1.66667
1.70577
1.66178
1.66667
1.65689
1.65689
1.65689
1.65200
1.65200
1.65200
1.66178
1.64712
1.64223
1.64223
1.63734
1.63245
1.64223
1.63245
1.63245
1.64223
1.62757
1.63734
1.62268
1.62268
1.61779
1.61290
1.61779
1.61779
1.62268
1.61779
1.62268
1.61779
1.62268
1.62268
1.62268
1.64223
1.63245
1.64223
1.64712
1.65200
1.66667
1.67644
1.68622
1.69599
1.70088
1.70577
1.70577
1.71065
1.70088
1.72043
1.69599
1.73021
1.68622
1.68133
1.67644
1.67155
1.67155
1.66178
1.66178
1.66178
1.65689
1.65200
1.64712
1.64712
1.68133
1.64223
1.64223
1.63734
1.63734
1.67155
1.63734
1.63734
1.64223
1.63734
1.63734
1.63734
1.63734
1.63734
1.63245
1.63734
1.63245
1.62757
1.62268
1.62268
1.61779
1.62268
1.61779
1.61290
1.61290
1.61290
1.60802
1.60313
1.61779
1.60313
1.60313
1.59824
1.59335
1.60313
1.59824
1.59824
1.59824
1.59335
1.59335
1.58847
1.58847
1.58847
1.59335
1.58847
1.58847
1.59335
1.59335
1.59824
1.59824
1.61290
1.60802
1.61779
1.62268
1.63734
1.68133
1.66178
1.67155
1.68622
1.69599
1.71065
1.70088
1.73509
1.70088
1.70088
1.70088
1.69599
1.69110
1.68622
1.68133
1.67644
1.67644
1.66667
1.67155
1.66178
1.67644
1.66178
1.69110
1.65689
1.64712
1.65200
1.64712
1.64712
1.65200
1.68133
1.64223
1.64223
1.64712
1.64223
1.64223
1.64223
1.64223
1.64223
1.64223
1.64223
1.64712
1.63245
1.63245
1.62757
1.62757
1.62268
1.66178
1.62268
1.62268
1.61779
1.61779
1.61779
1.63734
1.61290
1.61290
1.60802
1.60802
1.63734
1.60313
1.60313
1.60313
1.60313
1.64223
1.60313
1.59824
1.60313
1.60313
1.60313
1.59824
1.61290
1.59824
1.59824
1.62268
1.60313
1.60802
1.60802
1.61290
1.61290
1.61779
1.62268
1.63245
1.64223
1.65689
1.67155
1.68622
1.70088
1.70577
1.72043
1.72043
1.73021
1.72532
1.75464
1.72043
1.73509
1.71554
1.71065
1.70577
1.70577
1.70088
1.69599
1.69599
1.68622
1.69110
1.68622
1.69599
1.67644
1.71554
1.67644
1.67155
1.67155
1.66667
1.66178
1.66667
1.65689
1.66178
1.65689
1.65689
1.65689
1.67644
1.65689
1.65689
1.65689
1.65689
1.65200
1.64712
1.64712
1.64712
1.64223
1.64712
1.63734
1.64223
1.63734
1.63734
1.65200
1.63245
1.62757
1.66667
1.62757
1.63734
1.62268
1.62268
1.65200
1.61779
1.62757
1.61290
1.61779
1.61290
1.60802
1.60802
1.60802
1.61290
1.60802
1.61290
1.60802
1.60802
1.60802
1.60313
1.60313
1.60313
1.60313
1.63734
1.60802
1.61290
1.61290
1.61290
1.61779
1.62268
1.66667
1.64712
1.66178
1.67644
1.69110
1.72043
1.72043
1.76442
1.73509
1.73509
1.73509
1.73509
1.73021
1.72532
1.72532
1.71554
1.71065
1.70577
1.71065
1.69599
1.72043
1.69110
1.71065
1.68622
1.68133
1.68133
1.68133
1.67644
1.67644
1.71065
1.66667
1.66178
1.66178
1.66178
1.66178
1.66178
1.66178
1.65689
1.65689
1.66178
1.65689
1.66178
1.65200
1.65200
1.64712
1.64712
1.64712
1.64712
1.64223
1.67644
1.63734
1.64223
1.63245
1.63734
1.62757
1.62268
1.63734
1.62268
1.61779
1.61779
1.61290
1.64712
1.61290
1.64223
1.60802
1.61290
1.60802
1.61779
1.60802
1.61290
1.60313
1.60313
1.60313
1.60313
1.60313
1.60313
1.61779
1.59824
1.60313
1.59824
1.60313
1.60313
1.60802
1.60313
1.60802
1.64712
1.61779
1.63245
1.63734
1.65200
1.66667
1.68133
1.70088
1.71065
1.72043
1.72532
1.74487
1.73509
1.76442
1.73021
1.73021
1.72043
1.71554
1.71065
1.70577
1.70577
1.70088
1.69599
1.69110
1.69110
1.68133
1.68622
1.67644
1.68133
1.70088
1.67155
1.66667
1.69110
1.66178
1.66178
1.66178
1.65689
1.66178
1.65200
1.65200
1.66178
1.65200
1.65200
1.65200
1.65200
1.65200
1.64712
1.64712
1.65689
1.63734
1.64223
1.66178
1.63734
1.63734
1.63245
1.63245
1.64712
1.62268
1.62757
1.62268
1.61779
1.63734
1.61290
1.61290
1.61290
1.60802
1.61290
1.60313
1.61290
1.60313
1.60313
1.64223
1.60313
1.61290
1.59824
1.60313
1.59824
1.59824
1.60313
1.59335
1.60313
1.59824
1.59824
1.59335
1.59824
1.59824
1.59824
1.61290
1.60313
1.61290
1.62757
1.62268
1.64223
1.65200
1.66667
1.71065
1.69599
1.71554
1.72532
1.74487
1.74487
1.78397
1.74487
1.74487
1.73998
1.73509
1.73509
1.72532
1.72043
1.72043
1.71554
1.71065
1.71065
1.70577
1.71065
1.70088
1.71554
1.69110
1.71065
1.68622
1.68133
1.68133
1.68133
1.67644
1.67644
1.70088
1.67644
1.67155
1.71065
1.67644
1.67644
1.68133
1.67155
1.67644
1.67644
1.66667
1.68133
1.66667
1.66178
1.66178
1.66178
1.68133
1.65200
1.65200
1.67155
1.64712
1.65200
1.64223
1.64223
1.68133
1.63734
1.63245
1.67155
1.63245
1.63245
1.62757
1.62757
1.62268
1.62268
1.62757
1.62757
1.62268
1.62268
1.62268
1.64712
1.62268
1.62268
1.61779
1.61779
1.65200
1.61779
1.64712
1.62268
1.62268
1.62268
1.62757
1.63245
1.63734
1.64223
1.65689
1.66667
1.68133
1.71065
1.71554
1.73021
1.73509
1.77908
1.74487
1.74487
1.74487
1.74487
1.73998
1.73509
1.73021
1.72532
1.72043
1.71065
1.71065
1.70088
1.71065
1.69599
1.73021
1.68622
1.68622
1.68133
1.67644
1.70577
1.66667
1.66667
1.66178
1.65689
1.67155
1.66178
1.65689
1.69110
1.65689
1.67155
1.65689
1.65200
1.65689
1.66667
1.65200
1.67155
1.64712
1.64712
1.63734
1.64223
1.63245
1.62757
1.62757
1.62757
1.62268
1.61779
1.61779
1.61290
1.60802
1.60802
1.59824
1.62268
1.59824
1.60313
1.59335
1.59824
1.58847
1.59335
1.58847
1.59335
1.58358
1.59824
1.57869
1.60313
1.57869
1.58847
1.57869
1.57869
1.58358
1.57869
1.58358
1.58847
1.59824
1.60802
1.62268
1.66667
1.64712
1.66667
1.66667
1.67644
1.68133
1.72043
1.67644
1.67644
1.67155
1.66667
1.66178
1.65200
1.65200
1.64223
1.64223
1.63245
1.64223
1.62268
1.62268
1.62757
1.61290
1.61290
1.61290
1.60313
1.60313
1.59824
1.59824
1.59824
1.59335
1.59335
1.62757
1.59335
1.59824
1.63245
1.58847
1.58847
1.60313
1.58847
1.59335
1.58358
1.58358
1.57869
1.57869
1.56891
1.57380
1.56891
1.56403
1.56403
1.56403
1.57869
1.55914
1.55425
1.55425
1.55914
1.55425
1.55914
1.54936
1.54936
1.54448
1.54448
1.53959
1.53959
1.57869
1.53470
1.57380
1.53959
1.55425
1.53959
1.55425
1.53959
1.54448
1.54448
1.54936
1.55425
1.56403
1.60313
1.58847
1.60802
1.61779
1.63245
1.64223
1.65200
1.66667
1.65200
1.67644
1.64712
1.68133
1.64223
1.63245
1.62757
1.62757
1.62268
1.61779
1.61290
1.60802
1.60802
1.60313
1.60802
1.59824
1.61290
1.59824
1.59824
1.59335
1.59335
1.61779
1.58847
1.58847
1.58358
1.58847
1.58358
1.58358
1.58358
1.58358
1.58358
1.59824
1.58358
1.58358
1.61290
1.57869
1.57869
1.61290
1.57380
1.57380
1.56891
1.56891
1.57380
1.57869
1.56403
1.56403
1.56403
1.55914
1.55425
1.55914
1.55425
1.55425
1.56891
1.54936
1.54936
1.55425
1.54936
1.54448
1.54448
1.54936
1.55425
1.54448
1.54448
1.54448
1.54936
1.53959
1.54936
1.54448
1.54936
1.55425
1.54936
1.55425
1.56403
1.56403
1.57869
1.58358
1.60313
1.61290
1.62757
1.64712
1.65200
1.66178
1.66178
1.67644
1.66667
1.70088
1.65689
1.65689
1.64712
1.64223
1.64223
1.63734
1.63734
1.63245
1.63245
1.62757
1.63245
1.62268
1.64712
1.61779
1.63734
1.61290
1.60802
1.60802
1.60802
1.60313
1.59824
1.60313
1.59824
1.59335
1.59824
1.59335
1.59335
1.59824
1.59335
1.59335
1.61779
1.59335
1.59335
1.59824
1.58847
1.58847
1.61779
1.58358
1.58358
1.58358
1.58358
1.57869
1.57869
1.58358
1.57380
1.57380
1.57380
1.56891
1.56403
1.56891
1.58847
1.56403
1.58358
1.55914
1.56403
1.56403
1.56403
1.56403
1.55914
1.55914
1.58358
1.55914
1.56403
1.55914
1.55914
1.55914
1.55914
1.56403
1.55425
1.55914
1.55914
1.55914
1.56891
1.55914
1.56403
1.56403
1.56891
1.57869
1.58358
1.59824
1.60802
1.62268
1.65689
1.64223
1.68133
1.65689
1.66178
1.66178
1.66178
1.66178
1.65689
1.65689
1.65200
1.64712
1.64223
1.64712
1.63734
1.65200
1.62757
1.64223
1.62268
1.61779
1.61779
1.61779
1.61779
1.61779
1.61290
1.60802
1.60802
1.60313
1.60313
1.64223
1.59824
1.60313
1.59824
1.59824
1.60313
1.63245
1.59824
1.60313
1.59824
1.59824
1.59824
1.60313
1.59335
1.59335
1.59824
1.60313
1.59335
1.58847
1.58847
1.58847
1.58847
1.57869
1.57869
1.61290
1.57869
1.57869
1.57380
1.57380
1.56891
1.56891
1.56891
1.56891
1.56891
1.59335
1.56891
1.57380
1.56891
1.57380
1.56891
1.56891
1.60802
1.56403
1.56403
1.57869
1.56403
1.56403
1.58847
1.56891
1.57380
1.56891
1.56891
1.56891
1.56891
1.60802
1.57869
1.57869
1.59824
1.59824
1.60802
1.61779
1.62757
1.64223
1.64223
1.65689
1.65200
1.67155
1.65200
1.68622
1.64712
1.64712
1.64223
1.64223
1.63734
1.63245
1.63245
1.62757
1.62757
1.62268
1.62757
1.61779
1.64712
1.61779
1.61779
1.61290
1.61290
1.60802
1.61290
1.60802
1.60802
1.60802
1.62757
1.60313
1.60802
1.61290
1.60802
1.61290
1.64223
1.60802
1.60802
1.60802
1.60802
1.61290
1.60802
1.60313
1.61779
1.60313
1.60313
1.60313
1.59824
1.62268
1.60802
1.59824
1.59824
1.61779
1.58847
1.59335
1.58847
1.58847
1.58847
1.58847
1.58847
1.58847
1.59335
1.58847
1.58358
1.58358
1.58847
1.58358
1.59824
1.59824
1.58358
1.58358
1.58847
1.58358
1.58847
1.58847
1.58847
1.58358
1.59824
1.58847
1.61779
1.59335
1.60313
1.64223
1.61779
1.62268
1.65689
1.64223
1.65200
1.66178
1.66178
1.66667
1.66667
1.66667
1.66178
1.66667
1.65689
1.67155
1.65200
1.69110
1.64712
1.64223
1.64223
1.63734
1.63734
1.63734
1.63734
1.63734
1.63734
1.63245
1.63734
1.62757
1.62757
1.62268
1.64223
1.62268
1.62268
1.62757
1.62268
1.62268
1.62757
1.62268
1.62268
1.66178
1.62268
1.62757
1.62268
1.61779
1.62268
1.61779
1.61779
1.62268
1.61779
1.61779
1.61779
1.61290
1.60802
1.60802
1.60802
1.60802
1.60802
1.60802
1.62268
1.60313
1.60313
1.60802
1.60313
1.60313
1.60802
1.60802
1.60802
1.61290
1.60802
1.61290
1.60802
1.61290
1.62268
1.61779
1.61779
1.62757
1.61779
1.61779
1.62757
1.62268
1.62757
1.62757
1.63734
1.66667
1.65689
1.70577
1.68133
1.69110
1.70088
1.70577
1.71065
1.71065
1.71554
1.71554
1.71554
1.71065
1.72043
1.70577
1.73998
1.69599
1.69110
1.68622
1.68622
1.68622
1.68622
1.68622
1.68133
1.68622
1.67644
1.69110
1.67644
1.68133
1.67644
1.67644
1.69110
1.67155
1.67155
1.67155
1.67644
1.67644
1.67644
1.67155
1.67644
1.67155
1.67155
1.69110
1.67155
1.67155
1.66667
1.66667
1.66667
1.66178
1.66178
1.66178
1.66178
1.66178
1.66178
1.65689
1.68133
1.65200
1.65689
1.65200
1.64712
1.65200
1.68133
1.64712
1.64712
1.67155
1.64712
1.64712
1.64712
1.64223
1.64712
1.67644
1.64712
1.64712
1.64712
1.64712
1.64712
1.64223
1.64223
1.67644
1.65200
1.66667
1.67155
1.68133
1.69599
1.70088
1.71554
1.72043
1.73509
1.72532
1.76442
1.72532
1.72532
1.72043
1.71554
1.71065
1.70577
1.70577
1.69599
1.69599
1.69110
1.69599
1.68622
1.71554
1.68133
1.68622
1.67644
1.67155
1.68133
1.66667
1.66667
1.66667
1.66667
1.66667
1.66667
1.66667
1.66667
1.66178
1.66667
1.66178
1.65689
1.69599
1.65689
1.65200
1.66667
1.65200
1.65689
1.64712
1.64712
1.66667
1.64223
1.63734
1.64223
1.63734
1.63734
1.63245
1.63245
1.62757
1.63245
1.62268
1.62757
1.62268
1.62268
1.61779
1.61779
1.62268
1.61779
1.62268
1.61779
1.62268
1.61779
1.61779
1.65689
1.61779
1.62268
1.61779
1.62268
1.62757
1.63245
1.64712
1.65200
1.66667
1.66667
1.67155
1.72043
1.68133
1.68133
1.68133
1.68133
1.67644
1.67155
1.67155
1.66667
1.66667
1.65689
1.66667
1.64712
1.68133
1.63734
1.64223
1.64712
1.63734
1.63245
1.63245
1.62757
1.62268
1.62757
1.62268
1.62757
1.61779
1.61779
1.63734
1.61779
1.63734
1.61290
1.61290
1.61290
1.61290
1.60802
1.60802
1.61290
1.60313
1.60313
1.59824
1.59824
1.59824
1.59824
1.60313
1.59824
1.59824
1.59335
1.59335
1.58847
1.58847
1.58358
1.58358
1.58358
1.57869
1.57869
1.57869
1.57869
1.61290
1.57869
1.58358
1.57869
1.59824
1.57869
1.61290
1.58358
1.58358
1.57869
1.58358
1.58358
1.58847
1.59824
1.60313
1.60802
1.64223
1.62757
1.63734
1.64223
1.64712
1.64712
1.65200
1.65200
1.65200
1.65689
1.64712
1.66178
1.64712
1.68133
1.64223
1.63734
1.63245
1.63245
1.63245
1.62757
1.62757
1.62268
1.62268
1.61779
1.61779
1.61290
1.61290
1.60802
1.60802
1.61290
1.60313
1.60313
1.60802
1.60313
1.60313
1.59824
1.59824
1.60313
1.59824
1.59824
1.59824
1.59824
1.61779
1.59335
1.59824
1.59335
1.59335
1.58847
1.58847
1.62268
1.58847
1.58358
1.58847
1.58358
1.58358
1.61290
1.57869
1.57869
1.57869
1.57869
1.57869
1.57380
1.57869
1.57869
1.57869
1.57380
1.61779
1.57869
1.57380
1.57380
1.57380
1.60802
1.57869
1.58358
1.57869
1.57869
1.59335
1.58358
1.58358
1.62268
1.59824
1.60802
1.60802
1.61290
1.64712
1.62757
1.65689
1.62757
1.63245
1.62757
1.62757
1.62757
1.62757
1.62757
1.62757
1.62757
1.62268
1.62757
1.61779
1.64223
1.61779
1.63245
1.60802
1.60802
1.60802
1.60313
1.60802
1.60313
1.60313
1.60313
1.59824
1.59824
1.62268
1.59335
1.59335
1.59335
1.59335
1.59335
1.59335
1.58847
1.58847
1.60802
1.58847
1.59824
1.58847
1.58847
1.58847
1.58847
1.58847
1.61290
1.58358
1.58358
1.62268
1.57869
1.57869
1.57380
1.57380
1.61290
1.57380
1.57380
1.57380
1.56891
1.56891
1.58358
1.56891
1.57380
1.58358
1.56891
1.57380
1.56891
1.57380
1.57380
1.56891
1.57380
1.56891
1.56891
1.56891
1.56891
1.56891
1.57869
1.57380
1.57380
1.60802
1.57380
1.56891
1.57380
1.56891
1.56891
1.59335
1.57869
1.58847
1.58358
1.58847
1.59335
1.62268
1.59824
1.60313
1.61290
1.60313
1.61290
1.60313
1.63734
1.60802
1.60802
1.60802
1.60802
1.60313
1.60802
1.60802
1.60802
1.61290
1.60802
1.61779
1.61290
1.63734
1.61290
1.63734
1.60802
1.60802
1.60802
1.60802
1.60802
1.60802
1.60802
1.60802
1.61290
1.60802
1.62268
1.61290
1.65200
1.60802
1.60802
1.61290
1.61290
1.61290
1.61290
1.61290
1.61290
1.61779
1.61290
1.62268
1.61290
1.64712
1.60802
1.61290
1.60802
1.60802
1.60802
1.60802
1.60802
1.60802
1.61290
1.60802
1.60802
1.61290
1.60802
1.60802
1.60802
1.60802
1.61290
1.60802
1.60802
1.63734
1.60802
1.60802
1.64223
1.60313
1.60802
1.61290
1.61779
1.61290
1.60802
1.61290
1.61779
1.61779
1.61779
1.61290
1.60802
1.61290
1.62757
1.60802
1.60802
1.62268
1.61779
1.62268
1.62268
1.62757
1.63245
1.63734
1.63734
1.64712
1.64223
1.65200
1.64712
1.66667
1.64712
1.67644
1.64712
1.65200
1.65200
1.65200
1.65200
1.65200
1.65689
1.65689
1.66667
1.65689
1.67644
1.66178
1.70088
1.66178
1.66178
1.66178
1.66178
1.66178
1.66178
1.66667
1.66178
1.67155
1.66667
1.68133
1.67155
1.71065
1.67155
1.67155
1.67155
1.67155
1.67155
1.67644
1.67644
1.67644
1.68133
1.67644
1.68133
1.67644
1.68622
1.67644
1.70088
1.67644
1.67644
1.67155
1.67155
1.67155
1.67155
1.67644
1.67644
1.68133
1.67644
1.68133
1.67644
1.70577
1.67644
1.67644
1.67644
1.67644
1.67155
1.67644
1.67644
1.67644
1.68133
1.67644
1.67644
1.69110
1.68133
1.68133
1.67644
1.68133
1.67155
1.67155
1.67155
1.67155
1.67155
1.68133
1.67644
1.67644
1.68133
1.68622
1.68622
1.69110
1.69110
1.69599
1.69599
1.69599
1.70088
1.69599
1.70088
1.69599
1.71554
1.69110
1.72532
1.69110
1.69110
1.69110
1.69599
1.70088
1.69599
1.69599
1.69110
1.69599
1.69110
1.70088
1.69110
1.72532
1.69110
1.69110
1.69110
1.69110
1.68622
1.68622
1.69110
1.68622
1.68622
1.68622
1.68133
1.70088
1.68622
1.68133
1.68133
1.68133
1.68133
1.72043
1.68133
1.68622
1.69599
1.68133
1.68133
1.68133
1.67644
1.68133
1.68622
1.67644
1.67155
1.67155
1.67155
1.67644
1.67155
1.67155
1.67155
1.67155
1.66667
1.69110
1.67155
1.67644
1.70088
1.67644
1.67644
1.67644
1.67644
1.67644
1.68622
1.67155
1.67155
1.67644
1.67644
1.69110
1.68622
1.69110
1.73021
1.69599
1.70088
1.70088
1.69599
1.70088
1.70088
1.70088
1.69599
1.70088
1.69599
1.69599
1.69110
1.71065
1.68622
1.71554
1.68622
1.68622
1.68622
1.69110
1.68133
1.68133
1.68133
1.67644
1.67644
1.67644
1.67644
1.67155
1.67155
1.67155
1.66667
1.66667
1.66178
1.70088
1.66178
1.66178
1.66178
1.66178
1.66178
1.67644
1.65689
1.66178
1.65689
1.65689
1.69599
1.65689
1.65200
1.65689
1.65200
1.65689
1.64712
1.64712
1.68622
1.64223
1.64223
1.64223
1.64223
1.64223
1.63734
1.64223
1.63734
1.64223
1.63734
1.64223
1.64223
1.64223
1.64223
1.64223
1.63734
1.63245
1.67644
1.63734
1.64223
1.64223
1.64712
1.65689
1.69599
1.66667
1.67644
1.67644
1.67644
1.67644
1.68133
1.68133
1.68133
1.68622
1.68622
1.68133
1.68622
1.68133
1.69110
1.67644
1.71065
1.67644
1.67644
1.67155
1.67155
1.67155
1.67155
1.67155
1.66667
1.66667
1.66178
1.66178
1.70088
1.65689
1.65689
1.69599
1.65689
1.65689
1.66178
1.64712
1.65200
1.68133
1.64712
1.64712
1.64712
1.63734
1.64223
1.63734
1.63734
1.65689
1.63245
1.63245
1.63245
1.63245
1.62757
1.62757
1.64712
1.62757
1.62757
1.61779
1.61779
1.62757
1.61779
1.61779
1.61779
1.61779
1.61290
1.61290
1.61290
1.61290
1.61290
1.61290
1.61290
1.65200
1.61779
1.64223
1.61779
1.62268
1.61779
1.61779
1.65689
1.62268
1.63734
1.63734
1.64223
1.64712
1.65689
1.68133
1.66667
1.67155
1.67155
1.67644
1.67155
1.67644
1.67155
1.70088
1.67155
1.68133
1.66667
1.66178
1.66178
1.66178
1.66178
1.65689
1.65689
1.65200
1.65689
1.64712
1.66667
1.64223
1.64223
1.64223
1.63734
1.63734
1.63245
1.62757
1.63734
1.62757
1.62757
1.62268
1.62268
1.62757
1.61779
1.62268
1.61779
1.61779
1.61779
1.61290
1.61290
1.61290
1.60802
1.60802
1.60802
1.60802
1.60802
1.60313
1.60313
1.63734
1.59824
1.59824
1.59824
1.59335
1.59335
1.59335
1.59824
1.59335
1.60802
1.59335
1.59335
1.59335
1.59335
1.58847
1.63245
1.59335
1.59335
1.59335
1.59335
1.59335
1.59335
1.59335
1.59824
1.59824
1.59824
1.59335
1.59335
1.60313
1.59335
1.59824
1.60313
1.61290
1.61290
1.62268
1.62268
1.62757
1.65689
1.63734
1.64223
1.63734
1.65200
1.63734
1.67644
1.64223
1.63734
1.64223
1.64223
1.64223
1.63734
1.64223
1.63245
1.63734
1.63245
1.64223
1.63245
1.66178
1.62757
1.62757
1.62757
1.62268
1.62268
1.61779
1.61779
1.61779
1.61290
1.61290
1.62757
1.62268
1.61290
1.61779
1.61290
1.60802
1.62757
1.60802
1.60802
1.64712
1.60802
1.60802
1.64712
1.60802
1.60802
1.60802
1.60802
1.62268
1.60313
1.60313
1.60313
1.59824
1.59824
1.59824
1.61290
1.59824
1.59824
1.60313
1.59824
1.59824
1.63245
1.59824
1.59824
1.63245
1.59824
1.59335
1.60802
1.59824
1.59335
1.62757
1.59335
1.59824
1.59335
1.59824
1.60802
1.59335
1.59335
1.59335
1.58847
1.58847
1.58847
1.58847
1.60313
1.59824
1.60313
1.62757
1.61290
1.61779
1.61779
1.62268
1.62268
1.62268
1.62268
1.62757
1.62757
1.63245
1.63245
1.63734
1.63245
1.64712
1.63245
1.66667
1.62757
1.63245
1.62757
1.63245
1.63245
1.63245
1.63734
1.62757
1.63734
1.63245
1.64223
1.62757
1.66667
1.62757
1.62757
1.62757
1.62757
1.62757
1.62757
1.62757
1.62757
1.62757
1.62757
1.63734
1.62268
1.62268
1.62268
1.64223
1.62268
1.62268
1.63734
1.61779
1.61779
1.61779
1.61779
1.61290
1.65689
1.61779
1.61779
1.61290
1.61290
1.61290
1.61779
1.61290
1.62268
1.61290
1.61779
1.61290
1.61290
1.64223
1.61290
1.61779
1.61779
1.61779
1.64712
1.62268
1.62757
1.62757
1.66178
1.63245
1.62757
1.62757
1.62757
1.62268
1.62757
1.62757
1.63245
1.63245
1.64712
1.64223
1.67644
1.65689
1.67644
1.65689
1.66178
1.66667
1.66667
1.66667
1.66667
1.67155
1.67155
1.67644
1.67155
1.68622
1.67155
1.71065
1.67155
1.67155
1.67644
1.67644
1.67644
1.67644
1.67644
1.67644
1.68133
1.67644
1.67644
1.67155
1.69110
1.67155
1.71065
1.67155
1.67155
1.67155
1.67155
1.67644
1.67644
1.67644
1.67644
1.67644
1.67155
1.67644
1.67155
1.68622
1.67155
1.71065
1.67155
1.67155
1.67155
1.67155
1.70088
1.66667
1.66667
1.66667
1.65689
1.66178
1.65689
1.65689
1.68622
1.65689
1.65689
1.65689
1.65689
1.66178
1.65689
1.65689
1.65200
1.65689
1.65689
1.68133
1.65689
1.65689
1.66178
1.65200
1.64712
1.68622
1.64712
1.64712
1.66178
1.65689
1.66178
1.70088
1.67644
1.68133
1.68133
1.68622
1.69110
1.69110
1.69110
1.69599
1.69110
1.69110
1.69110
1.69110
1.68622
1.69599
1.68622
1.71065
1.68622
1.71065
1.68622
1.68622
1.68622
1.68133
1.68133
1.68133
1.68622
1.68133
1.68622
1.68133
1.68622
1.68133
1.68133
1.68133
1.67644
1.67644
1.67644
1.67644
1.67644
1.67644
1.67155
1.67155
1.67155
1.66667
1.66667
1.70577
1.66667
1.66667
1.66178
1.66178
1.66178
1.66178
1.65689
1.66178
1.65200
1.65200
1.64712
1.64712
1.64223
1.64712
1.64223
1.66667
1.64712
1.64223
1.68133
1.64223
1.64223
1.64223
1.63245
1.63245
1.65689
1.63734
1.63734
1.64223
1.64712
1.66178
1.65689
1.66667
1.67155
1.67644
1.67644
1.67644
1.68133
1.68133
1.67644
1.67644
1.67155
1.67155
1.67155
1.66667
1.66667
1.66667
1.66178
1.67155
1.66178
1.69110
1.65689
1.65689
1.66178
1.65200
1.65689
1.64712
1.64712
1.65200
1.64223
1.63734
1.64223
1.63734
1.63734
1.64223
1.66667
1.63734
1.63245
1.63245
1.62757
1.62757
1.64223
1.62757
1.63245
1.62268
1.62757
1.63734
1.62268
1.64223
1.61779
1.61779
1.61290
1.61290
1.63734
1.60802
1.60802
1.63245
1.60313
1.60802
1.60802
1.60802
1.64223
1.60802
1.60802
1.60802
1.60313
1.63734
1.60313
1.60313
1.60313
1.60802
1.63734
1.62268
1.62757
1.64712
1.64223
1.65200
1.66667
1.65689
1.66667
1.66178
1.67155
1.66667
1.69599
1.66178
1.66667
1.66178
1.66178
1.66178
1.65689
1.65689
1.65200
1.65200
1.64712
1.65200
1.64223
1.65689
1.63734
1.64712
1.63245
1.63245
1.62757
1.62268
1.62268
1.62268
1.62268
1.62268
1.62268
1.62268
1.61779
1.65689
1.61779
1.61779
1.61290
1.61290
1.61779
1.61290
1.61290
1.60802
1.60802
1.61290
1.60802
1.60802
1.61290
1.60313
1.60313
1.59824
1.59335
1.59824
1.59335
1.59335
1.61779
1.59335
1.59335
1.63245
1.58847
1.63245
1.59335
1.59335
1.60313
1.59335
1.59824
1.58847
1.59824
1.59824
1.60313
1.64223
1.61779
1.62757
1.63734
1.64712
1.65200
1.65200
1.65689
1.65689
1.66178
1.65689
1.66178
1.65689
1.68622
1.65689
1.66667
1.64712
1.64712
1.64223
1.63734
1.63734
1.63245
1.63734
1.63245
1.63245
1.62757
1.62757
1.65689
1.61779
1.61290
1.62268
1.61290
1.60802
1.61779
1.60802
1.60802
1.63245
1.60313
1.60313
1.63734
1.60313
1.60313
1.63734
1.59824
1.59824
1.59824
1.59824
1.59335
1.59335
1.59335
1.58847
1.58847
1.59335
1.58358
1.58358
1.58358
1.58358
1.57869
1.58358
1.58358
1.57869
1.57869
1.59335
1.57869
1.57869
1.57869
1.57380
1.58358
1.57380
1.58358
1.57380
1.57869
1.57869
1.57380
1.57380
1.57380
1.56891
1.56891
1.56891
1.60313
1.57380
1.57380
1.58358
1.58847
1.59824
1.60802
1.61290
1.61779
1.61779
1.62757
1.62268
1.61779
1.62268
1.62268
1.62268
1.62268
1.62268
1.62268
1.62268
1.62268
1.61779
1.61779
1.61290
1.62268
1.61290
1.63734
1.61290
1.63734
1.60802
1.60802
1.60313
1.60313
1.60313
1.61779
1.59824
1.60313
1.59824
1.59824
1.59335
1.62757
1.59335
1.59335
1.63245
1.59335
1.59335
1.59335
1.59824
1.59824
1.59335
1.59335
1.58847
1.59335
1.58847
1.58847
1.61290
1.58847
1.58847
1.58847
1.58358
1.58358
1.58358
1.58358
1.58358
1.58358
1.57869
1.60313
1.58358
1.58358
1.58358
1.57869
1.58847
1.58358
1.58358
1.58358
1.58358
1.58358
1.57869
1.57869
1.58847
1.57869
1.57869
1.58847
1.58358
1.58358
1.58358
1.58358
1.57869
1.57869
1.59335
1.57869
1.58358
1.59335
1.58847
1.59824
1.60313
1.60802
1.61290
1.64712
1.61290
1.62757
1.61779
1.61779
1.61290
1.61779
1.61779
1.61779
1.62268
1.61779
1.62268
1.61290
1.63245
1.61779
1.65689
1.61779
1.62268
1.62268
1.62268
1.62268
1.62268
1.62268
1.62268
1.62268
1.61779
1.62757
1.61779
1.64712
1.61779
1.65200
1.61779
1.61779
1.61779
1.61779
1.61290
1.61779
1.61779
1.61779
1.62268
1.61779
1.62268
1.61779
1.62268
1.61290
1.65200
1.61290
1.61290
1.60802
1.60802
1.62268
1.60802
1.60313
1.61779
1.60313
1.60802
1.60313
1.60802
1.61290
1.60802
1.60802
1.62268
1.60802
1.60802
1.62757
1.60802
1.60802
1.61290
1.60802
1.60802
1.60802
1.60802
1.61290
1.60802
1.60802
1.60313
1.60313
1.59824
1.59824
1.62268
1.59824
1.60313
1.62268
1.60802
1.62268
1.61779
1.61779
1.62757
1.62268
1.62757
1.62757
1.63245
1.63245
1.64223
1.63734
1.65200
1.64223
1.68133
1.64223
1.64223
1.64712
1.64712
1.65200
1.65200
1.65689
1.65200
1.65689
1.65200
1.65689
1.65200
1.67155
1.65200
1.68622
1.65200
1.65689
1.65200
1.65689
1.65200
1.65689
1.66178
1.65689
1.66178
1.65689
1.66178
1.66178
1.67644
1.66178
1.70088
1.66178
1.66178
1.66178
1.66178
1.66178
1.66178
1.66178
1.65689
1.66178
1.65689
1.66178
1.65689
1.67644
1.65689
1.68622
1.65689
1.65689
1.65689
1.65689
1.66178
1.66178
1.66178
1.65689
1.65689
1.65689
1.66178
1.65200
1.65689
1.66178
1.65689
1.65689
1.66667
1.65689
1.65200
1.64712
1.67155
1.64223
1.64223
1.64223
1.64712
1.68133
1.65200
1.65689
1.66667
1.66667
1.66667
1.67644
1.67644
1.68133
1.67644
1.70088
1.67644
1.70577
1.67644
1.67644
1.67155
1.67155
1.67155
1.67155
1.67644
1.67644
1.68133
1.67644
1.68622
1.67644
1.71065
1.67155
1.71065
1.67155
1.67155
1.66667
1.67155
1.67155
1.70577
1.67155
1.66667
1.67155
1.66667
1.67155
1.67155
1.66667
1.66667
1.66667
1.66667
1.66667
1.67155
1.66667
1.66667
1.67155
1.66667
1.66667
1.67155
1.66667
1.66667
1.68133
1.66178
1.66178
1.66667
1.68622
1.66178
1.66178
1.68622
1.66178
1.66667
1.66178
1.66178
1.65689
1.65200
1.65200
1.69599
1.65689
1.66178
1.65689
1.65689
1.65200
1.64712
1.68133
1.64223
1.64223
1.63734
1.64223
1.67155
1.64712
1.65689
1.65689
1.66178
1.67155
1.66667
1.66667
1.66667
1.66667
1.67644
1.66667
1.69599
1.65689
1.65689
1.65689
1.67644
1.65200
1.65200
1.65200
1.66178
1.64712
1.64712
1.65200
1.64712
1.64223
1.63734
1.63734
1.63245
1.65200
1.63734
1.63734
1.63245
1.63734
1.64223
1.63245
1.63734
1.62757
1.62757
1.64223
1.62757
1.63245
1.62757
1.62757
1.62268
1.62268
1.62268
1.61779
1.62268
1.61779
1.62268
1.62268
1.61779
1.62268
1.65689
1.61290
1.61290
1.61290
1.61290
1.60802
1.60313
1.64712
1.60802
1.60802
1.60313
1.60802
1.61290
1.60802
1.60802
1.61779
1.60802
1.60313
1.63734
1.59824
1.59824
1.59824
1.60313
1.61779
1.61290
1.62268
1.62757
1.63245
1.67644
1.64223
1.64223
1.68622
1.64712
1.64712
1.64712
1.64712
1.65200
1.64712
1.64712
1.64712
1.64712
1.64223
1.64223
1.63734
1.64223
1.63734
1.65200
1.63734
1.67644
1.63245
1.63245
1.62757
1.62757
1.62757
1.64223
1.62268
1.62268
1.63245
1.62268
1.62268
1.62268
1.62268
1.61779
1.61779
1.62268
1.61779
1.61290
1.61290
1.61290
1.61779
1.60802
1.60802
1.63734
1.60313
1.60313
1.60802
1.60313
1.62268
1.60313
1.60802
1.59824
1.59824
1.60313
1.59335
1.59824
1.59335
1.59335
1.62268
1.59335
1.60313
1.59824
1.59824
1.59335
1.59335
1.59335
1.59335
1.60802
1.59824
1.59824
1.59824
1.59824
1.61779
1.59824
1.60313
1.60802
1.61290
1.62757
1.63245
1.64223
1.64712
1.65200
1.65689
1.66178
1.66178
1.66667
1.66667
1.66667
1.66178
1.67155
1.66178
1.68622
1.65689
1.68133
1.65200
1.64712
1.64712
1.64223
1.64223
1.64223
1.64223
1.63734
1.64223
1.63734
1.64223
1.63245
1.63245
1.65200
1.62757
1.63245
1.66667
1.62757
1.62268
1.66667
1.62757
1.62268
1.63734
1.62268
1.62268
1.65200
1.61779
1.61779
1.62268
1.61779
1.61779
1.61779
1.61779
1.61779
1.61290
1.60802
1.61779
1.60802
1.60802
1.60802
1.60313
1.64223
1.60313
1.60802
1.60313
1.60313
1.60313
1.59824
1.60802
1.60313
1.60313
1.62757
1.60313
1.60313
1.61779
1.60313
1.60313
1.60802
1.59824
1.60802
1.60313
1.60802
1.62757
1.60802
1.60802
1.60313
1.60802
1.62268
1.61779
1.62268
1.64712
1.64223
1.65200
1.66178
1.67155
1.67644
1.68133
1.68133
1.68622
1.68622
1.69110
1.68133
1.71065
1.67644
1.67644
1.66667
1.66667
1.66178
1.65689
1.65689
1.65689
1.65200
1.65200
1.65200
1.65200
1.65689
1.64223
1.64223
1.63734
1.63734
1.63734
1.67155
1.63245
1.62757
1.65689
1.63245
1.63245
1.65200
1.62757
1.62757
1.62757
1.62757
1.62757
1.62757
1.63734
1.62268
1.62757
1.62268
1.62268
1.61779
1.62268
1.63245
1.61779
1.61779
1.60802
1.61290
1.60802
1.60802
1.61290
1.60802
1.60802
1.64712
1.61290
1.64223
1.61290
1.61779
1.61779
1.62268
1.62268
1.61779
1.62757
1.62268
1.62268
1.62757
1.61779
1.61779
1.62268
1.62268
1.61779
1.65689
1.62268
1.62268
1.63734
1.62268
1.62268
1.62268
1.65200
1.62757
1.63245
1.64223
1.64712
1.65689
1.66178
1.67644
1.67644
1.70577
1.68622
1.72532
1.69110
1.69110
1.69110
1.69110
1.69110
1.69110
1.68622
1.68622
1.68622
1.68133
1.68622
1.67644
1.70088
1.67155
1.68622
1.67155
1.66667
1.66667
1.66178
1.66178
1.66178
1.66178
1.66667
1.65200
1.65200
1.65689
1.65200
1.65200
1.65689
1.65200
1.65200
1.65200
1.65200
1.65200
1.65689
1.64712
1.64712
1.65200
1.64712
1.64712
1.64223
1.64223
1.65200
1.63734
1.64223
1.63734
1.63734
1.63734
1.63734
1.63245
1.66178
1.63245
1.63245
1.67155
1.63245
1.64223
1.63245
1.63245
1.62757
1.62757
1.66667
1.62757
1.63245
1.62757
1.63245
1.64223
1.63245
1.65689
1.63245
1.63245
1.62757
1.62757
1.62757
1.62757
1.63245
1.64223
1.68133
1.65200
1.66178
1.66178
1.66667
1.71554
1.68133
1.68133
1.68133
1.68133
1.68133
1.68133
1.68622
1.68133
1.68133
1.67644
1.68133
1.67155
1.69110
1.66667
1.70088
1.66667
1.66178
1.66178
1.66178
1.66178
1.65689
1.65689
1.65200
1.65200
1.65200
1.64712
1.64712
1.65200
1.64223
1.64712
1.64223
1.64223
1.67644
1.64223
1.64223
1.64712
1.64223
1.63734
1.64712
1.63734
1.63734
1.63734
1.63734
1.63734
1.67155
1.62757
1.63245
1.62757
1.63245
1.62757
1.62757
1.62268
1.62268
1.64223
1.61779
1.61779
1.61290
1.61290
1.61290
1.61290
1.61290
1.62268
1.61290
1.61779
1.61290
1.60802
1.60802
1.60313
1.60313
1.60802
1.61779
1.61779
1.62268
1.65200
1.63734
1.64712
1.65200
1.66178
1.67155
1.65689
1.66667
1.65689
1.69599
1.65689
1.68622
1.65200
1.64712
1.64223
1.64223
1.64223
1.63734
1.64223
1.63734
1.64223
1.63245
1.63245
1.64712
1.62757
1.62757
1.64223
1.62268
1.62268
1.65689
1.62268
1.62268
1.62268
1.62268
1.61779
1.61779
1.65689
1.61779
1.64223
1.61290
1.61779
1.61290
1.61290
1.63734
1.60802
1.61290
1.60802
1.60802
1.60802
1.60313
1.60313
1.60313
1.60313
1.62757
1.59824
1.59824
1.59335
1.59335
1.59335
1.59335
1.59335
1.58847
1.58847
1.58847
1.58847
1.59335
1.58847
1.59335
1.59335
1.59335
1.59335
1.59335
1.59335
1.59824
1.59824
1.60802
1.61290
1.62268
1.66178
1.63734
1.64223
1.65689
1.65200
1.68622
1.65689
1.67155
1.66178
1.66178
1.66178
1.66178
1.66178
1.65689
1.65689
1.65200
1.65200
1.64712
1.65689
1.64223
1.68622
1.64223
1.63734
1.63734
1.63734
1.63245
1.63245
1.63245
1.63734
1.63245
1.63245
1.62757
1.62757
1.63245
1.62757
1.62757
1.63245
1.62757
1.62757
1.62268
1.62268
1.62268
1.61779
1.64712
1.61290
1.61290
1.61779
1.61290
1.61290
1.61290
1.60802
1.62757
1.60313
1.60313
1.64223
1.60313
1.63734
1.59824
1.60313
1.59824
1.59335
1.59335
1.59824
1.60802
1.59824
1.59335
1.62757
1.59335
1.59824
1.59824
1.60313
1.59824
1.59824
1.59824
1.59824
1.61290
1.59824
1.60313
1.63245
1.60802
1.61779
1.62757
1.63734
1.64712
1.69599
1.66178
1.67155
1.67644
1.68133
1.68133
1.68133
1.68622
1.68133
1.68622
1.68133
1.69110
1.67644
1.70577
1.67644
1.69110
1.66667
1.66667
1.66178
1.66667
1.66667
1.66178
1.66178
1.65689
1.66178
1.65200
1.66178
1.64712
1.64712
1.65200
1.64712
1.64712
1.65200
1.64712
1.64712
1.65200
1.64712
1.64223
1.64223
1.64223
1.64223
1.63734
1.63245
1.63245
1.63245
1.63734
1.62757
1.62268
1.62757
1.62268
1.65200
1.62268
1.65689
1.61779
1.61779
1.61290
1.61290
1.62268
1.61290
1.61290
1.61290
1.61290
1.61779
1.61290
1.61290
1.61290
1.61290
1.63734
1.60802
1.62757
1.60802
1.60802
1.61290
1.60802
1.62268
1.61290
1.61290
1.61290
1.61290
1.61779
1.62268
1.63734
1.64223
1.65200
1.69110
1.67644
1.73021
1.70088
1.71065
1.72043
1.72532
1.73021
1.73021
1.73021
1.73021
1.73021
1.72532
1.73021
1.71554
1.74487
1.71065
1.71065
1.70577
1.70088
1.70088
1.70088
1.70088
1.70088
1.70088
1.69599
1.70088
1.69110
1.68622
1.68622
1.68133
1.68133
1.68133
1.68133
1.68133
1.68133
1.70088
1.68133
1.67644
1.69110
1.67644
1.67155
1.70577
1.67155
1.67644
1.66667
1.67155
1.66178
1.66178
1.66667
1.65689
1.66178
1.65689
1.65689
1.65200
1.65200
1.67644
1.64712
1.67155
1.64223
1.64223
1.66667
1.64223
1.64712
1.64223
1.64223
1.64223
1.66178
1.64223
1.64712
1.63734
1.64223
1.63734
1.63734
1.63734
1.63734
1.63734
1.64223
1.64223
1.64223
1.67155
1.64712
1.65200
1.69110
1.66667
1.67644
1.68622
1.70088
1.74487
1.72043
1.73021
1.73509
1.73998
1.74487
1.73998
1.73998
1.73509
1.73509
1.72532
1.73021
1.71554
1.73998
1.70577
1.71554
1.70088
1.69599
1.69599
1.69110
1.69110
1.69110
1.68133
1.67644
1.67644
1.67155
1.67155
1.67155
1.66667
1.68133
1.67155
1.67155
1.66667
1.66667
1.69599
1.66667
1.68622
1.66667
1.67155
1.65689
1.66178
1.65200
1.65200
1.65200
1.64712
1.67155
1.64712
1.65200
1.64223
1.64223
1.63734
1.64223
1.63734
1.63734
1.67155
1.62757
1.65200
1.62757
1.63245
1.62268
1.62268
1.62268
1.62268
1.62268
1.61779
1.62268
1.62268
1.63734
1.62268
1.62268
1.62268
1.62268
1.64223
1.62757
1.67155
1.63245
1.64712
1.65200
1.66667
1.68133
1.71065
1.70088
1.73021
1.72043
1.75464
1.72043
1.72043
1.72043
1.71554
1.71065
1.70577
1.70088
1.69110
1.68622
1.67644
1.67644
1.66667
1.68133
1.66178
1.66178
1.68622
1.65689
1.65200
1.64712
1.64712
1.64712
1.64223
1.64712
1.64223
1.64223
1.66667
1.64223
1.68133
1.64223
1.67644
1.64223
1.64223
1.63734
1.63245
1.63245
1.63245
1.63245
1.62757
1.62268
1.64223
1.62268
1.62268
1.61779
1.61779
1.61290
1.60802
1.61290
1.60802
1.61290
1.60313
1.60313
1.63734
1.59824
1.63245
1.59824
1.60802
1.59824
1.60313
1.59335
1.59335
1.59335
1.58847
1.59824
1.59335
1.61779
1.59335
1.59824
1.59335
1.60313
1.60313
1.62268
1.63245
1.64712
1.65689
1.67155
1.72532
1.69599
1.71065
1.71065
1.73509
1.71065
1.73998
1.70577
1.69599
1.69110
1.68622
1.68133
1.67644
1.67155
1.66667
1.66667
1.65689
1.66178
1.64712
1.65200
1.64223
1.64223
1.66667
1.63245
1.62757
1.66667
1.62757
1.63245
1.62757
1.63245
1.66667
1.63245
1.63245
1.62757
1.62757
1.62757
1.62268
1.62268
1.62268
1.62268
1.62757
1.61779
1.61290
1.61290
1.60802
1.61290
1.60802
1.60313
1.60313
1.60313
1.61779
1.59824
1.59335
1.59335
1.60313
1.58847
1.58847
1.58847
1.58358
1.59335
1.58358
1.59824
1.57869
1.58358
1.58358
1.58358
1.57869
1.58358
1.57869
1.58358
1.58358
1.58358
1.58358
1.58847
1.58847
1.59335
1.62268
1.60802
1.65200
1.63734
1.67644
1.66667
1.68622
1.69599
1.71554
1.71065
1.74976
1.71554
1.71554
1.70577
1.70088
1.70088
1.69110
1.69110
1.68622
1.68133
1.67155
1.67644
1.66667
1.68133
1.65689
1.69110
1.65689
1.66667
1.64712
1.64712
1.64223
1.64223
1.65689
1.63734
1.63734
1.65200
1.63245
1.63245
1.63245
1.63245
1.63734
1.63245
1.63245
1.63245
1.62757
1.62268
1.62268
1.62268
1.61779
1.61779
1.63734
1.61290
1.61779
1.60802
1.60802
1.60313
1.60313
1.59824
1.59335
1.61779
1.59335
1.59335
1.58847
1.58847
1.58847
1.58358
1.61779
1.58358
1.59335
1.58358
1.58358
1.61779
1.57869
1.58358
1.58358
1.58358
1.57869
1.58358
1.57869
1.58358
1.57380
1.57380
1.59335
1.57869
1.62268
1.58358
1.59824
1.58847
1.59824
1.59824
1.61290
1.62268
1.64223
1.65200
1.67155
1.68133
1.69110
1.70577
1.70577
1.71554
1.71554
1.72532
1.70577
1.73509
1.69599
1.68622
1.68133
1.67644
1.67155
1.67155
1.66667
1.66178
1.66667
1.65689
1.67155
1.65200
1.64712
1.67155
1.64712
1.64223
1.66178
1.63734
1.63734
1.63245
1.63245
1.63245
1.63245
1.65200
1.63245
1.63245
1.62757
1.62757
1.65200
1.62757
1.62268
1.62268
1.61779
1.64223
1.61779
1.61779
1.61290
1.60802
1.64223
1.60802
1.62268
1.60313
1.60313
1.60313
1.60313
1.59824
1.59824
1.63734
1.59335
1.61290
1.58847
1.62268
1.58847
1.60313
1.58847
1.60313
1.58847
1.59335
1.58847
1.58847
1.58847
1.58847
1.58358
1.58358
1.58358
1.58358
1.57869
1.58358
1.57869
1.58358
1.58358
1.58847
1.60313
1.58847
1.59824
1.59335
1.60313
1.61779
1.62757
1.64223
1.69599
1.67644
1.69110
1.69110
1.73021
1.71065
1.73509
1.71065
1.71065
1.70577
1.70088
1.69599
1.68622
1.68622
1.67644
1.67644
1.66667
1.67155
1.66178
1.68133
1.65200
1.67644
1.64712
1.64712
1.64223
1.63734
1.65689
1.63245
1.63245
1.63734
1.62757
1.62757
1.62757
1.62757
1.62757
1.62268
1.66667
1.62757
1.63734
1.62757
1.62757
1.62268
1.62268
1.62757
1.61779
1.62757
1.61290
1.61290
1.60802
1.60802
1.60313
1.60313
1.60313
1.59824
1.60313
1.59335
1.59824
1.59335
1.58847
1.62757
1.58847
1.59335
1.58847
1.59335
1.58847
1.58358
1.60802
1.58847
1.59335
1.58847
1.59335
1.58847
1.59335
1.58847
1.58847
1.58847
1.58847
1.59335
1.59335
1.59335
1.59335
1.59335
1.60802
1.59824
1.60802
1.59824
1.60313
1.65200
1.62268
1.63734
1.64712
1.66178
1.68133
1.69110
1.70088
1.71554
1.71554
1.72532
1.72043
1.73998
1.71065
1.73998
1.70088
1.69599
1.68622
1.68622
1.68133
1.67644
1.67155
1.66667
1.66667
1.66178
1.65689
1.65689
1.65200
1.64712
1.64712
1.67644
1.64223
1.64712
1.63734
1.65200
1.63734
1.64223
1.65689
1.64223
1.64712
1.63734
1.64223
1.64712
1.63734
1.63734
1.63245
1.63245
1.63245
1.62757
1.62268
1.62757
1.62268
1.63245
1.62268
1.61779
1.62268
1.61779
1.61290
1.61290
1.60802
1.60802
1.60802
1.61779
1.60313
1.60313
1.60313
1.60313
1.62268
1.60313
1.60802
1.60313
1.60313
1.59824
1.59824
1.61290
1.59824
1.60802
1.59824
1.60313
1.59824
1.59824
1.59824
1.59824
1.63245
1.60802
1.61290
1.65200
1.63734
1.65689
1.66667
1.67644
1.71065
1.70088
1.70577
1.71065
1.71554
1.71554
1.71065
1.70577
1.70088
1.70088
1.68622
1.69599
1.67644
1.71065
1.66667
1.66178
1.66178
1.65689
1.65200
1.67155
1.65200
1.64712
1.66667
1.64223
1.64223
1.63734
1.63734
1.63734
1.63734
1.63734
1.66178
1.64223
1.64223
1.63734
1.64223
1.67155
1.63734
1.63734
1.65200
1.63245
1.62757
1.62757
1.61779
1.61779
1.61779
1.65689
1.61779
1.63734
1.61290
1.63245
1.60802
1.60802
1.60313
1.60802
1.60313
1.60313
1.59824
1.59824
1.59335
1.59335
1.61779
1.59335
1.59824
1.59335
1.59824
1.59335
1.59335
1.59335
1.59824
1.59824
1.60313
1.60802
1.61779
1.66667
1.64223
1.65689
1.66667
1.68133
1.69599
1.69599
1.71065
1.70088
1.73998
1.69599
1.69599
1.68622
1.68133
1.67155
1.66667
1.66178
1.65689
1.65200
1.64223
1.65200
1.63734
1.62757
1.66178
1.62268
1.62268
1.61779
1.61290
1.65200
1.61779
1.61779
1.61290
1.61779
1.64223
1.61779
1.63245
1.61779
1.62268
1.61779
1.61779
1.65200
1.61290
1.61290
1.60802
1.60313
1.60313
1.59824
1.60313
1.59824
1.59335
1.59335
1.59335
1.58847
1.58847
1.58358
1.58358
1.58847
1.57869
1.58358
1.57869
1.57869
1.57380
1.57380
1.57380
1.56891
1.56891
1.56891
1.60802
1.57380
1.57380
1.57380
1.57869
1.57869
1.58358
1.63245
1.60313
1.61779
1.63245
1.64712
1.66667
1.67644
1.69110
1.69599
1.71065
1.69599
1.73021
1.69599
1.69110
1.68622
1.68133
1.67155
1.67155
1.66667
1.66178
1.65689
1.65200
1.65689
1.64712
1.65200
1.64223
1.64223
1.63734
1.63245
1.64712
1.62268
1.62268
1.62268
1.62268
1.62268
1.61779
1.61779
1.65689
1.61779
1.61779
1.61779
1.61779
1.62268
1.61290
1.61290
1.60802
1.60802
1.60313
1.59824
1.64223
1.59824
1.60313
1.59824
1.59824
1.59335
1.58847
1.58847
1.58847
1.58847
1.58358
1.58358
1.58358
1.58358
1.58358
1.57869
1.59824
1.57869
1.58358
1.57869
1.58847
1.57380
1.57380
1.57869
1.57869
1.61779
1.58358
1.59335
1.59824
1.60802
1.62268
1.63734
1.65689
1.67155
1.68622
1.69599
1.70577
1.71065
1.71065
1.71554
1.71554
1.70577
1.70577
1.69599
1.70577
1.68622
1.72043
1.67644
1.67155
1.67155
1.66667
1.66178
1.66178
1.65689
1.65200
1.64712
1.65200
1.64223
1.63734
1.64223
1.63245
1.63734
1.62757
1.62757
1.62757
1.62757
1.62757
1.62757
1.62757
1.62268
1.62268
1.64712
1.62268
1.62268
1.61779
1.61779
1.61779
1.64223
1.60802
1.62268
1.60802
1.60313
1.60313
1.59824
1.59824
1.59335
1.62757
1.58847
1.59824
1.58358
1.58847
1.58358
1.58358
1.57869
1.57869
1.60802
1.57380
1.58847
1.57380
1.57869
1.57380
1.57869
1.57380
1.57380
1.57380
1.57380
1.57380
1.57380
1.57380
1.57380
1.57869
1.57869
1.58358
1.59335
1.60802
1.61779
1.63734
1.68622
1.66667
1.69110
1.68622
1.72532
1.70088
1.71065
1.70088
1.70088
1.69599
1.69110
1.68622
1.67644
1.67644
1.66667
1.67155
1.65689
1.67644
1.65200
1.67644
1.64712
1.64223
1.63734
1.64223
1.63245
1.62757
1.64223
1.62268
1.62268
1.61779
1.61779
1.61290
1.61290
1.61779
1.61290
1.61290
1.61290
1.61290
1.61290
1.61290
1.60802
1.60802
1.62268
1.60313
1.60802
1.60313
1.60313
1.59824
1.59335
1.62268
1.58847
1.58847
1.62757
1.58358
1.59824
1.57869
1.57869
1.57380
1.57380
1.56891
1.56403
1.56403
1.56403
1.56403
1.56403
1.57869
1.56403
1.56403
1.56891
1.58847
1.56403
1.57380
1.56891
1.57380
1.56891
1.57380
1.56891
1.57380
1.56891
1.57380
1.57380
1.57380
1.57380
1.57380
1.57869
1.59335
1.58847
1.59824
1.60802
1.61779
1.65689
1.64712
1.66178
1.67644
1.68133
1.68622
1.69110
1.69599
1.69599
1.69110
1.69110
1.68622
1.68133
1.67644
1.68622
1.66667
1.70088
1.65689
1.65200
1.65200
1.65200
1.65200
1.64712
1.64712
1.64223
1.64223
1.64223
1.63734
1.63245
1.64223
1.63245
1.63245
1.62757
1.62757
1.63734
1.62757
1.63245
1.66667
1.63245
1.63245
1.63245
1.62757
1.63245
1.62268
1.62757
1.62268
1.62268
1.63734
1.61779
1.61779
1.61290
1.61290
1.62757
1.60802
1.60802
1.60802
1.60802
1.60802
1.60313
1.61290
1.59824
1.63734
1.59824
1.63734
1.59824
1.60313
1.59824
1.60313
1.61779
1.59824
1.60802
1.59824
1.59824
1.59824
1.59824
1.63734
1.59824
1.61290
1.59824
1.59824
1.63734
1.59824
1.60802
1.62757
1.61290
1.63245
1.63734
1.64712
1.66178
1.66667
1.68133
1.68133
1.70088
1.68622
1.72043
1.68133
1.67644
1.67644
1.67155
1.66667
1.66178
1.66178
1.65689
1.65689
1.65200
1.65689
1.65200
1.67644
1.64712
1.66667
1.64223
1.64223
1.63734
1.63245
1.67155
1.63245
1.63245
1.62757
1.62757
1.63245
1.62757
1.62757
1.66178
1.62757
1.63245
1.62268
1.62268
1.62268
1.62268
1.62268
1.65200
1.61779
1.61779
1.61290
1.60802
1.64712
1.60802
1.60802
1.60313
1.60313
1.62268
1.59824
1.59824
1.61779
1.59335
1.59824
1.59824
1.59335
1.59335
1.59335
1.59335
1.59335
1.58847
1.59335
1.58847
1.59824
1.59335
1.59824
1.59335
1.59335
1.59335
1.59335
1.59335
1.60313
1.60313
1.60802
1.65200
1.63245
1.64223
1.65200
1.66178
1.66178
1.66667
1.67155
1.67644
1.67155
1.67155
1.66667
1.66667
1.65689
1.66178
1.64712
1.66667
1.64223
1.65200
1.63245
1.62757
1.62757
1.62757
1.62268
1.62268
1.61779
1.62757
1.61290
1.62757
1.61290
1.61779
1.60802
1.60802
1.60802
1.60802
1.60802
1.61290
1.60802
1.60802
1.60802
1.60313
1.60802
1.60313
1.60313
1.62757
1.59824
1.60802
1.59824
1.61290
1.59824
1.59824
1.59335
1.59335
1.59335
1.58847
1.58847
1.58847
1.58847
1.58358
1.58358
1.58358
1.58358
1.57869
1.57869
1.58358
1.61779
1.57869
1.58358
1.58358
1.58358
1.58847
1.57869
1.59335
1.57869
1.58358
1.57869
1.58358
1.58847
1.59824
1.60802
1.61779
1.62757
1.63245
1.64223
1.68622
1.64712
1.65200
1.65200
1.65200
1.65200
1.65200
1.65200
1.64712
1.64712
1.64223
1.64223
1.63734
1.65200
1.62757
1.65689
1.62757
1.62757
1.62268
1.62268
1.62268
1.61779
1.61290
1.61290
1.60802
1.64712
1.60802
1.60802
1.60802
1.60802
1.60313
1.60313
1.62268
1.60313
1.62757
1.59824
1.60313
1.59824
1.59824
1.63245
1.59824
1.60313
1.59824
1.59335
1.59824
1.59335
1.59335
1.59335
1.59335
1.59335
1.58847
1.58847
1.58358
1.58847
1.58358
1.58358
1.58847
1.57869
1.57869
1.58358
1.57869
1.57869
1.60802
1.57869
1.57869
1.57380
1.57380
1.57380
1.57380
1.57869
1.57869
1.61779
1.57869
1.57869
1.57380
1.57380
1.58358
1.57869
1.58847
1.59335
1.60313
1.60802
1.61290
1.61779
1.62757
1.62757
1.63245
1.63245
1.63734
1.63245
1.64223
1.63245
1.65200
1.63245
1.66178
1.62757
1.62757
1.62268
1.62268
1.62757
1.62268
1.62757
1.62268
1.62757
1.61779
1.64223
1.61779
1.62757
1.61290
1.61290
1.61290
1.65200
1.60802
1.61779
1.60802
1.61290
1.60802
1.60313
1.61290
1.60313
1.60313
1.60802
1.60313
1.60802
1.60313
1.60313
1.60802
1.60313
1.63734
1.59824
1.60313
1.59824
1.59824
1.59824
1.59824
1.63245
1.59335
1.59335
1.60313
1.59335
1.59824
1.63245
1.59335
1.59335
1.59335
1.59335
1.59335
1.59335
1.59335
1.59335
1.59335
1.59335
1.59335
1.58847
1.61779
1.58847
1.59335
1.58358
1.58847
1.58847
1.58847
1.59824
1.59335
1.59824
1.59335
1.58847
1.59335
1.58358
1.58358
1.58847
1.59335
1.60802
1.60802
1.62268
1.61779
1.61779
1.62757
1.62757
1.62757
1.63245
1.63245
1.63734
1.63245
1.63734
1.63245
1.64223
1.63245
1.66667
1.62757
1.62757
1.62757
1.62757
1.62757
1.62757
1.62757
1.62757
1.62757
1.62757
1.63245
1.62268
1.64712
1.62268
1.64223
1.62268
1.62268
1.62268
1.62268
1.62757
1.62757
1.62757
1.62757
1.63245
1.62757
1.65200
1.62757
1.63245
1.62757
1.62757
1.62268
1.62757
1.62757
1.62268
1.62757
1.62268
1.63245
1.62268
1.63245
1.62268
1.62268
1.62268
1.64712
1.62268
1.62268
1.64712
1.62268
1.62757
1.61779
1.62268
1.63245
1.62268
1.62268
1.62757
1.62268
1.62268
1.64712
1.62268
1.62268
1.62757
1.62268
1.62268
1.62268
1.62268
1.65689
1.62757
1.64223
1.63734
1.64223
1.63734
1.64223
1.63734
1.64712
1.63734
1.67644
1.64712
1.64712
1.65200
1.65689
1.66178
1.67155
1.67644
1.67644
1.68622
1.68622
1.69110
1.69110
1.70577
1.69110
1.73021
1.69110
1.69110
1.68622
1.68622
1.69110
1.68622
1.69110
1.69110
1.69599
1.68622
1.71065
1.68622
1.70577
1.68622
1.68622
1.68133
1.68133
1.68622
1.68622
1.68622
1.68622
1.69110
1.68622
1.71065
1.68622
1.70577
1.68622
1.68622
1.68622
1.68622
1.68622
1.68622
1.69110
1.68622
1.69110
1.68622
1.68622
1.69110
1.68622
1.68622
1.71065
1.68133
1.68133
1.67644
1.68133
1.68133
1.67644
1.67644
1.67644
1.67644
1.68133
1.67644
1.68133
1.67644
1.67644
1.67644
1.67644
1.67644
1.67155
1.71065
1.67155
1.67644
1.71065
1.67644
1.67644
1.68622
1.67644
1.67644
1.67155
1.67155
1.67155
1.67644
1.68133
1.72532
1.69110
1.70088
1.70577
1.71554
1.71554
1.73021
1.72532
1.74487
1.73021
1.77419
1.73021
1.73021
1.72532
1.72532
1.72043
1.72043
1.72043
1.71554
1.72043
1.71554
1.72043
1.71065
1.73509
1.70577
1.71065
1.70577
1.70577
1.70577
1.70088
1.71554
1.70088
1.70088
1.70088
1.70088
1.70088
1.69599
1.70088
1.70088
1.69599
1.73021
1.69599
1.72043
1.69599
1.69599
1.69110
1.69110
1.68622
1.68622
1.69599
1.68622
1.68622
1.68133
1.68133
1.69110
1.68133
1.68133
1.68133
1.68133
1.68133
1.67644
1.67644
1.67155
1.67155
1.67644
1.66667
1.66667
1.68133
1.66667
1.67155
1.66667
1.66667
1.66667
1.66178
1.70088
1.66178
1.66178
1.66667
1.67155
1.69599
1.69110
1.69110
1.70088
1.70577
1.74976
1.71554
1.71065
1.71065
1.71065
1.71065
1.70577
1.70577
1.70088
1.70088
1.69110
1.69599
1.67644
1.71065
1.67644
1.67155
1.71065
1.66178
1.66178
1.67155
1.65200
1.65200
1.64712
1.64712
1.68622
1.64712
1.65200
1.64712
1.64712
1.64712
1.64712
1.64223
1.64223
1.67644
1.64223
1.64223
1.63734
1.63734
1.64223
1.63245
1.63245
1.66667
1.63245
1.66667
1.63245
1.66178
1.63245
1.63245
1.62757
1.62757
1.62268
1.62268
1.62757
1.61779
1.62268
1.61290
1.62757
1.61290
1.61779
1.61779
1.61290
1.63245
1.61779
1.62268
1.61779
1.61779
1.65200
1.62268
1.63245
1.63245
1.64223
1.64712
1.65689
1.69599
1.67644
1.69110
1.68622
1.71554
1.69110
1.70577
1.69110
1.69110
1.69110
1.68622
1.68622
1.67644
1.67644
1.67155
1.67644
1.66667
1.68622
1.65689
1.68622
1.65689
1.68622
1.65200
1.65200
1.64712
1.64223
1.64223
1.63734
1.67644
1.63245
1.64712
1.63245
1.63734
1.63245
1.63734
1.63245
1.63245
1.62757
1.62757
1.62757
1.62757
1.66178
1.61779
1.61779
1.61290
1.61779
1.61290
1.61290
1.61779
1.61290
1.61779
1.60802
1.60802
1.60802
1.60313
1.60313
1.60313
1.59824
1.60313
1.63245
1.59824
1.60313
1.59824
1.59824
1.59824
1.60313
1.59824
1.60313
1.59824
1.60313
1.59824
1.60313
1.60313
1.60313
1.63734
1.61779
1.63245
1.64223
1.64712
1.69110
1.67155
1.68622
1.68133
1.71065
1.68622
1.69110
1.68133
1.67644
1.67644
1.67644
1.67155
1.66667
1.66667
1.66178
1.66667
1.65689
1.68133
1.65200
1.68622
1.64712
1.64712
1.64712
1.64223
1.64223
1.64223
1.63734
1.63245
1.64712
1.62757
1.62268
1.62268
1.64712
1.61779
1.62268
1.61779
1.61779
1.62268
1.61779
1.62268
1.61290
1.61290
1.60802
1.60802
1.64712
1.60313
1.62757
1.60313
1.60802
1.59824
1.59824
1.60313
1.59335
1.59824
1.59335
1.59335
1.58847
1.59335
1.62757
1.58847
1.59824
1.58847
1.58847
1.58358
1.58358
1.62268
1.57869
1.62268
1.57869
1.62268
1.57869
1.58358
1.57869
1.58358
1.60802
1.58358
1.61290
1.58358
1.58847
1.58358
1.58847
1.59335
1.59824
1.61290
1.61290
1.62268
1.62757
1.63734
1.64223
1.64712
1.65200
1.65200
1.65200
1.65200
1.65689
1.65200
1.66178
1.65200
1.68133
1.64712
1.65200
1.64712
1.64712
1.64712
1.64712
1.64712
1.64223
1.64712
1.64223
1.64712
1.63734
1.65200
1.64223
1.67155
1.64223
1.63734
1.63734
1.63734
1.64223
1.63734
1.64223
1.63734
1.64223
1.63734
1.63734
1.65689
1.63734
1.65200
1.63734
1.63734
1.63245
1.63245
1.64223
1.63245
1.63245
1.62757
1.63245
1.65200
1.62757
1.63245
1.62757
1.63245
1.62757
1.62757
1.62757
1.62268
1.62268
1.63245
1.62268
1.62268
1.62268
1.62268
1.61779
1.61779
1.64223
1.62268
1.62268
1.64712
1.62757
1.62757
1.62757
1.62757
1.62268
1.62757
1.61779
1.61779
1.61779
1.62268
1.62757
1.62757
1.63734
1.66667
1.64712
1.65200
1.65200
1.65689
1.65200
1.66667
1.65689
1.69110
1.65689
1.65200
1.65200
1.65200
1.65200
1.65200
1.65200
1.65200
1.65689
1.65200
1.66178
1.65200
1.69110
1.65200
1.64712
1.64712
1.64712
1.64223
1.64223
1.64223
1.64712
1.64712
1.64712
1.65200
1.64712
1.64712
1.65689
1.65200
1.64712
1.67155
1.64712
1.64712
1.65200
1.65200
1.65200
1.65689
1.65689
1.65689
1.66178
1.65689
1.66667
1.65689
1.68622
1.65200
1.65689
1.64712
1.65200
1.65200
1.65200
1.65200
1.65200
1.65200
1.65200
1.65200
1.65689
1.68133
1.65689
1.65689
1.65200
1.65200
1.64712
1.64223
1.64223
1.64223
1.63734
1.63734
1.63734
1.63734
1.64712
1.64223
1.64712
1.66667
1.65200
1.68133
1.66667
1.65689
1.67155
1.66178
1.66667
1.66667
1.67155
1.67155
1.68133
1.68133
1.71065
1.69599
1.72532
1.70088
1.69599
1.69110
1.69110
1.69110
1.68622
1.69110
1.68622
1.69110
1.68622
1.69599
1.68133
1.69599
1.67644
1.71065
1.66667
1.66667
1.66178
1.66178
1.65689
1.65689
1.65689
1.65200
1.65200
1.64712
1.69110
1.64712
1.67644
1.64712
1.64712
1.64223
1.64223
1.64223
1.63734
1.64223
1.63734
1.63734
1.63245
1.63245
1.62757
1.63245
1.66667
1.62757
1.63245
1.63245
1.62757
1.63734
1.62757
1.62268
1.61779
1.61290
1.61779
1.61290
1.61290
1.65200
1.61779
1.63734
1.62268
1.63245
1.62757
1.62757
1.63245
1.63245
1.66178
1.63245
1.63734
1.63245
1.63245
1.62757
1.62757
1.66178
1.62757
1.62757
1.62268
1.62268
1.66667
1.62268
1.62757
1.63245
1.62757
1.62757
1.62268
1.62268
1.62268
1.61779
1.61779
1.61779
1.61779
1.61779
1.61779
1.65689
1.61779
1.62268
1.65689
1.61779
1.61779
1.62757
1.61779
1.61779
1.61779
1.61779
1.65689
1.61779
1.62268
1.65689
1.61779
1.62268
1.62268
1.62268
1.61779
1.61779
1.61779
1.61779
1.61290
1.61290
1.61290
1.60802
1.63734
1.61290
1.60802
1.64712
1.61290
1.61290
1.61290
1.61779
1.62268
1.61290
1.60802
1.60313
1.60313
1.60313
1.60313
1.60802
1.60802
1.61290
1.62268
1.62268
1.63245
1.62757
1.63734
1.63245
1.63245
1.63245
1.63245
1.63245
1.63734
1.63734
1.65200
1.64223
1.67644
1.63734
1.63734
1.63734
1.63734
1.63734
1.63734
1.64223
1.64223
1.64712
1.63734
1.65200
1.63734
1.67644
1.63245
1.63734
1.63734
1.63734
1.63734
1.63734
1.63734
1.63734
1.64223
1.63734
1.64712
1.63245
1.67155
1.63245
1.63734
1.63245
1.63245
1.63245
1.63245
1.62757
1.63245
1.62757
1.62757
1.62757
1.63245
1.62268
1.62757
1.62268
1.62268
1.62268
1.62268
1.61779
1.61779
1.61779
1.62268
1.62757
1.61779
1.62268
1.63245
1.61779
1.61779
1.61779
1.61779
1.61290
1.61290
1.61290
1.61290
1.62268
1.61779
1.62268
1.62268
1.62268
1.62757
1.62268
1.62757
1.61779
1.62268
1.62268
1.62268
1.62757
1.63734
1.64223
1.64712
1.65200
1.65689
1.66178
1.66178
1.66667
1.66178
1.66667
1.66178
1.67644
1.66178
1.70577
1.66178
1.66667
1.66178
1.66178
1.66178
1.66178
1.66667
1.66178
1.66667
1.66178
1.67155
1.66178
1.69599
1.65689
1.65689
1.65200
1.65200
1.65200
1.65200
1.65200
1.64712
1.64712
1.64712
1.64712
1.65200
1.64712
1.64712
1.64223
1.64223
1.65689
1.64223
1.64223
1.67644
1.64223
1.64712
1.63734
1.63245
1.63734
1.63734
1.67155
1.63245
1.63245
1.62757
1.66667
1.62757
1.62757
1.62757
1.62757
1.62757
1.62757
1.62757
1.62757
1.62757
1.63245
1.62268
1.62268
1.65689
1.61779
1.64223
1.62268
1.63734
1.61779
1.61779
1.62757
1.61779
1.61779
1.63245
1.61779
1.61779
1.61779
1.62268
1.62757
1.63245
1.63734
1.64712
1.64712
1.65200
1.66178
1.65689
1.67644
1.66178
1.70577
1.66178
1.66178
1.66178
1.66178
1.66178
1.66178
1.66178
1.65689
1.65689
1.65200
1.66667
1.65200
1.68622
1.64712
1.64712
1.64712
1.64712
1.64223
1.64223
1.63734
1.64223
1.63245
1.63245
1.63245
1.63245
1.63734
1.63245
1.63245
1.63245
1.63245
1.62757
1.62757
1.63245
1.62757
1.62268
1.62757
1.62757
1.66178
1.62268
1.61779
1.64712
1.61779
1.61779
1.65689
1.61779
1.64223
1.61290
1.61779
1.61290
1.61290
1.60802
1.60802
1.64223
1.60802
1.61290
1.60802
1.61290
1.60802
1.60802
1.63734
1.60802
1.63734
1.60313
1.60802
1.64712
1.60802
1.60802
1.60802
1.61290
1.63245
1.60802
1.60802
1.64223
1.60802
1.61290
1.61290
1.62268
1.62757
1.63245
1.64223
1.64712
1.65200
1.65689
1.66178
1.66178
1.66667
1.66667
1.66667
1.66667
1.66667
1.66178
1.67644
1.65689
1.70088
1.65689
1.65689
1.65689
1.65200
1.65200
1.65200
1.65200
1.64712
1.65200
1.64712
1.65200
1.64223
1.65689
1.64223
1.64223
1.64223
1.64223
1.64712
1.64223
1.64223
1.64712
1.64712
1.65200
1.65200
1.64712
1.64712
1.64712
1.64712
1.64712
1.65200
1.65200
1.64223
1.64223
1.66667
1.64223
1.64223
1.64223
1.63734
1.63734
1.66667
1.63734
1.63734
1.65200
1.63245
1.63245
1.66667
1.63734
1.63734
1.67155
1.63734
1.63734
1.67644
1.63734
1.63734
1.63245
1.63245
1.65200
1.63734
1.64223
1.63734
1.64223
1.65689
1.63734
1.63734
1.63734
1.63734
1.66178
1.64223
1.64712
1.65200
1.67155
1.67155
1.71554
1.68622
1.73509
1.70088
1.70577
1.70577
1.71065
1.71065
1.71065
1.71065
1.70577
1.70577
1.69599
1.70577
1.69110
1.72532
1.68622
1.68622
1.68622
1.68133
1.68133
1.67644
1.67155
1.68622
1.66667
1.66667
1.66667
1.66178
1.66178
1.66178
1.70088
1.66178
1.66178
1.66178
1.66178
1.69599
1.65689
1.66667
1.66178
1.66178
1.66178
1.65689
1.65689
1.66178
1.65689
1.65200
1.65200
1.65200
1.66178
1.64712
1.64712
1.64712
1.64223
1.64712
1.64223
1.64223
1.64223
1.64223
1.65200
1.63734
1.64223
1.63245
1.63245
1.67155
1.63245
1.64223
1.63245
1.63734
1.64223
1.63245
1.63245
1.63245
1.62757
1.63245
1.63245
1.63245
1.65689
1.65200
1.66178
1.66667
1.67644
1.68622
1.69110
1.70088
1.69599
1.71554
1.69599
1.73509
1.69599
1.69110
1.68622
1.68133
1.67644
1.67155
1.66667
1.66178
1.66178
1.65689
1.64712
1.64712
1.67644
1.64223
1.64223
1.65200
1.63734
1.64223
1.63245
1.63245
1.63245
1.62757
1.63245
1.63245
1.63245
1.63245
1.67155
1.63245
1.63734
1.63245
1.62757
1.62757
1.62268
1.64712
1.62268
1.62268
1.61779
1.61779
1.61290
1.61290
1.61779
1.61290
1.61779
1.60802
1.60802
1.60313
1.60313
1.63734
1.60313
1.61290
1.59824
1.59335
1.59335
1.59335
1.61290
1.59824
1.60313
1.60313
1.60313
1.59824
1.60313
1.62268
1.59824
1.61290
1.61290
1.62268
1.63245
1.64223
1.69110
1.66178
1.67155
1.67644
1.68622
1.68622
1.69599
1.68622
1.71554
1.68133
1.70088
1.67644
1.67155
1.66667
1.66178
1.65689
1.65200
1.65689
1.65200
1.65200
1.64712
1.65689
1.64223
1.64223
1.67644
1.63245
1.62757
1.63245
1.62757
1.63734
1.62268
1.62268
1.62757
1.62757
1.66667
1.62757
1.63245
1.62757
1.62757
1.62757
1.62757
1.61779
1.63245
1.61290
1.61290
1.63245
1.61290
1.62268
1.60802
1.63734
1.60802
1.63734
1.60313
1.60313
1.59824
1.59824
1.61290
1.59824
1.59824
1.59335
1.59824
1.63245
1.59335
1.59824
1.59335
1.58847
1.59335
1.59335
1.59824
1.59824
1.59335
1.62757
1.59824
1.63245
1.60313
1.61779
1.62268
1.63245
1.65689
1.66178
1.67155
1.68622
1.69599
1.70088
1.70577
1.70577
1.71065
1.70088
1.71554
1.69110
1.73021
1.68622
1.68133
1.68133
1.67644
1.67155
1.67155
1.67155
1.66667
1.66667
1.65689
1.66667
1.65689
1.65689
1.67644
1.64712
1.65689
1.64712
1.64712
1.64223
1.64223
1.66667
1.64223
1.64223
1.66667
1.63734
1.64712
1.64223
1.64223
1.63734
1.63734
1.67155
1.63245
1.63245
1.62757
1.62757
1.62757
1.62268
1.62268
1.62268
1.62268
1.61779
1.61290
1.64223
1.61290
1.62268
1.60802
1.62268
1.60313
1.60802
1.60313
1.60802
1.60313
1.60313
1.63245
1.60313
1.60313
1.60313
1.60313
1.63245
1.59824
1.60313
1.59824
1.60313
1.60313
1.60802
1.62268
1.60802
1.62268
1.61290
1.62268
1.62757
1.64223
1.66178
1.66667
1.68622
1.69599
1.71065
1.71554
1.73021
1.72532
1.74976
1.72532
1.73021
1.72043
1.71065
1.70577
1.70088
1.70088
1.69599
1.69110
1.68622
1.68622
1.68133
1.69110
1.67644
1.70577
1.67155
1.68133
1.66667
1.66667
1.66178
1.65689
1.69599
1.65689
1.65689
1.65200
1.65200
1.65200
1.65200
1.65200
1.65200
1.69110
1.64712
1.68133
1.64223
1.64712
1.63734
1.64223
1.63245
1.63245
1.63734
1.63245
1.64223
1.63245
1.62757
1.62757
1.62268
1.62268
1.61779
1.61779
1.61779
1.61290
1.61290
1.62268
1.60802
1.61779
1.60802
1.61290
1.60802
1.60802
1.60802
1.60802
1.60313
1.60802
1.60313
1.60313
1.59824
1.59824
1.63734
1.59824
1.60313
1.60313
1.60313
1.64223
1.60802
1.61290
1.61290
1.62757
1.63245
1.64712
1.65689
1.67155
1.68622
1.70088
1.71065
1.72043
1.73021
1.73021
1.73509
1.72532
1.73509
1.72043
1.74976
1.71065
1.70577
1.69599
1.69110
1.69110
1.68622
1.68622
1.68133
1.68133
1.67644
1.67644
1.66667
1.66178
1.66178
1.65689
1.65689
1.65200
1.65200
1.66667
1.65200
1.65689
1.65200
1.65200
1.65689
1.65200
1.65200
1.65200
1.65200
1.64712
1.64712
1.64223
1.64223
1.63734
1.63734
1.65200
1.63245
1.63734
1.62757
1.62757
1.63245
1.62268
1.63245
1.61779
1.63245
1.61290
1.61290
1.61290
1.60802
1.64712
1.60802
1.62268
1.60802
1.60802
1.60313
1.60802
1.60313
1.60802
1.60313
1.60313
1.60313
1.60313
1.59824
1.59824
1.59824
1.59824
1.60802
1.59824
1.60313
1.60313
1.61290
1.61290
1.62268
1.64223
1.65200
1.66667
1.69110
1.69599
1.71065
1.71554
1.73509
1.72532
1.76442
1.72532
1.72043
1.72043
1.71065
1.70088
1.69599
1.69599
1.69110
1.69110
1.68133
1.68622
1.67644
1.69110
1.67155
1.67644
1.66667
1.66667
1.66667
1.66667
1.66667
1.66178
1.66178
1.68622
1.66178
1.66178
1.66178
1.66178
1.69599
1.66178
1.66667
1.65689
1.66178
1.65200
1.65200
1.65200
1.65200
1.64712
1.67644
1.64712
1.64712
1.64223
1.64223
1.63734
1.63734
1.65200
1.63245
1.63245
1.62757
1.62757
1.64712
1.62268
1.62268
1.62268
1.61779
1.62757
1.61779
1.63245
1.61779
1.62757
1.61779
1.61290
1.61779
1.65200
1.61290
1.65689
1.61779
1.62757
1.62268
1.62268
1.62757
1.62757
1.63734
1.64712
1.65689
1.71065
1.68622
1.73998
1.71554
1.72532
1.73509
1.73998
1.74487
1.74487
1.74487
1.73509
1.73509
1.72532
1.72532
1.71554
1.72532
1.70088
1.72043
1.68622
1.68622
1.68622
1.71554
1.67644
1.68133
1.67155
1.66667
1.67644
1.66178
1.66667
1.65689
1.66178
1.65689
1.66667
1.65689
1.66178
1.65689
1.65689
1.69599
1.65689
1.66178
1.65200
1.65200
1.64712
1.64712
1.64712
1.64223
1.64223
1.63734
1.63245
1.63245
1.62757
1.62757
1.62268
1.64712
1.61779
1.62268
1.61290
1.64223
1.61290
1.61290
1.60802
1.60313
1.64223
1.60313
1.61779
1.59824
1.61290
1.59824
1.60313
1.60313
1.60313
1.63245
1.60802
1.64712
1.61779
1.64223
1.63245
1.64712
1.66178
1.67644
1.68622
1.69599
1.70577
1.71065
1.71554
1.71554
1.71065
1.71065
1.70088
1.70088
1.69599
1.69599
1.68133
1.69599
1.66667
1.67644
1.65200
1.68622
1.64223
1.64223
1.67155
1.63245
1.63245
1.62757
1.62268
1.62268
1.62268
1.62268
1.62757
1.62268
1.62268
1.66178
1.62268
1.62268
1.61779
1.61779
1.61290
1.61290
1.60802
1.60313
1.60313
1.59824
1.59824
1.59824
1.59335
1.59335
1.59335
1.61290
1.58847
1.58847
1.58358
1.58847
1.57869
1.58358
1.57869
1.57380
1.57380
1.57380
1.60802
1.56891
1.60802
1.56403
1.58358
1.56403
1.57869
1.56891
1.58847
1.57380
1.60313
1.58847
1.60313
1.61290
1.63245
