HR_time,RR-interval,heart_rate
1.3576725989230873,726.0,81.85088985088984
2.1160966024594328,764.0,85.52239481651246
2.7527982350578464,641.0,82.61934437857829
3.5580385351087807,811.0,82.94897400820793
4.307099279342208,754.0,71.49982612475549
5.308968024754417,1009.0,81.67901026505285
5.880126842232406,1886.0,85.06351730730637
6.544918252739573,745.0,96.51266519075881
7.1816198853379865,1301.0,88.53424643168017
7.921317370268496,1773.0,73.92800025899187
9.213447154071158,716.0,79.98991976363584
9.747152934337477,707.0,93.25383187254437
10.243405677392122,726.0,105.16018638759454
10.973739903019712,735.0,95.79176533496295
11.68534761004147,811.0,83.96987854251012
12.387592057760308,613.0,84.32552289815447
13.108563024084981,849.0,83.60487512487512
13.838897249712574,754.0,79.96208442720071
14.644137549763508,1245.0,85.08336314847942
15.252749404453168,716.0,81.43208109719737
16.095442741715775,764.0,83.29487179487178
16.8445034859492,830.0,79.29819819819818
17.53738467436512,754.0,92.39245107176141
18.080453713934357,745.0,93.79771422965615
18.792061420956113,632.0,91.30321973516165
19.550485424492457,1264.0,78.74836080099237
20.37445224314923,660.0,77.34309764309762
21.123512987382657,1226.0,78.01070195627157
21.863210472313167,1254.0,85.61857169846968
22.49054884560866,754.0,90.33033640435202
23.127250478207074,735.0,95.6559980844441
23.745225592199652,754.0,77.55604623080903
25.196530784151918,764.0,72.84428152492669
27.612251684304724,773.0,67.8652605459057
28.342585909932314,849.0,80.78461538461538
29.091646654165743,679.0,80.45498575498576
29.850070657702087,679.0,79.11915085817523
30.61785792054135,707.0,76.15248419150856
31.460551257803957,716.0,79.44878048780487
32.13470592761404,849.0,83.06666666666666
32.80886059742413,735.0,87.81333333333333
33.51110504514296,820.0,86.25192982456139
34.22271275216472,773.0,80.31859649122805
35.06540608942733,641.0,79.22321187584345
35.79574031505492,679.0,75.66967285587975
36.61034387440877,726.0,77.9851200103513
37.37813113724803,830.0,82.01226933161826
38.01483276984645,830.0,87.1272118603539
38.68898743965653,792.0,88.81869111280875
39.40995840598121,726.0,81.67965367965367
40.23392522463798,716.0,76.28571428571428
41.05789204329475,707.0,73.97402597402598
41.844405824739844,698.0,77.44155844155844
42.565376791064516,754.0,81.2740943267259
43.27698449808628,669.0,84.32552289815447
43.97922894580511,669.0,85.4501280227596
44.672110134221036,801.0,84.04486486486485
45.42117087845446,1849.0,85.64937190711838
46.08596228896163,1132.0,86.86901408450703
46.750753699468795,698.0,85.29842584921292
47.54663074021681,764.0,73.0139188069594
50.50542067993885,820.0,71.79427662957073
51.19830186835477,811.0,73.03523523523523
51.956725871891116,792.0,79.78695937316627
52.77132943124497,1367.0,75.75930381062697
53.576569731295905,801.0,74.81750486882805
54.363083512741,669.0,75.39519249560288
55.15896055348902,801.0,86.1579831932773
55.72075611166409,886.0,85.85882352941175
56.516633152412105,783.0,90.81391880695939
57.181424562919275,849.0,80.94885856599554
59.63459850028375,679.0,79.55278013462299
60.47729183754635,745.0,79.13493975903614
61.15144650735644,867.0,80.4379746835443
61.89114399228695,849.0,79.92203265455879
62.75256384815539,754.0,73.98869932122545
63.595257185418,688.0,73.65072463768115
64.34431792965142,707.0,79.69360730593606
65.02783585876443,811.0,84.44027397260274
65.73008030648326,698.0,82.57748327492831
66.5353206065342,905.0,82.18207416719045
67.22820179495012,1396.0,75.95207416719045
68.12707468803023,867.0,75.38759213759214
68.951041506687,698.0,82.12272727272726
69.51283706486207,830.0,83.09011857707509
70.37425692073052,858.0,87.68225616921268
71.06713810914644,820.0,76.35498344193996
71.89110492780321,754.0,76.6101196101196
72.74316152436873,726.0,72.29697888318577
73.55776508372259,783.0,74.72425161045851
74.306825827956,811.0,78.99198387819078
75.02779679428069,839.0,80.17519949929587
75.80494731642287,830.0,78.31240880162146
76.6101876164738,820.0,74.57214906136173
77.4435176944335,754.0,73.10993657505284
78.26748451309025,745.0,72.8244514106583
79.08208807244411,783.0,75.5244514106583
79.83114881667754,839.0,78.28969882147534
80.57084630160804,858.0,79.47291444258045
81.34799682375024,830.0,76.77291444258044
82.18132690170992,783.0,73.20746723156361
83.03338349827544,745.0,71.74525474525474
83.85735031693221,716.0,73.48019450429088
84.63450083907439,754.0,77.04564171530771
85.37419832400491,735.0,80.87817760047517
86.08580603102666,867.0,81.84323784143903
86.83486677526008,896.0,82.18987854251012
87.56520100088768,867.0,77.30200668896322
88.42662085675612,698.0,73.08621721527899
89.31613049053331,820.0,68.91899313501145
90.17755034640176,707.0,74.56646669552848
90.87043153481768,801.0,76.63398030714373
91.68503509417152,896.0,81.8965890027959
92.38727954189036,820.0,78.16113590263691
93.18315658263839,783.0,76.09362229102166
94.07266621641558,613.0,72.1653464289527
94.88726977576943,707.0,72.77087442328296
95.66442029791162,707.0,83.14820235850564
96.27303215260127,754.0,87.07647822057459
96.97527660032011,830.0,89.82153846153845
97.67752104803895,1018.0,83.66
98.42658179227237,641.0,79.45272727272726
99.25054861092914,764.0,70.75050505050504
100.26178061564427,716.0,75.4622697563874
100.89848224824269,801.0,77.5599128540305
101.65690625177903,801.0,85.88739823414744
102.36851395880079,839.0,79.60504529297098
103.1643909995488,792.0,78.3640866873065
103.96026804029682,745.0,74.25882352941176
104.79359811825651,726.0,74.55798319327731
105.5801118997016,811.0,76.46654611211574
106.31980938463212,783.0,80.20680585237548
107.0407803509568,811.0,79.61544372612963
107.84602065100773,745.0,78.31240880162146
108.62317117314991,745.0,75.4093583636873
109.42841147320084,773.0,77.61012374490602
110.16810895813136,849.0,78.91315866941419
110.90780644306186,849.0,80.12472985489349
111.67559370590112,867.0,76.8200885046825
112.51828704316374,792.0,73.51544715447153
113.36098038042634,726.0,70.68405797101448
114.22240023629477,716.0,72.37929606625258
115.00891401773988,735.0,76.386222473179
115.72988498406455,792.0,81.2740943267259
116.44149269108631,858.0,83.23013828276986
117.1718269167139,811.0,80.91844997108154
117.958340698159,773.0,76.28571428571428
118.81039729472452,735.0,73.73830820342448
119.61563759477546,820.0,74.35851726265793
120.38342485761473,886.0,78.27060517474584
121.11375908324231,858.0,77.9851200103513
121.92836264259617,801.0,74.65974377786557
122.80850901707045,726.0,70.74765586577766
123.66056561363597,716.0,71.32534349255249
124.45644265438398,745.0,76.3421989774931
125.17741362070866,839.0,80.97493466286036
125.88902132773042,783.0,82.88349758169878
126.62871881266092,849.0,79.14323784143903
127.46204889062061,707.0,76.77291444258044
128.2391994127628,811.0,73.46827309236946
129.0818927500254,688.0,77.94827309236948
129.78413719774423,792.0,77.0505426356589
130.58937749779517,849.0,82.57748327492831
131.27289542690818,773.0,79.52605470349974
132.0594092083533,764.0,78.4221787345075
132.9021025456159,726.0,75.21068524970963
133.66988980845514,745.0,76.15248419150856
134.4283138119915,801.0,80.15941059843499
135.14928477831617,830.0,81.14860479417442
135.88898226324667,811.0,79.90764618850993
136.6848593039947,773.0,76.44011372097745
137.50882612265147,735.0,74.23934833975873
138.31406642270238,707.0,75.15871706285773
139.08185368554166,698.0,78.27060517474584
139.81218791116925,792.0,81.91339587242027
140.5144323588881,839.0,84.72948024948025
141.207313547304,839.0,82.77343629343629
141.99382732874912,801.0,78.29343629343629
142.8271574067088,783.0,73.42857142857143
143.6604874846685,716.0,73.12941176470588
144.4563645254165,735.0,74.86435152374202
145.23351504755868,811.0,78.96961468163676
145.94512275458044,849.0,81.22481830154626
146.67545698020803,849.0,80.3270878448357
147.48069728025897,811.0,75.9551580202743
148.32339061752157,764.0,72.30387596899223
149.16608395478417,716.0,72.30387596899223
149.9713242548351,679.0,74.94091300602928
150.72974825837144,650.0,79.31284283059068
151.4413559653932,735.0,84.14230019493176
152.1155106352033,849.0,88.72845156369183
152.76157552710464,867.0,88.00780379041248
153.49190975273223,905.0,82.07447045707914
154.33460308999483,830.0,74.33534002229655
155.19602294586326,783.0,69.20072463768116
156.0948958389434,716.0,69.7401185770751
156.91886265760016,707.0,72.2576670317634
157.69601317974232,754.0,78.11293018965814
158.40762088676408,792.0,82.32020291693087
159.10986533448292,820.0,83.28526315789472
159.85892607871637,801.0,80.60857142857142
160.64543986016145,745.0,76.68029556650247
161.4600434195153,707.0,75.10970733120834
162.25592046026333,698.0,76.71911058618122
162.99561794519383,783.0,80.64738644825019
163.69786239291267,849.0,84.38283954840917
164.3907435813286,839.0,83.079804623901
165.16789410347076,773.0,78.33313795723433
166.0105874407334,735.0,73.46827309236947
166.84391751869308,764.0,73.78211382113821
167.61170478153232,801.0,77.43339587242026
168.3420390071599,811.0,79.80376624279063
169.10046301069627,801.0,78.88439751969163
169.89634005144427,745.0,76.33699143740182
170.7015803514952,688.0,75.09603283173735
171.49745739224323,660.0,77.00459575057576
172.23715487717374,660.0,81.42766042085292
172.92067280628675,830.0,86.81253437043274
173.576100957491,999.0,90.28884540117416
174.23152910869524,726.0,85.30129870129869
175.055495927352,962.0,74.9379563832394
176.0480014134613,688.0,72.16393040921342
176.768972379786,754.0,68.83237960707439
177.7240248286836,726.0,77.94171018345071
178.4075427577966,820.0,76.90145044319095
179.15660350203004,905.0,83.70053371286247
179.8775744683547,858.0,78.99198387819077
180.69217802770856,773.0,74.54198387819078
181.59105092078866,698.0,70.27425161045849
182.44310751735418,707.0,71.77130796033234
183.21089478019346,716.0,78.3861728251972
183.90377596860938,792.0,83.39364535266974
184.60602041632822,867.0,85.4501280227596
185.31762812334998,820.0,82.01383458646616
186.10414190479506,726.0,76.751225890814
186.96556176066352,716.0,73.19768687085029
187.78016532001737,783.0,75.5093751825386
188.50113628634205,820.0,80.3972470360855
189.2127439933638,858.0,81.58046265719061
189.98989451550597,896.0,78.39192705486191
190.80449807485982,698.0,73.75919136949464
191.65655467142534,716.0,97.69867021510967
192.05917482145082,688.0,114.22386915410169
192.54606430520255,735.0,119.61620654643909
193.23894549361847,801.0,98.04705109968268
193.95055320064023,867.0,86.23040199536233
194.63407112975324,839.0,84.75015251511286
195.36440535538082,764.0,81.774301121924
196.16028239612882,707.0,75.7314184536691
197.02170225199728,783.0,72.3468030690537
197.85503232995697,877.0,73.5877616747182
198.6134563334933,886.0,78.85037037037037
199.31570078121214,830.0,80.58531012940651
200.09285130335434,735.0,77.18268169452001
200.9636344185257,754.0,71.42608594983915
201.84378079299998,764.0,69.96387346353029
202.66774761165672,839.0,74.3807469126618
203.39808183728434,886.0,78.35734265734266
204.14714258151776,830.0,80.45498575498576
204.9055665850541,773.0,77.07037037037037
205.73889666301378,745.0,73.09377462568952
206.61904303748807,745.0,70.99613152804642
207.44300985614484,801.0,73.0449120158513
208.2107971189841,849.0,77.35948244407645
208.95049460391462,877.0,80.12472985489349
209.69019208884512,830.0,79.20536113179449
210.48606912959315,735.0,75.90071978158352
211.32876246685575,707.0,71.83048703352308
212.1995455820271,735.0,70.97380254154447
213.02351240068387,820.0,74.62508459282652
213.75384662631146,877.0,80.13734265734266
214.4560910740303,867.0,83.24923076923076
215.18642529965788,867.0,80.41633952254642
216.00102885901174,707.0,74.90408145803029
216.87181197418312,735.0,70.73685737776273
217.73323183005155,726.0,69.40252454417953
218.59465168591998,792.0,74.91478260869565
219.29689613363882,1094.0,79.08200668896322
220.0272303592664,896.0,83.60487512487512
220.74820132559108,575.0,80.55344655344655
221.5347151070362,650.0,71.58262427227945
222.62085318617466,707.0,66.3265750583355
223.51036281995187,754.0,75.914397072387
224.08152163742986,783.0,88.45712570806916
224.72758652933118,849.0,94.45291518175338
225.42983097705002,811.0,86.13652173913042
226.17889172128343,754.0,80.91493975903613
226.95604224342563,698.0,76.16827309236947
227.79873558068823,688.0,74.30548239469505
228.60397588073917,698.0,75.2705426356589
229.3530366249726,745.0,80.40207416719045
230.0459178133885,849.0,84.82513883746759
230.72943574250152,830.0,86.99000370233247
231.42231693091745,783.0,85.16311352101191
232.16201441584795,688.0,79.6361728817425
233.00470775311055,688.0,75.0440352896049
233.82867457176732,735.0,73.74100036509674
234.6058250939095,801.0,79.26794100436615
235.2893430230225,839.0,84.25548770424162
235.9728609521355,801.0,85.90516332982085
236.7031951777631,716.0,81.774301121924
237.49907221851112,716.0,76.51402714932127
238.3324022964708,764.0,74.25882352941176
239.12827933721883,820.0,77.23467492260062
239.83988704424058,820.0,81.33993808049536
240.55149475126234,764.0,82.58089668615983
241.30991875479867,688.0,79.02735766619614
242.12452231415253,698.0,75.47381864623243
242.93912587350638,716.0,75.47381864623244
243.69754987704272,792.0,80.18236848090413
244.38106780615573,773.0,84.49550920783796
245.07394899457165,764.0,86.23040199536234
245.7855567015934,754.0,82.39869945133103
246.57207048303852,698.0,79.58261507427105
247.33985774587777,669.0,77.84772228674667
248.09828174941413,735.0,79.11915085817523
248.84734249364755,783.0,81.93523523523523
249.54022368206347,820.0,85.64937190711838
250.20501509257062,792.0,86.33398729173376
250.93534931819823,716.0,83.20406218590504
251.7124998403404,698.0,77.67127928158256
252.52710339969425,707.0,75.7152353255386
253.31361718113936,773.0,78.0855587243972
254.02522488816112,820.0,82.39869945133103
254.71810607657704,820.0,85.4501280227596
255.42035052429586,783.0,83.39364535266974
256.18813778713513,726.0,79.08050462573591
257.00274134648896,679.0,75.15222876366694
257.81734490584284,735.0,74.83838803489822
258.594495427985,754.0,78.02692363722691
259.3154663943097,773.0,83.14186616596254
259.9896210641198,773.0,84.79154179154179
260.71995528974736,764.0,83.75128205128205
261.4690160339808,716.0,80.13339587242027
262.2368032968201,707.0,78.79756097560974
263.00459055965933,698.0,78.46793134598012
263.76301456319567,792.0,80.52441401606998
264.4746222702174,867.0,82.9556335282651
265.17686671793626,1509.0,85.4501280227596
265.8697479063522,754.0,82.77343629343629
266.65626168779727,735.0,77.51082759778413
267.51768154366573,773.0,65.87176918453216
268.67872569722755,820.0,99.77653108929405
269.01580303213257,735.0,103.25913978494623
269.764863776366,726.0,113.41794871794872
270.4951980019936,773.0,80.13339587242027
271.2629852648329,801.0,77.9851200103513
272.0775888241867,886.0,77.9851200103513
272.8079230498143,811.0,79.67659926280615
273.52889401613896,745.0,81.17365561268
274.29668127897827,707.0,78.9184519927705
275.09255831972627,726.0,73.90159650782991
275.97270469420056,783.0,72.6900253223506
276.77794499425147,877.0,74.59858824118903
277.517642479182,801.0,80.35518398586987
278.2198869269008,726.0,83.25823442380404
278.9408578932255,707.0,81.95519949929587
279.71800841536765,735.0,76.44294143477975
280.588791530539,792.0,73.83209345922589
281.384668571287,830.0,75.8374134404495
282.10563953761175,839.0,81.34967150496561
282.8078839853306,783.0,83.60487512487512
283.5382182109582,716.0,81.29318681318682
284.32473199240326,688.0,77.08591408591408
285.14869881106,679.0,73.7012987012987
285.9820288890197,745.0,74.0076670317634
286.7591794111619,905.0,77.84020291693088
287.47078711818364,820.0,83.10047688953361
288.15430504729665,811.0,87.03220379716413
288.82845971710674,716.0,85.96491532281371
289.56815720203724,726.0,78.95464135021098
290.46703009511737,858.0,73.83969882147534
291.2816336544712,877.0,71.63893344025661
292.08687395452216,896.0,77.49419659815135
292.7984816615439,867.0,80.68273220048005
293.5194526278686,830.0,79.31805037068193
294.3715092244341,801.0,74.18052914827108
295.24229233960546,726.0,68.92447993432712
296.13180197338266,726.0,68.66934376614748
296.99322182925107,754.0,69.97432910339089
297.81718864790787,820.0,72.61953034178097
298.61306568865587,820.0,77.14239877769289
299.33403665498054,792.0,80.60993124522537
300.0550076213052,801.0,82.18051948051948
300.8040683655387,698.0,78.99198387819077
301.6186719248925,688.0,75.80344827586207
302.43327548424634,716.0,74.53201970443351
303.2197892656915,783.0,75.10970733120834
304.01566630643947,1169.0,79.42284805814216
304.7085474948554,877.0,83.25455060217348
305.3920654239684,1254.0,86.23040199536234
306.10367313099016,783.0,83.10047688953361
306.8808236531323,716.0,79.88898340473575
309.68043818470477,716.0,93.66607318801748
310.1579644091536,792.0,93.66607318801748
310.93511493129574,830.0,95.72255585810734
311.6467226383175,849.0,81.94546607482562
312.35833034533925,792.0,81.6390977443609
313.1448441267844,792.0,77.80656185919344
313.96881094544113,754.0,73.43463203463202
314.81150428270377,716.0,73.43463203463203
315.59801806414885,735.0,74.59047619047618
316.3845318455939,783.0,77.55714285714285
317.1335925898274,867.0,80.23383458646616
317.84520029684916,877.0,82.18987854251012
318.57553452247674,849.0,81.22481830154626
319.3526850446189,830.0,76.33694644799935
320.21410490048737,783.0,71.92007299886784
321.0848880156587,726.0,69.91846657316503
321.9275813529213,716.0,70.97380254154447
322.75154817157807,745.0,73.74100036509674
323.5286986937203,849.0,77.74792677202315
324.24966966004496,849.0,81.58046265719062
324.9612773670667,773.0,82.88349758169878
325.7009748519972,745.0,78.87657117477237
326.5436681892598,726.0,74.50464135021096
327.3863615265224,745.0,73.51544715447153
328.15414878936167,811.0,76.8200885046825
328.8938462742922,858.0,80.82701491160893
329.61481724061684,801.0,81.81620910734836
330.3545147255474,783.0,79.61544372612963
331.1597550255983,792.0,75.34771145839736
332.01181162216386,764.0,73.43914853955893
332.80768866291186,773.0,74.33687899626949
333.584839185054,773.0,76.29292295231346
334.3713529664991,716.0,77.53388155797794
335.1297769700355,688.0,77.84772228674667
335.89756423287474,716.0,78.46793134598012
336.665351495714,764.0,80.20282413350449
337.37695920273575,820.0,83.41431761830235
338.06047713184876,839.0,85.47080028839221
338.7720848388705,830.0,83.73590750086784
339.53050884240685,820.0,79.02735766619614
340.34511240176073,754.0,74.9220945083014
341.1784424797204,707.0,72.8244514106583
342.0024092983772,707.0,72.8244514106583
342.817012857731,754.0,75.5244514106583
343.56607360196443,867.0,79.73172413793102
344.2683180496833,801.0,83.66
344.9705624974021,726.0,83.66
345.71962324163553,716.0,78.39739130434782
346.581043097504,801.0,75.04680306905371
347.376920138252,867.0,76.08706280931344
348.0978911045767,839.0,80.97493466286036
348.8094988115985,830.0,80.97493466286035
349.60537585234647,792.0,76.45206622694845
350.46679570821493,745.0,72.3468030690537
351.3001257861746,698.0,71.4901185770751
352.1240926048314,698.0,73.7012987012987
352.91060638627647,773.0,76.739273384843
353.650303871207,886.0,81.3314109769806
354.3431850596229,801.0,84.76770441327403
355.0360662480388,754.0,83.7785102175346
355.80385351087807,792.0,77.63704960798889
356.68399988535236,839.0,73.90159650782991
357.47987692610036,867.0,74.55281602002503
358.2289376703338,839.0,77.25798319327731
359.0154514517789,792.0,76.12857142857143
359.8487815297386,783.0,72.64596273291926
360.71020138560704,792.0,71.21739130434783
361.5435314635667,754.0,72.64596273291926
362.33004524501183,698.0,75.16351118760757
363.107195767154,735.0,76.592082616179
363.8937095485991,801.0,77.86351118760757
364.6427702928325,877.0,80.99343629343629
365.3356514812484,858.0,82.94948024948025
366.065985706876,801.0,81.37889201418614
366.86186274762406,801.0,75.48176908480514
367.73264586279544,735.0,71.56968117271722
368.5847024593609,716.0,71.56968117271722
369.3805795001089,707.0,73.73135100193923
370.176456540857,811.0,77.64343891402714
370.90679076648456,886.0,80.619290307216
371.6183984735063,867.0,83.96987854251012
372.32064292122516,820.0,81.4224724602203
373.12588322127607,745.0,76.04061355764472
374.00602959575036,773.0,70.77800486199256
374.8674494516188,811.0,70.49251969759801
375.68205301097265,858.0,74.80709012582317
376.42175049590315,820.0,77.63847930928021
377.1895377587424,820.0,77.92396447367476
377.9947780587934,792.0,74.35851726265793
378.84683465535886,773.0,72.86146091278408
379.66143821471275,698.0,72.57597574838954
380.4760417740666,716.0,74.53201970443351
381.2625555555117,764.0,76.02907605430734
382.03034281835096,867.0,80.34221678124118
382.7232240067669,886.0,83.01890851056447
383.43483171378864,867.0,83.34049839312996
384.193255717325,773.0,77.69302483261293
385.05467557319344,745.0,72.31116593003733
385.9348219476677,754.0,69.1581868640148
386.79624180353613,801.0,71.98957604747184
387.5640290663754,896.0,76.30414647569701
388.3037265513059,924.0,79.78675517134917
389.05278729553936,877.0,78.86738644825019
389.84866433628736,839.0,74.31362229102166
390.73817397006457,858.0,69.4095406583686
391.6557733817505,783.0,67.24787082914659
392.52655649692184,745.0,68.7636603028308
393.35988657488156,707.0,70.44026940801135
394.21194317144705,745.0,73.20746723156361
394.98909369358927,896.0,76.24544191510792
395.72879117851977,924.0,81.25291444258045
396.4310356262386,867.0,82.5559493670886
397.1707331111691,867.0,78.00218520986009
398.0602427449463,830.0,71.31810357720703
398.9778421566323,858.0,67.49752019801055
399.8392620125007,773.0,68.23070097604258
400.70068186836914,745.0,70.70750988142292
401.5246486870259,745.0,70.96264604960257
402.37670528359143,830.0,73.79403523305962
403.1444925464307,886.0,76.55928264387666
403.8841900313612,858.0,80.12472985489349
404.6238875162917,849.0,78.34867663981588
405.4478543349485,801.0,74.03410621159071
406.3280007094228,735.0,70.4686590005739
407.18005730598827,735.0,69.92926506117993
408.0227506432509,726.0,72.33527257056667
408.8186276839989,811.0,76.2473604826546
409.5489619096265,858.0,79.89864253393665
410.27929613525407,886.0,82.50949050949052
411.00026710157874,820.0,79.96208442720071
411.8055074016297,811.0,76.04999651511278
412.6575639981952,764.0,71.0331410301722
413.5377103726695,716.0,70.74765586577765
414.3523139320234,745.0,72.11233769557576
415.1575542320743,792.0,75.75930381062699
415.9159782356106,811.0,79.31284283059068
416.6275859426324,820.0,81.51360821180941
417.3672834275629,773.0,80.57180927001048
418.153797209008,783.0,77.30375541444131
418.95903750905893,773.0,74.81750486882804
419.7736410684128,716.0,75.4377139280615
420.54142833125206,698.0,76.33544438477205
421.31857885339423,698.0,77.83250073464589
422.0863661162335,801.0,79.88898340473574
422.79797382325523,896.0,83.01890851056447
423.49085501167116,867.0,85.83499288762445
424.1837362000871,783.0,82.8591414944356
424.97961324083514,745.0,76.47848715588654
425.8691228746123,745.0,70.8310135953695
426.73054273048075,820.0,71.43654158969976
427.5076932526229,858.0,75.99030574692827
428.2473907375534,858.0,79.81088912612475
428.9870882224839,839.0,78.62767350501964
429.8016917818378,820.0,75.06222629400281
430.65374837840335,773.0,71.49677908298597
431.50580497496884,716.0,70.94505494505493
432.33913505292855,716.0,72.0242516104585
433.1537386122824,707.0,74.60050462573591
433.92152587512163,820.0,78.70576778363065
434.6331335821434,811.0,82.25930680359434
435.34474128916514,905.0,84.69052631578947
436.046985736884,839.0,81.13698729582576
436.86158929623787,698.0,77.86893344025661
437.6668295962888,707.0,71.63893344025661
438.5657024893689,745.0,71.08720930232558
439.39903256732856,754.0,75.11486486486487
440.0919137557445,801.0,81.34486486486486
440.7941582034633,811.0,84.38283954840917
441.5338556883938,811.0,82.2179746835443
442.2829164326273,792.0,78.86738644825019
443.0787934733753,783.0,76.66662106703146
443.8840337734262,716.0,74.80383036935704
444.6892740734772,688.0,75.1029900332226
445.47578785492226,707.0,76.00072048993314
446.2529383770644,745.0,79.2687743455023
446.9645460840862,849.0,83.10047688953361
447.6480640131992,858.0,85.84553713049746
448.35030846091803,801.0,84.77824865614704
449.09000594584853,801.0,79.25130801687763
449.93269928311116,783.0,74.2438354894051
450.7847558796767,716.0,72.33527257056667
451.5806329204247,669.0,73.73135100193923
452.3765099611727,698.0,75.99376328844791
453.1536604833149,811.0,78.96961468163676
453.8652681903367,867.0,83.9247099591844
454.5300596008438,999.0,87.05463506501312
455.2229407892597,1396.0,83.78658120944397
456.0281810893107,1490.0,76.91946547153827
456.8896009451791,849.0,68.20554400289981
457.88210643128843,849.0,57.80076713300667
459.2678688081202,764.0,56.603994385359876
460.17610496050327,745.0,71.46944443175641
460.7472637779813,764.0,80.77034533265731
461.58995711524386,783.0,82.4830601092896
462.4326504525065,849.0,73.83703703703702
463.1910744560428,820.0,77.14167838724799
463.93077194097333,716.0,79.77871542428504
464.68919594450966,745.0,79.14328481295081
465.4663464666519,773.0,75.83864346273984
466.30903980391446,830.0,74.0199972303005
467.12364336326834,849.0,76.3903206291591
467.8352510702901,849.0,79.69496197937008
468.5749485552206,849.0,81.19201832924392
469.34273581805985,849.0,77.35948244407645
470.16670263671665,839.0,74.05484109386546
471.0093959739792,754.0,71.73939393939392
471.85208931124185,745.0,71.19999999999999
472.69478264850443,773.0,71.19999999999999
473.53747598576706,849.0,71.46666666666665
474.3708060637267,849.0,74.43333333333332
475.11986680796014,830.0,77.73797468354431
475.8595642928907,811.0,79.78675517134917
476.62735155572994,801.0,76.8200885046825
477.4700448929925,754.0,73.51544715447153
478.31273823025515,707.0,71.73939393939392
479.1367050489119,726.0,72.84326990838618
479.94194534896286,858.0,74.23934833975873
480.73782238971086,877.0,76.66662106703146
481.4868831339443,849.0,80.30941176470589
482.1891275816631,830.0,82.92025974025972
482.9100985479878,830.0,79.69278721278721
483.76215514455333,764.0,74.18052914827108
484.6329382597247,726.0,70.17360274134467
485.4756315969873,792.0,70.97380254154447
486.2995984156441,839.0,72.27878787878787
487.1235652343008,820.0,74.91582491582491
487.88198923783716,754.0,78.38335738335738
488.60296020416183,764.0,79.53920153920154
489.38947398560697,773.0,77.16883116883116
490.2228040635666,830.0,73.98029556650246
491.0374076229205,801.0,75.25172413793103
491.78646836715393,735.0,77.6220945083014
492.54489237069026,716.0,79.11915085817523
493.3126796335295,745.0,76.69187813090251
494.1366464521863,792.0,75.45091952523802
494.9325234929343,820.0,76.78675442204855
495.6628577185619,735.0,80.619290307216
496.37446542558365,764.0,82.52785322605442
497.11416291051415,792.0,80.57180927001048
497.9006766919593,858.0,77.01827025004677
498.7152802513131,820.0,77.36491095111785
499.4456144769407,764.0,78.30670989291679
500.2040384804771,745.0,79.18355718355718
500.9905522619222,783.0,75.27146927146927
501.84260885848767,820.0,73.45282303902994
502.65721241784155,764.0,74.39462198082887
503.4156364213779,745.0,77.9600691918457
504.1553339063084,773.0,79.14328481295081
504.9324844284506,849.0,77.32463858051148
505.74708798780443,830.0,76.65703426733754
506.50551199134077,754.0,77.9600691918457
507.24520947627127,707.0,79.45712554171955
508.0129967391106,707.0,76.8200885046825
508.85569007637315,735.0,74.05484109386548
509.67965689502995,801.0,74.70606060606059
510.42871763926337,877.0,79.45272727272726
511.1309620869822,820.0,83.66
511.83320653470105,745.0,84.34461538461538
512.5635407603286,632.0,80.99402714932127
513.3594178010767,575.0,75.48176908480514
514.230200916248,820.0,72.64887783812078
515.0448044756018,1613.0,74.55744075695921
515.7845019605323,707.0,83.47029583640071
516.4118403338279,905.0,93.93496514109262
516.9829991513059,754.0,91.44871459547936
517.7976027106597,886.0,95.16811758055398
518.3593982688348,811.0,79.39496738117427
519.3987200514587,830.0,83.32324324324324
520.1009644991775,839.0,69.97324324324325
520.9998373922576,773.0,77.42999999999999
521.748898136491,688.0,71.67340425531914
522.6290445109653,698.0,74.26061355764472
523.4342848110163,745.0,71.833340830372
524.258251629673,915.0,73.10993657505284
525.0915817076327,924.0,74.32150776053214
525.8593689704719,877.0,79.30905446040761
526.5428868995849,858.0,84.17391932527246
527.2357680880009,858.0,85.16311352101191
527.9754655729314,783.0,77.9234581051102
528.8837017253144,707.0,70.85451160759227
529.8013011370003,735.0,66.78427885953184
530.6720842521718,830.0,68.23618777535827
531.5241408487373,877.0,69.9127968805388
532.3761974453028,867.0,72.67999470409107
533.1533479674449,830.0,77.6874672315636
533.8555924151638,745.0,81.59955514365153
534.5859266407914,735.0,80.13734265734266
535.4098934594482,792.0,74.62508459282652
536.2806765746195,830.0,70.45786051255897
537.142096430488,811.0,70.45786051255897
537.9660632491448,839.0,74.5280932606194
538.7057607340753,773.0,78.69531734088696
539.4360949597028,735.0,79.85116149673112
540.222608741148,745.0,77.08591408591408
541.0465755598048,773.0,74.53850800362427
541.8518158598556,849.0,73.10993657505284
542.6851459378154,820.0,74.88598979013045
543.4529332006546,764.0,77.43339587242026
544.1832674262822,745.0,80.47137055596457
544.9229649112127,754.0,80.47137055596457
545.6907521740519,801.0,76.8200885046825
546.5334455113145,811.0,74.33383795906924
547.3480490706684,754.0,74.65542784163473
548.1064730742048,735.0,77.9600691918457
548.8461705591353,735.0,80.10834505391466
549.5952313033687,783.0,78.86738644825019
550.3911083441167,839.0,76.66662106703146
551.1963486441676,849.0,76.66662106703146
551.9454093884011,830.0,78.92182468694097
552.6757436140286,754.0,81.46923076923076
553.4060778396563,745.0,80.50417052826691
554.1832283617985,773.0,77.11955514365152
555.0165584397581,820.0,73.46827309236946
555.8592517770207,754.0,72.0060606060606
556.6832185956775,707.0,74.70606060606059
557.4322793399109,716.0,78.01070195627157
558.1719768248414,783.0,79.78675517134917
558.9397640876807,877.0,77.63847930928021
559.7543676470345,820.0,77.3005046257359
560.503428391268,792.0,79.73172413793102
561.2056728389869,716.0,83.28526315789472
561.9172805460086,632.0,82.32020291693087
562.6944310681507,613.0,76.80794485241475
563.5652141833222,1094.0,73.25440583245104
564.379817742676,867.0,72.94803750198633
565.1663315241211,999.0,78.0855587243972
565.8779392311428,688.0,85.41443160139154
566.5052776044383,707.0,96.18925000332858
568.7524598371386,792.0,83.45089332025398
570.0539528802442,1386.0,80.83057027793134
570.7374708093572,981.0,73.10718044742288
571.439715257076,933.0,83.16884540117417
572.2262290385211,783.0,69.96872180451128
573.4715425258092,867.0,59.590416719765514
574.5764071235535,886.0,55.73760286695166
575.5033697945423,886.0,65.41239225004796
576.2805203166846,858.0,70.52808863914154
577.141940172553,830.0,71.67573531870312
578.0220865470272,745.0,68.66419981498612
578.9022329215015,754.0,68.91933598316575
579.754289518067,716.0,70.46865900057388
580.5782563367238,773.0,74.78322942879905
581.3179538216543,726.0,78.01070195627156
582.0670145658878,707.0,81.84323784143903
582.7786222729095,716.0,80.8540436456996
583.5464095357488,839.0,81.89430338595935
584.2673805020735,924.0,82.26904022806461
584.9696249497923,886.0,84.32552289815447
585.681232656814,830.0,80.58526315789473
586.5145627347738,745.0,73.90118152524167
587.4321621464597,688.0,68.51932262266608
588.3123085209339,707.0,68.79204989539335
589.1362753395907,830.0,74.03410621159072
589.8759728245212,924.0,80.5709759288743
590.5594907536342,820.0,84.77824865614704
591.2617352013531,735.0,82.01300124533
592.0857020200099,735.0,74.5486456400742
593.0033014316958,830.0,70.62036977800524
593.8179049910497,858.0,73.73225788989336
594.5482392166773,783.0,79.3209549071618
595.2785734423048,735.0,79.04195804195804
596.1025402609616,735.0,75.12987012987011
596.9545968575271,811.0,73.48019450429088
597.7317473796693,877.0,76.592082616179
598.4620816052969,858.0,80.50417052826691
599.1924158309245,764.0,79.60644007155635
599.9976561309754,754.0,75.18956662242483
600.8684392461469,773.0,71.27747871033691
601.7204958427124,849.0,72.8106397783817
602.4789198462487,801.0,76.54289784289783
603.2279805904822,735.0,79.11915085817523
603.9957678533214,707.0,76.4821138211382
604.838461190584,735.0,74.91152558584409
605.634338231332,773.0,76.2473604826546
606.3646724569596,783.0,80.99402714932125
607.0669169046785,1075.0,83.24923076923076
607.797251130306,1160.0,81.91339587242027
608.5650383931453,641.0,70.79924953095684
611.561281370079,886.0,74.8263988522238
612.1979830026773,1075.0,71.50102261973808
613.0781293771516,613.0,72.87201106646467
614.1455409376844,783.0,74.32178482212076
614.7541527923739,688.0,77.33332032583776
615.5313033145162,773.0,87.85675219317733
616.2148212436291,801.0,81.04399421944376
616.9826085064684,726.0,80.43846622511349
617.7784855472164,679.0,78.91845199277049
618.4994565135411,735.0,82.53633817163228
619.1736111833512,867.0,84.79154179154179
619.9039454089788,849.0,80.26867335562989
620.7653652648472,811.0,74.33534002229655
621.6080586021098,735.0,71.78793394000674
622.4132989021608,754.0,75.9551580202743
623.1436331277883,783.0,78.92182468694097
623.8926938720218,858.0,79.81955514365153
624.669844394164,858.0,75.9074672315636
625.5219009907295,820.0,72.67999470409109
626.373957587295,783.0,71.49677908298597
627.1885611466489,726.0,73.75919136949464
627.9657116687911,735.0,78.02692363722691
628.6866826351157,849.0,80.85981488391127
629.4170168607433,877.0,78.85820845820845
630.2597101980059,858.0,74.08569065343258
631.1304933131772,735.0,70.17360274134467
631.9825499097428,764.0,73.82488479262673
632.7128841353704,830.0,77.22751322751321
633.4713081389067,896.0,78.02771302771302
634.2952749575635,896.0,73.12730816941342
635.1847845913408,849.0,69.24114832535884
636.0742942251179,783.0,68.7017543859649
636.9169875623805,783.0,71.95248361868525
637.6941380845227,811.0,75.20321285140561
638.4712886066649,858.0,76.30708882039787
639.2765289067158,858.0,74.04467653388919
640.1285855032813,839.0,71.78226424738051
640.9806420998468,773.0,70.94505494505493
641.8139721778066,735.0,73.52130796033234
642.5817594406458,735.0,77.43339587242026
643.3120936662734,830.0,80.81801125703565
644.042427891901,924.0,79.04195804195804
644.8663947105578,896.0,73.4532610246896
645.7839941222437,896.0,68.55285616639
646.6735037560209,877.0,66.76433941997851
647.5630133897981,867.0,67.93616298811544
648.4337965049695,792.0,68.66934376614748
649.2952163608379,745.0,71.61370466840313
650.081730142283,764.0,75.68393741646356
650.8214276272136,858.0,78.8369164824861
651.5798516307499,811.0,76.88087252644215
652.4319082273154,773.0,74.68010714522342
653.2371485273663,754.0,74.35851726265793
654.0049357902055,764.0,77.58598979013044
654.753996534439,783.0,79.11915085817523
655.5124205379753,849.0,78.80531012940651
656.2895710601175,924.0,75.83864346273984
657.1322643973801,886.0,71.26419145971641
658.0498638090661,867.0,68.25265595599942
658.9300101835404,867.0,67.73671392701391
659.7914300394089,792.0,69.1581868640148
660.6528498952772,745.0,71.86335403726709
661.4393636767223,773.0,75.68393741646356
662.1790611616528,877.0,78.51532659992061
662.9468484244921,877.0,76.05449710683305
663.8176315396635,849.0,71.98426435877262
664.6884146548348,716.0,69.66881720430106
665.5311079920974,764.0,74.80633842671193
666.2427156991192,792.0,78.20896686159843
667.0011397026556,867.0,79.90420495683654
667.7876534841006,915.0,75.01633310328963
668.649073339969,915.0,70.6665812896203
669.5573094923521,849.0,67.25862841774989
670.4655456447351,783.0,67.7745704467354
671.3082389819978,792.0,71.4888916490705
672.0853895041399,811.0,74.8968445209409
672.8719032855851,867.0,76.00072048993314
673.6771435856359,839.0,73.48317203524483
674.5385634415044,867.0,72.0546006066734
675.371893519464,877.0,70.43478260869566
676.2333133753325,839.0,70.1851332398317
677.1040964905039,735.0,70.1851332398317
677.9374265684636,764.0,74.35235732009926
678.6677607940911,801.0,77.75498575498575
679.4261847976276,896.0,78.88439751969163
680.2220618383756,915.0,73.98399266139202
681.1115714721527,858.0,69.63424084772271
682.0198076245358,792.0,67.97735655554428
682.8718642211013,764.0,70.92171745779993
683.6583780025464,773.0,75.27146927146927
684.4168020060828,830.0,77.84772228674667
685.184589268922,849.0,76.69187813090251
686.0085560875788,839.0,74.05484109386546
686.8512494248414,849.0,72.0060606060606
687.6845795028011,783.0,71.46666666666665
688.5272728400637,726.0,73.46827309236947
689.3044233622059,735.0,77.2085328326292
690.0253943285305,811.0,80.85981488391127
690.7557285541582,858.0,79.96208442720071
691.560968854209,867.0,75.69435215946842
692.4130254507746,801.0,71.52712807920088
693.274445306643,754.0,71.81933054158118
694.0703223473911,773.0,75.04680306905371
694.8193830916244,801.0,77.87819225251076
695.5871703544638,877.0,77.87819225251076
696.3830473952117,867.0,74.14593418799463
697.2538305103831,811.0,71.31454500453758
698.1152503662515,811.0,71.02234254215728
698.9204906663025,754.0,72.89180990899898
699.7257309663534,716.0,76.37441860465115
700.4747917105868,707.0,79.64247246022032
701.1863994176086,754.0,83.28526315789472
701.8886438653275,858.0,83.28526315789472
702.6377046095608,867.0,78.65252747252745
703.4897612061263,849.0,73.38991877687529
704.3511810619948,811.0,70.42325211020862
705.1938743992574,830.0,71.78793394000674
705.9991146993084,773.0,72.84326990838618
706.8230815179651,716.0,75.15871706285773
707.5908687808044,698.0,78.42677091842688
708.3024764878262,773.0,83.01890851056447
708.9953576762421,886.0,83.01890851056447
709.7631449390814,877.0,77.63704960798889
710.6432913135557,830.0,71.7399266786079
711.514074428727,801.0,69.96387346353029
712.3380412473838,735.0,72.36988097291702
713.1339182881318,783.0,76.78675442204855
713.8642525137593,820.0,78.2489669083574
714.6414030359016,839.0,77.67127928158256
715.4560065952554,792.0,74.28666389696718
716.2893366732151,745.0,73.98029556650246
717.0758504546602,735.0,76.46654611211574
717.8155479395907,801.0,79.85116149673112
718.5458821652182,867.0,79.55200183286557
719.3417592059662,849.0,75.7314184536691
720.2031790618347,773.0,72.08013640238704
721.0458723990973,735.0,72.99950512548602
721.8136596619366,754.0,77.1667292057536
722.5439938875642,849.0,80.13339587242027
723.2930546317976,801.0,77.81794871794871
724.1357479690603,726.0,75.5627450980392
724.9316250098083,773.0,76.60300483829894
725.652595976133,877.0,78.9184519927705
726.4203832389721,905.0,76.75678216354848
727.2911663541436,839.0,71.26652242328875
728.1900392472237,783.0,69.21774193548387
729.0233693251834,764.0,71.98493975903614
729.8005198473255,839.0,76.1053101294065
730.5589438508619,886.0,76.1053101294065
731.3922739288215,801.0,73.09377462568952
732.2724203032958,773.0,71.85281602002503
733.0682973440438,830.0,73.90159650782991
733.8360846068831,867.0,75.45091952523802
734.6600514255399,877.0,73.53889906487997
735.5214712814084,811.0,70.45786051255897
736.3922543965797,764.0,71.02234254215728
737.1974946966307,801.0,74.17532160817981
737.955918700167,867.0,76.33699143740182
738.751795740915,849.0,74.71717343942407
739.6132155967834,792.0,72.08013640238704
740.4559089340461,801.0,72.37929606625258
741.2424227154911,849.0,74.29131652661064
742.0382997562391,839.0,74.29131652661064
742.8809930935017,764.0,72.86274509803921
743.7143231714614,801.0,74.1037037037037
744.4727471749978,867.0,75.49978213507625
745.2686242157458,849.0,74.71717343942407
746.1300440716143,783.0,72.08013640238704
746.9727374088768,773.0,72.6856643967173
747.749887931019,773.0,75.51705358017435
748.5176751938583,801.0,77.83250073464589
749.2854624566976,820.0,77.22697274031563
750.0813394974456,811.0,75.72991639044179
750.8959430567994,764.0,74.5183452049625
751.7011833568504,764.0,75.75930381062699
752.4596073603867,773.0,77.57795004306631
753.218031363923,811.0,78.78952122854561
753.9858186267624,849.0,77.25636016050082
754.7910589268132,773.0,74.61932312346377
755.6337522640758,735.0,74.61932312346379
756.4015395269151,754.0,77.1667292057536
757.1318737525427,801.0,80.13339587242027
757.8809344967761,820.0,79.21402714932127
758.6768115375241,726.0,76.38113590263691
759.491415096878,773.0,77.42139564289666
760.2123860632026,792.0,78.34076436599565
760.980173326042,830.0,79.21761165663605
761.7666871074871,773.0,75.75007918910357
762.5906539261438,820.0,75.75007918910357
763.3584411889831,867.0,74.87323189846317
764.1730447483369,830.0,73.81789593008374
765.0344646042054,783.0,72.04184271500613
765.8584314228622,830.0,73.22505833611123
766.6355819450043,886.0,74.28039430449068
767.4595487636611,896.0,72.73107128708256
768.3396951381354,801.0,69.48034205436221
769.2292047719126,830.0,70.33702654634081
770.0250818126606,867.0,71.88634956374894
770.8490486313174,839.0,72.61953034178097
771.7104684871858,764.0,71.4901185770751
772.5437985651455,792.0,73.5877616747182
773.3022225686818,933.0,75.7989417989418
774.088736350127,867.0,73.37469937469938
775.0156990211158,896.0,70.22172030867684
775.8771188769842,820.0,67.2773594064212
776.7666285107614,792.0,70.25332596859465
777.5812320701153,830.0,72.46450609281825
778.3677458515604,877.0,74.25302283922973
779.1917126702172,716.0,72.66904063678257
780.0624957853885,858.0,73.6108395785815
782.3845840925121,764.0,72.06151656117339
784.9875701787233,1009.0,83.54538752891531
785.5680922555042,726.0,75.58881026199323
786.6542303346426,886.0,74.66132437402102
787.5718297463286,584.0,53.728698812567366
789.0512247161896,1094.0,58.787433181646556
789.9032813127552,924.0,62.72645457333576
792.3845450280284,764.0,72.17520916704748
793.2553281431998,726.0,86.17636590504632
793.789033923466,858.0,112.53898712161994
796.3639302317684,858.0,116.27124518613607
797.1129909760019,858.0,107.66242584047461
797.8058721644178,783.0,85.64937190711838
798.470663574925,877.0,80.96999046381941
800.9893803274099,1160.0,66.34512559895455
802.3938692228476,830.0,69.12215701823949
803.0024810775373,1141.0,74.48615384615384
803.7328153031648,1452.0,89.50642781875658
804.4163332322778,1339.0,88.05665406310047
805.0530348648763,952.0,77.35953867848508
806.2515320556497,915.0,62.06004901960784
807.6841107289962,1415.0,52.66890287042652
808.5923468813792,613.0,77.05832594734959
809.0792363651309,735.0,87.93475093594968
809.8844766651819,688.0,98.277768742885
810.5024517791744,641.0,90.57584566596194
811.1017003745611,1207.0,97.15040106951871
811.7384020071596,735.0,78.93246007012075
813.1522541619001,707.0,81.15746007012075
813.7140497200752,915.0,74.87510712894428
814.5099267608233,1301.0,78.67899159663864
815.6241546178704,622.0,75.44262796027502
816.2421297318631,603.0,81.26973793469955
816.8881946237644,641.0,95.20075511769217
817.5155329970598,2792.0,79.39525828893953
818.7233934471362,1122.0,76.54399970770382
819.435001154158,622.0,79.6797961354014
820.0061599716361,650.0,82.36489984376092
821.0454817542599,632.0,85.21615842499662
821.6915466461612,1933.0,81.61152968825603
822.3282482787597,764.0,90.47354960290753
823.0398559857814,858.0,83.51702786377709
823.8731860637411,1292.0,85.48026315789474
824.4724346591279,716.0,88.78676470588235
827.4780408953644,839.0,93.65162957074722
828.1709220837804,603.0,90.36113661300074
828.8357134942876,933.0,89.90589364624881
829.4817783861889,1452.0,91.99755052051438
830.1278432780903,641.0,93.32480818414321
830.7645449106886,698.0,90.84828644501277
831.4667893584075,669.0,85.62670446491849
832.2439398805496,650.0,78.48766703176341
833.0679066992064,650.0,72.97540896724729
833.9386898143778,641.0,71.79219334614217
834.7532933737316,707.0,75.25972581367463
835.4742643400563,783.0,83.2485056173212
836.1203292319576,830.0,90.10854618527252
836.7570308645561,877.0,93.32480818414322
837.4030957564573,820.0,90.84828644501277
838.1053402041762,726.0,74.69366459627328
839.4161965065847,650.0,58.77939637826961
840.745779327599,641.0,48.71318948171789
841.8319174067375,650.0,62.71632059717777
842.5154353358505,707.0,78.63058881518145
843.1615002277518,1320.0,91.1733174508636
845.8862086849009,1339.0,91.99755052051438
846.5510000954081,1094.0,78.54922550269542
847.6933177303641,688.0,79.00446846944735
848.3300193629625,650.0,78.18023539979656
849.0135372920755,641.0,89.15203867848508
849.7157817397944,669.0,80.70801590808661
850.5865648549657,1433.0,74.17114619080301
851.46671122944,1820.0,69.42447952413634
852.3094045667026,641.0,71.58614935335835
853.1052816074506,688.0,75.90071978158352
853.8449790923811,707.0,81.03225131311504
854.5378602807971,877.0,85.56950621507583
855.2120149506071,886.0,87.3963963963964
855.9048961390231,849.0,85.91614691614691
856.6352303646506,801.0,79.21722218496413
857.506013479822,745.0,73.0757615754184
858.3861598542962,698.0,65.4689239685808
859.3973918590113,679.0,60.75759228950717
860.4928931974528,698.0,59.18270288567318
861.4385823870475,735.0,70.36144684702583
862.0846472789489,877.0,75.57756406314304
862.9367038755144,886.0,89.44544265428084
863.5078626929924,1018.0,81.96144838767788
864.3599192895579,1103.0,81.70631221949824
865.2213391454263,952.0,75.95019274947803
865.9048570745393,877.0,70.5793601922048
867.0097216722836,632.0,75.84196888785698
867.7119661200024,575.0,76.66620195750775
868.3767575305096,858.0,84.61328753005839
869.1445447933489,867.0,79.35067883440622
870.0059646492173,1009.0,65.82431132703643
871.2138250992937,792.0,63.24805831175902
872.0658816958593,707.0,56.09081738335103
873.3111951831473,669.0,64.6620896131732
874.1070722238953,773.0,68.57417752526112
874.837406449523,867.0,77.35123645164684
875.6426467495738,1216.0,65.74081202871312
877.1220417194348,858.0,66.83619664409773
877.8242861671537,1254.0,71.66565400843882
878.4984408369638,801.0,110.24422764227641
878.8823344683834,735.0,109.86949080017115
879.5939421754052,811.0,109.06768899836936
880.2868233638211,622.0,84.35474340737498
881.0171575894487,867.0,80.80120438741129
881.8317611488026,707.0,77.0657512872523
882.6276381895506,1783.0,73.68113590263692
883.4609682675102,698.0,74.25882352941176
884.2568453082583,735.0,74.25882352941176
885.0527223490063,820.0,75.6873949579832
885.8392361304514,801.0,78.29824293353704
886.560207096776,839.0,80.9090909090909
887.2811780631007,801.0,71.66233766233765
888.5171282910859,801.0,75.33384262796027
889.1538299236843,792.0,73.02215431627197
891.9908974924684,726.0,82.57527589348992
892.7680480146106,726.0,79.2687743455023
893.4796557216324,1245.0,81.94546607482562
894.1912634286541,641.0,85.07539118065432
894.88414461707,1226.0,81.80733732508517
895.689384917121,839.0,76.91946547153827
896.5508047729894,792.0,70.77800486199254
897.4309511474637,783.0,64.04249047492121
898.535815745208,716.0,76.42509917057338
899.097611303383,716.0,80.40169491525423
899.8466720476165,698.0,90.04025974025973
900.5676430139412,811.0,81.47823442380404
901.3073404988717,867.0,79.90764618850993
902.1032175396197,886.0,75.38477775259801
902.9646373954881,1679.0,71.07020732437286
903.8447837699624,754.0,69.41332303219444
904.6968403665279,726.0,69.92926506117993
905.5395337037905,745.0,72.04307010818637
906.3447740038415,801.0,75.2705426356589
907.0938347480749,867.0,78.92182468694097
907.8241689737025,886.0,80.45498575498576
908.5825929772388,858.0,77.22751322751321
909.4346495738043,849.0,72.09289784289783
910.3335224668845,811.0,68.20673799884325
911.2230321006617,754.0,67.45761478163493
912.1031784751359,735.0,70.0448240839605
912.9084187751869,764.0,74.26061355764472
913.6574795194203,858.0,76.37441860465115
914.4627198194712,905.0,74.26061355764472
915.3428661939455,896.0,69.1363711334023
916.2698288649344,886.0,67.2669037665606
917.1406119801057,811.0,67.2669037665606
918.02075835458,754.0,68.1753567171188
918.9102679883572,811.0,68.1753567171188
919.7810511035286,886.0,69.18528579513298
920.6237444407911,933.0,72.74985575662208
921.3915317036304,877.0,76.4821138211382
922.1405924478639,886.0,78.48372024684102
922.9177429700061,896.0,75.1583440143553
923.7978893444804,877.0,71.93087148688275
924.6499459410459,849.0,66.34687512407302
925.6424514271552,773.0,73.29013753542054
926.3166060969652,754.0,74.65481936521866
927.1218463970162,783.0,82.24413570925199
927.8428173633408,886.0,78.31240880162146
928.619967885483,858.0,75.49581805599692
929.5282040378661,999.0,75.86082147363192
930.2398117448878,679.0,70.27682511082217
931.2323172309971,811.0,72.52893382684842
932.0562840496539,726.0,72.52893382684842
932.7678917566757,783.0,77.50740219532788
933.5637687974237,915.0,81.33993808049536
934.2753765044454,716.0,80.27264960614492
935.0150739893759,999.0,82.18121252498335
935.7547714743064,830.0,78.91315866941419
936.5600117743573,716.0,75.34771145839736
937.4120683709228,801.0,72.30973677485305
938.2453984488826,716.0,71.47252747252747
939.0787285268423,745.0,73.73493975903614
939.8558790489844,745.0,77.84020291693088
940.5674867560062,811.0,81.94546607482562
941.279094463028,858.0,83.24850099933377
942.0187919479584,839.0,78.36062914578687
942.8802118038269,839.0,73.47275729223996
943.7416316596954,783.0,69.90731008122313
944.5936882562609,716.0,69.65766071235916
945.4644713714322,716.0,71.27747871033692
946.2697116714832,745.0,74.17532160817981
947.0281356750195,867.0,76.94251943173208
947.8052861971616,867.0,76.37803740213377
948.6292530158184,858.0,73.48019450429088
949.4813096123839,877.0,71.74525474525474
950.3146396903437,811.0,73.84289784289783
951.07306369388,764.0,77.40834505391467
951.8127611788105,783.0,79.14328481295081
952.5899117009527,830.0,76.77291444258044
953.4232417789124,858.0,73.20746723156361
954.275298375478,839.0,71.74525474525474
955.0992651941347,764.0,74.11562511562511
955.857689197671,745.0,76.07166907166906
956.6442029791161,783.0,76.07166907166906
957.4681697977729,839.0,72.42470295661784
958.3483161722472,858.0,69.48034205436221
959.2378258060244,830.0,68.94094811496825
960.080519143287,764.0,71.64611528822054
960.867032924732,792.0,74.8968445209409
961.6441834468743,830.0,76.29292295231345
962.4400604876223,886.0,74.86435152374202
963.273390565582,896.0,73.12941176470588
964.1067206435416,849.0,72.0
964.9400507215014,792.0,72.27272727272727
965.7640175401581,783.0,73.40213903743314
966.5598945809061,801.0,76.78675442204855
967.2902288065337,839.0,79.21402714932125
968.0392895507672,839.0,79.51318681318682
968.8258033322122,839.0,75.6010989010989
969.6778599287778,830.0,72.11849020544673
970.5392797846462,801.0,71.81933054158118
971.3351568253943,735.0,75.38477775259801
972.0748543103248,754.0,78.21616693605506
972.842641573164,792.0,77.92396447367476
973.6478818732149,858.0,74.61932312346377
974.4905752104776,867.0,72.57054263565891
975.3239052884372,801.0,71.46666666666665
976.1665986256999,745.0,73.46827309236947
976.943749147842,773.0,76.85288847698486
977.6740833734696,811.0,79.81955514365151
978.423144117703,849.0,79.51318681318682
979.2096578991482,839.0,75.86190476190475
980.0523512364107,849.0,72.63443223443223
980.9044078329763,783.0,71.47858807858806
981.7283746516331,735.0,72.58246404758032
982.533614951684,754.0,75.15871706285773
983.3014022145233,792.0,78.6262495303902
984.0223731808479,849.0,80.82701491160893
984.7620706657784,858.0,79.61544372612963
985.5673109658294,830.0,75.87518398586988
986.400641043789,811.0,72.57054263565891
987.2433343810517,773.0,72.28505747126437
988.0579379404055,726.0,72.28505747126437
988.8912680183652,745.0,73.38893344025661
989.6965083184161,811.0,76.5774690425853
990.4174792847408,839.0,79.96208442720071
991.1478135103683,849.0,80.25428688958101
991.9436905511164,820.0,75.48176908480514
992.8144736662878,839.0,70.34715370018975
993.7133465593679,811.0,69.21774193548387
994.5466766373276,726.0,98.34756097560975
994.9305702687471,735.0,117.97991391678622
995.408096493196,801.0,118.81712321911179
996.213336793247,877.0,93.0899326138724
996.9717607967833,905.0,80.46785364529867
997.6552787258963,839.0,83.73590750086782
998.366886432918,867.0,89.24613414542284
998.9942248062135,811.0,83.45838764534759
999.846281402779,764.0,86.30964622658328
1000.4923462946804,688.0,74.57999260788431
1001.4848517807897,716.0,72.90338350270378
1002.4024511924756,632.0,67.37543319214478
1003.1889649739207,858.0,70.9578231292517
1004.0316583111834,858.0,71.41190476190476
1004.9305312042635,792.0,68.23333333333332
1005.8294040973435,924.0,67.22340425531914
1006.7095504718178,792.0,68.70673758865247
1007.5522438090804,849.0,71.29394689097805
1008.3574841091314,905.0,75.60851731920322
1009.0971815940619,905.0,79.61544372612963
1009.8181525603866,886.0,83.25823442380404
1010.5203970081054,849.0,81.64883116883117
1011.3069107895506,811.0,76.15857142857143
1012.2057836826306,745.0,70.40197568389058
1013.0859300571049,726.0,68.19079555966698
1013.9473499129733,707.0,69.94079555966698
1014.780679990933,792.0,71.76911544227886
1015.5952835502869,905.0,74.28666389696717
1016.3724340724291,886.0,77.32463858051148
1017.1121315573596,867.0,82.43958110924711
1017.7862862271696,839.0,83.40464135021097
1018.5353469714031,820.0,79.09007092198581
1019.4154933458774,783.0,72.1468085106383
1020.2956397203517,745.0,70.28401781296387
1021.1008800204025,679.0,73.9309839280151
1021.8593040239389,754.0,78.94783941295569
1022.5802749902635,886.0,80.8106301106301
1023.329335734497,886.0,77.65765104460756
1024.1907555903654,811.0,71.93800986104885
1025.0989917427485,764.0,67.961414116368
1025.9791381172229,726.0,68.4773561453535
1026.8218314544854,754.0,71.58614935335835
1027.6177084952335,867.0,74.59768485707535
1028.3948590173757,915.0,79.34435152374202
1029.0971034650945,886.0,84.72922547332185
1029.7525316162987,849.0,89.50857142857141
1030.407959767503,801.0,89.13383458646615
1031.1195674745247,783.0,81.83694017652827
1031.9809873303932,707.0,75.05598779557589
1032.8236806676557,660.0,72.6856643967173
1033.6008311897979,660.0,76.85288847698486
1034.3311654154254,716.0,81.9844200085164
1035.0240466038415,867.0,83.28745493302455
1035.763744088772,849.0,78.62624380372831
1036.6438904632462,783.0,71.78199749556448
1037.5521266156293,735.0,67.961414116368
1038.4135464714977,698.0,70.6665812896203
1039.2000602529429,745.0,76.03057811753465
1039.9303944785704,886.0,82.07346078578955
1040.6139124076833,915.0,84.38514909747786
1041.334883374008,867.0,81.55225785079351
1042.149486933362,792.0,75.25972581367465
1043.0202700485333,735.0,70.73685737776273
1043.8816899044016,688.0,72.8851332398317
1044.630750648635,726.0,78.02265446224256
1045.3423583556569,820.0,83.28526315789472
1046.0446028033757,877.0,82.32020291693087
1046.8217533255179,867.0,77.43233106338397
1047.6831731813863,754.0,70.74824943073091
1048.6007725930722,716.0,69.28603694442204
1049.424739411729,707.0,69.54117311260168
1050.2767960082945,783.0,72.29697888318577
1051.0913995676485,867.0,73.15366337516438
1051.8872766083964,924.0,77.78639906053165
1052.5988843154182,830.0,80.619290307216
1053.3292185410457,858.0,82.52785322605442
1054.0689160259763,820.0,79.55200183286557
1054.8647930667244,801.0,76.16738644825018
1055.698123144684,716.0,74.55798319327731
1056.484636926129,735.0,76.46654611211574
1057.2243344110595,745.0,80.57180927001048
1057.9359421180814,801.0,82.52785322605442
1058.666276343709,839.0,80.91844997108154
1059.452790125154,792.0,76.54652014652015
1060.2954834624168,745.0,73.7136288998358
1061.1100870217706,716.0,75.32303215480867
1061.849784506701,735.0,78.62767350501964
1062.5894819916316,792.0,79.50452079566004
1063.3759957730767,849.0,76.19987944544906
1064.2186891103393,820.0,72.12964669738864
1065.0894722255107,745.0,70.97380254154447
1065.9134390441673,745.0,73.6108395785815
1066.6718630477037,792.0,77.68107232664194
1067.4115605326342,849.0,78.8369164824861
1068.1980743140793,877.0,76.19987944544906
1069.0407676513419,830.0,71.64611528822054
1069.930277285119,764.0,69.69007133217659
1070.7823338816847,745.0,70.22946527157052
1071.6063007003415,792.0,72.58246404758032
1072.4115410003924,849.0,75.80993657505284
1073.1606017446259,896.0,79.27746904258532
1073.8815727109504,858.0,81.14025974025972
1074.630633455184,830.0,78.712987012987
1075.4546002738407,811.0,73.69613152804641
1076.3347466483149,754.0,70.21352283239425
1077.1961665041833,726.0,70.49251969759801
1078.0107700635372,754.0,74.46911544227885
1078.7598308077706,830.0,78.63633952254642
1079.4901650333982,886.0,79.81955514365153
1080.2673155555403,867.0,75.60376566996732
1081.1568251893177,820.0,77.88581695201859
1081.8309798591276,754.0,85.52587719298245
1084.3496966116127,735.0,90.07964135021098
1085.0893940965432,783.0,81.98873225930188
1086.016356767532,896.0,75.99834764391727
1086.7466909931595,679.0,63.10606832461137
1088.1605431479002,867.0,61.6812541450802
1089.1530486340096,1066.0,54.639495903321965
1090.1361908608158,603.0,69.35866540394841
1090.8290720492319,745.0,77.31298516561674
1091.5406797562534,933.0,83.6701280227596
1092.289740500487,735.0,85.76178489702517
1092.9358053923884,669.0,81.92924901185769
1096.624929557738,877.0,80.96418877089384
1097.40208007988,877.0,76.7076670317634
1098.1511408241136,990.0,80.54020291693087
1098.8627485311354,698.0,77.52866741321387
1099.7428949056095,716.0,72.6245857805608
1100.6604943172954,1405.0,66.09508019842366
1101.5874569882844,1122.0,66.58906724745233
1102.448876844153,1764.0,68.01054018445323
1103.3102967000214,830.0,71.86335403726709
1104.0968104814663,783.0,74.69474322072413
1104.8645977443057,754.0,76.02907605430734
1105.6792013036595,716.0,73.81789593008374
1106.540621159528,886.0,70.25332596859465
1107.4301307933051,924.0,68.1858123569794
1108.3196404270823,933.0,68.7017543859649
1109.1623337643448,867.0,69.69007133217659
1110.0143903609105,867.0,72.33527257056667
1110.8102674016584,792.0,75.63991392077766
1111.549964886589,773.0,78.21616693605506
1112.3177521494283,820.0,77.08675517134918
1113.1510822273879,867.0,73.2661717921527
1116.568671872953,896.0,70.43478260869566
1117.4300917288213,896.0,70.98650674662669
1118.2446952881753,849.0,73.504055201315
1119.0218458103175,858.0,77.32463858051148
1119.761543295248,801.0,78.50785420161658
1120.5386938173901,745.0,75.4963186978996
1121.4188401918643,773.0,71.67573531870312
1122.2802600477328,839.0,69.1581868640148
1123.1416799036012,2575.0,70.98650674662669
1123.956283462955,867.0,71.50244877561218
1124.7989768002176,867.0,74.0199972303005
1125.57612732236,820.0,77.2085328326292
1126.2970982886845,783.0,79.52397998710076
1127.0648855515237,745.0,77.78904022806461
1127.8982156294835,783.0,71.40878048780488
1128.8345415597753,886.0,66.72
1129.770867490067,867.0,64.74061855670104
1130.6791036424502,867.0,68.51003032140692
1131.474980683198,820.0,72.57860174997835
1132.2614944646432,849.0,75.39519249560288
1133.066734764694,783.0,74.53850800362427
1133.8907015833508,726.0,72.58246404758032
1134.7427581799163,773.0,72.58246404758032
1135.5479984799674,839.0,73.73830820342448
1136.3345122614126,943.0,74.53850800362427
1137.1584790800694,943.0,72.18550922761449
1138.0479887138465,915.0,68.77755635574408
1138.9562248662294,801.0,67.72222038736464
1139.8176447220978,792.0,70.36742162575474
1140.613521762846,811.0,74.08174282808984
1141.390672284988,830.0,75.41607566167306
1142.205275844342,858.0,73.01006815228632
1143.0854222188163,811.0,70.24287032873406
1143.9562053339876,792.0,68.90853749515085
1144.817625189856,830.0,71.31454500453758
1145.6135022306041,896.0,74.71717343942407
1146.3719262341403,915.0,76.62919389978212
1147.1678032748885,867.0,73.74978213507625
1148.0666761679686,801.0,69.62941176470588
1148.9655490610487,783.0,67.46774193548387
1149.83633217622,820.0,70.95268169452001
1150.613482698362,886.0,73.25440583245104
1151.4280862577161,877.0,73.75919136949464
1152.2801428542816,867.0,70.50846213677428
1153.1696524880588,801.0,68.92447993432712
1154.0404356032302,764.0,69.18528579513298
1154.8831289404927,801.0,72.43601502785334
1155.660279462635,905.0,76.16827309236947
1156.4093402068684,905.0,77.86351118760757
1157.1958539883135,877.0,75.86190476190475
1158.038547325576,783.0,72.37929606625258
1158.8999671814445,820.0,71.22345191040843
1159.7239340001013,858.0,71.76284584980236
1160.547900818758,896.0,75.24545454545454
1161.2969615629916,877.0,77.67272727272726
1162.0460223072248,849.0,79.44878048780487
1162.8138095700642,783.0,75.47218474312402
1163.6939559445384,754.0,71.49558899844317
1164.5741023190128,792.0,69.18014184397163
1165.4167956562753,849.0,69.42447952413634
1166.2875787714468,867.0,69.18528579513298
1167.177088405224,830.0,69.18528579513298
1168.0197817424864,830.0,72.26632434745399
1168.7875690053256,754.0,74.91152558584409
1169.5834460460737,754.0,74.39558355685858
1170.4448659019422,773.0,70.36742162575473
1171.3531020543253,886.0,68.4554011653967
1172.2145219101938,886.0,70.07521916337444
1173.0197622102446,849.0,74.42497097704377
1173.7781862137808,877.0,77.25636016050082
1174.5459734766202,896.0,76.69187813090251
1175.369940295277,849.0,72.80571828684793
1176.2594499290542,773.0,69.72467973452693
1177.1302330442256,801.0,68.41969439728354
1178.0010161593968,867.0,69.40801134349522
1178.8530727559623,915.0,70.71299668073861
1179.6770395746191,867.0,74.44525474525474
1180.4261003188526,811.0,76.7076670317634
1181.2032508409948,764.0,76.43493975903614
1182.0365809189545,773.0,72.70268169452001
1182.9073640341257,830.0,69.93548387096774
1183.7781471492972,896.0,70.20821114369501
1184.602113967954,877.0,71.5131964809384
1185.4260807866108,877.0,73.09717868338558
1186.2406843459646,858.0,75.19482178102868
1186.9991083495008,830.0,78.66235424856114
1187.7200793158256,754.0,81.49524549524548
1188.4504135414531,783.0,79.3976023976024
1189.27438036011,839.0,73.90734265734265
1190.17325325319,877.0,69.24613152804642
1191.0533996276642,877.0,70.10281602002503
1191.8492766684124,830.0,73.58775577906117
1192.6264271905545,830.0,75.1370787964693
1193.4503940092113,820.0,72.25766703176342
1194.3492669022914,764.0,69.24613152804642
1195.2294132767656,726.0,69.52512839325018
1196.0440168361197,735.0,73.32390888105506
1196.8118040989589,830.0,76.33544438477205
1197.588954621101,905.0,76.05644751956828
1198.4129214397578,886.0,74.00766703176342
1199.2462515177174,801.0,72.8244514106583
1200.0608550770714,783.0,74.9220945083014
1200.8192790806077,830.0,76.65703426733754
1201.5964296027498,905.0,76.94251943173208
1202.4016699028007,886.0,70.3499268391395
1203.412901907516,820.0,63.68641565153193
1204.4615869494428,773.0,81.56920634920635
1204.9297499145887,783.0,91.87593561368209
1205.5945413250959,830.0,94.60042540960046
1206.5121407367817,839.0,78.91840009314475
1207.2518382217122,820.0,72.30642052341871
1213.0008794337039,764.0,75.93907358464321
1213.787393215149,783.0,74.63603866013504
1216.1937508559988,811.0,74.63603866013503
1217.0458074525643,1018.0,77.31273038945835
1217.7574151595861,1528.0,79.68305378831693
1218.4690228666077,820.0,86.29503335804299
1219.1338142771149,773.0,74.37158838196643
1220.3697645051002,745.0,71.69489665264314
1223.1881055552783,1792.0,69.35064935064935
1223.909076521603,1066.0,82.42910514143391
1224.592594450716,1235.0,85.86539857772735
1225.285475639132,839.0,75.49099249600418
1226.4371565333909,858.0,73.26869320694576
1229.1150486940253,792.0,72.88382834208088
1229.8172931417441,1641.0,83.25823442380404
1230.538264108069,783.0,83.60487512487512
1231.2685983336964,858.0,79.12487512487513
1232.1019284116562,716.0,74.35235732009926
1232.9727115268277,716.0,71.24046920821114
1233.7966783454842,669.0,72.07767851053671
1234.6019186455353,1245.0,74.844876334089
1235.3790691676775,707.0,77.27214906136172
1236.128129911911,1339.0,81.299804623901
1236.8210111003268,792.0,84.82513883746759
1237.5045290294397,726.0,85.86539857772735
1238.2254999957645,688.0,79.96827564834635
1239.096283110936,698.0,74.18052914827108
1239.9483397075014,1160.0,73.14026940801133
1240.6974004517347,1160.0,78.2777906304222
1241.4090081587565,792.0,83.28526315789472
1242.1112526064753,745.0,82.32020291693087
1242.8884031286175,707.0,76.69915028535192
1243.7779127623946,726.0,71.6916777578794
1244.6299693589604,735.0,69.95673799884325
1245.46329943692,839.0,74.85714285714286
1246.1936336625477,877.0,80.64488935721812
1246.8771515916605,830.0,85.12488935721811
1247.5793960393794,811.0,84.77824865614704
1248.31909352431,783.0,81.25291444258045
1252.513833692017,754.0,79.14328481295081
1253.2722576955534,698.0,76.94251943173208
1254.0774979956043,688.0,73.93098392801508
1254.9576443700787,726.0,69.35653192499166
1255.8752437817645,877.0,67.24272687798523
1256.755390156239,858.0,69.94789405123751
1257.541903937684,754.0,72.70369982182162
1258.356507497038,716.0,74.25302283922973
1259.1804743156945,707.0,73.09717868338558
1260.0044411343513,783.0,73.97402597402598
1260.7909549157964,896.0,75.75007918910357
1261.5587421786356,858.0,75.4773519163763
1262.3920722565954,839.0,72.53299101412065
1263.2815818903725,735.0,68.73421052631579
1264.1804547834527,688.0,69.28593466424682
1264.9950583428065,707.0,71.93113590263691
1265.7909353835546,745.0,73.68113590263692
1266.6242654615144,1584.0,71.61362229102167
1267.5137750952915,698.0,70.21754385964911
1268.356468432554,1160.0,71.64611528822054
1269.1429822139992,783.0,74.59047619047618
1269.9294959954443,764.0,74.59047619047618
1270.7721893327068,811.0,70.73766233766233
1271.6991520036956,886.0,68.52648221343873
1272.560571859564,924.0,68.7931488801054
1273.3939019375239,886.0,72.95233106338397
1274.171052459666,792.0,89.2904953145917
1274.6766684620236,820.0,109.7904953145917
1275.1261049085638,830.0,106.53976608187133
1276.015614542341,830.0,92.11362229102167
1276.8114915830888,792.0,71.34695562435499
1277.6541849203516,773.0,71.58614935335837
1278.5343312948257,839.0,69.18014184397163
1279.4144776693001,896.0,72.83142389525368
1280.1448118949277,905.0,83.48301963993453
1280.7440604903145,820.0,83.72735732009926
1281.6148436054857,801.0,73.70859559402045
1282.7665244997447,839.0,70.41810263627397
1285.1635188812916,896.0,68.8103607007901
1286.0998448115834,849.0,73.46512559895456
1287.0080809639664,792.0,64.11848263437093
1287.972496672167,792.0,80.23216684489725
1288.5062024524332,849.0,78.36249168442262
1289.4987079385426,933.0,81.35796094008606
1290.341401275805,867.0,66.85201866504362
1291.2121843909765,839.0,73.4010752688172
1293.655995069038,1745.0,76.36774193548386
1294.4050558132715,896.0,82.66027397260272
1295.0885737423846,801.0,82.66027397260274
1295.8376344866178,849.0,81.38884540117417
1298.3282614611942,886.0,75.34596273291925
1303.1035237056822,886.0,72.91869000564652
1303.927490524339,735.0,68.43129504766333
1304.8825429732367,603.0,99.98313451254627
1305.2477100860503,877.0,108.07404360345537
1305.865685200043,1160.0,116.7995337995338
1306.539839869853,867.0,83.39030303030302
1307.4761658001448,877.0,79.50666666666666
1308.1784102478637,669.0,65.54588235294118
1309.4518135130604,943.0,69.02309165526675
1310.2570538131115,915.0,70.62759869752028
1310.9218452236187,971.0,82.30633172919448
1311.6521794492462,1537.0,88.88088713275125
1312.2888810818447,849.0,86.53663983075748
1313.0098520481693,877.0,76.24002444614209
1314.180259461034,1707.0,74.4949264069264
1314.8544141308441,754.0,81.20627956989247
1315.434936207625,754.0,100.94586577678903
1315.9780052471942,688.0,84.71316137427331
1317.4667634763582,754.0,86.46493830155597
1318.0191957752304,886.0,73.10987956718688
1318.871252371796,830.0,106.11069991173159
1319.3019622997301,792.0,91.48306765698071
1320.228924970719,1584.0,104.2139300149617
1320.7813572695911,2358.0,84.14951777663642
1321.5397812731273,867.0,93.98552490676119
1322.1764829057258,830.0,83.83091556405759
1322.944270168565,962.0,73.7658887051376
1324.1708571372474,990.0,61.77230581743707
1325.2008156605684,679.0,65.80803237188572
1325.8656070710754,943.0,79.169355527102
1326.5397617408855,707.0,89.41784037558685
1327.2139164106957,1283.0,86.71794871794872
1327.9442506363232,1481.0,83.42165242165242
1328.7026746398597,735.0,81.13960113960114
1329.4330088654872,641.0,81.86024891288048
1330.144616572509,726.0,86.90164324839247
1330.7813182051073,1179.0,88.77730183637982
1331.4648361342204,1264.0,92.08380338436744
1332.1015377668189,1283.0,89.15203867848508
1332.8037822145377,764.0,79.30994652406417
1333.8337407378585,556.0,69.47393939393939
1334.7607034088473,858.0,65.54566353187043
1337.5977709776316,1367.0,66.86534579135851
1338.562186685832,1320.0,80.30598165822389
1339.13334550331,641.0,85.83876456254637
1339.7981369138172,773.0,89.6526246228075
1340.612740473171,603.0,85.15051689447026
1341.2681686243752,632.0,78.79934318555007
1342.110861961638,1037.0,90.45100887812751
1342.6632942605102,669.0,85.06613492854768
1345.1071049385716,679.0,100.16916523157798
1345.6220842002322,679.0,94.48006111535521
1346.2775123514364,735.0,111.2330022918258
1348.7306862888008,764.0,105.25817711700063
1349.3392981434906,735.0,130.95441771850437
1349.6951019970013,716.0,116.11003946087223
1350.4347994819318,641.0,112.91516766600043
1351.108954151742,688.0,86.78914839246448
1351.7737455622491,641.0,86.45117370892018
1352.5228063064826,707.0,74.29270376356499
1353.6651239414387,1037.0,63.80452699654082
1354.6857192054565,933.0,57.255470392767236
1355.678224691566,726.0,71.15903837733812
1356.3149263241644,1311.0,82.5192298412392
1356.9609912160656,820.0,87.49769820971866
1360.0883198232402,971.0,85.75260017050297
1360.7624744930504,575.0,82.90134158926728
1361.474082200072,669.0,83.50686958359753
1362.2512327222141,820.0,76.80794485241475
1363.1220158373856,660.0,71.92007299886784
1363.983435693254,849.0,71.61370466840313
1364.7699494746992,1367.0,76.386222473179
1365.4909204410237,849.0,82.42910514143391
1366.1744383701368,1320.0,85.10579687075722
1366.8860460771587,660.0,83.73590750086784
1367.6444700806949,783.0,101.94230019493176
1368.0658167493261,1688.0,95.19703703703702
1369.002142679618,971.0,103.27827956989246
1369.5826647563988,745.0,76.5494769808957
1370.5470804645995,679.0,84.05434184576058
1371.2399616530154,669.0,63.47285881266464
1372.6819035856647,754.0,72.40166140166139
1373.3560582554749,1528.0,72.79707050939926
1376.0339504161093,650.0,83.19966791199667
1376.857917234766,999.0,103.20741984998116
1377.2605373847916,641.0,126.04470685298818
1377.6444310162112,650.0,151.44639818491206
1378.0470511662365,877.0,138.59956578715747
1378.5901202058058,1471.0,123.97568902207404
1379.1238259860722,801.0,97.77379788995034
1379.9758825826377,679.0,87.31658205342416
1380.734306586174,716.0,78.7077627077627
1381.42718777459,783.0,78.2029771707191
1382.2979708897612,877.0,77.56754655938488
1383.0751214119034,867.0,74.13125312309144
1383.8616351933485,792.0,78.54812657222296
1384.5919694189763,726.0,80.1978021978022
1385.3223036446038,688.0,81.46923076923076
1388.5526281041105,716.0,79.81955514365153
1389.3297786262526,764.0,80.54020291693087
1390.0413863332744,1367.0,78.39192705486191
1390.8559898926283,584.0,77.78639906053165
1391.6518669333761,971.0,75.41607566167306
1392.4290174555185,2150.0,89.00720866659915
1392.9533599764818,679.0,86.60120115721242
1393.8335063509562,2009.0,83.11626139817628
1394.732379244036,1924.0,73.45340425531914
1395.434623691755,1339.0,75.00272727272727
1396.2585905104118,1396.0,79.12309764309764
1397.0170145139482,764.0,78.38335738335738
1397.7379854802728,698.0,81.49524549524548
1398.4683197059005,877.0,71.94377276267039
1399.657453637371,783.0,63.4467562656539
1400.696775419995,792.0,72.88972708793507
1401.2398444595642,735.0,103.53749611680645
1401.6611911281955,735.0,120.49764270407168
1402.2136234270677,801.0,106.637798432659
1403.0844065422389,1698.0,86.55574715060773
1403.8147407678666,754.0,77.05235732009925
1404.5638015120999,783.0,82.56461538461538
1405.2660459598187,716.0,74.95777777777778
1406.2772779645338,820.0,76.3630409356725
1406.9888856715556,801.0,75.62330067593226
1407.7098566378804,783.0,84.32552289815447
1408.4121010855993,1415.0,82.92025974025972
1409.1611618298325,905.0,88.04153846153845
1411.5862459892883,707.0,86.59951314508277
1412.3259434742188,830.0,87.6397728853425
1413.0469144405436,764.0,82.88349758169878
1413.7585221475654,726.0,82.54552289815447
1414.5075828917986,735.0,94.36081871345029
1415.0131988941562,2245.0,92.62592592592593
1415.7716228976926,1528.0,120.6951566951567
1416.1367900105065,877.0,94.92024630089146
1417.5880952024586,735.0,99.0641616448068
1418.243523353663,754.0,68.84665501350706
1419.0581269130168,707.0,81.76600985221674
1419.80718765725,1018.0,76.08893344025661
1420.6124279573012,716.0,79.27746904258532
1421.3333989236257,726.0,80.68273220048005
1422.0450066306475,707.0,83.9507860560492
1422.7566143376694,754.0,85.4708002883922
1423.4401322667823,679.0,78.3067136010857
1424.39518471568,1150.0,96.63623305188662
1424.8258946436142,613.0,92.21316838160946
1425.631134943665,745.0,98.65660729563662
1426.3614691692926,726.0,73.79758226269854
1427.2884318402816,716.0,66.18617941198588
1428.4494759938434,754.0,101.62509343913518
1428.7678268101427,1273.0,108.15459902127233
1429.4794345171642,1830.0,113.17879256965944
1431.9419717138317,660.0,78.09552289815447
1432.6629426801564,820.0,75.41883116883116
1433.4494564616016,754.0,76.9021645021645
1434.292149798864,811.0,74.59047619047618
1435.0786635803092,726.0,63.12268907563025
1436.5112422536556,716.0,65.4381362301018
1437.2790295164948,716.0,65.13897656623625
1438.074906557243,688.0,76.91313201154689
1438.852057079385,1396.0,76.29292295231346
1439.6385708608302,811.0,81.67779690189327
1440.2939990120344,735.0,85.60952380952381
1440.9681536818446,933.0,87.21892706449668
1441.707851166775,1169.0,85.18464135021097
1442.410095614494,1037.0,78.24137893886345
1443.290241988968,839.0,77.57377462568951
1444.0486659925045,735.0,70.88969299303645
1446.614199041504,905.0,85.63997294824361
1447.1479048217702,726.0,88.93626924453991
1447.8220594915804,792.0,94.17832556073729
1448.5617569765109,849.0,82.75342183801584
1449.32954423935,792.0,78.21616693605506
1450.1254212800982,1443.0,75.45091952523802
1450.949388098755,773.0,76.78675442204855
1451.6797223243825,801.0,81.74184969959617
1452.3445137348897,783.0,85.94912242686891
1453.0467581826085,792.0,83.6939188069594
1453.8426352233566,660.0,77.60941176470588
1454.6759653013162,679.0,71.37941176470588
1455.5748381943963,745.0,70.52272727272727
1456.398805013053,707.0,70.52272727272727
1457.2321350910129,1018.0,73.10993657505284
1458.0373753910637,632.0,72.57054263565891
1458.8800687283265,622.0,73.99911406423034
1459.6665825097714,1037.0,75.53227513227512
1460.4250065133078,924.0,78.16931216931216
1461.183430516844,1216.0,77.29246487867177
1461.998034076198,745.0,74.65542784163472
1462.8407274134606,773.0,71.5024487756122
1463.702147269329,801.0,70.95072463768116
1464.5354773472889,1566.0,74.60200668896321
1465.2658115729164,669.0,78.76923076923077
1465.996145798544,707.0,84.8537378114843
1466.660937209051,801.0,80.94164989939637
1467.5129938056166,839.0,79.60581500258587
1468.2807810684558,905.0,69.48392478276224
1469.2826498138681,830.0,67.37139731023478
1470.21897574416,839.0,68.36059150597421
1470.9586732290904,811.0,65.0854746835443
1472.1571704198639,849.0,73.80998172579783
1472.821961830371,792.0,71.32373118018455
1473.6365653897249,764.0,88.54099308494645
1474.2264507258087,764.0,87.32135090755779
1474.9193319142246,820.0,88.5045665286629
1475.6964824363668,849.0,79.15152876183204
1476.5110859957206,867.0,73.75919136949464
1477.3631425922863,839.0,71.75758494379184
1478.2058359295488,735.0,71.47858807858806
1479.0298027482056,735.0,75.0440352896049
1479.7695002331361,669.0,74.78322942879905
1480.6215568297016,858.0,75.63991392077766
1483.8144282519966,773.0,74.97230960760372
1484.572852255533,1009.0,78.19978213507625
1485.3219129997663,943.0,78.80531012940651
1486.0990635219086,745.0,74.68493975903614
1486.9979364149885,915.0,72.2576670317634
1487.8219032336453,962.0,71.9512987012987
1488.6084170150905,1415.0,76.40129870129869
1489.357477759324,698.0,76.4012987012987
1490.1814445779808,783.0,74.1901185770751
1491.0428644338492,820.0,69.97432910339089
1491.9323740676264,858.0,70.25332596859465
1492.7469776269802,849.0,73.73593466424683
1493.4960383712137,830.0,76.98666389696717
1494.2731888933558,745.0,77.56435152374202
1495.069065934104,858.0,74.08174282808986
1495.9304857899722,1018.0,74.71717343942407
1496.6889097935086,811.0,74.42497097704377
1497.4941500935595,584.0,73.00349804004287
1498.4117495052456,801.0,69.35653192499166
1499.2918958797197,764.0,68.79204989539335
1500.1158626983765,754.0,75.10139468594116
1500.8274704053983,783.0,77.80656185919344
1501.6139841868435,905.0,78.37104388879175
1502.4192244868943,830.0,73.73830820342448
1503.2712810834598,792.0,73.14694607717863
1504.076521383511,754.0,71.52712807920088
1504.9379412393791,830.0,88.35648739912622
1505.434193982434,867.0,99.11927809680066
1505.995989540609,896.0,126.75902964959567
1506.3892464313315,820.0,117.41366459627329
1507.035311323233,754.0,104.29787512258909
1507.92482095701,783.0,95.32308520662268
1508.402347181459,801.0,116.46412444310201
1508.7862408128785,867.0,127.35491391678622
1509.3854894082651,764.0,101.77790448706014
1510.6120763769475,811.0,112.50387292321508
1510.9304271932467,924.0,127.67432746866962
1511.342410602575,886.0,150.9245395127748
1511.8480266049326,830.0,120.46464646464646
1515.1813469167714,716.0,91.69696969696969
1516.1925789214865,792.0,76.97862344373972
1516.9978192215374,811.0,73.47985194496823
1517.6907004099533,858.0,82.96234813979318
1518.3742183390664,811.0,84.17391932527248
1519.1420056019056,1367.0,79.58178173313487
1519.9659724205624,962.0,74.59423503325941
1520.7899392392192,650.0,72.81818181818181
1521.613906057876,896.0,74.59423503325942
1522.3816933207152,867.0,78.06176750079189
1523.10266428704,603.0,83.87354727031814
1523.7674556975471,1556.0,85.93002994040799
1524.4790634045687,1188.0,82.74149433807929
1525.2936669639225,632.0,79.35698729582577
1528.5988974978527,1037.0,73.73593466424683
1529.4884071316299,801.0,83.63582342954159
1530.0689292084107,622.0,81.48754756747263
1530.8835327677646,1018.0,72.52232438292899
1532.3629277376256,811.0,58.80857555737309
1533.327343445826,698.0,57.474242723789885
1534.1887633016945,688.0,85.83760832319419
1534.6662895261434,773.0,101.30313407603276
1535.2187218250156,830.0,102.3584700444122
1536.0426886436724,830.0,91.88788180911808
1536.6793902762709,830.0,100.18449197860963
1537.1288267228108,773.0,104.77662957074722
1537.8217079112267,726.0,94.51337971635002
1540.2748818485911,669.0,78.11864287424474
1540.986489555613,716.0,74.6823494379513
1541.773003337058,820.0,76.751225890814
1542.6344231929265,952.0,71.13017325923505
1543.5239328267037,764.0,68.91899313501145
1544.3853526825721,858.0,69.7016018306636
1545.218682760532,754.0,75.32265446224255
1545.9302904675535,896.0,78.80526315789473
1546.679351211787,584.0,82.91052631578947
1547.3909589188088,820.0,77.7730050933786
1548.26174203398,1490.0,82.02952683250903
1548.9078069258815,971.0,87.82902557937621
1549.4976922619653,1349.0,87.58468789921147
1550.3778386364395,1386.0,91.64455960270399
1552.5220250168077,1094.0,97.29535325349765
1553.0276410191652,698.0,100.00052042674993
1553.8141548006104,971.0,87.00474554082803
1554.7223909529935,1499.0,71.72191725799973
1555.5463577716503,716.0,69.51073713377613
1556.4077776275187,792.0,72.61953034178097
1557.2036546682666,867.0,74.39558355685858
1557.971441931106,896.0,71.32913564873716
1558.9639474172152,867.0,90.69972388403129
1559.4133838637554,839.0,91.02131376659678
1560.1718078672916,716.0,93.83811230585424
1561.042590982463,754.0,73.07144563918757
1561.8852843197255,716.0,69.91846657316503
1562.746704175594,877.0,72.37929606625258
1563.5332179570391,650.0,76.386222473179
1564.2541889233637,594.0,79.21761165663605
1565.0219761862031,1132.0,78.06176750079189
1565.84594300486,1339.0,73.53889906487997
1566.7073628607282,1084.0,70.21352283239423
1567.5875092352026,792.0,70.49251969759801
1568.4021127945564,915.0,72.70369982182162
1569.1886265760015,830.0,75.10970733120834
1569.9845036167494,867.0,74.55798319327731
1570.8178336947092,801.0,71.61362229102167
1571.7073433284863,773.0,70.21754385964911
1572.550036665749,707.0,70.21754385964911
1573.3833667437086,745.0,74.43333333333332
1574.132427487942,764.0,76.74878048780488
1574.9002147507813,877.0,76.4821138211382
1575.742908088044,849.0,71.80273237783923
1576.651144240427,867.0,68.72169382551823
1577.5219273555983,792.0,67.95610242766878
1578.3927104707698,726.0,69.15287517531557
1579.2541303266382,773.0,70.1851332398317
1580.0874604045978,830.0,70.95072463768116
1580.9301537418605,867.0,73.78211382113821
1581.6979410046997,886.0,76.8200885046825
1582.4376384896302,820.0,78.51532659992061
1583.2241522710754,792.0,75.68393741646356
1584.0855721269438,801.0,71.13017325923505
1584.975081760721,839.0,67.9516018306636
1585.873954653801,896.0,70.46915028535193
1586.6511051759433,849.0,73.41351118760757
1587.4376189573884,839.0,77.86351118760757
1588.1866797016219,754.0,78.49894179894179
1588.945103705158,773.0,76.80370370370369
1589.7877970424208,849.0,73.07144563918757
1590.658580157592,915.0,71.25279940674824
1591.4731837169459,877.0,61.95189850584734
1592.8589460937778,877.0,72.88891847512537
1593.4488314298617,867.0,62.48288970143274
1594.862683584602,839.0,68.99163373958854
1595.8177360334998,849.0,52.73976439681011
1596.950690409153,773.0,60.614687589272734
1597.858926561536,745.0,78.50987475504813
1598.3739058231963,792.0,77.54448219306465
1599.57240301397,867.0,88.38540209790209
1600.1810148686595,896.0,68.7922817047817
1601.2203366512833,905.0,79.48939708939709
1601.950670876911,783.0,63.85366507947153
1603.1117150304729,792.0,73.09042183622829
1603.8139594781917,754.0,91.15261496225119
1604.254032665429,764.0,92.66365061590145
1605.3214442259614,849.0,103.02001425226509
1605.836423487622,877.0,79.59382429832782
1606.744659640005,1198.0,89.72184705792952
1607.4375408284209,1018.0,70.66326119934368
1608.448772833136,594.0,76.02725802725803
1609.1791070587635,849.0,62.529299637213306
1610.4806001018692,575.0,68.18009328800696
1611.2671138833143,962.0,76.39547790339157
1611.8289094414893,1141.0,83.9963133640553
1612.6996925566607,915.0,83.69715370018974
1613.4955695974088,1726.0,74.79715370018974
1614.244630341642,613.0,79.9346749226006
1614.9562380486639,1047.0,79.9346749226006
1615.752115089412,735.0,83.31918196485414
1616.4169064999192,905.0,79.2139188069594
1617.2502365778787,971.0,89.10090048487646
1617.8213953953568,2169.0,123.74366616989568
1618.130382952353,783.0,119.52144394767345
1619.1416149570682,698.0,111.5430251885948
1619.8813124419987,1018.0,70.81575246132209
1620.7146425199585,735.0,72.18648953502945
1621.660331709553,2669.0,68.11625678696902
1622.5311148247245,877.0,68.11625678696902
1623.3644449026842,801.0,73.33811230585424
1624.1228689062204,754.0,77.75498575498575
1624.853203131848,716.0,78.59219505731133
1625.658443431899,801.0,74.70603521325674
1626.5479530656762,669.0,68.68141982864137
1627.484278995968,1924.0,71.94947368421052
1628.1958867029898,820.0,78.72553713049747
1628.8794046321027,745.0,80.83806460302495
1629.7314612286682,839.0,73.67397791571844
1630.686513677566,952.0,67.88623141564317
1631.5385702741314,877.0,69.84227537168712
1632.3250840555766,839.0,73.45282303902994
1633.1396876149304,764.0,72.94803750198633
1634.0104707301018,735.0,69.31538444076185
1634.9280701417877,811.0,67.73140223831467
1635.798853256959,896.0,70.49860006186695
1636.5760037791013,943.0,74.75146218232489
1637.3437910419404,716.0,77.83250073464589
1638.1115783047796,688.0,75.31495227995758
1638.972998160648,858.0,90.34309486907577
1641.6696168398885,962.0,87.01771863659005
1642.5497632143629,858.0,89.8491078200471
1643.317550477202,792.0,73.90159650782991
1644.1134275179502,820.0,74.14593418799463
1644.9842106331214,877.0,69.03833017077798
1645.9392630820191,924.0,65.92953696277314
1646.847499234402,877.0,62.924411849719164
1647.8493679798144,783.0,63.55899295488851
1648.7763306508032,773.0,63.78837439818748
1649.6752035438833,773.0,69.25432900432901
1650.4617173253284,867.0,73.10714285714286
1651.2482311067736,726.0,73.82488479262673
1652.1190142219448,1499.0,69.97207093981288
1653.0459768929336,1377.0,63.78674275448469
1654.0852986755576,773.0,60.5967785967786
1655.0965306802727,801.0,69.97754276015145
1655.742595572174,877.0,82.61489653183358
1656.3699339454695,962.0,89.20748912442617
1657.128357949006,915.0,82.25096738529574
1657.9616880269655,1009.0,72.62037037037037
1658.8605609200456,933.0,69.98333333333332
1659.7032542573083,905.0,72.03211382113821
1660.4710415201475,792.0,76.4821138211382
1661.220102264381,792.0,77.87819225251076
1662.015979305129,877.0,71.07265500794912
1663.055301087753,933.0,73.23751987281398
1663.7481822761688,1047.0,79.98870512303348
1664.3755206494643,1018.0,82.32121945554782
1665.3024833204531,650.0,79.19129434971909
1666.0796338425953,632.0,70.52808863914154
1666.9410536984637,764.0,72.6856643967173
1667.7837470357265,839.0,72.08013640238704
1668.5796240764744,905.0,75.23311546840958
1669.3380480800108,849.0,76.92835356364768
1670.124561861456,773.0,75.01633310328963
1670.9859817173242,754.0,72.64596273291926
1671.819311795284,801.0,74.25536598789213
1672.5590092802145,1047.0,75.0379746835443
1673.3923393581742,698.0,73.05859324024533
1674.300575510557,632.0,68.50482908301682
1675.1900851443345,933.0,68.50482908301682
1676.023415222294,783.0,70.75693779904306
1676.8473820409508,867.0,72.27272727272727
1677.6807121189106,849.0,71.4901185770751
1678.542131974779,801.0,69.7016018306636
1679.4316416085562,764.0,70.25332596859465
1680.24624516791,792.0,71.58765880217786
1681.0608487272639,867.0,72.3208395802099
1681.9222685831323,839.0,68.917630293764
1682.867957772727,745.0,66.85011668214875
1683.7574674065042,839.0,67.9054526505282
1684.581434225161,915.0,69.97432910339089
1685.4428540810295,896.0,69.7401185770751
1686.3417269741096,839.0,68.4351332398317
1687.2125100892808,830.0,70.6463133640553
1687.999023870726,839.0,73.23352266638088
1688.804264170777,867.0,73.23352266638088
1689.6750472859483,896.0,70.77269317329332
1690.5458304011197,820.0,69.66881720430106
1691.3885237383822,820.0,71.25279940674824
1692.203127297736,867.0,73.7136288998358
1692.9896410791812,952.0,69.39847738468427
1694.0195996025022,896.0,67.33096377306903
1694.9091092362794,830.0,72.4166780587833
1695.5645373874836,867.0,76.73182957393482
1696.4072307247463,905.0,76.04353741496598
1697.3248301364322,877.0,68.74664300502809
1698.1862499923006,792.0,69.5650338096258
1699.0008535516545,811.0,71.24164291480633
1699.85291014822,877.0,70.2742516104585
1700.7517830413,877.0,69.19505494505493
1701.6038396378656,849.0,72.09289784289783
1702.362263641402,820.0,76.54289784289783
1703.1113243856355,792.0,78.49894179894179
1703.8978381670804,1037.0,74.14918998527246
1704.8060743194635,896.0,66.69243322851571
1708.5794678185393,660.0,80.81941735549984
1709.085083820897,849.0,72.23276106294975
1710.5738420500609,924.0,91.13237496256363
1711.0981845710244,867.0,75.31015274034141
1711.940877908287,820.0,86.4279146141215
1712.7554814676407,858.0,70.3056760279654
1713.6637176200238,905.0,67.5135191652203
1714.6187700689215,858.0,64.11030987877442
1715.564459258516,764.0,64.81309557739252
1716.4446056329905,754.0,69.60685886584044
1717.2217561551327,792.0,74.19328377339143
1717.9989066772748,915.0,76.02160365600332
1718.8135102366286,773.0,75.12387319929276
1719.6187505366795,1037.0,77.12919318051635
1720.3397215030043,943.0,73.72598389407047
1721.285410692599,1047.0,90.77112753292135
1721.7629369170477,2679.0,82.44904961084342
1722.7928954403687,707.0,85.0338680926916
1723.6355887776313,820.0,65.40151515151514
1724.5344616707114,915.0,70.82054263565891
1725.3397019707625,962.0,70.3046006066734
1726.201121826631,952.0,73.78954036570954
1726.978272348773,886.0,75.99030574692827
1727.7179698337036,783.0,75.74065637806432
1728.5887529488748,783.0,78.48571661902818
1729.2909973965936,820.0,75.44774193548386
1730.1243274745534,811.0,77.31720930232558
1732.5306851154032,726.0,76.5774690425853
1733.251656081728,1716.0,76.31080237591866
1734.0943494189905,754.0,82.88535777947541
1734.731051051589,849.0,78.87843137254902
1735.5737443888515,905.0,78.61762551174314
1736.425800985417,811.0,68.5658608058608
1737.3621269157088,867.0,81.66011367942403
1739.412680703048,783.0,79.76334378265413
1740.3396433740368,745.0,82.13667711598745
1741.1823367112993,877.0,79.21385281385281
1741.7722220473831,707.0,74.86390168970813
1742.933266200945,839.0,76.55913978494624
1745.2366279894627,1613.0,60.60395771211711
1746.35085584651,811.0,66.10155551582335
1747.2310022209842,726.0,64.94571135997919
1748.054969039641,1490.0,72.1255432927523
1748.8508460803891,849.0,114.12941176470588
1749.1598336373854,858.0,124.3082973952044
1749.7403557141663,943.0,112.69787297227069
1752.7834149876146,735.0,76.45060024499796
1753.4856594353334,783.0,71.25926131437488
1754.1691773644463,1481.0,72.8892101428155
1755.4893969261577,849.0,71.7938255274309
1756.2197311517855,839.0,67.37076085715373
1757.0249714518363,924.0,76.22182468694096
1757.858301529796,726.0,79.793731041456
1758.5043664216973,801.0,69.78985507246377
1759.8526757613176,792.0,66.93836992394891
1760.7983649509122,1122.0,63.36646356943386
1761.52869917654,886.0,77.3979951009654
1762.2215803649558,1103.0,89.62448024948026
1762.8208289603424,839.0,92.32437190711838
1763.4856203708496,584.0,90.15950704225352
1764.234681115083,603.0,94.92736418511066
1764.7590236360465,971.0,98.21785714285713
1765.3582722314331,792.0,92.05631868131867
1766.3320511989366,698.0,89.51346153846153
1766.8938467571118,707.0,76.67692307692306
1767.8676257246152,688.0,91.15485498108447
1768.4387845420931,1330.0,85.22152164775115
1769.1129392119033,735.0,92.42331984954936
1769.833910178228,811.0,86.66720037952913
1770.517428107341,839.0,86.66720037952913
1771.191582777151,650.0,89.01144768152292
1771.8563741876583,1358.0,89.41784037558685
1772.5305288574684,952.0,87.13578909353558
1773.260863083096,735.0,85.91614691614691
1773.9537442715118,698.0,83.28745493302455
1774.6934417564423,603.0,84.0081027063039
1775.4050494634641,669.0,86.09975958056947
1776.0511143553654,1283.0,89.14629193927868
1776.7159057658725,603.0,80.2842720246272
1780.3394871161017,783.0,75.37653077330164
1781.1072743789412,1009.0,71.9920237310481
1781.8563351231744,1311.0,80.8540436456996
1782.5679428301962,679.0,83.28526315789472
1783.270187277915,726.0,88.4658601728201
1783.8975256512106,688.0,94.81220991815118
1786.472421959513,679.0,105.16857355451481
1786.9874012211735,669.0,105.6516129032258
1787.605376335166,679.0,94.16774193548386
1788.4761594503375,735.0,84.59165227172296
1789.1596773794504,698.0,89.70170011861292
1789.6933831597166,745.0,87.67513465371728
1790.6484356086144,716.0,92.86647358434035
1791.2289576853952,650.0,78.36053130929791
1792.0997408005667,669.0,79.90356536502546
1792.9892504343438,1509.0,64.69519570504289
1794.0285722169676,1094.0,71.81196081181255
1794.6933636274748,1047.0,72.80027775802424
1795.5454202240403,773.0,89.76042434528947
1796.0978525229125,754.0,97.14960151356226
1796.6315583031787,716.0,95.92707404103479
1799.1596383149667,707.0,84.56089351285189
1799.9648786150176,1867.0,96.76162790697674
1803.3731050012798,773.0,100.88199827734711
1804.131529004816,584.0,103.08276365856584
1804.8712264897465,1141.0,80.10834505391466
1805.62028723398,877.0,77.47130801687763
1806.4629805712425,1226.0,73.65072463768115
1807.324400427111,962.0,70.42325211020862
1808.1764570236764,1462.0,72.42485853591144
1808.9536075458186,896.0,75.9074672315636
1809.702668290052,1047.0,79.13493975903614
1810.4517290342856,669.0,78.82857142857142
1811.2382428157307,858.0,72.09118825100133
1812.2401115611428,1367.0,67.18710661834827
1813.157710972829,622.0,71.4252018564435
1813.8318656426388,952.0,78.84720041862899
1814.5621998682666,698.0,83.42165242165242
1815.3206238718028,811.0,77.75498575498575
1816.1539539497626,1405.0,74.37037037037037
1816.9872840277221,1179.0,70.72340425531914
1817.8674304021965,849.0,69.94079555966698
1818.728850258065,764.0,69.6741288930003
1819.5715435953275,745.0,74.6909843779409
1820.2925145616523,754.0,77.2085328326292
1821.0696650837945,849.0,77.47519949929588
1821.902995161754,867.0,71.75555831573718
1822.811231314137,858.0,68.50482908301682
1823.7007409479143,783.0,69.34203838534239
1824.5059812479653,754.0,71.8731439665724
1825.3205848073192,754.0,72.11233769557576
1826.2007311817933,792.0,68.01299247092008
1827.1651468899938,1009.0,65.71126833298905
1828.064019783074,924.0,67.26059135039716
1828.8879866017307,679.0,73.22272727272727
1829.6370473459642,735.0,77.02150776053215
1830.4048346088034,764.0,73.89729533929003
1831.3505237983982,839.0,80.05883380082848
1831.959135653088,839.0,103.68447191767476
1832.3617558031133,886.0,102.31373484396738
1833.3729878078284,867.0,97.55745954032366
1834.0845955148502,849.0,82.89943437829547
1834.6557543323281,726.0,84.91757496786462
1835.5733537440142,783.0,89.17594817360624
1836.1913288580067,839.0,81.54417011559869
1836.9216630836343,915.0,81.10825174825175
1837.857989013926,896.0,62.349710926016655
1839.3280207244843,811.0,64.225369514004
1840.0115386535972,820.0,68.29394094257543
1840.7980524350423,886.0,79.52605470349974
1841.6032927350932,971.0,72.98918498621615
1842.4834391095676,905.0,70.5283554931286
1843.3542222247388,830.0,69.42447952413634
1844.1969155620015,754.0,71.53828457114278
1845.0021558620524,773.0,72.30387596899223
1845.844849199315,952.0,68.16687291088826
1846.865444463333,613.0,62.40109217999125
1847.9141295052598,1424.0,60.917758846657925
1848.81300239834,716.0,59.271008403361336
1849.9272302553873,1499.0,69.4598538045355
1850.6107481845002,622.0,69.93325805985465
1851.4908945589746,735.0,72.72154230559178
1852.455310267175,943.0,75.82490469662541
1853.0732853811676,1481.0,74.67725801706383
1854.0002480521564,688.0,77.15678524374177
1854.8616679080249,792.0,68.01054018445323
1857.4459274756302,811.0,78.79841897233202
1858.0639025896228,886.0,81.95139803835455
1858.8223265931592,877.0,77.30791977748498
1859.8991014129947,849.0,67.19428341384862
1860.7979743060748,811.0,87.25869565217391
1863.3073277992569,849.0,85.37228260869566
1864.5058249900303,1028.0,104.19920568561872
1864.992714473782,1056.0,112.53365384615384
1865.3578815865958,905.0,147.9437148217636
1865.7417752180154,1122.0,135.34679174484052
1866.4440196657342,688.0,106.94793134598011
1867.2024436692707,886.0,71.40850990525408
1870.470221165989,971.0,70.66876964551383
1871.1911921323137,622.0,72.40366243303819
1871.9027998393353,933.0,81.2740943267259
1872.6893136207805,867.0,77.26716791979949
1873.532006958043,1735.0,75.53227513227512
1875.938364598893,867.0,78.20896686159843
1876.6499723059148,622.0,80.21057328730124
1877.427122828057,1075.0,77.0575942212787
1880.3203699526584,773.0,101.04989203899372
1880.7042635840783,905.0,101.04989203899372
1881.4814141062204,650.0,102.96191249935177
1882.2772911469683,1877.0,73.83209345922589
1883.1480742621397,1207.0,71.31454500453758
1884.0094941180082,1245.0,72.23391372763658
1884.7772813808474,707.0,72.99950512548602
1885.6199747181101,764.0,72.50551807645735
1886.5001210925843,754.0,67.60525244013762
1887.445810282179,726.0,66.83966104228816
1888.3165933973503,698.0,69.85119654600516
1889.0937439194925,1113.0,73.83209345922589
1889.8896209602406,726.0,71.20720866659917
1890.872763187047,716.0,67.9564794338788
1891.7622728208241,792.0,64.40282524493051
1892.689235491813,849.0,69.79490786110951
1893.4663860139551,1660.0,70.27843927027759
1894.3371691291266,764.0,75.40268169452
1895.08622987336,716.0,70.01059907834102
1896.0693721001664,783.0,69.06347569955817
1896.9776082525493,1160.0,71.22834056442304
1897.6704894409654,886.0,74.61881675489923
1898.513182778228,867.0,76.33153153153151
1899.3558761154904,1169.0,70.43440860215053
1900.2266592306619,801.0,67.04393241167435
1901.2098014574683,877.0,66.52799038268884
1902.0712213133368,867.0,68.111972585136
1902.8858248726906,773.0,71.76911544227886
1903.7191549506501,849.0,70.57234269463206
1904.6273911030332,886.0,67.5963761324586
1905.554353774022,952.0,65.39229449980554
1906.4719531857081,877.0,67.92340008103555
1907.286556745062,783.0,70.34764250527797
1908.1198868230217,801.0,71.03593466424681
1909.0093964567989,990.0,69.45195246179966
1909.88017957197,641.0,71.50073294960453
1910.6479668348095,1188.0,75.06530291109362
1911.4157540976487,783.0,78.46793134598012
1912.1741781011851,877.0,77.54856262288112
1912.970055141933,754.0,79.24004187533598
1913.6910261082578,990.0,77.14239877769289
1914.5149929269146,915.0,87.612987012987
1917.2584279026694,698.0,81.44848484848484
1918.1853905736582,849.0,77.91362165342747
1919.149806281859,849.0,73.72538635930982
1919.7865079144572,877.0,78.19840927135712
1920.5542951772966,990.0,77.99900673214876
1921.5280741448,867.0,85.42360566263004
1922.0430534064606,820.0,75.31512368228785
1923.2977301530514,839.0,82.88192530172105
1924.0093378600732,915.0,67.51808913788489
1924.8613944566387,933.0,74.30119488574135
1925.741540831113,924.0,63.56178538638319
1926.8932217253719,820.0,69.75592458052239
1927.567376395182,839.0,67.77038440287315
1928.5317921033825,896.0,65.99577162024897
1929.8145586278822,877.0,59.80163242610978
1930.6666152244477,773.0,52.66886388984115
1932.136646935006,773.0,57.81548709159864
1933.1010626432064,764.0,62.08321935933091
1933.822033609531,801.0,71.69551512227747
1934.6834534653995,867.0,104.35765104460756
1936.677827696921,688.0,92.5576898118105
1937.932504443512,726.0,96.04029850746267
1938.6815651877455,1471.0,71.12029850746268
1939.3838096354643,566.0,82.56461538461538
1940.1141438610919,1075.0,79.59794871794871
1940.9568371983546,830.0,108.84767844767845
1943.2789255054781,1415.0,98.68886951467596
1944.43996965904,981.0,98.95553618134264
1945.2732997369997,1783.0,66.65437788018434
1946.0598135184448,716.0,69.20634920634922
1947.07104552316,858.0,72.5909645909646
1947.8013797487874,886.0,74.20036784593748
1950.1141047966082,1160.0,80.47137055596457
1950.8818920594474,679.0,74.02793164193741
1951.836944508345,971.0,79.85149541993157
1952.4455563630347,1292.0,80.840689615671
1953.1852538479652,858.0,90.85603488421319
1953.8313187398664,1481.0,82.54622056060578
1954.6459222992203,971.0,84.7685198496642
1959.1683765425296,726.0,90.63958431743032
1959.711445582099,867.0,88.81126443481844
1960.5915919565732,2009.0,81.34690882956264
1961.509191368259,1264.0,76.39991963759145
1962.1365297415546,754.0,82.93678935487505
1962.8200476706677,707.0,89.24613414542284
1963.5316553776895,735.0,82.49494889520335
1964.3275324184374,849.0,76.70720239512809
1965.1795890150029,990.0,74.33687899626949
1965.956739537145,1349.0,77.6874672315636
1966.6589839848639,1169.0,80.91493975903614
1967.4080447290974,1773.0,79.45272727272726
1968.2320115477542,877.0,74.70606060606059
1969.0747048850167,735.0,74.37643097643097
1969.8331288885531,1584.0,77.14167838724799
1970.5728263734836,745.0,76.37608698939854
1971.443609488655,773.0,72.48992714534396
1972.3331191224322,962.0,68.41969439728354
1973.2039022376036,613.0,71.1868922208358
1973.9810527597458,745.0,74.13125312309144
1974.7675665411907,650.0,74.3809024919554
1975.6289863970592,2179.0,72.64596273291926
1976.462316475019,698.0,74.60200668896321
1977.1926507006465,830.0,75.93633952254642
1978.0072542600003,981.0,75.93633952254642
1978.84058433796,688.0,71.5194660734149
1979.7113674531315,1433.0,76.63440860215053
1980.3855221229414,924.0,80.01902398676592
1981.1158563485692,632.0,76.46946386946387
1982.14581487189,688.0,69.52620145811635
1983.0259612463644,716.0,94.23914704911071
1983.409854877784,801.0,115.89788830785196
1983.8967443615356,858.0,113.51734119538996
1984.879886588342,783.0,88.8043956043956
1985.6102208139696,707.0,69.74809108417355
1986.5184569663527,754.0,77.88523394131641
1987.2207014140715,830.0,76.23555831573717
1987.9978519362137,849.0,80.91493975903614
1988.7469126804472,764.0,71.85312157721796
1991.5184374341109,745.0,76.63246753246752
1992.173865585315,877.0,73.66580086580086
1993.0165589225778,896.0,84.76190476190474
1993.671987073782,877.0,70.67838827838827
1997.5109233879782,783.0,70.16244624940276
1998.3723432438467,792.0,62.3715647904362
1999.252489618321,867.0,68.42500608598276
2000.1419992520982,839.0,68.6801422541624
2000.9940558486637,735.0,71.69167775787939
2001.7712063708059,820.0,72.67999470409109
2002.6232629673714,839.0,72.42485853591144
2003.4846828232398,877.0,68.0499187768753
2004.4210087535316,679.0,66.37330967169476
2005.3386081652177,735.0,67.70764250527797
2006.1532117245715,1037.0,68.83185303159377
2007.0427213583487,1273.0,68.18444951573197
2007.9884105479434,1481.0,65.65334393450196
2008.8966467003263,735.0,67.44186068091345
2009.720613518983,915.0,68.31396438612933
2010.6288496713662,707.0,67.6533458294283
2011.565175601658,783.0,64.32179502728926
2012.5202280505555,754.0,66.5739037433155
2013.3441948692123,1754.0,70.94884350235164
2014.1213453913545,1188.0,73.22505833611123
2014.982765247223,1358.0,70.97294962008499
2015.891001399606,1490.0,74.10287472591372
2016.5838825880219,1811.0,76.01489518627177
2019.4584031940176,1226.0,74.53273816803228
2020.432182161521,867.0,76.18215901745312
2021.0876103127255,886.0,98.51941391941389
2021.5089569813567,896.0,97.94356920338225
2022.5108257267689,858.0,86.50071206052512
2023.5595107686956,783.0,59.57250693232
2024.533289736199,858.0,85.0566986205284
2024.9733629234363,867.0,88.70867430441896
2027.8291570108263,943.0,104.997798972854
2028.3722260503955,924.0,90.96275516809806
2029.008927682994,820.0,86.65314401622717
2030.0950657621324,896.0,74.0982850820579
2030.9190325807892,952.0,63.224981914637084
2031.8928115482927,915.0,59.14675928098745
2033.2879371844274,830.0,67.23766837189655
2033.90591229842,915.0,74.43946657369474
2034.6268832647445,943.0,99.65945165945166
2036.7804329044156,962.0,91.29581529581529
2039.1587007673568,830.0,83.70649895178197
2040.1512062534662,783.0,76.51457975986277
2043.4845265653048,867.0,74.31049812720971
2044.4021259769909,915.0,80.52992510135365
2045.160549980527,698.0,70.65049926403309
2046.0500596143045,1943.0,76.59484063694589
2046.771030580629,952.0,78.32973342447025
2047.4826382876508,981.0,79.0629142025023
2048.3440581435193,660.0,74.79518193477003
2051.0406768227595,1433.0,66.46769655465307
2052.0519088274746,1056.0,67.52303252303251
2052.8758756461316,981.0,72.15576820839979
2053.5874833531534,1556.0,68.80875966139124
2054.8047070625325,877.0,84.09158794421953
2055.3103230648903,886.0,83.37094017094017
2056.0406572905176,2283.0,82.76239316239317
2061.4994374641187,830.0,84.28376068376068
2061.9863269478706,981.0,84.63940503940503
2062.7072979141954,669.0,92.03457412153064
2063.568717770064,1358.0,77.65765104460756
2064.317778514297,726.0,78.02265446224256
2065.029386221319,2169.0,75.54312723556463
2065.9938019295196,858.0,70.20312723556464
2066.9301278598114,698.0,65.57039155019737
2069.486297649508,839.0,81.03591730303594
2071.5649412147554,999.0,122.49944671480064
2071.8832920310547,933.0,119.76478331994308
2072.8477077392554,726.0,119.1613934894346
2073.40950329743,1075.0,71.81612494723511
2074.701633081233,622.0,76.20767263427109
2075.497510121981,1688.0,79.44403627063473
2076.0124893836414,896.0,94.05028244332303
2080.169776514137,726.0,117.46632522407168
2080.5817599234656,716.0,104.3649013467442
2081.3589104456078,867.0,90.71116353525991
2082.576134154987,1858.0,63.741466565562945
2083.5030968259757,858.0,59.80244517387374
2084.4206962376616,1018.0,61.17167594310451
2087.585477882048,830.0,74.04753127057273
2088.1659999588287,716.0,73.82737047898338
2089.0929626298175,1735.0,78.75077473430252
2089.973109004292,735.0,62.55557208748698
2091.0686103427333,1924.0,59.88246937898604
2092.1266586439633,2301.0,66.41933909626962
2092.810176573076,1273.0,90.04528178103584
2093.287702797525,1216.0,97.84262691377918
2094.0367635417583,867.0,96.3226126814362
2094.757734508083,754.0,79.27746904258531
2095.5629748081337,716.0,78.6262495303902
2096.3307620709734,971.0,64.66663495142078
2097.7820672629255,943.0,62.0794256490952
2098.6809401560054,1169.0,64.8955100261552
2099.3738213444217,1405.0,79.97972972972973
2100.0667025328376,839.0,83.7785102175346
2100.8344897956767,1254.0,78.91364535266973
2103.559198252826,1292.0,72.29878048780488
2108.081652496135,566.0,69.98333333333332
2108.9243458333976,1301.0,86.28522012578615
2109.4205985764524,801.0,87.50774759831361
2110.272655173018,2273.0,89.20298569355172
2111.059168954463,1037.0,83.91749234372185
2111.6303277719408,726.0,82.69496487119437
2112.529200665021,1084.0,87.35090048487646
2113.193992075528,783.0,78.70487741262389
2113.9524160790647,1528.0,93.28246361952044
2114.495485118634,632.0,99.40134640777539
2116.5928552024875,924.0,108.04736948002798
2117.164014019965,952.0,113.10213621430788
2117.641540244414,1103.0,117.20063317625224
2118.137792987469,1132.0,108.55461010399965
2118.896216991005,584.0,121.44148793205397
2119.261384103819,933.0,131.996743996744
2119.6546409945418,886.0,131.36131338540977
2120.431791516684,1103.0,106.67658965843252
2121.096582927191,1066.0,81.24801822986109
2121.883096708636,1169.0,87.39367548575032
2122.5104350819315,754.0,78.45768329498195
2123.4561242715263,726.0,75.04973042311155
2124.364360423909,811.0,64.31764825967133
2125.310049613504,1254.0,73.25364045043969
2125.9748410240113,981.0,65.76363413863663
2127.35124014154,905.0,65.55629575773972
2128.306292590438,698.0,56.62030356697134
2129.251981780032,698.0,71.34996529467611
2129.9354997091455,773.0,79.27365368895275
2130.6283808975613,1132.0,86.99000370233247
2131.321262085977,773.0,107.40414833438089
2131.7238822360027,839.0,133.3085142387468
2132.0890493488164,1103.0,134.11031604054858
2132.7632040186263,688.0,113.3007623007623
2133.4560852070426,1999.0,87.3963963963964
2134.1489663954585,764.0,81.20225720225719
2135.001022992024,1349.0,83.29391407652275
2135.6470878839255,858.0,82.16930895191763
2136.36805885025,792.0,80.05678147939017
2137.3043847805416,575.0,78.36053371286248
2137.9879027096545,905.0,74.89300124533
2138.8118695283115,669.0,78.96157267390143
2139.5983833097566,764.0,76.739273384843
2140.338080794687,2660.0,78.20148587115187
2141.115231316829,1556.0,77.61012374490602
2141.92047161688,1528.0,74.57214906136173
2142.7538016948397,783.0,72.57054263565891
2143.5964950321027,669.0,73.16190476190476
2144.3830088135473,792.0,86.63558897243107
2144.916714593814,632.0,89.94023032264205
2145.6564120787443,952.0,90.24659865310676
2146.4335626008865,915.0,73.31137598104198
2149.017822168492,952.0,67.42191614898282
2149.9635113580866,669.0,66.81638815465256
2150.7593883988347,1386.0,91.72473512682932
2151.1994615860717,962.0,88.08441699665565
2152.3417792210275,952.0,79.51314476683349
2153.549639671104,688.0,56.78974051151434
2154.4297860455786,698.0,62.24928572568673
2155.30056916075,698.0,74.95142016340576
2155.984087089863,773.0,78.59838627845697
2156.742511093399,679.0,79.6306443429731
2157.5758411713587,698.0,75.7989417989418
2158.362354952804,698.0,66.51657142857142
2159.5327623656685,858.0,63.457747899159656
2160.4878148145663,650.0,55.537373191899704
2161.630132449522,726.0,63.00109732983074
2162.444736008876,943.0,71.32019483184524
2163.128253937989,688.0,75.38775568629134
2164.055216608978,830.0,71.37449308682184
2165.0289955764815,792.0,65.84755244755243
2165.871688913744,745.0,95.12893772893773
2166.2649458044666,783.0,95.32834026814608
2167.2293615126673,811.0,94.31841119013191
2168.1095078871413,839.0,73.12793499965571
2168.7836625569516,849.0,87.40646436460875
2169.3548213744293,792.0,84.46083788706738
2170.3660533791444,1283.0,77.7619131558846
2171.236836494316,783.0,79.57310592015821
2171.779905533885,1622.0,95.9987179728889
2172.3323378327573,707.0,114.10789911432809
2172.819227316509,2028.0,119.162665848608
2173.296753540958,1594.0,105.9270179535834
2174.1675366561294,1216.0,89.68730417898591
2174.97277695618,886.0,84.00834106831792
2175.5252092550522,877.0,81.57906067129558
2176.498988222556,688.0,86.40851803563666
2177.173142892366,764.0,75.33453996983408
2177.969019933114,839.0,108.19607843137254
2178.3435503052306,792.0,124.96419437340153
2178.774260233165,1179.0,148.3802371541502
2179.186243642493,962.0,117.46444768046598
2180.0757532762705,1311.0,99.50966507177031
2182.622559806664,660.0,80.63087719298244
2183.2967144764743,688.0,110.24422764227641
2183.680608107894,1915.0,122.06611443472923
2184.1768608509483,849.0,110.97336081154083
2185.2536356707838,1367.0,82.60913316926441
2186.0963290080467,886.0,66.30724637681158
2186.9296590860063,679.0,75.1179487179487
2187.659993311634,575.0,98.85128205128204
2188.081339980265,1018.0,91.28205128205127
2189.2985636896447,877.0,81.26328955597246
2190.4502445839034,1103.0,84.65376574644867
2190.843501474626,971.0,96.32825967357417
2191.555109181648,877.0,107.44240601503759
2192.2573536293667,811.0,85.84553713049746
2192.9408715584796,1537.0,91.11527397260274
2193.540120153866,1858.0,77.7842101428155
2194.8603397155775,999.0,86.6667933130699
2195.3846822365413,745.0,100.75845997973656
2195.8060289051723,679.0,101.43174603174602
2198.6243699553506,1179.0,102.1252525252525
2199.139349217011,707.0,87.02222222222221
2201.8453311555545,1066.0,120.87441860465114
2202.24795130558,1584.0,96.87138830162085
2203.5962606452,849.0,113.05320648343903
2204.0082440545284,999.0,87.1121212121212
2204.850937391791,999.0,98.013727637824
2205.628087913933,1226.0,67.88206619581774
2206.7142259930715,1556.0,65.724490438242
2207.6411886640603,716.0,66.35992104957623
2208.399612667597,707.0,82.9625213887509
2208.9707714850747,688.0,76.75367028781346
2210.2722645281806,603.0,78.12355965770283
2210.993235494505,1858.0,70.84742595533962
2211.7142064608297,1311.0,81.21545923955561
2212.491356982972,867.0,78.90377092786731
2213.277870764417,1084.0,72.95942955495451
2214.195470176103,2622.0,76.08935466078323
2214.8883513645187,622.0,86.26078323221179
2215.450146922694,1764.0,86.94907539118066
2216.3396565564713,1386.0,86.56421052631578
2218.6898346415037,792.0,99.50966507177031
2221.0774657637476,962.0,104.06342922899884
2221.8171632486783,933.0,102.96804461361424
2222.5474974743056,764.0,82.9025900681597
2223.2497419220244,575.0,80.70182468694097
2224.0549822220755,1311.0,100.78387596899223
2224.476328890707,726.0,92.26649279142214
2225.478197636119,726.0,88.5777983405817
2226.423886825714,783.0,78.58481588444135
2226.95759260598,1716.0,100.50455200318792
2227.435118830429,698.0,106.39401183524708
2228.1748163153593,566.0,91.64373188003992
2229.0549626898337,896.0,86.58896514576
2229.598031729403,1660.0,105.98577307091136
2230.028741657337,707.0,147.98964154286494
2230.337729214333,2405.0,135.43478260869566
2231.16169603299,745.0,118.66666666666666
2231.8358507028,735.0,75.96001249609498
2232.7440868551835,707.0,88.51487143026425
2233.2871558947527,811.0,92.22320476359758
2233.8864044901393,1433.0,84.93362068965517
2235.2440770890626,952.0,77.36630845536135
2235.9275950181755,1018.0,70.36167882573173
2236.6860190217117,745.0,69.50077421310297
2238.1279609543612,886.0,60.01827801827802
2241.4612812662,1292.0,71.79076479076478
2241.985623787163,830.0,88.43492063492063
2242.6410519383676,679.0,86.75883777239707
2245.3002175803963,915.0,81.99098062953995
2245.899466175783,1150.0,65.25734007654455
2247.350771367735,622.0,83.98323136818688
2247.893840407304,745.0,71.14669290664841
2248.867619374808,688.0,85.47131090325283
2249.5792270818297,764.0,88.94561148880909
2250.075479824884,1169.0,115.87381661701421
2250.4968264935155,2066.0,128.0704402515723
2250.9930792365703,1575.0,121.67331536388139
2251.582964572654,1424.0,102.31191185510946
2252.294572279676,650.0,83.15853991414178
2253.2402614692705,679.0,69.59663515223701
2254.2234036960767,1113.0,82.56829507126535
2254.7102931798286,603.0,75.6597802197802
2256.1147820752662,886.0,78.28466501240693
2256.9855651904377,1405.0,66.4680159080866
2257.6690831195506,1915.0,81.48828988068934
2258.3526010486635,1518.0,101.24054794520546
2258.8207640138094,716.0,125.38027397260272
2259.195294385926,952.0,135.67555555555555
2259.700910388284,990.0,118.69049531459169
2260.478060910426,1905.0,103.43335245744883
2261.002403431389,877.0,84.22065404475042
2261.985545658196,688.0,109.34285714285714
2262.3788025489184,688.0,98.23797468354431
2263.1185000338487,2141.0,126.44057208614171
2263.530483443177,1518.0,94.320271334262
2264.5978950037097,1141.0,93.33107713852257
2265.365682266549,1669.0,66.80624114976906
2266.273918418932,594.0,86.90576268086954
2268.558553688844,915.0,82.6529005604116
2269.47615310053,2301.0,88.3725417439703
2270.1971240668545,924.0,76.57415279115098
2270.936821551785,726.0,78.51156775713737
2271.7795148890477,745.0,76.19987944544906
2272.566028670493,849.0,75.53227513227512
2273.324452674029,792.0,70.70159666619844
2274.382500975259,764.0,85.57491203007983
2274.8787537183134,1566.0,85.90454165970945
2275.627814462547,754.0,91.55361093038385
2276.4424180219007,820.0,74.46911544227886
2277.303837877769,867.0,71.24164291480633
2278.1558944743347,858.0,70.68991877687529
2278.9892245522947,839.0,73.52130796033234
2279.757011815134,773.0,77.08675517134918
2280.496709300064,745.0,78.51532659992061
2281.2832230815093,792.0,76.46654611211574
2282.1165531594693,839.0,71.91278195488721
2283.006062793246,896.0,70.21754385964911
2283.8487561305087,849.0,71.05475316197469
2284.65399643056,811.0,71.53828457114278
2285.5247795457312,877.0,70.28916176412523
2286.414289179508,896.0,67.47257101850069
2287.3225253318915,915.0,70.23976884205295
2288.0996758540336,783.0,71.22808578826465
2288.951732450599,858.0,72.67999470409109
2289.8037890471646,858.0,68.96567350175596
2290.7120251995475,915.0,67.7431460292285
2291.610898092628,905.0,67.48800986104885
2292.4723179484963,867.0,70.3046006066734
2293.277558248547,811.0,70.5388111329892
2294.1670678823243,896.0,75.4266829865361
2294.878675589346,716.0,66.29535603715169
2296.152078854543,1283.0,64.75232198142413
2297.1071313034404,962.0,59.13126934984519
2297.9966409372178,896.0,63.96384853536555
2298.970419904721,981.0,71.50267206477731
2299.67266435244,707.0,67.27487179487179
2300.7681656908812,1103.0,93.17119286510591
2301.1988756188157,830.0,115.54833572224877
2301.5921325095383,660.0,127.80621118012422
2302.2475606607422,811.0,106.20863787375414
2303.0528009607933,952.0,76.50000986809644
2303.998490150388,2122.0,82.18911398431919
2304.5509224492603,745.0,84.38987936553792
2306.844920978475,1188.0,80.19374546643373
2308.0246916506426,1735.0,76.85189409746371
2308.6333035053326,603.0,86.01730924442788
2309.1857358042043,575.0,104.66492829204692
2309.7475313623795,1386.0,105.17838983050846
2310.3467799577666,726.0,103.99139344262295
2310.9179387752442,905.0,82.92200568752091
2312.2943378927735,707.0,77.28726542778065
2313.015308859098,952.0,64.5208719851577
2313.914181752178,707.0,78.47025974025973
2314.616426199897,1943.0,71.87851485148514
2315.5621153894917,764.0,73.10104232401261
2316.414171986057,679.0,67.83843362836043
2317.2755918419257,707.0,68.48583714422223
2318.1931912536115,754.0,71.38368004206512
2318.9516152571478,820.0,77.83295540438397
2319.625769926958,839.0,84.51703703703703
2320.328014374677,1216.0,84.84666666666666
2321.07707511891,773.0,79.73172413793102
2321.8916786782643,1037.0,75.25172413793103
2322.725008756224,896.0,65.10986367281475
2323.9328692063,811.0,66.6069200226886
2324.7006564691396,820.0,67.44412932501417
2327.4253649262887,688.0,75.43771392806148
2328.2399684856423,886.0,78.64920741285935
2328.923486414755,745.0,76.53540236585292
2329.8036327892296,783.0,79.02165291146619
2330.5433302741603,811.0,75.4963186978996
2331.3204807963025,1028.0,77.61012374490602
2332.125721096353,650.0,70.16847933659108
2333.146316360371,792.0,75.39006131668538
2333.7923812522727,679.0,75.98142344293122
2334.578895033718,933.0,86.05175983436853
2335.2530497035277,698.0,76.67099567099567
2336.1800123745165,1754.0,80.1072891072891
2336.8728935629324,801.0,73.16402669594159
2337.753039937407,764.0,104.988269120184
2338.1275703095234,783.0,117.20032733224221
2338.6144597932753,1037.0,119.60633484162894
2339.4103368340234,745.0,92.57670521199931
2340.1687608375596,1707.0,77.23472189411238
2340.9459113597018,783.0,71.52349194758833
2341.975869883023,773.0,72.19109626076227
2342.7155673679536,839.0,68.70615650172613
2343.6144402610335,905.0,74.41738644825018
2344.4103173017816,896.0,73.11435152374202
2345.1874678239237,830.0,76.9131320115469
2345.955255086763,839.0,75.78372024684101
2346.7885851647225,867.0,72.29878048780488
2347.687458057803,952.0,68.73421052631579
2348.5769676915797,905.0,80.93760035682425
2349.129399990452,830.0,76.78929527207849
2350.2342645881963,896.0,77.52247605011053
2351.095684444065,867.0,62.46760107108721
2352.0413736336595,924.0,66.61590615583297
2352.9402465267394,952.0,67.67124212421241
2353.7642133453965,2094.0,95.06818181818181
2354.176196754725,981.0,114.70053475935828
2354.6537229791734,999.0,113.64519879097882
2355.515142835042,1066.0,86.89566261287123
2356.432742246728,820.0,66.16182452317992
2357.378431436323,650.0,63.482894757293614
2360.4308539690737,726.0,70.55184125481154
2361.12373515749,1037.0,72.12673065864554
2362.003881531964,877.0,93.47062206136047
2362.481407756413,1613.0,89.15748133442663
2363.296011315767,594.0,97.39059881823792
2363.942076207668,1103.0,83.2485056173212
2364.6630471739927,839.0,78.11496329757199
2365.6930056973138,933.0,70.12618349392542
2366.563788812485,1037.0,92.06034235831684
2366.9664089625107,745.0,112.94404733258784
2367.462661705565,660.0,105.4545662666692
2368.754791489368,849.0,74.03655791842829
2369.8502928278094,896.0,57.73467112597547
2370.683622905769,792.0,63.832167832167826
2371.610585576758,792.0,64.9939393939394
2372.640544100079,820.0,68.03191407748369
2373.380241585009,839.0,76.97044221601183
2374.0356697362135,839.0,81.28559373116335
2374.878363073476,764.0,76.73182957393482
2375.7678727072534,764.0,71.64611528822054
2376.5543864886986,971.0,73.34135338345865
2377.3409002701437,726.0,75.4088669950739
2378.1555038294973,999.0,73.98029556650246
2378.988833907457,613.0,72.55172413793103
2379.822163985417,660.0,74.37037037037037
2380.580587988953,1084.0,76.74074074074073
2381.3390119924893,839.0,73.47860481841063
2382.30342770069,820.0,74.84849418830001
2383.024398667015,858.0,89.55504689485271
2383.511288150766,915.0,108.37273837273837
2384.016904153124,915.0,113.49401709401708
2384.6255160078135,792.0,87.89535488665923
2385.9176457916165,764.0,93.78660784174197
2386.3577189788534,877.0,84.92506938020351
2387.191049056813,1877.0,110.52373158756136
2387.677938540565,641.0,126.10549450549448
2388.005652616167,1216.0,125.57802197802195
2388.8577092127325,N/A,106.52171745779992
2389.7659453651154,N/A,67.51376458592952
2390.6741815174987,N/A,69.46980854197349
2391.460695298944,N/A,73.81956035564284
2392.21911930248,N/A,83.21070650482415
2395.5898926515306,N/A,109.87969605186247
2395.97378628295,N/A,135.60688665710185
