81.85088985088984
85.52239481651246
82.61934437857829
82.94897400820793
71.49982612475549
81.67901026505285
85.06351730730637
96.51266519075881
88.53424643168017
73.92800025899187
79.98991976363584
93.25383187254437
105.16018638759454
95.79176533496295
83.96987854251012
84.32552289815447
83.60487512487512
79.96208442720071
85.08336314847942
81.43208109719737
83.29487179487178
79.29819819819818
92.39245107176141
93.79771422965615
91.30321973516165
78.74836080099237
77.34309764309762
78.01070195627157
85.61857169846968
90.33033640435202
95.6559980844441
77.55604623080903
72.84428152492669
67.8652605459057
80.78461538461538
80.45498575498576
79.11915085817523
76.15248419150856
79.44878048780487
83.06666666666666
87.81333333333333
86.25192982456139
80.31859649122805
79.22321187584345
75.66967285587975
77.9851200103513
82.01226933161826
87.1272118603539
88.81869111280875
81.67965367965367
76.28571428571428
73.97402597402598
77.44155844155844
81.2740943267259
84.32552289815447
85.4501280227596
84.04486486486485
85.64937190711838
86.86901408450703
85.29842584921292
73.0139188069594
71.79427662957073
73.03523523523523
79.78695937316627
75.75930381062697
74.81750486882805
75.39519249560288
86.1579831932773
85.85882352941175
90.81391880695939
80.94885856599554
79.55278013462299
79.13493975903614
80.4379746835443
79.92203265455879
73.98869932122545
73.65072463768115
79.69360730593606
84.44027397260274
82.57748327492831
82.18207416719045
75.95207416719045
75.38759213759214
82.12272727272726
83.09011857707509
87.68225616921268
76.35498344193996
76.6101196101196
72.29697888318577
74.72425161045851
78.99198387819078
80.17519949929587
78.31240880162146
74.57214906136173
73.10993657505284
72.8244514106583
75.5244514106583
78.28969882147534
79.47291444258045
76.77291444258044
73.20746723156361
71.74525474525474
73.48019450429088
77.04564171530771
80.87817760047517
81.84323784143903
82.18987854251012
77.30200668896322
73.08621721527899
68.91899313501145
74.56646669552848
76.63398030714373
81.8965890027959
78.16113590263691
76.09362229102166
72.1653464289527
72.77087442328296
83.14820235850564
87.07647822057459
89.82153846153845
83.66
79.45272727272726
70.75050505050504
75.4622697563874
77.5599128540305
85.88739823414744
79.60504529297098
78.3640866873065
74.25882352941176
74.55798319327731
76.46654611211574
80.20680585237548
79.61544372612963
78.31240880162146
75.4093583636873
77.61012374490602
78.91315866941419
80.12472985489349
76.8200885046825
73.51544715447153
70.68405797101448
72.37929606625258
76.386222473179
81.2740943267259
83.23013828276986
80.91844997108154
76.28571428571428
73.73830820342448
74.35851726265793
78.27060517474584
77.9851200103513
74.65974377786557
70.74765586577766
71.32534349255249
76.3421989774931
80.97493466286036
82.88349758169878
79.14323784143903
76.77291444258044
73.46827309236946
77.94827309236948
77.0505426356589
82.57748327492831
79.52605470349974
78.4221787345075
75.21068524970963
76.15248419150856
80.15941059843499
81.14860479417442
79.90764618850993
76.44011372097745
74.23934833975873
75.15871706285773
78.27060517474584
81.91339587242027
84.72948024948025
82.77343629343629
78.29343629343629
73.42857142857143
73.12941176470588
74.86435152374202
78.96961468163676
81.22481830154626
80.3270878448357
75.9551580202743
72.30387596899223
72.30387596899223
74.94091300602928
79.31284283059068
84.14230019493176
88.72845156369183
88.00780379041248
82.07447045707914
74.33534002229655
69.20072463768116
69.7401185770751
72.2576670317634
78.11293018965814
82.32020291693087
83.28526315789472
80.60857142857142
76.68029556650247
75.10970733120834
76.71911058618122
80.64738644825019
84.38283954840917
83.079804623901
78.33313795723433
73.46827309236947
73.78211382113821
77.43339587242026
79.80376624279063
78.88439751969163
76.33699143740182
75.09603283173735
77.00459575057576
81.42766042085292
86.81253437043274
90.28884540117416
85.30129870129869
74.9379563832394
72.16393040921342
68.83237960707439
77.94171018345071
76.90145044319095
83.70053371286247
78.99198387819077
74.54198387819078
70.27425161045849
71.77130796033234
78.3861728251972
83.39364535266974
85.4501280227596
82.01383458646616
76.751225890814
73.19768687085029
75.5093751825386
80.3972470360855
81.58046265719061
78.39192705486191
73.75919136949464
97.69867021510967
114.22386915410169
119.61620654643909
98.04705109968268
86.23040199536233
84.75015251511286
81.774301121924
75.7314184536691
72.3468030690537
73.5877616747182
78.85037037037037
80.58531012940651
77.18268169452001
71.42608594983915
69.96387346353029
74.3807469126618
78.35734265734266
80.45498575498576
77.07037037037037
73.09377462568952
70.99613152804642
73.0449120158513
77.35948244407645
80.12472985489349
79.20536113179449
75.90071978158352
71.83048703352308
70.97380254154447
74.62508459282652
80.13734265734266
83.24923076923076
80.41633952254642
74.90408145803029
70.73685737776273
69.40252454417953
74.91478260869565
79.08200668896322
83.60487512487512
80.55344655344655
71.58262427227945
66.3265750583355
75.914397072387
88.45712570806916
94.45291518175338
86.13652173913042
80.91493975903613
76.16827309236947
74.30548239469505
75.2705426356589
80.40207416719045
84.82513883746759
86.99000370233247
85.16311352101191
79.6361728817425
75.0440352896049
73.74100036509674
79.26794100436615
84.25548770424162
85.90516332982085
81.774301121924
76.51402714932127
74.25882352941176
77.23467492260062
81.33993808049536
82.58089668615983
79.02735766619614
75.47381864623243
75.47381864623244
80.18236848090413
84.49550920783796
86.23040199536234
82.39869945133103
79.58261507427105
77.84772228674667
79.11915085817523
81.93523523523523
85.64937190711838
86.33398729173376
83.20406218590504
77.67127928158256
75.7152353255386
78.0855587243972
82.39869945133103
85.4501280227596
83.39364535266974
79.08050462573591
75.15222876366694
74.83838803489822
78.02692363722691
83.14186616596254
84.79154179154179
83.75128205128205
80.13339587242027
78.79756097560974
78.46793134598012
80.52441401606998
82.9556335282651
85.4501280227596
82.77343629343629
77.51082759778413
65.87176918453216
99.77653108929405
103.25913978494623
113.41794871794872
80.13339587242027
77.9851200103513
77.9851200103513
79.67659926280615
81.17365561268
78.9184519927705
73.90159650782991
72.6900253223506
74.59858824118903
80.35518398586987
83.25823442380404
81.95519949929587
76.44294143477975
73.83209345922589
75.8374134404495
81.34967150496561
83.60487512487512
81.29318681318682
77.08591408591408
73.7012987012987
74.0076670317634
77.84020291693088
83.10047688953361
87.03220379716413
85.96491532281371
78.95464135021098
73.83969882147534
71.63893344025661
77.49419659815135
80.68273220048005
79.31805037068193
74.18052914827108
68.92447993432712
68.66934376614748
69.97432910339089
72.61953034178097
77.14239877769289
80.60993124522537
82.18051948051948
78.99198387819077
75.80344827586207
74.53201970443351
75.10970733120834
79.42284805814216
83.25455060217348
86.23040199536234
83.10047688953361
79.88898340473575
93.66607318801748
93.66607318801748
95.72255585810734
81.94546607482562
81.6390977443609
77.80656185919344
73.43463203463202
73.43463203463203
74.59047619047618
77.55714285714285
80.23383458646616
82.18987854251012
81.22481830154626
76.33694644799935
71.92007299886784
69.91846657316503
70.97380254154447
73.74100036509674
77.74792677202315
81.58046265719062
82.88349758169878
78.87657117477237
74.50464135021096
73.51544715447153
76.8200885046825
80.82701491160893
81.81620910734836
79.61544372612963
75.34771145839736
73.43914853955893
74.33687899626949
76.29292295231346
77.53388155797794
77.84772228674667
78.46793134598012
80.20282413350449
83.41431761830235
85.47080028839221
83.73590750086784
79.02735766619614
74.9220945083014
72.8244514106583
72.8244514106583
75.5244514106583
79.73172413793102
83.66
83.66
78.39739130434782
75.04680306905371
76.08706280931344
80.97493466286036
80.97493466286035
76.45206622694845
72.3468030690537
71.4901185770751
73.7012987012987
76.739273384843
81.3314109769806
84.76770441327403
83.7785102175346
77.63704960798889
73.90159650782991
74.55281602002503
77.25798319327731
76.12857142857143
72.64596273291926
71.21739130434783
72.64596273291926
75.16351118760757
76.592082616179
77.86351118760757
80.99343629343629
82.94948024948025
81.37889201418614
75.48176908480514
71.56968117271722
71.56968117271722
73.73135100193923
77.64343891402714
80.619290307216
83.96987854251012
81.4224724602203
76.04061355764472
70.77800486199256
70.49251969759801
74.80709012582317
77.63847930928021
77.92396447367476
74.35851726265793
72.86146091278408
72.57597574838954
74.53201970443351
76.02907605430734
80.34221678124118
83.01890851056447
83.34049839312996
77.69302483261293
72.31116593003733
69.1581868640148
71.98957604747184
76.30414647569701
79.78675517134917
78.86738644825019
74.31362229102166
69.4095406583686
67.24787082914659
68.7636603028308
70.44026940801135
73.20746723156361
76.24544191510792
81.25291444258045
82.5559493670886
78.00218520986009
71.31810357720703
67.49752019801055
68.23070097604258
70.70750988142292
70.96264604960257
73.79403523305962
76.55928264387666
80.12472985489349
78.34867663981588
74.03410621159071
70.4686590005739
69.92926506117993
72.33527257056667
76.2473604826546
79.89864253393665
82.50949050949052
79.96208442720071
76.04999651511278
71.0331410301722
70.74765586577765
72.11233769557576
75.75930381062699
79.31284283059068
81.51360821180941
80.57180927001048
77.30375541444131
74.81750486882804
75.4377139280615
76.33544438477205
77.83250073464589
79.88898340473574
83.01890851056447
85.83499288762445
82.8591414944356
76.47848715588654
70.8310135953695
71.43654158969976
75.99030574692827
79.81088912612475
78.62767350501964
75.06222629400281
71.49677908298597
70.94505494505493
72.0242516104585
74.60050462573591
78.70576778363065
82.25930680359434
84.69052631578947
81.13698729582576
77.86893344025661
71.63893344025661
71.08720930232558
75.11486486486487
81.34486486486486
84.38283954840917
82.2179746835443
78.86738644825019
76.66662106703146
74.80383036935704
75.1029900332226
76.00072048993314
79.2687743455023
83.10047688953361
85.84553713049746
84.77824865614704
79.25130801687763
74.2438354894051
72.33527257056667
73.73135100193923
75.99376328844791
78.96961468163676
83.9247099591844
87.05463506501312
83.78658120944397
76.91946547153827
68.20554400289981
57.80076713300667
56.603994385359876
71.46944443175641
80.77034533265731
82.4830601092896
73.83703703703702
77.14167838724799
79.77871542428504
79.14328481295081
75.83864346273984
74.0199972303005
76.3903206291591
79.69496197937008
81.19201832924392
77.35948244407645
74.05484109386546
71.73939393939392
71.19999999999999
71.19999999999999
71.46666666666665
74.43333333333332
77.73797468354431
79.78675517134917
76.8200885046825
73.51544715447153
71.73939393939392
72.84326990838618
74.23934833975873
76.66662106703146
80.30941176470589
82.92025974025972
79.69278721278721
74.18052914827108
70.17360274134467
70.97380254154447
72.27878787878787
74.91582491582491
78.38335738335738
79.53920153920154
77.16883116883116
73.98029556650246
75.25172413793103
77.6220945083014
79.11915085817523
76.69187813090251
75.45091952523802
76.78675442204855
80.619290307216
82.52785322605442
80.57180927001048
77.01827025004677
77.36491095111785
78.30670989291679
79.18355718355718
75.27146927146927
73.45282303902994
74.39462198082887
77.9600691918457
79.14328481295081
77.32463858051148
76.65703426733754
77.9600691918457
79.45712554171955
76.8200885046825
74.05484109386548
74.70606060606059
79.45272727272726
83.66
84.34461538461538
80.99402714932127
75.48176908480514
72.64887783812078
74.55744075695921
83.47029583640071
93.93496514109262
91.44871459547936
95.16811758055398
79.39496738117427
83.32324324324324
69.97324324324325
77.42999999999999
71.67340425531914
74.26061355764472
71.833340830372
73.10993657505284
74.32150776053214
79.30905446040761
84.17391932527246
85.16311352101191
77.9234581051102
70.85451160759227
66.78427885953184
68.23618777535827
69.9127968805388
72.67999470409107
77.6874672315636
81.59955514365153
80.13734265734266
74.62508459282652
70.45786051255897
70.45786051255897
74.5280932606194
78.69531734088696
79.85116149673112
77.08591408591408
74.53850800362427
73.10993657505284
74.88598979013045
77.43339587242026
80.47137055596457
80.47137055596457
76.8200885046825
74.33383795906924
74.65542784163473
77.9600691918457
80.10834505391466
78.86738644825019
76.66662106703146
76.66662106703146
78.92182468694097
81.46923076923076
80.50417052826691
77.11955514365152
73.46827309236946
72.0060606060606
74.70606060606059
78.01070195627157
79.78675517134917
77.63847930928021
77.3005046257359
79.73172413793102
83.28526315789472
82.32020291693087
76.80794485241475
73.25440583245104
72.94803750198633
78.0855587243972
85.41443160139154
96.18925000332858
83.45089332025398
80.83057027793134
73.10718044742288
83.16884540117417
69.96872180451128
59.590416719765514
55.73760286695166
65.41239225004796
70.52808863914154
71.67573531870312
68.66419981498612
68.91933598316575
70.46865900057388
74.78322942879905
78.01070195627156
81.84323784143903
80.8540436456996
81.89430338595935
82.26904022806461
84.32552289815447
80.58526315789473
73.90118152524167
68.51932262266608
68.79204989539335
74.03410621159072
80.5709759288743
84.77824865614704
82.01300124533
74.5486456400742
70.62036977800524
73.73225788989336
79.3209549071618
79.04195804195804
75.12987012987011
73.48019450429088
76.592082616179
80.50417052826691
79.60644007155635
75.18956662242483
71.27747871033691
72.8106397783817
76.54289784289783
79.11915085817523
76.4821138211382
74.91152558584409
76.2473604826546
80.99402714932125
83.24923076923076
81.91339587242027
70.79924953095684
74.8263988522238
71.50102261973808
72.87201106646467
74.32178482212076
77.33332032583776
87.85675219317733
81.04399421944376
80.43846622511349
78.91845199277049
82.53633817163228
84.79154179154179
80.26867335562989
74.33534002229655
71.78793394000674
75.9551580202743
78.92182468694097
79.81955514365153
75.9074672315636
72.67999470409109
71.49677908298597
73.75919136949464
78.02692363722691
80.85981488391127
78.85820845820845
74.08569065343258
70.17360274134467
73.82488479262673
77.22751322751321
78.02771302771302
73.12730816941342
69.24114832535884
68.7017543859649
71.95248361868525
75.20321285140561
76.30708882039787
74.04467653388919
71.78226424738051
70.94505494505493
73.52130796033234
77.43339587242026
80.81801125703565
79.04195804195804
73.4532610246896
68.55285616639
66.76433941997851
67.93616298811544
68.66934376614748
71.61370466840313
75.68393741646356
78.8369164824861
76.88087252644215
74.68010714522342
74.35851726265793
77.58598979013044
79.11915085817523
78.80531012940651
75.83864346273984
71.26419145971641
68.25265595599942
67.73671392701391
69.1581868640148
71.86335403726709
75.68393741646356
78.51532659992061
76.05449710683305
71.98426435877262
69.66881720430106
74.80633842671193
78.20896686159843
79.90420495683654
75.01633310328963
70.6665812896203
67.25862841774989
67.7745704467354
71.4888916490705
74.8968445209409
76.00072048993314
73.48317203524483
72.0546006066734
70.43478260869566
70.1851332398317
70.1851332398317
74.35235732009926
77.75498575498575
78.88439751969163
73.98399266139202
69.63424084772271
67.97735655554428
70.92171745779993
75.27146927146927
77.84772228674667
76.69187813090251
74.05484109386546
72.0060606060606
71.46666666666665
73.46827309236947
77.2085328326292
80.85981488391127
79.96208442720071
75.69435215946842
71.52712807920088
71.81933054158118
75.04680306905371
77.87819225251076
77.87819225251076
74.14593418799463
71.31454500453758
71.02234254215728
72.89180990899898
76.37441860465115
79.64247246022032
83.28526315789472
83.28526315789472
78.65252747252745
73.38991877687529
70.42325211020862
71.78793394000674
72.84326990838618
75.15871706285773
78.42677091842688
83.01890851056447
83.01890851056447
77.63704960798889
71.7399266786079
69.96387346353029
72.36988097291702
76.78675442204855
78.2489669083574
77.67127928158256
74.28666389696718
73.98029556650246
76.46654611211574
79.85116149673112
79.55200183286557
75.7314184536691
72.08013640238704
72.99950512548602
77.1667292057536
80.13339587242027
77.81794871794871
75.5627450980392
76.60300483829894
78.9184519927705
76.75678216354848
71.26652242328875
69.21774193548387
71.98493975903614
76.1053101294065
76.1053101294065
73.09377462568952
71.85281602002503
73.90159650782991
75.45091952523802
73.53889906487997
70.45786051255897
71.02234254215728
74.17532160817981
76.33699143740182
74.71717343942407
72.08013640238704
72.37929606625258
74.29131652661064
74.29131652661064
72.86274509803921
74.1037037037037
75.49978213507625
74.71717343942407
72.08013640238704
72.6856643967173
75.51705358017435
77.83250073464589
77.22697274031563
75.72991639044179
74.5183452049625
75.75930381062699
77.57795004306631
78.78952122854561
77.25636016050082
74.61932312346377
74.61932312346379
77.1667292057536
80.13339587242027
79.21402714932127
76.38113590263691
77.42139564289666
78.34076436599565
79.21761165663605
75.75007918910357
75.75007918910357
74.87323189846317
73.81789593008374
72.04184271500613
73.22505833611123
74.28039430449068
72.73107128708256
69.48034205436221
70.33702654634081
71.88634956374894
72.61953034178097
71.4901185770751
73.5877616747182
75.7989417989418
73.37469937469938
70.22172030867684
67.2773594064212
70.25332596859465
72.46450609281825
74.25302283922973
72.66904063678257
73.6108395785815
72.06151656117339
83.54538752891531
75.58881026199323
74.66132437402102
53.728698812567366
58.787433181646556
62.72645457333576
72.17520916704748
86.17636590504632
112.53898712161994
116.27124518613607
107.66242584047461
85.64937190711838
80.96999046381941
66.34512559895455
69.12215701823949
74.48615384615384
89.50642781875658
88.05665406310047
77.35953867848508
62.06004901960784
52.66890287042652
77.05832594734959
87.93475093594968
98.277768742885
90.57584566596194
97.15040106951871
78.93246007012075
81.15746007012075
74.87510712894428
78.67899159663864
75.44262796027502
81.26973793469955
95.20075511769217
79.39525828893953
76.54399970770382
79.6797961354014
82.36489984376092
85.21615842499662
81.61152968825603
90.47354960290753
83.51702786377709
85.48026315789474
88.78676470588235
93.65162957074722
90.36113661300074
89.90589364624881
91.99755052051438
93.32480818414321
90.84828644501277
85.62670446491849
78.48766703176341
72.97540896724729
71.79219334614217
75.25972581367463
83.2485056173212
90.10854618527252
93.32480818414322
90.84828644501277
74.69366459627328
58.77939637826961
48.71318948171789
62.71632059717777
78.63058881518145
91.1733174508636
91.99755052051438
78.54922550269542
79.00446846944735
78.18023539979656
89.15203867848508
80.70801590808661
74.17114619080301
69.42447952413634
71.58614935335835
75.90071978158352
81.03225131311504
85.56950621507583
87.3963963963964
85.91614691614691
79.21722218496413
73.0757615754184
65.4689239685808
60.75759228950717
59.18270288567318
70.36144684702583
75.57756406314304
89.44544265428084
81.96144838767788
81.70631221949824
75.95019274947803
70.5793601922048
75.84196888785698
76.66620195750775
84.61328753005839
79.35067883440622
65.82431132703643
63.24805831175902
56.09081738335103
64.6620896131732
68.57417752526112
77.35123645164684
65.74081202871312
66.83619664409773
71.66565400843882
110.24422764227641
109.86949080017115
109.06768899836936
84.35474340737498
80.80120438741129
77.0657512872523
73.68113590263692
74.25882352941176
74.25882352941176
75.6873949579832
78.29824293353704
80.9090909090909
71.66233766233765
75.33384262796027
73.02215431627197
82.57527589348992
79.2687743455023
81.94546607482562
85.07539118065432
81.80733732508517
76.91946547153827
70.77800486199254
64.04249047492121
76.42509917057338
80.40169491525423
90.04025974025973
81.47823442380404
79.90764618850993
75.38477775259801
71.07020732437286
69.41332303219444
69.92926506117993
72.04307010818637
75.2705426356589
78.92182468694097
80.45498575498576
77.22751322751321
72.09289784289783
68.20673799884325
67.45761478163493
70.0448240839605
74.26061355764472
76.37441860465115
74.26061355764472
69.1363711334023
67.2669037665606
67.2669037665606
68.1753567171188
68.1753567171188
69.18528579513298
72.74985575662208
76.4821138211382
78.48372024684102
75.1583440143553
71.93087148688275
66.34687512407302
73.29013753542054
74.65481936521866
82.24413570925199
78.31240880162146
75.49581805599692
75.86082147363192
70.27682511082217
72.52893382684842
72.52893382684842
77.50740219532788
81.33993808049536
80.27264960614492
82.18121252498335
78.91315866941419
75.34771145839736
72.30973677485305
71.47252747252747
73.73493975903614
77.84020291693088
81.94546607482562
83.24850099933377
78.36062914578687
73.47275729223996
69.90731008122313
69.65766071235916
71.27747871033692
74.17532160817981
76.94251943173208
76.37803740213377
73.48019450429088
71.74525474525474
73.84289784289783
77.40834505391467
79.14328481295081
76.77291444258044
73.20746723156361
71.74525474525474
74.11562511562511
76.07166907166906
76.07166907166906
72.42470295661784
69.48034205436221
68.94094811496825
71.64611528822054
74.8968445209409
76.29292295231345
74.86435152374202
73.12941176470588
72.0
72.27272727272727
73.40213903743314
76.78675442204855
79.21402714932125
79.51318681318682
75.6010989010989
72.11849020544673
71.81933054158118
75.38477775259801
78.21616693605506
77.92396447367476
74.61932312346377
72.57054263565891
71.46666666666665
73.46827309236947
76.85288847698486
79.81955514365151
79.51318681318682
75.86190476190475
72.63443223443223
71.47858807858806
72.58246404758032
75.15871706285773
78.6262495303902
80.82701491160893
79.61544372612963
75.87518398586988
72.57054263565891
72.28505747126437
72.28505747126437
73.38893344025661
76.5774690425853
79.96208442720071
80.25428688958101
75.48176908480514
70.34715370018975
69.21774193548387
98.34756097560975
117.97991391678622
118.81712321911179
93.0899326138724
80.46785364529867
83.73590750086782
89.24613414542284
83.45838764534759
86.30964622658328
74.57999260788431
72.90338350270378
67.37543319214478
70.9578231292517
71.41190476190476
68.23333333333332
67.22340425531914
68.70673758865247
71.29394689097805
75.60851731920322
79.61544372612963
83.25823442380404
81.64883116883117
76.15857142857143
70.40197568389058
68.19079555966698
69.94079555966698
71.76911544227886
74.28666389696717
77.32463858051148
82.43958110924711
83.40464135021097
79.09007092198581
72.1468085106383
70.28401781296387
73.9309839280151
78.94783941295569
80.8106301106301
77.65765104460756
71.93800986104885
67.961414116368
68.4773561453535
71.58614935335835
74.59768485707535
79.34435152374202
84.72922547332185
89.50857142857141
89.13383458646615
81.83694017652827
75.05598779557589
72.6856643967173
76.85288847698486
81.9844200085164
83.28745493302455
78.62624380372831
71.78199749556448
67.961414116368
70.6665812896203
76.03057811753465
82.07346078578955
84.38514909747786
81.55225785079351
75.25972581367465
70.73685737776273
72.8851332398317
78.02265446224256
83.28526315789472
82.32020291693087
77.43233106338397
70.74824943073091
69.28603694442204
69.54117311260168
72.29697888318577
73.15366337516438
77.78639906053165
80.619290307216
82.52785322605442
79.55200183286557
76.16738644825018
74.55798319327731
76.46654611211574
80.57180927001048
82.52785322605442
80.91844997108154
76.54652014652015
73.7136288998358
75.32303215480867
78.62767350501964
79.50452079566004
76.19987944544906
72.12964669738864
70.97380254154447
73.6108395785815
77.68107232664194
78.8369164824861
76.19987944544906
71.64611528822054
69.69007133217659
70.22946527157052
72.58246404758032
75.80993657505284
79.27746904258532
81.14025974025972
78.712987012987
73.69613152804641
70.21352283239425
70.49251969759801
74.46911544227885
78.63633952254642
79.81955514365153
75.60376566996732
77.88581695201859
85.52587719298245
90.07964135021098
81.98873225930188
75.99834764391727
63.10606832461137
61.6812541450802
54.639495903321965
69.35866540394841
77.31298516561674
83.6701280227596
85.76178489702517
81.92924901185769
80.96418877089384
76.7076670317634
80.54020291693087
77.52866741321387
72.6245857805608
66.09508019842366
66.58906724745233
68.01054018445323
71.86335403726709
74.69474322072413
76.02907605430734
73.81789593008374
70.25332596859465
68.1858123569794
68.7017543859649
69.69007133217659
72.33527257056667
75.63991392077766
78.21616693605506
77.08675517134918
73.2661717921527
70.43478260869566
70.98650674662669
73.504055201315
77.32463858051148
78.50785420161658
75.4963186978996
71.67573531870312
69.1581868640148
70.98650674662669
71.50244877561218
74.0199972303005
77.2085328326292
79.52397998710076
77.78904022806461
71.40878048780488
66.72
64.74061855670104
68.51003032140692
72.57860174997835
75.39519249560288
74.53850800362427
72.58246404758032
72.58246404758032
73.73830820342448
74.53850800362427
72.18550922761449
68.77755635574408
67.72222038736464
70.36742162575474
74.08174282808984
75.41607566167306
73.01006815228632
70.24287032873406
68.90853749515085
71.31454500453758
74.71717343942407
76.62919389978212
73.74978213507625
69.62941176470588
67.46774193548387
70.95268169452001
73.25440583245104
73.75919136949464
70.50846213677428
68.92447993432712
69.18528579513298
72.43601502785334
76.16827309236947
77.86351118760757
75.86190476190475
72.37929606625258
71.22345191040843
71.76284584980236
75.24545454545454
77.67272727272726
79.44878048780487
75.47218474312402
71.49558899844317
69.18014184397163
69.42447952413634
69.18528579513298
69.18528579513298
72.26632434745399
74.91152558584409
74.39558355685858
70.36742162575473
68.4554011653967
70.07521916337444
74.42497097704377
77.25636016050082
76.69187813090251
72.80571828684793
69.72467973452693
68.41969439728354
69.40801134349522
70.71299668073861
74.44525474525474
76.7076670317634
76.43493975903614
72.70268169452001
69.93548387096774
70.20821114369501
71.5131964809384
73.09717868338558
75.19482178102868
78.66235424856114
81.49524549524548
79.3976023976024
73.90734265734265
69.24613152804642
70.10281602002503
73.58775577906117
75.1370787964693
72.25766703176342
69.24613152804642
69.52512839325018
73.32390888105506
76.33544438477205
76.05644751956828
74.00766703176342
72.8244514106583
74.9220945083014
76.65703426733754
76.94251943173208
70.3499268391395
63.68641565153193
81.56920634920635
91.87593561368209
94.60042540960046
78.91840009314475
72.30642052341871
75.93907358464321
74.63603866013504
74.63603866013503
77.31273038945835
79.68305378831693
86.29503335804299
74.37158838196643
71.69489665264314
69.35064935064935
82.42910514143391
85.86539857772735
75.49099249600418
73.26869320694576
72.88382834208088
83.25823442380404
83.60487512487512
79.12487512487513
74.35235732009926
71.24046920821114
72.07767851053671
74.844876334089
77.27214906136172
81.299804623901
84.82513883746759
85.86539857772735
79.96827564834635
74.18052914827108
73.14026940801133
78.2777906304222
83.28526315789472
82.32020291693087
76.69915028535192
71.6916777578794
69.95673799884325
74.85714285714286
80.64488935721812
85.12488935721811
84.77824865614704
81.25291444258045
79.14328481295081
76.94251943173208
73.93098392801508
69.35653192499166
67.24272687798523
69.94789405123751
72.70369982182162
74.25302283922973
73.09717868338558
73.97402597402598
75.75007918910357
75.4773519163763
72.53299101412065
68.73421052631579
69.28593466424682
71.93113590263691
73.68113590263692
71.61362229102167
70.21754385964911
71.64611528822054
74.59047619047618
74.59047619047618
70.73766233766233
68.52648221343873
68.7931488801054
72.95233106338397
89.2904953145917
109.7904953145917
106.53976608187133
92.11362229102167
71.34695562435499
71.58614935335837
69.18014184397163
72.83142389525368
83.48301963993453
83.72735732009926
73.70859559402045
70.41810263627397
68.8103607007901
73.46512559895456
64.11848263437093
80.23216684489725
78.36249168442262
81.35796094008606
66.85201866504362
73.4010752688172
76.36774193548386
82.66027397260272
82.66027397260274
81.38884540117417
75.34596273291925
72.91869000564652
68.43129504766333
99.98313451254627
108.07404360345537
116.7995337995338
83.39030303030302
79.50666666666666
65.54588235294118
69.02309165526675
70.62759869752028
82.30633172919448
88.88088713275125
86.53663983075748
76.24002444614209
74.4949264069264
81.20627956989247
100.94586577678903
84.71316137427331
86.46493830155597
73.10987956718688
106.11069991173159
91.48306765698071
104.2139300149617
84.14951777663642
93.98552490676119
83.83091556405759
73.7658887051376
61.77230581743707
65.80803237188572
79.169355527102
89.41784037558685
86.71794871794872
83.42165242165242
81.13960113960114
81.86024891288048
86.90164324839247
88.77730183637982
92.08380338436744
89.15203867848508
79.30994652406417
69.47393939393939
65.54566353187043
66.86534579135851
80.30598165822389
85.83876456254637
89.6526246228075
85.15051689447026
78.79934318555007
90.45100887812751
85.06613492854768
100.16916523157798
94.48006111535521
111.2330022918258
105.25817711700063
130.95441771850437
116.11003946087223
112.91516766600043
86.78914839246448
86.45117370892018
74.29270376356499
63.80452699654082
57.255470392767236
71.15903837733812
82.5192298412392
87.49769820971866
85.75260017050297
82.90134158926728
83.50686958359753
76.80794485241475
71.92007299886784
71.61370466840313
76.386222473179
82.42910514143391
85.10579687075722
83.73590750086784
101.94230019493176
95.19703703703702
103.27827956989246
76.5494769808957
84.05434184576058
63.47285881266464
72.40166140166139
72.79707050939926
83.19966791199667
103.20741984998116
126.04470685298818
151.44639818491206
138.59956578715747
123.97568902207404
97.77379788995034
87.31658205342416
78.7077627077627
78.2029771707191
77.56754655938488
74.13125312309144
78.54812657222296
80.1978021978022
81.46923076923076
79.81955514365153
80.54020291693087
78.39192705486191
77.78639906053165
75.41607566167306
89.00720866659915
86.60120115721242
83.11626139817628
73.45340425531914
75.00272727272727
79.12309764309764
78.38335738335738
81.49524549524548
71.94377276267039
63.4467562656539
72.88972708793507
103.53749611680645
120.49764270407168
106.637798432659
86.55574715060773
77.05235732009925
82.56461538461538
74.95777777777778
76.3630409356725
75.62330067593226
84.32552289815447
82.92025974025972
88.04153846153845
86.59951314508277
87.6397728853425
82.88349758169878
82.54552289815447
94.36081871345029
92.62592592592593
120.6951566951567
94.92024630089146
99.0641616448068
68.84665501350706
81.76600985221674
76.08893344025661
79.27746904258532
80.68273220048005
83.9507860560492
85.4708002883922
78.3067136010857
96.63623305188662
92.21316838160946
98.65660729563662
73.79758226269854
66.18617941198588
101.62509343913518
108.15459902127233
113.17879256965944
78.09552289815447
75.41883116883116
76.9021645021645
74.59047619047618
63.12268907563025
65.4381362301018
65.13897656623625
76.91313201154689
76.29292295231346
81.67779690189327
85.60952380952381
87.21892706449668
85.18464135021097
78.24137893886345
77.57377462568951
70.88969299303645
85.63997294824361
88.93626924453991
94.17832556073729
82.75342183801584
78.21616693605506
75.45091952523802
76.78675442204855
81.74184969959617
85.94912242686891
83.6939188069594
77.60941176470588
71.37941176470588
70.52272727272727
70.52272727272727
73.10993657505284
72.57054263565891
73.99911406423034
75.53227513227512
78.16931216931216
77.29246487867177
74.65542784163472
71.5024487756122
70.95072463768116
74.60200668896321
78.76923076923077
84.8537378114843
80.94164989939637
79.60581500258587
69.48392478276224
67.37139731023478
68.36059150597421
65.0854746835443
73.80998172579783
71.32373118018455
88.54099308494645
87.32135090755779
88.5045665286629
79.15152876183204
73.75919136949464
71.75758494379184
71.47858807858806
75.0440352896049
74.78322942879905
75.63991392077766
74.97230960760372
78.19978213507625
78.80531012940651
74.68493975903614
72.2576670317634
71.9512987012987
76.40129870129869
76.4012987012987
74.1901185770751
69.97432910339089
70.25332596859465
73.73593466424683
76.98666389696717
77.56435152374202
74.08174282808986
74.71717343942407
74.42497097704377
73.00349804004287
69.35653192499166
68.79204989539335
75.10139468594116
77.80656185919344
78.37104388879175
73.73830820342448
73.14694607717863
71.52712807920088
88.35648739912622
99.11927809680066
126.75902964959567
117.41366459627329
104.29787512258909
95.32308520662268
116.46412444310201
127.35491391678622
101.77790448706014
112.50387292321508
127.67432746866962
150.9245395127748
120.46464646464646
91.69696969696969
76.97862344373972
73.47985194496823
82.96234813979318
84.17391932527248
79.58178173313487
74.59423503325941
72.81818181818181
74.59423503325942
78.06176750079189
83.87354727031814
85.93002994040799
82.74149433807929
79.35698729582577
73.73593466424683
83.63582342954159
81.48754756747263
72.52232438292899
58.80857555737309
57.474242723789885
85.83760832319419
101.30313407603276
102.3584700444122
91.88788180911808
100.18449197860963
104.77662957074722
94.51337971635002
78.11864287424474
74.6823494379513
76.751225890814
71.13017325923505
68.91899313501145
69.7016018306636
75.32265446224255
78.80526315789473
82.91052631578947
77.7730050933786
82.02952683250903
87.82902557937621
87.58468789921147
91.64455960270399
97.29535325349765
100.00052042674993
87.00474554082803
71.72191725799973
69.51073713377613
72.61953034178097
74.39558355685858
71.32913564873716
90.69972388403129
91.02131376659678
93.83811230585424
73.07144563918757
69.91846657316503
72.37929606625258
76.386222473179
79.21761165663605
78.06176750079189
73.53889906487997
70.21352283239423
70.49251969759801
72.70369982182162
75.10970733120834
74.55798319327731
71.61362229102167
70.21754385964911
70.21754385964911
74.43333333333332
76.74878048780488
76.4821138211382
71.80273237783923
68.72169382551823
67.95610242766878
69.15287517531557
70.1851332398317
70.95072463768116
73.78211382113821
76.8200885046825
78.51532659992061
75.68393741646356
71.13017325923505
67.9516018306636
70.46915028535193
73.41351118760757
77.86351118760757
78.49894179894179
76.80370370370369
73.07144563918757
71.25279940674824
61.95189850584734
72.88891847512537
62.48288970143274
68.99163373958854
52.73976439681011
60.614687589272734
78.50987475504813
77.54448219306465
88.38540209790209
68.7922817047817
79.48939708939709
63.85366507947153
73.09042183622829
91.15261496225119
92.66365061590145
103.02001425226509
79.59382429832782
89.72184705792952
70.66326119934368
76.02725802725803
62.529299637213306
68.18009328800696
76.39547790339157
83.9963133640553
83.69715370018974
74.79715370018974
79.9346749226006
79.9346749226006
83.31918196485414
79.2139188069594
89.10090048487646
123.74366616989568
119.52144394767345
111.5430251885948
70.81575246132209
72.18648953502945
68.11625678696902
68.11625678696902
73.33811230585424
77.75498575498575
78.59219505731133
74.70603521325674
68.68141982864137
71.94947368421052
78.72553713049747
80.83806460302495
73.67397791571844
67.88623141564317
69.84227537168712
73.45282303902994
72.94803750198633
69.31538444076185
67.73140223831467
70.49860006186695
74.75146218232489
77.83250073464589
75.31495227995758
90.34309486907577
87.01771863659005
89.8491078200471
73.90159650782991
74.14593418799463
69.03833017077798
65.92953696277314
62.924411849719164
63.55899295488851
63.78837439818748
69.25432900432901
73.10714285714286
73.82488479262673
69.97207093981288
63.78674275448469
60.5967785967786
69.97754276015145
82.61489653183358
89.20748912442617
82.25096738529574
72.62037037037037
69.98333333333332
72.03211382113821
76.4821138211382
77.87819225251076
71.07265500794912
73.23751987281398
79.98870512303348
82.32121945554782
79.19129434971909
70.52808863914154
72.6856643967173
72.08013640238704
75.23311546840958
76.92835356364768
75.01633310328963
72.64596273291926
74.25536598789213
75.0379746835443
73.05859324024533
68.50482908301682
68.50482908301682
70.75693779904306
72.27272727272727
71.4901185770751
69.7016018306636
70.25332596859465
71.58765880217786
72.3208395802099
68.917630293764
66.85011668214875
67.9054526505282
69.97432910339089
69.7401185770751
68.4351332398317
70.6463133640553
73.23352266638088
73.23352266638088
70.77269317329332
69.66881720430106
71.25279940674824
73.7136288998358
69.39847738468427
67.33096377306903
72.4166780587833
76.73182957393482
76.04353741496598
68.74664300502809
69.5650338096258
71.24164291480633
70.2742516104585
69.19505494505493
72.09289784289783
76.54289784289783
78.49894179894179
74.14918998527246
66.69243322851571
80.81941735549984
72.23276106294975
91.13237496256363
75.31015274034141
86.4279146141215
70.3056760279654
67.5135191652203
64.11030987877442
64.81309557739252
69.60685886584044
74.19328377339143
76.02160365600332
75.12387319929276
77.12919318051635
73.72598389407047
90.77112753292135
82.44904961084342
85.0338680926916
65.40151515151514
70.82054263565891
70.3046006066734
73.78954036570954
75.99030574692827
75.74065637806432
78.48571661902818
75.44774193548386
77.31720930232558
76.5774690425853
76.31080237591866
82.88535777947541
78.87843137254902
78.61762551174314
68.5658608058608
81.66011367942403
79.76334378265413
82.13667711598745
79.21385281385281
74.86390168970813
76.55913978494624
60.60395771211711
66.10155551582335
64.94571135997919
72.1255432927523
114.12941176470588
124.3082973952044
112.69787297227069
76.45060024499796
71.25926131437488
72.8892101428155
71.7938255274309
67.37076085715373
76.22182468694096
79.793731041456
69.78985507246377
66.93836992394891
63.36646356943386
77.3979951009654
89.62448024948026
92.32437190711838
90.15950704225352
94.92736418511066
98.21785714285713
92.05631868131867
89.51346153846153
76.67692307692306
91.15485498108447
85.22152164775115
92.42331984954936
86.66720037952913
86.66720037952913
89.01144768152292
89.41784037558685
87.13578909353558
85.91614691614691
83.28745493302455
84.0081027063039
86.09975958056947
89.14629193927868
80.2842720246272
75.37653077330164
71.9920237310481
80.8540436456996
83.28526315789472
88.4658601728201
94.81220991815118
105.16857355451481
105.6516129032258
94.16774193548386
84.59165227172296
89.70170011861292
87.67513465371728
92.86647358434035
78.36053130929791
79.90356536502546
64.69519570504289
71.81196081181255
72.80027775802424
89.76042434528947
97.14960151356226
95.92707404103479
84.56089351285189
96.76162790697674
100.88199827734711
103.08276365856584
80.10834505391466
77.47130801687763
73.65072463768115
70.42325211020862
72.42485853591144
75.9074672315636
79.13493975903614
78.82857142857142
72.09118825100133
67.18710661834827
71.4252018564435
78.84720041862899
83.42165242165242
77.75498575498575
74.37037037037037
70.72340425531914
69.94079555966698
69.6741288930003
74.6909843779409
77.2085328326292
77.47519949929588
71.75555831573718
68.50482908301682
69.34203838534239
71.8731439665724
72.11233769557576
68.01299247092008
65.71126833298905
67.26059135039716
73.22272727272727
77.02150776053215
73.89729533929003
80.05883380082848
103.68447191767476
102.31373484396738
97.55745954032366
82.89943437829547
84.91757496786462
89.17594817360624
81.54417011559869
81.10825174825175
62.349710926016655
64.225369514004
68.29394094257543
79.52605470349974
72.98918498621615
70.5283554931286
69.42447952413634
71.53828457114278
72.30387596899223
68.16687291088826
62.40109217999125
60.917758846657925
59.271008403361336
69.4598538045355
69.93325805985465
72.72154230559178
75.82490469662541
74.67725801706383
77.15678524374177
68.01054018445323
78.79841897233202
81.95139803835455
77.30791977748498
67.19428341384862
87.25869565217391
85.37228260869566
104.19920568561872
112.53365384615384
147.9437148217636
135.34679174484052
106.94793134598011
71.40850990525408
70.66876964551383
72.40366243303819
81.2740943267259
77.26716791979949
75.53227513227512
78.20896686159843
80.21057328730124
77.0575942212787
101.04989203899372
101.04989203899372
102.96191249935177
73.83209345922589
71.31454500453758
72.23391372763658
72.99950512548602
72.50551807645735
67.60525244013762
66.83966104228816
69.85119654600516
73.83209345922589
71.20720866659917
67.9564794338788
64.40282524493051
69.79490786110951
70.27843927027759
75.40268169452
70.01059907834102
69.06347569955817
71.22834056442304
74.61881675489923
76.33153153153151
70.43440860215053
67.04393241167435
66.52799038268884
68.111972585136
71.76911544227886
70.57234269463206
67.5963761324586
65.39229449980554
67.92340008103555
70.34764250527797
71.03593466424681
69.45195246179966
71.50073294960453
75.06530291109362
78.46793134598012
77.54856262288112
79.24004187533598
77.14239877769289
87.612987012987
81.44848484848484
77.91362165342747
73.72538635930982
78.19840927135712
77.99900673214876
85.42360566263004
75.31512368228785
82.88192530172105
67.51808913788489
74.30119488574135
63.56178538638319
69.75592458052239
67.77038440287315
65.99577162024897
59.80163242610978
52.66886388984115
57.81548709159864
62.08321935933091
71.69551512227747
104.35765104460756
92.5576898118105
96.04029850746267
71.12029850746268
82.56461538461538
79.59794871794871
108.84767844767845
98.68886951467596
98.95553618134264
66.65437788018434
69.20634920634922
72.5909645909646
74.20036784593748
80.47137055596457
74.02793164193741
79.85149541993157
80.840689615671
90.85603488421319
82.54622056060578
84.7685198496642
90.63958431743032
88.81126443481844
81.34690882956264
76.39991963759145
82.93678935487505
89.24613414542284
82.49494889520335
76.70720239512809
74.33687899626949
77.6874672315636
80.91493975903614
79.45272727272726
74.70606060606059
74.37643097643097
77.14167838724799
76.37608698939854
72.48992714534396
68.41969439728354
71.1868922208358
74.13125312309144
74.3809024919554
72.64596273291926
74.60200668896321
75.93633952254642
75.93633952254642
71.5194660734149
76.63440860215053
80.01902398676592
76.46946386946387
69.52620145811635
94.23914704911071
115.89788830785196
113.51734119538996
88.8043956043956
69.74809108417355
77.88523394131641
76.23555831573717
80.91493975903614
71.85312157721796
76.63246753246752
73.66580086580086
84.76190476190474
70.67838827838827
70.16244624940276
62.3715647904362
68.42500608598276
68.6801422541624
71.69167775787939
72.67999470409109
72.42485853591144
68.0499187768753
66.37330967169476
67.70764250527797
68.83185303159377
68.18444951573197
65.65334393450196
67.44186068091345
68.31396438612933
67.6533458294283
64.32179502728926
66.5739037433155
70.94884350235164
73.22505833611123
70.97294962008499
74.10287472591372
76.01489518627177
74.53273816803228
76.18215901745312
98.51941391941389
97.94356920338225
86.50071206052512
59.57250693232
85.0566986205284
88.70867430441896
104.997798972854
90.96275516809806
86.65314401622717
74.0982850820579
63.224981914637084
59.14675928098745
67.23766837189655
74.43946657369474
99.65945165945166
91.29581529581529
83.70649895178197
76.51457975986277
74.31049812720971
80.52992510135365
70.65049926403309
76.59484063694589
78.32973342447025
79.0629142025023
74.79518193477003
66.46769655465307
67.52303252303251
72.15576820839979
68.80875966139124
84.09158794421953
83.37094017094017
82.76239316239317
84.28376068376068
84.63940503940503
92.03457412153064
77.65765104460756
78.02265446224256
75.54312723556463
70.20312723556464
65.57039155019737
81.03591730303594
122.49944671480064
119.76478331994308
119.1613934894346
71.81612494723511
76.20767263427109
79.44403627063473
94.05028244332303
117.46632522407168
104.3649013467442
90.71116353525991
63.741466565562945
59.80244517387374
61.17167594310451
74.04753127057273
73.82737047898338
78.75077473430252
62.55557208748698
59.88246937898604
66.41933909626962
90.04528178103584
97.84262691377918
96.3226126814362
79.27746904258531
78.6262495303902
64.66663495142078
62.0794256490952
64.8955100261552
79.97972972972973
83.7785102175346
78.91364535266973
72.29878048780488
69.98333333333332
86.28522012578615
87.50774759831361
89.20298569355172
83.91749234372185
82.69496487119437
87.35090048487646
78.70487741262389
93.28246361952044
99.40134640777539
108.04736948002798
113.10213621430788
117.20063317625224
108.55461010399965
121.44148793205397
131.996743996744
131.36131338540977
106.67658965843252
81.24801822986109
87.39367548575032
78.45768329498195
75.04973042311155
64.31764825967133
73.25364045043969
65.76363413863663
65.55629575773972
56.62030356697134
71.34996529467611
79.27365368895275
86.99000370233247
107.40414833438089
133.3085142387468
134.11031604054858
113.3007623007623
87.3963963963964
81.20225720225719
83.29391407652275
82.16930895191763
80.05678147939017
78.36053371286248
74.89300124533
78.96157267390143
76.739273384843
78.20148587115187
77.61012374490602
74.57214906136173
72.57054263565891
73.16190476190476
86.63558897243107
89.94023032264205
90.24659865310676
73.31137598104198
67.42191614898282
66.81638815465256
91.72473512682932
88.08441699665565
79.51314476683349
56.78974051151434
62.24928572568673
74.95142016340576
78.59838627845697
79.6306443429731
75.7989417989418
66.51657142857142
63.457747899159656
55.537373191899704
63.00109732983074
71.32019483184524
75.38775568629134
71.37449308682184
65.84755244755243
95.12893772893773
95.32834026814608
94.31841119013191
73.12793499965571
87.40646436460875
84.46083788706738
77.7619131558846
79.57310592015821
95.9987179728889
114.10789911432809
119.162665848608
105.9270179535834
89.68730417898591
84.00834106831792
81.57906067129558
86.40851803563666
75.33453996983408
108.19607843137254
124.96419437340153
148.3802371541502
117.46444768046598
99.50966507177031
80.63087719298244
110.24422764227641
122.06611443472923
110.97336081154083
82.60913316926441
66.30724637681158
75.1179487179487
98.85128205128204
91.28205128205127
81.26328955597246
84.65376574644867
96.32825967357417
107.44240601503759
85.84553713049746
91.11527397260274
77.7842101428155
86.6667933130699
100.75845997973656
101.43174603174602
102.1252525252525
87.02222222222221
120.87441860465114
96.87138830162085
113.05320648343903
87.1121212121212
98.013727637824
67.88206619581774
65.724490438242
66.35992104957623
82.9625213887509
76.75367028781346
78.12355965770283
70.84742595533962
81.21545923955561
78.90377092786731
72.95942955495451
76.08935466078323
86.26078323221179
86.94907539118066
86.56421052631578
99.50966507177031
104.06342922899884
102.96804461361424
82.9025900681597
80.70182468694097
100.78387596899223
92.26649279142214
88.5777983405817
78.58481588444135
100.50455200318792
106.39401183524708
91.64373188003992
86.58896514576
105.98577307091136
147.98964154286494
135.43478260869566
118.66666666666666
75.96001249609498
88.51487143026425
92.22320476359758
84.93362068965517
77.36630845536135
70.36167882573173
69.50077421310297
60.01827801827802
71.79076479076478
88.43492063492063
86.75883777239707
81.99098062953995
65.25734007654455
83.98323136818688
71.14669290664841
85.47131090325283
88.94561148880909
115.87381661701421
128.0704402515723
121.67331536388139
102.31191185510946
83.15853991414178
69.59663515223701
82.56829507126535
75.6597802197802
78.28466501240693
66.4680159080866
81.48828988068934
101.24054794520546
125.38027397260272
135.67555555555555
118.69049531459169
103.43335245744883
84.22065404475042
109.34285714285714
98.23797468354431
126.44057208614171
94.320271334262
93.33107713852257
66.80624114976906
86.90576268086954
82.6529005604116
88.3725417439703
76.57415279115098
78.51156775713737
76.19987944544906
75.53227513227512
70.70159666619844
85.57491203007983
85.90454165970945
91.55361093038385
74.46911544227886
71.24164291480633
70.68991877687529
73.52130796033234
77.08675517134918
78.51532659992061
76.46654611211574
71.91278195488721
70.21754385964911
71.05475316197469
71.53828457114278
70.28916176412523
67.47257101850069
70.23976884205295
71.22808578826465
72.67999470409109
68.96567350175596
67.7431460292285
67.48800986104885
70.3046006066734
70.5388111329892
75.4266829865361
66.29535603715169
64.75232198142413
59.13126934984519
63.96384853536555
71.50267206477731
67.27487179487179
93.17119286510591
115.54833572224877
127.80621118012422
106.20863787375414
76.50000986809644
82.18911398431919
84.38987936553792
80.19374546643373
76.85189409746371
86.01730924442788
104.66492829204692
105.17838983050846
103.99139344262295
82.92200568752091
77.28726542778065
64.5208719851577
78.47025974025973
71.87851485148514
73.10104232401261
67.83843362836043
68.48583714422223
71.38368004206512
77.83295540438397
84.51703703703703
84.84666666666666
79.73172413793102
75.25172413793103
65.10986367281475
66.6069200226886
67.44412932501417
75.43771392806148
78.64920741285935
76.53540236585292
79.02165291146619
75.4963186978996
77.61012374490602
70.16847933659108
75.39006131668538
75.98142344293122
86.05175983436853
76.67099567099567
80.1072891072891
73.16402669594159
104.988269120184
117.20032733224221
119.60633484162894
92.57670521199931
77.23472189411238
71.52349194758833
72.19109626076227
68.70615650172613
74.41738644825018
73.11435152374202
76.9131320115469
75.78372024684101
72.29878048780488
68.73421052631579
80.93760035682425
76.78929527207849
77.52247605011053
62.46760107108721
66.61590615583297
67.67124212421241
95.06818181818181
114.70053475935828
113.64519879097882
86.89566261287123
66.16182452317992
63.482894757293614
70.55184125481154
72.12673065864554
93.47062206136047
89.15748133442663
97.39059881823792
83.2485056173212
78.11496329757199
70.12618349392542
92.06034235831684
112.94404733258784
105.4545662666692
74.03655791842829
57.73467112597547
63.832167832167826
64.9939393939394
68.03191407748369
76.97044221601183
81.28559373116335
76.73182957393482
71.64611528822054
73.34135338345865
75.4088669950739
73.98029556650246
72.55172413793103
74.37037037037037
76.74074074074073
73.47860481841063
74.84849418830001
89.55504689485271
108.37273837273837
113.49401709401708
87.89535488665923
93.78660784174197
84.92506938020351
110.52373158756136
126.10549450549448
125.57802197802195
106.52171745779992
67.51376458592952
69.46980854197349
73.81956035564284
83.21070650482415
109.87969605186247
135.60688665710185
