2022-12-01 14:18:16.052680, 1.64712
2022-12-01 14:18:16.060179, 1.64712
2022-12-01 14:18:16.072856, 1.64223
2022-12-01 14:18:16.081825, 1.64223
2022-12-01 14:18:16.088757, 1.64712
2022-12-01 14:18:16.097720, 1.64712
2022-12-01 14:18:16.109397, 1.64712
2022-12-01 14:18:16.117342, 1.65200
2022-12-01 14:18:16.126311, 1.65689
2022-12-01 14:18:16.137875, 1.67155
2022-12-01 14:18:16.146037, 1.68133
2022-12-01 14:18:16.154274, 1.68133
2022-12-01 14:18:16.162382, 1.68133
2022-12-01 14:18:16.175033, 1.65200
2022-12-01 14:18:16.182980, 1.65200
2022-12-01 14:18:16.191895, 1.65200
2022-12-01 14:18:16.204539, 1.65200
2022-12-01 14:18:16.212207, 1.65200
2022-12-01 14:18:16.221509, 1.65200
2022-12-01 14:18:16.228871, 1.65200
2022-12-01 14:18:16.241713, 1.65200
2022-12-01 14:18:16.248850, 1.64712
2022-12-01 14:18:16.257102, 1.64712
2022-12-01 14:18:16.269634, 1.64712
2022-12-01 14:18:16.277852, 1.64223
2022-12-01 14:18:16.286218, 1.64223
2022-12-01 14:18:16.294503, 1.64223
2022-12-01 14:18:16.306489, 1.64223
2022-12-01 14:18:16.314474, 1.64712
2022-12-01 14:18:16.323627, 1.65200
2022-12-01 14:18:16.335111, 1.66667
2022-12-01 14:18:16.343146, 1.67644
2022-12-01 14:18:16.351079, 1.65200
2022-12-01 14:18:16.360328, 1.65200
2022-12-01 14:18:16.372801, 1.65200
2022-12-01 14:18:16.380388, 1.64712
2022-12-01 14:18:16.389145, 1.64712
2022-12-01 14:18:16.400212, 1.64712
2022-12-01 14:18:16.408874, 1.64712
2022-12-01 14:18:16.416851, 1.64712
2022-12-01 14:18:16.424824, 1.65200
2022-12-01 14:18:16.436783, 1.65200
2022-12-01 14:18:16.445702, 1.65200
2022-12-01 14:18:16.453730, 1.65200
2022-12-01 14:18:16.461520, 1.64712
2022-12-01 14:18:16.473704, 1.65200
2022-12-01 14:18:16.482671, 1.65200
2022-12-01 14:18:16.490313, 1.65200
2022-12-01 14:18:16.502777, 1.66178
2022-12-01 14:18:16.510748, 1.63734
2022-12-01 14:18:16.518859, 1.63245
2022-12-01 14:18:16.526831, 1.63245
2022-12-01 14:18:16.539787, 1.62757
2022-12-01 14:18:16.547763, 1.63245
2022-12-01 14:18:16.557059, 1.63734
2022-12-01 14:18:16.568689, 1.64223
2022-12-01 14:18:16.576034, 1.64712
2022-12-01 14:18:16.584859, 1.65200
2022-12-01 14:18:16.593071, 1.65200
2022-12-01 14:18:16.605875, 1.65200
2022-12-01 14:18:16.613753, 1.65200
2022-12-01 14:18:16.621729, 1.65689
2022-12-01 14:18:16.634175, 1.66178
2022-12-01 14:18:16.642091, 1.67644
2022-12-01 14:18:16.650066, 1.65200
2022-12-01 14:18:16.658865, 1.65200
2022-12-01 14:18:16.670045, 1.66178
2022-12-01 14:18:16.678955, 1.65200
2022-12-01 14:18:16.687363, 1.65200
2022-12-01 14:18:16.699508, 1.65200
2022-12-01 14:18:16.708109, 1.65200
2022-12-01 14:18:16.716016, 1.66667
2022-12-01 14:18:16.724161, 1.65200
2022-12-01 14:18:16.736567, 1.65200
2022-12-01 14:18:16.744491, 1.65689
2022-12-01 14:18:16.752943, 1.64712
2022-12-01 14:18:16.764867, 1.65200
2022-12-01 14:18:16.773435, 1.65200
2022-12-01 14:18:16.781669, 1.65200
2022-12-01 14:18:16.789088, 1.66178
2022-12-01 14:18:16.801433, 1.67155
2022-12-01 14:18:16.810365, 1.67644
2022-12-01 14:18:16.818340, 1.64712
2022-12-01 14:18:16.830176, 1.65200
2022-12-01 14:18:16.839146, 1.65200
2022-12-01 14:18:16.847119, 1.65200
2022-12-01 14:18:16.855093, 1.65200
2022-12-01 14:18:16.867052, 1.65200
2022-12-01 14:18:16.875025, 1.65200
2022-12-01 14:18:16.883185, 1.64712
2022-12-01 14:18:16.895464, 1.64712
2022-12-01 14:18:16.904332, 1.65200
2022-12-01 14:18:16.912285, 1.64712
2022-12-01 14:18:16.920977, 1.64712
2022-12-01 14:18:16.932405, 1.64712
2022-12-01 14:18:16.941311, 1.65200
2022-12-01 14:18:16.949397, 1.65200
2022-12-01 14:18:16.961270, 1.65200
2022-12-01 14:18:16.969459, 1.65200
2022-12-01 14:18:16.977363, 1.65200
2022-12-01 14:18:16.986389, 1.66178
2022-12-01 14:18:16.998293, 1.67644
2022-12-01 14:18:17.007588, 1.67644
2022-12-01 14:18:17.015367, 1.65200
2022-12-01 14:18:17.027372, 1.64712
2022-12-01 14:18:17.035626, 1.64712
2022-12-01 14:18:17.043906, 1.64712
2022-12-01 14:18:17.052778, 1.64712
2022-12-01 14:18:17.063626, 1.64712
2022-12-01 14:18:17.072044, 1.64712
2022-12-01 14:18:17.080083, 1.64712
2022-12-01 14:18:17.092969, 1.65200
2022-12-01 14:18:17.100945, 1.65200
2022-12-01 14:18:17.109547, 1.65200
2022-12-01 14:18:17.117848, 1.64712
2022-12-01 14:18:17.130014, 1.64712
2022-12-01 14:18:17.138195, 1.65200
2022-12-01 14:18:17.146324, 1.65200
2022-12-01 14:18:17.158413, 1.65689
2022-12-01 14:18:17.167132, 1.67155
2022-12-01 14:18:17.174980, 1.64712
2022-12-01 14:18:17.183237, 1.64712
2022-12-01 14:18:17.195328, 1.64712
2022-12-01 14:18:17.204288, 1.64712
2022-12-01 14:18:17.211711, 1.65200
2022-12-01 14:18:17.224148, 1.65200
2022-12-01 14:18:17.232120, 1.65200
2022-12-01 14:18:17.239877, 1.65200
2022-12-01 14:18:17.248500, 1.64712
2022-12-01 14:18:17.260605, 1.64712
2022-12-01 14:18:17.269256, 1.64712
2022-12-01 14:18:17.277285, 1.64712
2022-12-01 14:18:17.284998, 1.64712
2022-12-01 14:18:17.297966, 1.64712
2022-12-01 14:18:17.306202, 1.64712
2022-12-01 14:18:17.314361, 1.65200
2022-12-01 14:18:17.326322, 1.65200
2022-12-01 14:18:17.334605, 1.65200
2022-12-01 14:18:17.342719, 1.65200
2022-12-01 14:18:17.351103, 1.65200
2022-12-01 14:18:17.363276, 1.65200
2022-12-01 14:18:17.372187, 1.65689
2022-12-01 14:18:17.378971, 1.66178
2022-12-01 14:18:17.392676, 1.67644
2022-12-01 14:18:17.400226, 1.67644
2022-12-01 14:18:17.409061, 1.64712
2022-12-01 14:18:17.416525, 1.64712
2022-12-01 14:18:17.428489, 1.64712
2022-12-01 14:18:17.437632, 1.64712
2022-12-01 14:18:17.445023, 1.64712
2022-12-01 14:18:17.457552, 1.64712
2022-12-01 14:18:17.465568, 1.64712
2022-12-01 14:18:17.474002, 1.65200
2022-12-01 14:18:17.481759, 1.64712
2022-12-01 14:18:17.494044, 1.65200
2022-12-01 14:18:17.502171, 1.65200
2022-12-01 14:18:17.510644, 1.66178
2022-12-01 14:18:17.522577, 1.66667
2022-12-01 14:18:17.530629, 1.65200
2022-12-01 14:18:17.538986, 1.66667
2022-12-01 14:18:17.546960, 1.65200
2022-12-01 14:18:17.559655, 1.65200
2022-12-01 14:18:17.567683, 1.64712
2022-12-01 14:18:17.576314, 1.64712
2022-12-01 14:18:17.589050, 1.64712
2022-12-01 14:18:17.596939, 1.64712
2022-12-01 14:18:17.605637, 1.65200
2022-12-01 14:18:17.612854, 1.65200
2022-12-01 14:18:17.626109, 1.65200
2022-12-01 14:18:17.633603, 1.66667
2022-12-01 14:18:17.641615, 1.67155
2022-12-01 14:18:17.653349, 1.65689
2022-12-01 14:18:17.662263, 1.65200
2022-12-01 14:18:17.670362, 1.65200
2022-12-01 14:18:17.678662, 1.65200
2022-12-01 14:18:17.690936, 1.65200
2022-12-01 14:18:17.698490, 1.65200
2022-12-01 14:18:17.706753, 1.64712
2022-12-01 14:18:17.719102, 1.64712
2022-12-01 14:18:17.727874, 1.64712
2022-12-01 14:18:17.735853, 1.64712
2022-12-01 14:18:17.743824, 1.64712
2022-12-01 14:18:17.756123, 1.64712
2022-12-01 14:18:17.764095, 1.64712
2022-12-01 14:18:17.772783, 1.64712
2022-12-01 14:18:17.784549, 1.64712
2022-12-01 14:18:17.792521, 1.64712
2022-12-01 14:18:17.801157, 1.64712
2022-12-01 14:18:17.809598, 1.64712
2022-12-01 14:18:17.822015, 1.65200
2022-12-01 14:18:17.830312, 1.65200
2022-12-01 14:18:17.838287, 1.65689
2022-12-01 14:18:17.850210, 1.67644
2022-12-01 14:18:17.858183, 1.65200
2022-12-01 14:18:17.867153, 1.65200
2022-12-01 14:18:17.875191, 1.65200
2022-12-01 14:18:17.887152, 1.64712
2022-12-01 14:18:17.895759, 1.64712
2022-12-01 14:18:17.903795, 1.64712
2022-12-01 14:18:17.915693, 1.64712
2022-12-01 14:18:17.924600, 1.64712
2022-12-01 14:18:17.932620, 1.64712
2022-12-01 14:18:17.940086, 1.65200
2022-12-01 14:18:17.953004, 1.64712
2022-12-01 14:18:17.960970, 1.65200
2022-12-01 14:18:17.969639, 1.65200
2022-12-01 14:18:17.981557, 1.65200
2022-12-01 14:18:17.990151, 1.65689
2022-12-01 14:18:17.998506, 1.67155
2022-12-01 14:18:18.006511, 1.67644
2022-12-01 14:18:18.018530, 1.64712
2022-12-01 14:18:18.026446, 1.64712
2022-12-01 14:18:18.034856, 1.64712
2022-12-01 14:18:18.047020, 1.64712
2022-12-01 14:18:18.055051, 1.65200
2022-12-01 14:18:18.063857, 1.64712
2022-12-01 14:18:18.071871, 1.64712
2022-12-01 14:18:18.084220, 1.64712
2022-12-01 14:18:18.092147, 1.64712
2022-12-01 14:18:18.100208, 1.64712
2022-12-01 14:18:18.112099, 1.64712
2022-12-01 14:18:18.121480, 1.64712
2022-12-01 14:18:18.129434, 1.65200
2022-12-01 14:18:18.137409, 1.65200
2022-12-01 14:18:18.149431, 1.65200
2022-12-01 14:18:18.158005, 1.65200
2022-12-01 14:18:18.166048, 1.65200
2022-12-01 14:18:18.173845, 1.67644
2022-12-01 14:18:18.186801, 1.67644
2022-12-01 14:18:18.194774, 1.64712
2022-12-01 14:18:18.202980, 1.64712
2022-12-01 14:18:18.215013, 1.64712
2022-12-01 14:18:18.223093, 1.64712
2022-12-01 14:18:18.231021, 1.64712
2022-12-01 14:18:18.239421, 1.64712
2022-12-01 14:18:18.252290, 1.64712
2022-12-01 14:18:18.260262, 1.64712
2022-12-01 14:18:18.268464, 1.64712
2022-12-01 14:18:18.279972, 1.64712
2022-12-01 14:18:18.288933, 1.64712
2022-12-01 14:18:18.297322, 1.64712
2022-12-01 14:18:18.305324, 1.64712
2022-12-01 14:18:18.317315, 1.64712
2022-12-01 14:18:18.325237, 1.64712
2022-12-01 14:18:18.334196, 1.65200
2022-12-01 14:18:18.346226, 1.65200
2022-12-01 14:18:18.354132, 1.65200
2022-12-01 14:18:18.362803, 1.66667
2022-12-01 14:18:18.370778, 1.67155
2022-12-01 14:18:18.382793, 1.64712
2022-12-01 14:18:18.391537, 1.64712
2022-12-01 14:18:18.399563, 1.64712
2022-12-01 14:18:18.411513, 1.64712
2022-12-01 14:18:18.420048, 1.64712
2022-12-01 14:18:18.428020, 1.64712
2022-12-01 14:18:18.436332, 1.64712
2022-12-01 14:18:18.448653, 1.64712
2022-12-01 14:18:18.456850, 1.64712
2022-12-01 14:18:18.465110, 1.64712
2022-12-01 14:18:18.477084, 1.65200
2022-12-01 14:18:18.485063, 1.64712
2022-12-01 14:18:18.493987, 1.65200
2022-12-01 14:18:18.501935, 1.65200
2022-12-01 14:18:18.513739, 1.65689
2022-12-01 14:18:18.521700, 1.67155
2022-12-01 14:18:18.529963, 1.64712
2022-12-01 14:18:18.542873, 1.64712
2022-12-01 14:18:18.550467, 1.64712
2022-12-01 14:18:18.558926, 1.64712
2022-12-01 14:18:18.566961, 1.64712
2022-12-01 14:18:18.579716, 1.64712
2022-12-01 14:18:18.587705, 1.64712
2022-12-01 14:18:18.596367, 1.64712
2022-12-01 14:18:18.608001, 1.64712
2022-12-01 14:18:18.615973, 1.64712
2022-12-01 14:18:18.624871, 1.64712
2022-12-01 14:18:18.632905, 1.65200
2022-12-01 14:18:18.644512, 1.65200
2022-12-01 14:18:18.653194, 1.65689
2022-12-01 14:18:18.661172, 1.66667
2022-12-01 14:18:18.673578, 1.65200
2022-12-01 14:18:18.681482, 1.65200
2022-12-01 14:18:18.690450, 1.65200
2022-12-01 14:18:18.698451, 1.65200
2022-12-01 14:18:18.710384, 1.65200
2022-12-01 14:18:18.718857, 1.64712
2022-12-01 14:18:18.727226, 1.64712
2022-12-01 14:18:18.738775, 1.64712
2022-12-01 14:18:18.747460, 1.64712
2022-12-01 14:18:18.755433, 1.64712
2022-12-01 14:18:18.763407, 1.64712
2022-12-01 14:18:18.776125, 1.64712
2022-12-01 14:18:18.784568, 1.64712
2022-12-01 14:18:18.792727, 1.65200
2022-12-01 14:18:18.805051, 1.65200
2022-12-01 14:18:18.812996, 1.67155
2022-12-01 14:18:18.821440, 1.67644
2022-12-01 14:18:18.829387, 1.65689
2022-12-01 14:18:18.841863, 1.64712
2022-12-01 14:18:18.849977, 1.64712
2022-12-01 14:18:18.857809, 1.65200
2022-12-01 14:18:18.870230, 1.65200
2022-12-01 14:18:18.878874, 1.64712
2022-12-01 14:18:18.887052, 1.64712
2022-12-01 14:18:18.894781, 1.64712
2022-12-01 14:18:18.906909, 1.65200
2022-12-01 14:18:18.915280, 1.64712
2022-12-01 14:18:18.923960, 1.64712
2022-12-01 14:18:18.935267, 1.65200
2022-12-01 14:18:18.943789, 1.64712
2022-12-01 14:18:18.952589, 1.64712
2022-12-01 14:18:18.960681, 1.65200
2022-12-01 14:18:18.972223, 1.64712
2022-12-01 14:18:18.980782, 1.64712
2022-12-01 14:18:18.989288, 1.65200
2022-12-01 14:18:19.001256, 1.65200
2022-12-01 14:18:19.009984, 1.67644
2022-12-01 14:18:19.017793, 1.64712
2022-12-01 14:18:19.026236, 1.64712
2022-12-01 14:18:19.038141, 1.64712
2022-12-01 14:18:19.046592, 1.64712
2022-12-01 14:18:19.054228, 1.64712
2022-12-01 14:18:19.062614, 1.64712
2022-12-01 14:18:19.075639, 1.64712
2022-12-01 14:18:19.083706, 1.64712
2022-12-01 14:18:19.091864, 1.64712
2022-12-01 14:18:19.104063, 1.64712
2022-12-01 14:18:19.112350, 1.64712
2022-12-01 14:18:19.119845, 1.65200
2022-12-01 14:18:19.128655, 1.67644
2022-12-01 14:18:19.140797, 1.66667
2022-12-01 14:18:19.148667, 1.64712
2022-12-01 14:18:19.157165, 1.64712
2022-12-01 14:18:19.168840, 1.64712
2022-12-01 14:18:19.177981, 1.64712
2022-12-01 14:18:19.186044, 1.65200
2022-12-01 14:18:19.193992, 1.65200
2022-12-01 14:18:19.206174, 1.65200
2022-12-01 14:18:19.214567, 1.64712
2022-12-01 14:18:19.222499, 1.64712
2022-12-01 14:18:19.234953, 1.64712
2022-12-01 14:18:19.242817, 1.64712
2022-12-01 14:18:19.251242, 1.64712
2022-12-01 14:18:19.259580, 1.64712
2022-12-01 14:18:19.272107, 1.64712
2022-12-01 14:18:19.280043, 1.65200
2022-12-01 14:18:19.288673, 1.65689
2022-12-01 14:18:19.300526, 1.67155
2022-12-01 14:18:19.308590, 1.66178
2022-12-01 14:18:19.317074, 1.64712
2022-12-01 14:18:19.325106, 1.64712
2022-12-01 14:18:19.337474, 1.64712
2022-12-01 14:18:19.345352, 1.65200
2022-12-01 14:18:19.353731, 1.65200
2022-12-01 14:18:19.366074, 1.65200
2022-12-01 14:18:19.374248, 1.65200
2022-12-01 14:18:19.382323, 1.65200
2022-12-01 14:18:19.390296, 1.64712
2022-12-01 14:18:19.402262, 1.65200
2022-12-01 14:18:19.411493, 1.65200
2022-12-01 14:18:19.419441, 1.65200
2022-12-01 14:18:19.431544, 1.67155
2022-12-01 14:18:19.439221, 1.67644
2022-12-01 14:18:19.448145, 1.65200
2022-12-01 14:18:19.455700, 1.65200
2022-12-01 14:18:19.468504, 1.64712
2022-12-01 14:18:19.476401, 1.64712
2022-12-01 14:18:19.484373, 1.64712
2022-12-01 14:18:19.497017, 1.64712
2022-12-01 14:18:19.505489, 1.64712
2022-12-01 14:18:19.514588, 1.64712
2022-12-01 14:18:19.521644, 1.64712
2022-12-01 14:18:19.533904, 1.64712
2022-12-01 14:18:19.541803, 1.65200
2022-12-01 14:18:19.550084, 1.65200
2022-12-01 14:18:19.562025, 1.65200
2022-12-01 14:18:19.571016, 1.66667
2022-12-01 14:18:19.578922, 1.64712
2022-12-01 14:18:19.586890, 1.64712
2022-12-01 14:18:19.599052, 1.64712
2022-12-01 14:18:19.608013, 1.64712
2022-12-01 14:18:19.615858, 1.64712
2022-12-01 14:18:19.627563, 1.64712
2022-12-01 14:18:19.636414, 1.65200
2022-12-01 14:18:19.644050, 1.65200
2022-12-01 14:18:19.653287, 1.65689
2022-12-01 14:18:19.665123, 1.65689
2022-12-01 14:18:19.672853, 1.65200
2022-12-01 14:18:19.681246, 1.65689
2022-12-01 14:18:19.693889, 1.65689
2022-12-01 14:18:19.701321, 1.66178
2022-12-01 14:18:19.710393, 1.64712
2022-12-01 14:18:19.717647, 1.64712
2022-12-01 14:18:19.730623, 1.64712
2022-12-01 14:18:19.738638, 1.64712
2022-12-01 14:18:19.746656, 1.65200
2022-12-01 14:18:19.759083, 1.65200
2022-12-01 14:18:19.767434, 1.64712
2022-12-01 14:18:19.774973, 1.64712
2022-12-01 14:18:19.783363, 1.64712
2022-12-01 14:18:19.795693, 1.65200
2022-12-01 14:18:19.803666, 1.65200
2022-12-01 14:18:19.812285, 1.65200
2022-12-01 14:18:19.824578, 1.64712
2022-12-01 14:18:19.832544, 1.65200
2022-12-01 14:18:19.841032, 1.65200
2022-12-01 14:18:19.849013, 1.65689
2022-12-01 14:18:19.861212, 1.66178
2022-12-01 14:18:19.869928, 1.67644
2022-12-01 14:18:19.877912, 1.67644
2022-12-01 14:18:19.885876, 1.67155
2022-12-01 14:18:19.898824, 1.65200
2022-12-01 14:18:19.906428, 1.65200
2022-12-01 14:18:19.915333, 1.65200
2022-12-01 14:18:19.927067, 1.64712
2022-12-01 14:18:19.935141, 1.64712
2022-12-01 14:18:19.944029, 1.64712
2022-12-01 14:18:19.951518, 1.64712
2022-12-01 14:18:19.964414, 1.64712
2022-12-01 14:18:19.972387, 1.64712
2022-12-01 14:18:19.980699, 1.64712
2022-12-01 14:18:19.991763, 1.64712
2022-12-01 14:18:20.000406, 1.65200
2022-12-01 14:18:20.010252, 1.65200
2022-12-01 14:18:20.017284, 1.65200
2022-12-01 14:18:20.029795, 1.65200
2022-12-01 14:18:20.038241, 1.65200
2022-12-01 14:18:20.046578, 1.65200
2022-12-01 14:18:20.058541, 1.65200
2022-12-01 14:18:20.066584, 1.67155
2022-12-01 14:18:20.074424, 1.66178
2022-12-01 14:18:20.083335, 1.66667
2022-12-01 14:18:20.095418, 1.67155
2022-12-01 14:18:20.103450, 1.64712
2022-12-01 14:18:20.111888, 1.64712
2022-12-01 14:18:20.123353, 1.64712
2022-12-01 14:18:20.132264, 1.64712
2022-12-01 14:18:20.140277, 1.64712
2022-12-01 14:18:20.148717, 1.64712
2022-12-01 14:18:20.160514, 1.64712
2022-12-01 14:18:20.169171, 1.64712
2022-12-01 14:18:20.177224, 1.64223
2022-12-01 14:18:20.188903, 1.64712
2022-12-01 14:18:20.197053, 1.64712
2022-12-01 14:18:20.206017, 1.65200
2022-12-01 14:18:20.213697, 1.65689
2022-12-01 14:18:20.225690, 1.65689
2022-12-01 14:18:20.234579, 1.65200
2022-12-01 14:18:20.242620, 1.65200
2022-12-01 14:18:20.254583, 1.65200
2022-12-01 14:18:20.263111, 1.65200
2022-12-01 14:18:20.271092, 1.65200
2022-12-01 14:18:20.279623, 1.65200
2022-12-01 14:18:20.291204, 1.65200
2022-12-01 14:18:20.300123, 1.65200
2022-12-01 14:18:20.307840, 1.65200
2022-12-01 14:18:20.319741, 1.65200
2022-12-01 14:18:20.328767, 1.65200
2022-12-01 14:18:20.336282, 1.65200
2022-12-01 14:18:20.344639, 1.65200
2022-12-01 14:18:20.357535, 1.65689
2022-12-01 14:18:20.365583, 1.65689
2022-12-01 14:18:20.373829, 1.65689
2022-12-01 14:18:20.386252, 1.67155
2022-12-01 14:18:20.394284, 1.64223
2022-12-01 14:18:20.402693, 1.64223
2022-12-01 14:18:20.410692, 1.64223
2022-12-01 14:18:20.422651, 1.64223
2022-12-01 14:18:20.430627, 1.64712
2022-12-01 14:18:20.438659, 1.64712
2022-12-01 14:18:20.451634, 1.64712
2022-12-01 14:18:20.460033, 1.64712
2022-12-01 14:18:20.468086, 1.64712
2022-12-01 14:18:20.476042, 1.65200
2022-12-01 14:18:20.488006, 1.65200
2022-12-01 14:18:20.495981, 1.65200
2022-12-01 14:18:20.504944, 1.65200
2022-12-01 14:18:20.516426, 1.65200
2022-12-01 14:18:20.524907, 1.65689
2022-12-01 14:18:20.532981, 1.66667
2022-12-01 14:18:20.541208, 1.68133
2022-12-01 14:18:20.553579, 1.68133
2022-12-01 14:18:20.561516, 1.65200
2022-12-01 14:18:20.570507, 1.64712
2022-12-01 14:18:20.582818, 1.65200
2022-12-01 14:18:20.590904, 1.65200
2022-12-01 14:18:20.599045, 1.65200
2022-12-01 14:18:20.607056, 1.65200
2022-12-01 14:18:20.619580, 1.65200
2022-12-01 14:18:20.627562, 1.64712
2022-12-01 14:18:20.635534, 1.64712
2022-12-01 14:18:20.648305, 1.64712
2022-12-01 14:18:20.656036, 1.64712
2022-12-01 14:18:20.664522, 1.64712
2022-12-01 14:18:20.672496, 1.65200
2022-12-01 14:18:20.685142, 1.67155
2022-12-01 14:18:20.692632, 1.64712
2022-12-01 14:18:20.701301, 1.65200
2022-12-01 14:18:20.713258, 1.64712
2022-12-01 14:18:20.722018, 1.65200
2022-12-01 14:18:20.729987, 1.65200
2022-12-01 14:18:20.738431, 1.65200
2022-12-01 14:18:20.750255, 1.65200
2022-12-01 14:18:20.758594, 1.65200
2022-12-01 14:18:20.767210, 1.65200
2022-12-01 14:18:20.774466, 1.65200
2022-12-01 14:18:20.786952, 1.64712
2022-12-01 14:18:20.795494, 1.64712
2022-12-01 14:18:20.803781, 1.65200
2022-12-01 14:18:20.815462, 1.65200
2022-12-01 14:18:20.824383, 1.65689
2022-12-01 14:18:20.832623, 1.66667
2022-12-01 14:18:20.840570, 1.65689
2022-12-01 14:18:20.852999, 1.65200
2022-12-01 14:18:20.861486, 1.65200
2022-12-01 14:18:20.869184, 1.65200
2022-12-01 14:18:20.881297, 1.65200
2022-12-01 14:18:20.890005, 1.64712
2022-12-01 14:18:20.897393, 1.64712
2022-12-01 14:18:20.906231, 1.64712
2022-12-01 14:18:20.918429, 1.64712
2022-12-01 14:18:20.926759, 1.64712
2022-12-01 14:18:20.934812, 1.65200
2022-12-01 14:18:20.946904, 1.65200
2022-12-01 14:18:20.955215, 1.65200
2022-12-01 14:18:20.963184, 1.64712
2022-12-01 14:18:20.971752, 1.65200
2022-12-01 14:18:20.983769, 1.65200
2022-12-01 14:18:20.991817, 1.66178
2022-12-01 14:18:20.999787, 1.66667
2022-12-01 14:18:21.012402, 1.66667
2022-12-01 14:18:21.020329, 1.67644
2022-12-01 14:18:21.028537, 1.64712
2022-12-01 14:18:21.037348, 1.64712
2022-12-01 14:18:21.049346, 1.64712
2022-12-01 14:18:21.057789, 1.64712
2022-12-01 14:18:21.065648, 1.64712
2022-12-01 14:18:21.077903, 1.64712
2022-12-01 14:18:21.086714, 1.64712
2022-12-01 14:18:21.094670, 1.64712
2022-12-01 14:18:21.102832, 1.64712
2022-12-01 14:18:21.115007, 1.64712
2022-12-01 14:18:21.123634, 1.64712
2022-12-01 14:18:21.131528, 1.64712
2022-12-01 14:18:21.143808, 1.64712
2022-12-01 14:18:21.151789, 1.64712
2022-12-01 14:18:21.160811, 1.64712
2022-12-01 14:18:21.168261, 1.64712
2022-12-01 14:18:21.180725, 1.64712
2022-12-01 14:18:21.188147, 1.64712
2022-12-01 14:18:21.196900, 1.64712
2022-12-01 14:18:21.209442, 1.64712
2022-12-01 14:18:21.217542, 1.64712
2022-12-01 14:18:21.225654, 1.65200
2022-12-01 14:18:21.234172, 1.65200
2022-12-01 14:18:21.246137, 1.65200
2022-12-01 14:18:21.254241, 1.65200
2022-12-01 14:18:21.262968, 1.65689
2022-12-01 14:18:21.274686, 1.67155
2022-12-01 14:18:21.282855, 1.67644
2022-12-01 14:18:21.290585, 1.67644
2022-12-01 14:18:21.314475, 1.65200
2022-12-01 14:18:21.318337, 1.65200
2022-12-01 14:18:21.319395, 1.65200
2022-12-01 14:18:21.327794, 1.65200
2022-12-01 14:18:21.340069, 1.65200
2022-12-01 14:18:21.348345, 1.64712
2022-12-01 14:18:21.356992, 1.64712
2022-12-01 14:18:21.364961, 1.64712
2022-12-01 14:18:21.376825, 1.64712
2022-12-01 14:18:21.384934, 1.64712
2022-12-01 14:18:21.393902, 1.65200
2022-12-01 14:18:21.413836, 1.65200
2022-12-01 14:18:21.428109, 1.65689
2022-12-01 14:18:21.436287, 1.67644
2022-12-01 14:18:21.467676, 1.64712
2022-12-01 14:18:21.506620, 1.64712
2022-12-01 14:18:21.537430, 1.64712
2022-12-01 14:18:21.547703, 1.64712
2022-12-01 14:18:21.549701, 1.64712
2022-12-01 14:18:21.552226, 1.64712
2022-12-01 14:18:21.578833, 1.64712
2022-12-01 14:18:21.581914, 1.64712
2022-12-01 14:18:21.584504, 1.64712
2022-12-01 14:18:21.586520, 1.64712
2022-12-01 14:18:21.587165, 1.64712
2022-12-01 14:18:21.587763, 1.64712
2022-12-01 14:18:21.588202, 1.64712
2022-12-01 14:18:21.588579, 1.64712
2022-12-01 14:18:21.589105, 1.65689
2022-12-01 14:18:21.589661, 1.65200
2022-12-01 14:18:21.590318, 1.65689
2022-12-01 14:18:21.590814, 1.66667
2022-12-01 14:18:21.602497, 1.64712
2022-12-01 14:18:21.610936, 1.64712
2022-12-01 14:18:21.618375, 1.64712
2022-12-01 14:18:21.627100, 1.64712
2022-12-01 14:18:21.639193, 1.64712
2022-12-01 14:18:21.647643, 1.64712
2022-12-01 14:18:21.655305, 1.64712
2022-12-01 14:18:21.663831, 1.64712
2022-12-01 14:18:21.676331, 1.64712
2022-12-01 14:18:21.684479, 1.64712
2022-12-01 14:18:21.692488, 1.65200
2022-12-01 14:18:21.704735, 1.65200
2022-12-01 14:18:21.713349, 1.64712
2022-12-01 14:18:21.721296, 1.64712
2022-12-01 14:18:21.729314, 1.65200
2022-12-01 14:18:21.741751, 1.65689
2022-12-01 14:18:21.749378, 1.67644
2022-12-01 14:18:21.758082, 1.64712
2022-12-01 14:18:21.770500, 1.64712
2022-12-01 14:18:21.777980, 1.64712
2022-12-01 14:18:21.786734, 1.64712
2022-12-01 14:18:21.794888, 1.64712
2022-12-01 14:18:21.807098, 1.64712
2022-12-01 14:18:21.815737, 1.64223
2022-12-01 14:18:21.823520, 1.64223
2022-12-01 14:18:21.836050, 1.64712
2022-12-01 14:18:21.843996, 1.65689
2022-12-01 14:18:21.852595, 1.65200
2022-12-01 14:18:21.860588, 1.66178
2022-12-01 14:18:21.872232, 1.67155
2022-12-01 14:18:21.880788, 1.64712
2022-12-01 14:18:21.889317, 1.64712
2022-12-01 14:18:21.901292, 1.64712
2022-12-01 14:18:21.909568, 1.64712
2022-12-01 14:18:21.918211, 1.64712
2022-12-01 14:18:21.926439, 1.64712
2022-12-01 14:18:21.938112, 1.64712
2022-12-01 14:18:21.946587, 1.64712
2022-12-01 14:18:21.954861, 1.64712
2022-12-01 14:18:21.966970, 1.64712
2022-12-01 14:18:21.974905, 1.64712
2022-12-01 14:18:21.982878, 1.64712
2022-12-01 14:18:21.991323, 1.65200
2022-12-01 14:18:22.004237, 1.65200
2022-12-01 14:18:22.012268, 1.65200
2022-12-01 14:18:22.020438, 1.65689
2022-12-01 14:18:22.032689, 1.67644
2022-12-01 14:18:22.040655, 1.67644
2022-12-01 14:18:22.048631, 1.67644
2022-12-01 14:18:22.057541, 1.67644
2022-12-01 14:18:22.069487, 1.64712
2022-12-01 14:18:22.077190, 1.64712
2022-12-01 14:18:22.085320, 1.64712
2022-12-01 14:18:22.097902, 1.64712
2022-12-01 14:18:22.105887, 1.64712
2022-12-01 14:18:22.114286, 1.64712
2022-12-01 14:18:22.122227, 1.64712
2022-12-01 14:18:22.134416, 1.64712
2022-12-01 14:18:22.142728, 1.64712
2022-12-01 14:18:22.151697, 1.64712
2022-12-01 14:18:22.163869, 1.65200
2022-12-01 14:18:22.172011, 1.65200
2022-12-01 14:18:22.179983, 1.65200
2022-12-01 14:18:22.188099, 1.66667
2022-12-01 14:18:22.199963, 1.67644
2022-12-01 14:18:22.208811, 1.66178
2022-12-01 14:18:22.217189, 1.66667
2022-12-01 14:18:22.229042, 1.67644
2022-12-01 14:18:22.237558, 1.67644
2022-12-01 14:18:22.245540, 1.65200
2022-12-01 14:18:22.253583, 1.65200
2022-12-01 14:18:22.265603, 1.65200
2022-12-01 14:18:22.273793, 1.65200
2022-12-01 14:18:22.282225, 1.64712
2022-12-01 14:18:22.294488, 1.64712
2022-12-01 14:18:22.302928, 1.64712
2022-12-01 14:18:22.311072, 1.64712
2022-12-01 14:18:22.319051, 1.64712
2022-12-01 14:18:22.331659, 1.64712
2022-12-01 14:18:22.339624, 1.64712
2022-12-01 14:18:22.347478, 1.64712
2022-12-01 14:18:22.359777, 1.64712
2022-12-01 14:18:22.368013, 1.64712
2022-12-01 14:18:22.376344, 1.65200
2022-12-01 14:18:22.384319, 1.65200
2022-12-01 14:18:22.396527, 1.65200
2022-12-01 14:18:22.405094, 1.65200
2022-12-01 14:18:22.413139, 1.65689
2022-12-01 14:18:22.426091, 1.67644
2022-12-01 14:18:22.434065, 1.65689
2022-12-01 14:18:22.442514, 1.67644
2022-12-01 14:18:22.450960, 1.66178
2022-12-01 14:18:22.462877, 1.64712
2022-12-01 14:18:22.471198, 1.64712
2022-12-01 14:18:22.479196, 1.64712
2022-12-01 14:18:22.491382, 1.64712
2022-12-01 14:18:22.499817, 1.64712
2022-12-01 14:18:22.507762, 1.64712
2022-12-01 14:18:22.515358, 1.64712
2022-12-01 14:18:22.528311, 1.64712
2022-12-01 14:18:22.536342, 1.64712
2022-12-01 14:18:22.544143, 1.64712
2022-12-01 14:18:22.553103, 1.64712
2022-12-01 14:18:22.565023, 1.64712
2022-12-01 14:18:22.572923, 1.64712
2022-12-01 14:18:22.580966, 1.64712
2022-12-01 14:18:22.593855, 1.64712
2022-12-01 14:18:22.601897, 1.65200
2022-12-01 14:18:22.610267, 1.65200
2022-12-01 14:18:22.618322, 1.65689
2022-12-01 14:18:22.630441, 1.67644
2022-12-01 14:18:22.638192, 1.67644
2022-12-01 14:18:22.647171, 1.67644
2022-12-01 14:18:22.659072, 1.65689
2022-12-01 14:18:22.667091, 1.64712
2022-12-01 14:18:22.676052, 1.64712
2022-12-01 14:18:22.683732, 1.64712
2022-12-01 14:18:22.695646, 1.64712
2022-12-01 14:18:22.703619, 1.65200
2022-12-01 14:18:22.712591, 1.65200
2022-12-01 14:18:22.724272, 1.65200
2022-12-01 14:18:22.732837, 1.65200
2022-12-01 14:18:22.741110, 1.65200
2022-12-01 14:18:22.749553, 1.66667
2022-12-01 14:18:22.761474, 1.67644
2022-12-01 14:18:22.769950, 1.65200
2022-12-01 14:18:22.777438, 1.64712
2022-12-01 14:18:22.790551, 1.64712
2022-12-01 14:18:22.798020, 1.64712
2022-12-01 14:18:22.805902, 1.64712
2022-12-01 14:18:22.814928, 1.64712
2022-12-01 14:18:22.826892, 1.64712
2022-12-01 14:18:22.835262, 1.64712
2022-12-01 14:18:22.842659, 1.64712
2022-12-01 14:18:22.855703, 1.64712
2022-12-01 14:18:22.863760, 1.65200
2022-12-01 14:18:22.871803, 1.65200
2022-12-01 14:18:22.880720, 1.65200
2022-12-01 14:18:22.892695, 1.67644
2022-12-01 14:18:22.900867, 1.64712
2022-12-01 14:18:22.908719, 1.64712
2022-12-01 14:18:22.921008, 1.64712
2022-12-01 14:18:22.929741, 1.64712
2022-12-01 14:18:22.937677, 1.64712
2022-12-01 14:18:22.946020, 1.64712
2022-12-01 14:18:22.958448, 1.64712
2022-12-01 14:18:22.966378, 1.64712
2022-12-01 14:18:22.974350, 1.64712
2022-12-01 14:18:22.986315, 1.64712
2022-12-01 14:18:22.994619, 1.65200
2022-12-01 14:18:23.003589, 1.65689
2022-12-01 14:18:23.011357, 1.65689
2022-12-01 14:18:23.023683, 1.67644
2022-12-01 14:18:23.032107, 1.64712
2022-12-01 14:18:23.040300, 1.64712
2022-12-01 14:18:23.052497, 1.64712
2022-12-01 14:18:23.060851, 1.64712
2022-12-01 14:18:23.069154, 1.64712
2022-12-01 14:18:23.077571, 1.64712
2022-12-01 14:18:23.089851, 1.64712
2022-12-01 14:18:23.097613, 1.64712
2022-12-01 14:18:23.106080, 1.65200
2022-12-01 14:18:23.118450, 1.65200
2022-12-01 14:18:23.126086, 1.65200
2022-12-01 14:18:23.134503, 1.65200
2022-12-01 14:18:23.142783, 1.65200
2022-12-01 14:18:23.155861, 1.65200
2022-12-01 14:18:23.162485, 1.65200
2022-12-01 14:18:23.172202, 1.65200
2022-12-01 14:18:23.182828, 1.65689
2022-12-01 14:18:23.192057, 1.66667
2022-12-01 14:18:23.200721, 1.67155
2022-12-01 14:18:23.208265, 1.66178
2022-12-01 14:18:23.220447, 1.65200
2022-12-01 14:18:23.229394, 1.65200
2022-12-01 14:18:23.237074, 1.65200
2022-12-01 14:18:23.249941, 1.64712
2022-12-01 14:18:23.257363, 1.64712
2022-12-01 14:18:23.265618, 1.64712
2022-12-01 14:18:23.273910, 1.65200
2022-12-01 14:18:23.286271, 1.65200
2022-12-01 14:18:23.294341, 1.65200
2022-12-01 14:18:23.302510, 1.65200
2022-12-01 14:18:23.314471, 1.65200
2022-12-01 14:18:23.323050, 1.65200
2022-12-01 14:18:23.330890, 1.65200
2022-12-01 14:18:23.339254, 1.65689
2022-12-01 14:18:23.351721, 1.65689
2022-12-01 14:18:23.359702, 1.65689
2022-12-01 14:18:23.367380, 1.67155
2022-12-01 14:18:23.376346, 1.67155
2022-12-01 14:18:23.388730, 1.65200
2022-12-01 14:18:23.396115, 1.65200
2022-12-01 14:18:23.405030, 1.65200
2022-12-01 14:18:23.416607, 1.65200
2022-12-01 14:18:23.425332, 1.65200
2022-12-01 14:18:23.433507, 1.65200
2022-12-01 14:18:23.441327, 1.65200
2022-12-01 14:18:23.453913, 1.65200
2022-12-01 14:18:23.462011, 1.64712
2022-12-01 14:18:23.470650, 1.64712
2022-12-01 14:18:23.483474, 1.64712
2022-12-01 14:18:23.491046, 1.65200
2022-12-01 14:18:23.500383, 1.65200
2022-12-01 14:18:23.507261, 1.65200
2022-12-01 14:18:23.520330, 1.65689
2022-12-01 14:18:23.527893, 1.66178
2022-12-01 14:18:23.536167, 1.65200
2022-12-01 14:18:23.547824, 1.65200
2022-12-01 14:18:23.557187, 1.65200
2022-12-01 14:18:23.564751, 1.66178
2022-12-01 14:18:23.573595, 1.66178
2022-12-01 14:18:23.585861, 1.66667
2022-12-01 14:18:23.593202, 1.67155
2022-12-01 14:18:23.601922, 1.64712
2022-12-01 14:18:23.613171, 1.64712
2022-12-01 14:18:23.622209, 1.64712
2022-12-01 14:18:23.630185, 1.64712
2022-12-01 14:18:23.638436, 1.64712
2022-12-01 14:18:23.650032, 1.64712
2022-12-01 14:18:23.659001, 1.64712
2022-12-01 14:18:23.667042, 1.64712
2022-12-01 14:18:23.678907, 1.64712
2022-12-01 14:18:23.686888, 1.64712
2022-12-01 14:18:23.695909, 1.64712
2022-12-01 14:18:23.704255, 1.65200
2022-12-01 14:18:23.716987, 1.65200
2022-12-01 14:18:23.724844, 1.65689
2022-12-01 14:18:23.733704, 1.65689
2022-12-01 14:18:23.745103, 1.65689
2022-12-01 14:18:23.753864, 1.65689
2022-12-01 14:18:23.762035, 1.67155
2022-12-01 14:18:23.769935, 1.65200
2022-12-01 14:18:23.781220, 1.64712
2022-12-01 14:18:23.790170, 1.65200
2022-12-01 14:18:23.798274, 1.64712
2022-12-01 14:18:23.810433, 1.64712
2022-12-01 14:18:23.819359, 1.64712
2022-12-01 14:18:23.826605, 1.64712
2022-12-01 14:18:23.835263, 1.64712
2022-12-01 14:18:23.846775, 1.65200
2022-12-01 14:18:23.855675, 1.65200
2022-12-01 14:18:23.863648, 1.64712
2022-12-01 14:18:23.875609, 1.65200
2022-12-01 14:18:23.883580, 1.65200
2022-12-01 14:18:23.892553, 1.65200
2022-12-01 14:18:23.900524, 1.66667
2022-12-01 14:18:23.911994, 1.66178
2022-12-01 14:18:23.920502, 1.67155
2022-12-01 14:18:23.928665, 1.64712
2022-12-01 14:18:23.941622, 1.64712
2022-12-01 14:18:23.949877, 1.64712
2022-12-01 14:18:23.957850, 1.64712
2022-12-01 14:18:23.965893, 1.65200
2022-12-01 14:18:23.977992, 1.64712
2022-12-01 14:18:23.986046, 1.64712
2022-12-01 14:18:23.994026, 1.65200
2022-12-01 14:18:24.006769, 1.65200
2022-12-01 14:18:24.015238, 1.65200
2022-12-01 14:18:24.022977, 1.66178
2022-12-01 14:18:24.031880, 1.67644
2022-12-01 14:18:24.043421, 1.65200
2022-12-01 14:18:24.052210, 1.65200
2022-12-01 14:18:24.060245, 1.65200
2022-12-01 14:18:24.072229, 1.64712
2022-12-01 14:18:24.080912, 1.65200
2022-12-01 14:18:24.088920, 1.64712
2022-12-01 14:18:24.097302, 1.64712
2022-12-01 14:18:24.109718, 1.64712
2022-12-01 14:18:24.117665, 1.64712
2022-12-01 14:18:24.125830, 1.64712
2022-12-01 14:18:24.137791, 1.64712
2022-12-01 14:18:24.146297, 1.65200
2022-12-01 14:18:24.154272, 1.65200
2022-12-01 14:18:24.162564, 1.65200
2022-12-01 14:18:24.174371, 1.65200
2022-12-01 14:18:24.182344, 1.65689
2022-12-01 14:18:24.191440, 1.65689
2022-12-01 14:18:24.203402, 1.67644
2022-12-01 14:18:24.211375, 1.65200
2022-12-01 14:18:24.219555, 1.64712
2022-12-01 14:18:24.227528, 1.64712
2022-12-01 14:18:24.240431, 1.64712
2022-12-01 14:18:24.248841, 1.64712
2022-12-01 14:18:24.256834, 1.64712
2022-12-01 14:18:24.265028, 1.64712
2022-12-01 14:18:24.277293, 1.64712
2022-12-01 14:18:24.285738, 1.64712
2022-12-01 14:18:24.293856, 1.64712
2022-12-01 14:18:24.306220, 1.65200
2022-12-01 14:18:24.314249, 1.64712
2022-12-01 14:18:24.323902, 1.65200
2022-12-01 14:18:24.330864, 1.65200
2022-12-01 14:18:24.342859, 1.65200
2022-12-01 14:18:24.351170, 1.65689
2022-12-01 14:18:24.359639, 1.67155
2022-12-01 14:18:24.371340, 1.66178
2022-12-01 14:18:24.379232, 1.67155
2022-12-01 14:18:24.387913, 1.64712
2022-12-01 14:18:24.396336, 1.64712
2022-12-01 14:18:24.408376, 1.64712
2022-12-01 14:18:24.416526, 1.64712
2022-12-01 14:18:24.424224, 1.65200
2022-12-01 14:18:24.437677, 1.65200
2022-12-01 14:18:24.444952, 1.65200
2022-12-01 14:18:24.453737, 1.64712
2022-12-01 14:18:24.462049, 1.64712
2022-12-01 14:18:24.473279, 1.64712
2022-12-01 14:18:24.482007, 1.64712
2022-12-01 14:18:24.489935, 1.64712
2022-12-01 14:18:24.502330, 1.64712
2022-12-01 14:18:24.510303, 1.64712
2022-12-01 14:18:24.519774, 1.65200
2022-12-01 14:18:24.527493, 1.65200
2022-12-01 14:18:24.540177, 1.65200
2022-12-01 14:18:24.547393, 1.65200
2022-12-01 14:18:24.556243, 1.64712
2022-12-01 14:18:24.567576, 1.65200
2022-12-01 14:18:24.576537, 1.65200
2022-12-01 14:18:24.584766, 1.65200
2022-12-01 14:18:24.592691, 1.65200
2022-12-01 14:18:24.605042, 1.65200
2022-12-01 14:18:24.613422, 1.65200
2022-12-01 14:18:24.621579, 1.65689
2022-12-01 14:18:24.634519, 1.66667
2022-12-01 14:18:24.642131, 1.64712
2022-12-01 14:18:24.650248, 1.64712
2022-12-01 14:18:24.658298, 1.64712
2022-12-01 14:18:24.670439, 1.64712
2022-12-01 14:18:24.677969, 1.64712
2022-12-01 14:18:24.686435, 1.64712
2022-12-01 14:18:24.698548, 1.64712
2022-12-01 14:18:24.708488, 1.64712
2022-12-01 14:18:24.714931, 1.64712
2022-12-01 14:18:24.725961, 1.64712
2022-12-01 14:18:24.735901, 1.64712
2022-12-01 14:18:24.744027, 1.64712
2022-12-01 14:18:24.752358, 1.64712
2022-12-01 14:18:24.764259, 1.64712
2022-12-01 14:18:24.773205, 1.64712
2022-12-01 14:18:24.781172, 1.64712
2022-12-01 14:18:24.789381, 1.64712
2022-12-01 14:18:24.801828, 1.65200
2022-12-01 14:18:24.809908, 1.65200
2022-12-01 14:18:24.817726, 1.66667
2022-12-01 14:18:24.830382, 1.65200
2022-12-01 14:18:24.838385, 1.64712
2022-12-01 14:18:24.846654, 1.64712
2022-12-01 14:18:24.855094, 1.64712
2022-12-01 14:18:24.867119, 1.64712
2022-12-01 14:18:24.874789, 1.64712
2022-12-01 14:18:24.883510, 1.64712
2022-12-01 14:18:24.894944, 1.64712
2022-12-01 14:18:24.904870, 1.64712
2022-12-01 14:18:24.912192, 1.64712
2022-12-01 14:18:24.921172, 1.64712
2022-12-01 14:18:24.933476, 1.64712
2022-12-01 14:18:24.941294, 1.64712
2022-12-01 14:18:24.949696, 1.64712
2022-12-01 14:18:24.961888, 1.64712
2022-12-01 14:18:24.969937, 1.64712
2022-12-01 14:18:24.977621, 1.65200
2022-12-01 14:18:24.986200, 1.65200
2022-12-01 14:18:24.997755, 1.65200
2022-12-01 14:18:25.006316, 1.65200
2022-12-01 14:18:25.014300, 1.65200
2022-12-01 14:18:25.026249, 1.65200
2022-12-01 14:18:25.034963, 1.65689
2022-12-01 14:18:25.043146, 1.67155
2022-12-01 14:18:25.050881, 1.67644
2022-12-01 14:18:25.063258, 1.66667
2022-12-01 14:18:25.071897, 1.66178
2022-12-01 14:18:25.080352, 1.66667
2022-12-01 14:18:25.092261, 1.64712
2022-12-01 14:18:25.100079, 1.64712
2022-12-01 14:18:25.108046, 1.64712
2022-12-01 14:18:25.116628, 1.64712
2022-12-01 14:18:25.128986, 1.64712
2022-12-01 14:18:25.136960, 1.64712
2022-12-01 14:18:25.145245, 1.64712
2022-12-01 14:18:25.153226, 1.64712
2022-12-01 14:18:25.166022, 1.64712
2022-12-01 14:18:25.174465, 1.64712
2022-12-01 14:18:25.182417, 1.64712
2022-12-01 14:18:25.194294, 1.64712
2022-12-01 14:18:25.202274, 1.64712
2022-12-01 14:18:25.210742, 1.64712
2022-12-01 14:18:25.219418, 1.64712
2022-12-01 14:18:25.230945, 1.64712
2022-12-01 14:18:25.240113, 1.65200
2022-12-01 14:18:25.248087, 1.65200
2022-12-01 14:18:25.260263, 1.65200
2022-12-01 14:18:25.267827, 1.65200
2022-12-01 14:18:25.276074, 1.65689
2022-12-01 14:18:25.284439, 1.67155
2022-12-01 14:18:25.296543, 1.67644
2022-12-01 14:18:25.304790, 1.65200
2022-12-01 14:18:25.313165, 1.65200
2022-12-01 14:18:25.326159, 1.66667
2022-12-01 14:18:25.333754, 1.67644
2022-12-01 14:18:25.342395, 1.65200
2022-12-01 14:18:25.349875, 1.64712
2022-12-01 14:18:25.362081, 1.65200
2022-12-01 14:18:25.371050, 1.65200
2022-12-01 14:18:25.378508, 1.65200
2022-12-01 14:18:25.391182, 1.65200
2022-12-01 14:18:25.399566, 1.65200
2022-12-01 14:18:25.407352, 1.65200
2022-12-01 14:18:25.415338, 1.65200
2022-12-01 14:18:25.428111, 1.64712
2022-12-01 14:18:25.436102, 1.64712
2022-12-01 14:18:25.444067, 1.64712
2022-12-01 14:18:25.456612, 1.65200
2022-12-01 14:18:25.465177, 1.65200
2022-12-01 14:18:25.472673, 1.64712
2022-12-01 14:18:25.481084, 1.65200
2022-12-01 14:18:25.493466, 1.64712
2022-12-01 14:18:25.501412, 1.65200
2022-12-01 14:18:25.510379, 1.65200
2022-12-01 14:18:25.521659, 1.65200
2022-12-01 14:18:25.530131, 1.65200
2022-12-01 14:18:25.538104, 1.65200
2022-12-01 14:18:25.546373, 1.64712
2022-12-01 14:18:25.559417, 1.65200
2022-12-01 14:18:25.567306, 1.65200
2022-12-01 14:18:25.575279, 1.65200
2022-12-01 14:18:25.587308, 1.65689
2022-12-01 14:18:25.595494, 1.66667
2022-12-01 14:18:25.604729, 1.67155
2022-12-01 14:18:25.612837, 1.64712
2022-12-01 14:18:25.624750, 1.64712
2022-12-01 14:18:25.633815, 1.64712
2022-12-01 14:18:25.641396, 1.64712
2022-12-01 14:18:25.653571, 1.64712
2022-12-01 14:18:25.661801, 1.64712
2022-12-01 14:18:25.669856, 1.64712
2022-12-01 14:18:25.678068, 1.64712
2022-12-01 14:18:25.689716, 1.64712
2022-12-01 14:18:25.698578, 1.64712
2022-12-01 14:18:25.707262, 1.64712
2022-12-01 14:18:25.719936, 1.64712
2022-12-01 14:18:25.727413, 1.65200
2022-12-01 14:18:25.736309, 1.65200
2022-12-01 14:18:25.743754, 1.65200
2022-12-01 14:18:25.756354, 1.65200
2022-12-01 14:18:25.764188, 1.65200
2022-12-01 14:18:25.773010, 1.65689
2022-12-01 14:18:25.784162, 1.66178
2022-12-01 14:18:25.793064, 1.64712
2022-12-01 14:18:25.800660, 1.66667
2022-12-01 14:18:25.809615, 1.64712
2022-12-01 14:18:25.821467, 1.64712
2022-12-01 14:18:25.829871, 1.64712
2022-12-01 14:18:25.838086, 1.64712
2022-12-01 14:18:25.850215, 1.64712
2022-12-01 14:18:25.857975, 1.64712
2022-12-01 14:18:25.867398, 1.64712
2022-12-01 14:18:25.874643, 1.64712
2022-12-01 14:18:25.886803, 1.64712
2022-12-01 14:18:25.894773, 1.64712
2022-12-01 14:18:25.903139, 1.64712
2022-12-01 14:18:25.915420, 1.64712
2022-12-01 14:18:25.923958, 1.64712
2022-12-01 14:18:25.931562, 1.64712
2022-12-01 14:18:25.940616, 1.64712
2022-12-01 14:18:25.953393, 1.65200
2022-12-01 14:18:25.960465, 1.65200
2022-12-01 14:18:25.969772, 1.66178
2022-12-01 14:18:25.977492, 1.67155
2022-12-01 14:18:25.989097, 1.65689
2022-12-01 14:18:25.997748, 1.64712
2022-12-01 14:18:26.005787, 1.64712
2022-12-01 14:18:26.017570, 1.64712
2022-12-01 14:18:26.026542, 1.64712
2022-12-01 14:18:26.034535, 1.64712
2022-12-01 14:18:26.043013, 1.64712
2022-12-01 14:18:26.054974, 1.64712
2022-12-01 14:18:26.063201, 1.64712
2022-12-01 14:18:26.070487, 1.64712
2022-12-01 14:18:26.083754, 1.64712
2022-12-01 14:18:26.091729, 1.64712
2022-12-01 14:18:26.099764, 1.64712
2022-12-01 14:18:26.107958, 1.64712
2022-12-01 14:18:26.120525, 1.64712
2022-12-01 14:18:26.128478, 1.64712
2022-12-01 14:18:26.136831, 1.64712
2022-12-01 14:18:26.149249, 1.65200
2022-12-01 14:18:26.157230, 1.64712
2022-12-01 14:18:26.165065, 1.65200
2022-12-01 14:18:26.173431, 1.65200
2022-12-01 14:18:26.186140, 1.65200
2022-12-01 14:18:26.194139, 1.65200
2022-12-01 14:18:26.201981, 1.65689
2022-12-01 14:18:26.214514, 1.66667
2022-12-01 14:18:26.222451, 1.64712
2022-12-01 14:18:26.231337, 1.64712
2022-12-01 14:18:26.239311, 1.64712
2022-12-01 14:18:26.250787, 1.64712
2022-12-01 14:18:26.259125, 1.64712
2022-12-01 14:18:26.268034, 1.64712
2022-12-01 14:18:26.279575, 1.64712
2022-12-01 14:18:26.288751, 1.64712
2022-12-01 14:18:26.296723, 1.65200
2022-12-01 14:18:26.304469, 1.65200
2022-12-01 14:18:26.316357, 1.65200
2022-12-01 14:18:26.325271, 1.65200
2022-12-01 14:18:26.333243, 1.65200
2022-12-01 14:18:26.345284, 1.65200
2022-12-01 14:18:26.353675, 1.66667
2022-12-01 14:18:26.361584, 1.66667
2022-12-01 14:18:26.370072, 1.67644
2022-12-01 14:18:26.382666, 1.65689
2022-12-01 14:18:26.391649, 1.64712
2022-12-01 14:18:26.399119, 1.65200
2022-12-01 14:18:26.410672, 1.64712
2022-12-01 14:18:26.419656, 1.64712
2022-12-01 14:18:26.427631, 1.64712
2022-12-01 14:18:26.436565, 1.64712
2022-12-01 14:18:26.449007, 1.64712
2022-12-01 14:18:26.456166, 1.64712
2022-12-01 14:18:26.464681, 1.64712
2022-12-01 14:18:26.476828, 1.64712
2022-12-01 14:18:26.485696, 1.64712
2022-12-01 14:18:26.493616, 1.64712
2022-12-01 14:18:26.501626, 1.64712
2022-12-01 14:18:26.513965, 1.65200
2022-12-01 14:18:26.522296, 1.65200
2022-12-01 14:18:26.530117, 1.65689
2022-12-01 14:18:26.542354, 1.65200
2022-12-01 14:18:26.550885, 1.66178
2022-12-01 14:18:26.558542, 1.66667
2022-12-01 14:18:26.567190, 1.67155
2022-12-01 14:18:26.579327, 1.67644
2022-12-01 14:18:26.588261, 1.66667
2022-12-01 14:18:26.595714, 1.67644
2022-12-01 14:18:26.607970, 1.67644
2022-12-01 14:18:26.616306, 1.64712
2022-12-01 14:18:26.624402, 1.64712
2022-12-01 14:18:26.632725, 1.64712
2022-12-01 14:18:26.644753, 1.64712
2022-12-01 14:18:26.653326, 1.64712
2022-12-01 14:18:26.661392, 1.64712
2022-12-01 14:18:26.673038, 1.64712
2022-12-01 14:18:26.681938, 1.65200
2022-12-01 14:18:26.690024, 1.65200
2022-12-01 14:18:26.698362, 1.65200
2022-12-01 14:18:26.710271, 1.65689
2022-12-01 14:18:26.718986, 1.67155
2022-12-01 14:18:26.726238, 1.67155
2022-12-01 14:18:26.738250, 1.64712
2022-12-01 14:18:26.747248, 1.64712
2022-12-01 14:18:26.755959, 1.64712
2022-12-01 14:18:26.763763, 1.64712
2022-12-01 14:18:26.775777, 1.64712
2022-12-01 14:18:26.783613, 1.64712
2022-12-01 14:18:26.791585, 1.64712
2022-12-01 14:18:26.804541, 1.64712
2022-12-01 14:18:26.812523, 1.64712
2022-12-01 14:18:26.820344, 1.64712
2022-12-01 14:18:26.828794, 1.64712
2022-12-01 14:18:26.841360, 1.64712
2022-12-01 14:18:26.850589, 1.65200
2022-12-01 14:18:26.857571, 1.65200
2022-12-01 14:18:26.866142, 1.65200
2022-12-01 14:18:26.878182, 1.65200
2022-12-01 14:18:26.886159, 1.65200
2022-12-01 14:18:26.894655, 1.65689
2022-12-01 14:18:26.907611, 1.67155
2022-12-01 14:18:26.914529, 1.67644
2022-12-01 14:18:26.923499, 1.64712
2022-12-01 14:18:26.931399, 1.64712
2022-12-01 14:18:26.943948, 1.64712
2022-12-01 14:18:26.951923, 1.64712
2022-12-01 14:18:26.959552, 1.64712
2022-12-01 14:18:26.972203, 1.64712
2022-12-01 14:18:26.980998, 1.64712
2022-12-01 14:18:26.988855, 1.64712
2022-12-01 14:18:26.996755, 1.64712
2022-12-01 14:18:27.009408, 1.64712
2022-12-01 14:18:27.017540, 1.64712
2022-12-01 14:18:27.025782, 1.64712
2022-12-01 14:18:27.038369, 1.64712
2022-12-01 14:18:27.046404, 1.64712
2022-12-01 14:18:27.054468, 1.64712
2022-12-01 14:18:27.062176, 1.64712
2022-12-01 14:18:27.074324, 1.64712
2022-12-01 14:18:27.083902, 1.64712
2022-12-01 14:18:27.091005, 1.64712
2022-12-01 14:18:27.104356, 1.64712
2022-12-01 14:18:27.111276, 1.64712
2022-12-01 14:18:27.120752, 1.65200
2022-12-01 14:18:27.128209, 1.64712
2022-12-01 14:18:27.140195, 1.65200
2022-12-01 14:18:27.149381, 1.65200
2022-12-01 14:18:27.156293, 1.65200
2022-12-01 14:18:27.170173, 1.65200
2022-12-01 14:18:27.176985, 1.65689
2022-12-01 14:18:27.186221, 1.67155
2022-12-01 14:18:27.194068, 1.64712
2022-12-01 14:18:27.205724, 1.64712
2022-12-01 14:18:27.214365, 1.64712
2022-12-01 14:18:27.222291, 1.64712
2022-12-01 14:18:27.234459, 1.64712
2022-12-01 14:18:27.243628, 1.64712
2022-12-01 14:18:27.251809, 1.64712
2022-12-01 14:18:27.260005, 1.64712
2022-12-01 14:18:27.272315, 1.64712
2022-12-01 14:18:27.279395, 1.64712
2022-12-01 14:18:27.288707, 1.65200
2022-12-01 14:18:27.300851, 1.64712
2022-12-01 14:18:27.308434, 1.64712
2022-12-01 14:18:27.317146, 1.64712
2022-12-01 14:18:27.325013, 1.65200
2022-12-01 14:18:27.337276, 1.65689
2022-12-01 14:18:27.345964, 1.67644
2022-12-01 14:18:27.354355, 1.66667
2022-12-01 14:18:27.365991, 1.64712
2022-12-01 14:18:27.373559, 1.64712
2022-12-01 14:18:27.382369, 1.64712
2022-12-01 14:18:27.389752, 1.64712
2022-12-01 14:18:27.402584, 1.64712
2022-12-01 14:18:27.410620, 1.64712
2022-12-01 14:18:27.418890, 1.64712
2022-12-01 14:18:27.430954, 1.64712
2022-12-01 14:18:27.438852, 1.64712
2022-12-01 14:18:27.447822, 1.64712
2022-12-01 14:18:27.455959, 1.64712
2022-12-01 14:18:27.467921, 1.65200
2022-12-01 14:18:27.475894, 1.65200
2022-12-01 14:18:27.484015, 1.65689
2022-12-01 14:18:27.496973, 1.65689
2022-12-01 14:18:27.505016, 1.66178
2022-12-01 14:18:27.512672, 1.67644
2022-12-01 14:18:27.520714, 1.64712
2022-12-01 14:18:27.533621, 1.64712
2022-12-01 14:18:27.541591, 1.64712
2022-12-01 14:18:27.550365, 1.64712
2022-12-01 14:18:27.562317, 1.64712
2022-12-01 14:18:27.571328, 1.64712
2022-12-01 14:18:27.578809, 1.64712
2022-12-01 14:18:27.587710, 1.64712
2022-12-01 14:18:27.599967, 1.64712
2022-12-01 14:18:27.607227, 1.64712
2022-12-01 14:18:27.615215, 1.64712
2022-12-01 14:18:27.627251, 1.65200
2022-12-01 14:18:27.635669, 1.65200
2022-12-01 14:18:27.644206, 1.65200
2022-12-01 14:18:27.652902, 1.65200
2022-12-01 14:18:27.664789, 1.65689
2022-12-01 14:18:27.672748, 1.65200
2022-12-01 14:18:27.680787, 1.65200
2022-12-01 14:18:27.693030, 1.65200
2022-12-01 14:18:27.701016, 1.65200
2022-12-01 14:18:27.709940, 1.65200
2022-12-01 14:18:27.717918, 1.65689
2022-12-01 14:18:27.729501, 1.65689
2022-12-01 14:18:27.737970, 1.67155
2022-12-01 14:18:27.746710, 1.64712
2022-12-01 14:18:27.754752, 1.64712
2022-12-01 14:18:27.767404, 1.64712
2022-12-01 14:18:27.775088, 1.64712
2022-12-01 14:18:27.784328, 1.64712
2022-12-01 14:18:27.795093, 1.64712
2022-12-01 14:18:27.804053, 1.64712
2022-12-01 14:18:27.812336, 1.64712
2022-12-01 14:18:27.820374, 1.64712
2022-12-01 14:18:27.832472, 1.64712
2022-12-01 14:18:27.840160, 1.64712
2022-12-01 14:18:27.849340, 1.64712
2022-12-01 14:18:27.861587, 1.64712
2022-12-01 14:18:27.869530, 1.64712
2022-12-01 14:18:27.877721, 1.64712
2022-12-01 14:18:27.885893, 1.64712
2022-12-01 14:18:27.898069, 1.64712
2022-12-01 14:18:27.906500, 1.65200
2022-12-01 14:18:27.914476, 1.65200
2022-12-01 14:18:27.926477, 1.65689
2022-12-01 14:18:27.934408, 1.67644
2022-12-01 14:18:27.943379, 1.67155
2022-12-01 14:18:27.951580, 1.67644
2022-12-01 14:18:27.962753, 1.67155
2022-12-01 14:18:27.971896, 1.66178
2022-12-01 14:18:27.979340, 1.66178
2022-12-01 14:18:27.991855, 1.64712
2022-12-01 14:18:28.001422, 1.66667
2022-12-01 14:18:28.008487, 1.65200
2022-12-01 14:18:28.017286, 1.64712
2022-12-01 14:18:28.029349, 1.64712
2022-12-01 14:18:28.037811, 1.64712
2022-12-01 14:18:28.045553, 1.64712
2022-12-01 14:18:28.057932, 1.64712
2022-12-01 14:18:28.066438, 1.64712
2022-12-01 14:18:28.075157, 1.65200
2022-12-01 14:18:28.083334, 1.64712
2022-12-01 14:18:28.094162, 1.64712
2022-12-01 14:18:28.102693, 1.64712
2022-12-01 14:18:28.111134, 1.64712
2022-12-01 14:18:28.122928, 1.64712
2022-12-01 14:18:28.131897, 1.64712
2022-12-01 14:18:28.139439, 1.64712
2022-12-01 14:18:28.148332, 1.67155
2022-12-01 14:18:28.160019, 1.66667
2022-12-01 14:18:28.167992, 1.67644
2022-12-01 14:18:28.176962, 1.65689
2022-12-01 14:18:28.188849, 1.65200
2022-12-01 14:18:28.197120, 1.65200
2022-12-01 14:18:28.205598, 1.65200
2022-12-01 14:18:28.212916, 1.65200
2022-12-01 14:18:28.225871, 1.65200
2022-12-01 14:18:28.233813, 1.64712
2022-12-01 14:18:28.242755, 1.64712
2022-12-01 14:18:28.253731, 1.64712
2022-12-01 14:18:28.262701, 1.64712
2022-12-01 14:18:28.270674, 1.64712
2022-12-01 14:18:28.280798, 1.64712
2022-12-01 14:18:28.290485, 1.64712
2022-12-01 14:18:28.299049, 1.64712
2022-12-01 14:18:28.307627, 1.64712
2022-12-01 14:18:28.319874, 1.65200
2022-12-01 14:18:28.327521, 1.65200
2022-12-01 14:18:28.336050, 1.65200
2022-12-01 14:18:28.344435, 1.66178
2022-12-01 14:18:28.356524, 1.66667
2022-12-01 14:18:28.364850, 1.67644
2022-12-01 14:18:28.373542, 1.64712
2022-12-01 14:18:28.385351, 1.64712
2022-12-01 14:18:28.393860, 1.64712
2022-12-01 14:18:28.401959, 1.64712
2022-12-01 14:18:28.409875, 1.64712
2022-12-01 14:18:28.422432, 1.64712
2022-12-01 14:18:28.430322, 1.64712
2022-12-01 14:18:28.438294, 1.64712
2022-12-01 14:18:28.451234, 1.64712
2022-12-01 14:18:28.459209, 1.64712
2022-12-01 14:18:28.467456, 1.64712
2022-12-01 14:18:28.475982, 1.64712
2022-12-01 14:18:28.488007, 1.64712
2022-12-01 14:18:28.496061, 1.64712
2022-12-01 14:18:28.504030, 1.64712
2022-12-01 14:18:28.516053, 1.64712
2022-12-01 14:18:28.524313, 1.65200
2022-12-01 14:18:28.533313, 1.65200
2022-12-01 14:18:28.541088, 1.65689
2022-12-01 14:18:28.553200, 1.67155
2022-12-01 14:18:28.561124, 1.66178
2022-12-01 14:18:28.569939, 1.67644
2022-12-01 14:18:28.582172, 1.64712
2022-12-01 14:18:28.590188, 1.65200
2022-12-01 14:18:28.598469, 1.65200
2022-12-01 14:18:28.606911, 1.65200
2022-12-01 14:18:28.619161, 1.64712
2022-12-01 14:18:28.626566, 1.64712
2022-12-01 14:18:28.635398, 1.64712
2022-12-01 14:18:28.643812, 1.64712
2022-12-01 14:18:28.655786, 1.64712
2022-12-01 14:18:28.663732, 1.64712
2022-12-01 14:18:28.672355, 1.64712
2022-12-01 14:18:28.684273, 1.64712
2022-12-01 14:18:28.692717, 1.64712
2022-12-01 14:18:28.700662, 1.64712
2022-12-01 14:18:28.708862, 1.64712
2022-12-01 14:18:28.720822, 1.65200
2022-12-01 14:18:28.729791, 1.64712
2022-12-01 14:18:28.737232, 1.64712
2022-12-01 14:18:28.749628, 1.65200
2022-12-01 14:18:28.757600, 1.65200
2022-12-01 14:18:28.765892, 1.65200
2022-12-01 14:18:28.774861, 1.65200
2022-12-01 14:18:28.787135, 1.65689
2022-12-01 14:18:28.795111, 1.66667
2022-12-01 14:18:28.803487, 1.64712
2022-12-01 14:18:28.815440, 1.64712
2022-12-01 14:18:28.823413, 1.64712
2022-12-01 14:18:28.832089, 1.64712
2022-12-01 14:18:28.840442, 1.64712
2022-12-01 14:18:28.852210, 1.64712
2022-12-01 14:18:28.860771, 1.64712
2022-12-01 14:18:28.868743, 1.64712
2022-12-01 14:18:28.880700, 1.64712
2022-12-01 14:18:28.888674, 1.64712
2022-12-01 14:18:28.897663, 1.64712
2022-12-01 14:18:28.906624, 1.64712
2022-12-01 14:18:28.917577, 1.64712
2022-12-01 14:18:28.926080, 1.64712
2022-12-01 14:18:28.934547, 1.64712
2022-12-01 14:18:28.946685, 1.64712
2022-12-01 14:18:28.954657, 1.64712
2022-12-01 14:18:28.962884, 1.65200
2022-12-01 14:18:28.970850, 1.65200
2022-12-01 14:18:28.983667, 1.65689
2022-12-01 14:18:28.992081, 1.66178
2022-12-01 14:18:29.000022, 1.66178
2022-12-01 14:18:29.012304, 1.67644
2022-12-01 14:18:29.020481, 1.64712
2022-12-01 14:18:29.028566, 1.65689
2022-12-01 14:18:29.036761, 1.64712
2022-12-01 14:18:29.048922, 1.64712
2022-12-01 14:18:29.057943, 1.64712
2022-12-01 14:18:29.065226, 1.64712
2022-12-01 14:18:29.077695, 1.64712
2022-12-01 14:18:29.085566, 1.64712
2022-12-01 14:18:29.094053, 1.64712
2022-12-01 14:18:29.101998, 1.64712
2022-12-01 14:18:29.114160, 1.64712
2022-12-01 14:18:29.122670, 1.64712
2022-12-01 14:18:29.131346, 1.64712
2022-12-01 14:18:29.143469, 1.64712
2022-12-01 14:18:29.151234, 1.64712
2022-12-01 14:18:29.159206, 1.65200
2022-12-01 14:18:29.167465, 1.64712
2022-12-01 14:18:29.180425, 1.64712
2022-12-01 14:18:29.188260, 1.64712
2022-12-01 14:18:29.196678, 1.64712
2022-12-01 14:18:29.208614, 1.64712
2022-12-01 14:18:29.217291, 1.65200
2022-12-01 14:18:29.225234, 1.65689
2022-12-01 14:18:29.233180, 1.67644
2022-12-01 14:18:29.245597, 1.64712
2022-12-01 14:18:29.254040, 1.64712
2022-12-01 14:18:29.262313, 1.64712
2022-12-01 14:18:29.274291, 1.64712
2022-12-01 14:18:29.282255, 1.64712
2022-12-01 14:18:29.291009, 1.64712
2022-12-01 14:18:29.298837, 1.64712
2022-12-01 14:18:29.311363, 1.64712
2022-12-01 14:18:29.319724, 1.64712
2022-12-01 14:18:29.327659, 1.64712
2022-12-01 14:18:29.339753, 1.64712
2022-12-01 14:18:29.348057, 1.64712
2022-12-01 14:18:29.356106, 1.64712
2022-12-01 14:18:29.364024, 1.64712
2022-12-01 14:18:29.376550, 1.64712
2022-12-01 14:18:29.385160, 1.65200
2022-12-01 14:18:29.392978, 1.64712
2022-12-01 14:18:29.405395, 1.65200
2022-12-01 14:18:29.413031, 1.65200
2022-12-01 14:18:29.421742, 1.65200
2022-12-01 14:18:29.429658, 1.66178
2022-12-01 14:18:29.442164, 1.67644
2022-12-01 14:18:29.450540, 1.65200
2022-12-01 14:18:29.458482, 1.65200
2022-12-01 14:18:29.466682, 1.64712
2022-12-01 14:18:29.478642, 1.65200
2022-12-01 14:18:29.487327, 1.65200
2022-12-01 14:18:29.495640, 1.64712
2022-12-01 14:18:29.507663, 1.65200
2022-12-01 14:18:29.516042, 1.64712
2022-12-01 14:18:29.524483, 1.65200
2022-12-01 14:18:29.532444, 1.64712
2022-12-01 14:18:29.544708, 1.64712
2022-12-01 14:18:29.552990, 1.65200
2022-12-01 14:18:29.561124, 1.65689
2022-12-01 14:18:29.573417, 1.66667
2022-12-01 14:18:29.581858, 1.66667
2022-12-01 14:18:29.589806, 1.66178
2022-12-01 14:18:29.598042, 1.64712
2022-12-01 14:18:29.609887, 1.64712
2022-12-01 14:18:29.618337, 1.64712
2022-12-01 14:18:29.626650, 1.64712
2022-12-01 14:18:29.638415, 1.65200
2022-12-01 14:18:29.646990, 1.65200
2022-12-01 14:18:29.655432, 1.65200
2022-12-01 14:18:29.663398, 1.65200
2022-12-01 14:18:29.675885, 1.65200
2022-12-01 14:18:29.684037, 1.64712
2022-12-01 14:18:29.691902, 1.64712
2022-12-01 14:18:29.704349, 1.64712
2022-12-01 14:18:29.712325, 1.64712
2022-12-01 14:18:29.720302, 1.65200
2022-12-01 14:18:29.728891, 1.65200
2022-12-01 14:18:29.741094, 1.65200
2022-12-01 14:18:29.749566, 1.65200
2022-12-01 14:18:29.757552, 1.65689
2022-12-01 14:18:29.770169, 1.67644
2022-12-01 14:18:29.778114, 1.66178
2022-12-01 14:18:29.786081, 1.64712
2022-12-01 14:18:29.794497, 1.65200
2022-12-01 14:18:29.807194, 1.65200
2022-12-01 14:18:29.814681, 1.64712
2022-12-01 14:18:29.823183, 1.64712
2022-12-01 14:18:29.835627, 1.64712
2022-12-01 14:18:29.843678, 1.64712
2022-12-01 14:18:29.852145, 1.64712
2022-12-01 14:18:29.860300, 1.64712
2022-12-01 14:18:29.872116, 1.64712
2022-12-01 14:18:29.880595, 1.64712
2022-12-01 14:18:29.889038, 1.64712
2022-12-01 14:18:29.900484, 1.64712
2022-12-01 14:18:29.908609, 1.64712
2022-12-01 14:18:29.917309, 1.64712
2022-12-01 14:18:29.925683, 1.64712
2022-12-01 14:18:29.937316, 1.64712
2022-12-01 14:18:29.945995, 1.65200
2022-12-01 14:18:29.954592, 1.65200
2022-12-01 14:18:29.966546, 1.65200
2022-12-01 14:18:29.974988, 1.65689
2022-12-01 14:18:29.982936, 1.66667
2022-12-01 14:18:29.991378, 1.65200
2022-12-01 14:18:30.003414, 1.66667
2022-12-01 14:18:30.011500, 1.67155
2022-12-01 14:18:30.019945, 1.64712
2022-12-01 14:18:30.031411, 1.64712
2022-12-01 14:18:30.040230, 1.64712
2022-12-01 14:18:30.048840, 1.64712
2022-12-01 14:18:30.056788, 1.64712
2022-12-01 14:18:30.068884, 1.64712
2022-12-01 14:18:30.077364, 1.64712
2022-12-01 14:18:30.084829, 1.64712
2022-12-01 14:18:30.097540, 1.64712
2022-12-01 14:18:30.105982, 1.64712
2022-12-01 14:18:30.114426, 1.64712
2022-12-01 14:18:30.121942, 1.65200
2022-12-01 14:18:30.134104, 1.65200
2022-12-01 14:18:30.142491, 1.64712
2022-12-01 14:18:30.150899, 1.65200
2022-12-01 14:18:30.162801, 1.65200
2022-12-01 14:18:30.170929, 1.65200
2022-12-01 14:18:30.180498, 1.65689
2022-12-01 14:18:30.187799, 1.66667
2022-12-01 14:18:30.199291, 1.67644
2022-12-01 14:18:30.208261, 1.67155
2022-12-01 14:18:30.215943, 1.65200
2022-12-01 14:18:30.228147, 1.64712
2022-12-01 14:18:30.237117, 1.64712
2022-12-01 14:18:30.244423, 1.64712
2022-12-01 14:18:30.253160, 1.64712
2022-12-01 14:18:30.265125, 1.64712
2022-12-01 14:18:30.273983, 1.64712
2022-12-01 14:18:30.281974, 1.64712
2022-12-01 14:18:30.294055, 1.64712
2022-12-01 14:18:30.302474, 1.64712
2022-12-01 14:18:30.310187, 1.64712
2022-12-01 14:18:30.318365, 1.65200
2022-12-01 14:18:30.330611, 1.64712
2022-12-01 14:18:30.339402, 1.65200
2022-12-01 14:18:30.347348, 1.64712
2022-12-01 14:18:30.355163, 1.64712
2022-12-01 14:18:30.367900, 1.64712
2022-12-01 14:18:30.376373, 1.65200
2022-12-01 14:18:30.384588, 1.64712
2022-12-01 14:18:30.395587, 1.65200
2022-12-01 14:18:30.404691, 1.65200
2022-12-01 14:18:30.413176, 1.65200
2022-12-01 14:18:30.421244, 1.65689
2022-12-01 14:18:30.433205, 1.66178
2022-12-01 14:18:30.441178, 1.66667
2022-12-01 14:18:30.449633, 1.67155
2022-12-01 14:18:30.461989, 1.67155
2022-12-01 14:18:30.470033, 1.66178
2022-12-01 14:18:30.478932, 1.64712
2022-12-01 14:18:30.486912, 1.64712
2022-12-01 14:18:30.498532, 1.64712
2022-12-01 14:18:30.507315, 1.64712
2022-12-01 14:18:30.515405, 1.64712
2022-12-01 14:18:30.527578, 1.64712
2022-12-01 14:18:30.535944, 1.64712
2022-12-01 14:18:30.544449, 1.64712
2022-12-01 14:18:30.552329, 1.64712
2022-12-01 14:18:30.564656, 1.64712
2022-12-01 14:18:30.572872, 1.64712
2022-12-01 14:18:30.581060, 1.64712
2022-12-01 14:18:30.593411, 1.64712
2022-12-01 14:18:30.601376, 1.64712
2022-12-01 14:18:30.609300, 1.64712
2022-12-01 14:18:30.617917, 1.64712
2022-12-01 14:18:30.630302, 1.64712
2022-12-01 14:18:30.638273, 1.64712
2022-12-01 14:18:30.646542, 1.64712
2022-12-01 14:18:30.658636, 1.64712
2022-12-01 14:18:30.667203, 1.64712
2022-12-01 14:18:30.675246, 1.64712
2022-12-01 14:18:30.683288, 1.64712
2022-12-01 14:18:30.695218, 1.64712
2022-12-01 14:18:30.703646, 1.64712
2022-12-01 14:18:30.712136, 1.64712
2022-12-01 14:18:30.724185, 1.65200
2022-12-01 14:18:30.732814, 1.64712
2022-12-01 14:18:30.740628, 1.65200
2022-12-01 14:18:30.748835, 1.66667
2022-12-01 14:18:30.761041, 1.67644
2022-12-01 14:18:30.769692, 1.64712
2022-12-01 14:18:30.777637, 1.64712
2022-12-01 14:18:30.790084, 1.64712
2022-12-01 14:18:30.797894, 1.64712
2022-12-01 14:18:30.806561, 1.64712
2022-12-01 14:18:30.814230, 1.64712
2022-12-01 14:18:30.826627, 1.64712
2022-12-01 14:18:30.834412, 1.64223
2022-12-01 14:18:30.843420, 1.64223
2022-12-01 14:18:30.855395, 1.64223
2022-12-01 14:18:30.863721, 1.63734
2022-12-01 14:18:30.871665, 1.64223
2022-12-01 14:18:30.879819, 1.64223
2022-12-01 14:18:30.892489, 1.64223
2022-12-01 14:18:30.900364, 1.64223
2022-12-01 14:18:30.908641, 1.64223
2022-12-01 14:18:30.920802, 1.64712
2022-12-01 14:18:30.928985, 1.64712
2022-12-01 14:18:30.937583, 1.65200
2022-12-01 14:18:30.945770, 1.65200
2022-12-01 14:18:30.957694, 1.65200
2022-12-01 14:18:30.965968, 1.65689
2022-12-01 14:18:30.973782, 1.66178
2022-12-01 14:18:30.986574, 1.65200
2022-12-01 14:18:30.994540, 1.65689
2022-12-01 14:18:31.002680, 1.65200
2022-12-01 14:18:31.011124, 1.65200
2022-12-01 14:18:31.023095, 1.65689
2022-12-01 14:18:31.031353, 1.65200
2022-12-01 14:18:31.040331, 1.65200
2022-12-01 14:18:31.051927, 1.65200
2022-12-01 14:18:31.060410, 1.65200
2022-12-01 14:18:31.068493, 1.65689
2022-12-01 14:18:31.076962, 1.64712
2022-12-01 14:18:31.088720, 1.64712
2022-12-01 14:18:31.097087, 1.64712
2022-12-01 14:18:31.105236, 1.64712
2022-12-01 14:18:31.117379, 1.64712
2022-12-01 14:18:31.125726, 1.64712
2022-12-01 14:18:31.133700, 1.65200
2022-12-01 14:18:31.142241, 1.65200
2022-12-01 14:18:31.154185, 1.65200
2022-12-01 14:18:31.162159, 1.65200
2022-12-01 14:18:31.171110, 1.65689
2022-12-01 14:18:31.183093, 1.64712
2022-12-01 14:18:31.191627, 1.65200
2022-12-01 14:18:31.199547, 1.67644
2022-12-01 14:18:31.207680, 1.64712
2022-12-01 14:18:31.220130, 1.64712
2022-12-01 14:18:31.227832, 1.64712
2022-12-01 14:18:31.236575, 1.64712
2022-12-01 14:18:31.244522, 1.64712
2022-12-01 14:18:31.257152, 1.64712
2022-12-01 14:18:31.265083, 1.64712
2022-12-01 14:18:31.273565, 1.64712
2022-12-01 14:18:31.285484, 1.65200
2022-12-01 14:18:31.293582, 1.64712
2022-12-01 14:18:31.301427, 1.64712
2022-12-01 14:18:31.309913, 1.65200
2022-12-01 14:18:31.322191, 1.65200
2022-12-01 14:18:31.330791, 1.65200
2022-12-01 14:18:31.338756, 1.65200
2022-12-01 14:18:31.350497, 1.64712
2022-12-01 14:18:31.359470, 1.65200
2022-12-01 14:18:31.367417, 1.65200
2022-12-01 14:18:31.375360, 1.65200
2022-12-01 14:18:31.387264, 1.65200
2022-12-01 14:18:31.396064, 1.66178
2022-12-01 14:18:31.404272, 1.67644
2022-12-01 14:18:31.415837, 1.67644
2022-12-01 14:18:31.424805, 1.65200
2022-12-01 14:18:31.432465, 1.65200
2022-12-01 14:18:31.441434, 1.64712
2022-12-01 14:18:31.453022, 1.64712
2022-12-01 14:18:31.461572, 1.64712
2022-12-01 14:18:31.469965, 1.64712
2022-12-01 14:18:31.482075, 1.64712
2022-12-01 14:18:31.490430, 1.64712
2022-12-01 14:18:31.498382, 1.64712
2022-12-01 14:18:31.506816, 1.64712
2022-12-01 14:18:31.519082, 1.64712
2022-12-01 14:18:31.526794, 1.64712
2022-12-01 14:18:31.534990, 1.64712
2022-12-01 14:18:31.546950, 1.64712
2022-12-01 14:18:31.555914, 1.65200
2022-12-01 14:18:31.563886, 1.65200
2022-12-01 14:18:31.572226, 1.65200
2022-12-01 14:18:31.583650, 1.65689
2022-12-01 14:18:31.592783, 1.65200
2022-12-01 14:18:31.600418, 1.65689
2022-12-01 14:18:31.613379, 1.65689
2022-12-01 14:18:31.621098, 1.67644
2022-12-01 14:18:31.629073, 1.64712
2022-12-01 14:18:31.638042, 1.64712
2022-12-01 14:18:31.650109, 1.64712
2022-12-01 14:18:31.658090, 1.64712
2022-12-01 14:18:31.666586, 1.65200
2022-12-01 14:18:31.678427, 1.64712
2022-12-01 14:18:31.686470, 1.64712
2022-12-01 14:18:31.695128, 1.64712
2022-12-01 14:18:31.703164, 1.64712
2022-12-01 14:18:31.715239, 1.64712
2022-12-01 14:18:31.724449, 1.64712
2022-12-01 14:18:31.731948, 1.64712
2022-12-01 14:18:31.744395, 1.64712
2022-12-01 14:18:31.751821, 1.64712
2022-12-01 14:18:31.761007, 1.64712
2022-12-01 14:18:31.768443, 1.64712
2022-12-01 14:18:31.781321, 1.64712
2022-12-01 14:18:31.789214, 1.64712
2022-12-01 14:18:31.797187, 1.65200
2022-12-01 14:18:31.809562, 1.65200
2022-12-01 14:18:31.817982, 1.65200
2022-12-01 14:18:31.825751, 1.65200
2022-12-01 14:18:31.834288, 1.65200
2022-12-01 14:18:31.846729, 1.65689
2022-12-01 14:18:31.854919, 1.67644
2022-12-01 14:18:31.863303, 1.64712
2022-12-01 14:18:31.874901, 1.64712
2022-12-01 14:18:31.883062, 1.64712
2022-12-01 14:18:31.891674, 1.64712
2022-12-01 14:18:31.900015, 1.65200
2022-12-01 14:18:31.911769, 1.65200
2022-12-01 14:18:31.919753, 1.65200
2022-12-01 14:18:31.928520, 1.64712
2022-12-01 14:18:31.941078, 1.64712
2022-12-01 14:18:31.950149, 1.64712
2022-12-01 14:18:31.956811, 1.64712
2022-12-01 14:18:31.964792, 1.64712
2022-12-01 14:18:31.977751, 1.64712
2022-12-01 14:18:31.985724, 1.64712
2022-12-01 14:18:31.993786, 1.65200
2022-12-01 14:18:32.006654, 1.65200
2022-12-01 14:18:32.014310, 1.65200
2022-12-01 14:18:32.022292, 1.65200
2022-12-01 14:18:32.031254, 1.65200
2022-12-01 14:18:32.043388, 1.66667
2022-12-01 14:18:32.051513, 1.67155
2022-12-01 14:18:32.059957, 1.64712
2022-12-01 14:18:32.067706, 1.64712
2022-12-01 14:18:32.080092, 1.64712
2022-12-01 14:18:32.088565, 1.65200
2022-12-01 14:18:32.096301, 1.64712
2022-12-01 14:18:32.108625, 1.64712
2022-12-01 14:18:32.116750, 1.64712
2022-12-01 14:18:32.124729, 1.64712
2022-12-01 14:18:32.133270, 1.65200
2022-12-01 14:18:32.145152, 1.65200
2022-12-01 14:18:32.154120, 1.65200
2022-12-01 14:18:32.161582, 1.65200
2022-12-01 14:18:32.174539, 1.65200
2022-12-01 14:18:32.182108, 1.65200
2022-12-01 14:18:32.191071, 1.65200
2022-12-01 14:18:32.199043, 1.64712
2022-12-01 14:18:32.211004, 1.64712
2022-12-01 14:18:32.218978, 1.64712
2022-12-01 14:18:32.226950, 1.64712
2022-12-01 14:18:32.239908, 1.64712
2022-12-01 14:18:32.247880, 1.64712
2022-12-01 14:18:32.256312, 1.65200
2022-12-01 14:18:32.264356, 1.66178
2022-12-01 14:18:32.276396, 1.65200
2022-12-01 14:18:32.284718, 1.65200
2022-12-01 14:18:32.293177, 1.66178
2022-12-01 14:18:32.305053, 1.65689
2022-12-01 14:18:32.313787, 1.65689
2022-12-01 14:18:32.321717, 1.65200
2022-12-01 14:18:32.329660, 1.65689
2022-12-01 14:18:32.342214, 1.66667
2022-12-01 14:18:32.350750, 1.66178
2022-12-01 14:18:32.358959, 1.66667
2022-12-01 14:18:32.370733, 1.67155
2022-12-01 14:18:32.379082, 1.65200
2022-12-01 14:18:32.387055, 1.64712
2022-12-01 14:18:32.395030, 1.64712
2022-12-01 14:18:32.407602, 1.64712
2022-12-01 14:18:32.416191, 1.64712
2022-12-01 14:18:32.424678, 1.64712
2022-12-01 14:18:32.435853, 1.64712
2022-12-01 14:18:32.445147, 1.64712
2022-12-01 14:18:32.452599, 1.64712
2022-12-01 14:18:32.461468, 1.64712
2022-12-01 14:18:32.473690, 1.64712
2022-12-01 14:18:32.482458, 1.64712
2022-12-01 14:18:32.489851, 1.64712
2022-12-01 14:18:32.502345, 1.64712
2022-12-01 14:18:32.510162, 1.64712
2022-12-01 14:18:32.518458, 1.64712
2022-12-01 14:18:32.526367, 1.64712
2022-12-01 14:18:32.538631, 1.64712
2022-12-01 14:18:32.546971, 1.64712
2022-12-01 14:18:32.555625, 1.64712
2022-12-01 14:18:32.568446, 1.64712
2022-12-01 14:18:32.576220, 1.64712
2022-12-01 14:18:32.584847, 1.64712
2022-12-01 14:18:32.592298, 1.64712
2022-12-01 14:18:32.604593, 1.64712
2022-12-01 14:18:32.613547, 1.64712
2022-12-01 14:18:32.621035, 1.64712
2022-12-01 14:18:32.633995, 1.64712
2022-12-01 14:18:32.641812, 1.64712
2022-12-01 14:18:32.650160, 1.64712
2022-12-01 14:18:32.658192, 1.65200
2022-12-01 14:18:32.669837, 1.65200
2022-12-01 14:18:32.678445, 1.65200
2022-12-01 14:18:32.686449, 1.65689
2022-12-01 14:18:32.698666, 1.65200
2022-12-01 14:18:32.707181, 1.66178
2022-12-01 14:18:32.715310, 1.66178
2022-12-01 14:18:32.723283, 1.67155
2022-12-01 14:18:32.736406, 1.66178
2022-12-01 14:18:32.743617, 1.67644
2022-12-01 14:18:32.752795, 1.65200
2022-12-01 14:18:32.764985, 1.64712
2022-12-01 14:18:32.773608, 1.64712
2022-12-01 14:18:32.781024, 1.64712
2022-12-01 14:18:32.788850, 1.64712
2022-12-01 14:18:32.801933, 1.64712
2022-12-01 14:18:32.809362, 1.64712
2022-12-01 14:18:32.818017, 1.64712
2022-12-01 14:18:32.830141, 1.64712
2022-12-01 14:18:32.837681, 1.64712
2022-12-01 14:18:32.846480, 1.64712
2022-12-01 14:18:32.854342, 1.64712
2022-12-01 14:18:32.866393, 1.64712
2022-12-01 14:18:32.874428, 1.64712
2022-12-01 14:18:32.883282, 1.65200
2022-12-01 14:18:32.895220, 1.65200
2022-12-01 14:18:32.903049, 1.65200
2022-12-01 14:18:32.911971, 1.64712
2022-12-01 14:18:32.920194, 1.65200
2022-12-01 14:18:32.931638, 1.64712
2022-12-01 14:18:32.939956, 1.64712
2022-12-01 14:18:32.948927, 1.65200
2022-12-01 14:18:32.957092, 1.64712
2022-12-01 14:18:32.969277, 1.65200
2022-12-01 14:18:32.976846, 1.65200
2022-12-01 14:18:32.984887, 1.65200
2022-12-01 14:18:32.997288, 1.64712
2022-12-01 14:18:33.006137, 1.64712
2022-12-01 14:18:33.014364, 1.64712
2022-12-01 14:18:33.022312, 1.64712
2022-12-01 14:18:33.033980, 1.64712
2022-12-01 14:18:33.042509, 1.64712
2022-12-01 14:18:33.050472, 1.64712
2022-12-01 14:18:33.062500, 1.64712
2022-12-01 14:18:33.071502, 1.65200
2022-12-01 14:18:33.079409, 1.64712
2022-12-01 14:18:33.087265, 1.65200
2022-12-01 14:18:33.099753, 1.65200
2022-12-01 14:18:33.107958, 1.65200
2022-12-01 14:18:33.116777, 1.65200
2022-12-01 14:18:33.128170, 1.67644
2022-12-01 14:18:33.136388, 1.64712
2022-12-01 14:18:33.145438, 1.64712
2022-12-01 14:18:33.152715, 1.64712
2022-12-01 14:18:33.165459, 1.64712
2022-12-01 14:18:33.173430, 1.65200
2022-12-01 14:18:33.181831, 1.65200
2022-12-01 14:18:33.194289, 1.64712
2022-12-01 14:18:33.201953, 1.64712
2022-12-01 14:18:33.210157, 1.64712
2022-12-01 14:18:33.219079, 1.64712
2022-12-01 14:18:33.231054, 1.65200
2022-12-01 14:18:33.238836, 1.65200
2022-12-01 14:18:33.247067, 1.65200
2022-12-01 14:18:33.260245, 1.65200
2022-12-01 14:18:33.268115, 1.64712
2022-12-01 14:18:33.276568, 1.65200
2022-12-01 14:18:33.284797, 1.64712
2022-12-01 14:18:33.297574, 1.65200
2022-12-01 14:18:33.305024, 1.64712
2022-12-01 14:18:33.313475, 1.64712
2022-12-01 14:18:33.325629, 1.64712
2022-12-01 14:18:33.333904, 1.65200
2022-12-01 14:18:33.342012, 1.65200
2022-12-01 14:18:33.350067, 1.65200
2022-12-01 14:18:33.361871, 1.65200
2022-12-01 14:18:33.369904, 1.65200
2022-12-01 14:18:33.378814, 1.66667
2022-12-01 14:18:33.390779, 1.66178
2022-12-01 14:18:33.399492, 1.67155
2022-12-01 14:18:33.407700, 1.65200
2022-12-01 14:18:33.416355, 1.64712
2022-12-01 14:18:33.428090, 1.64712
2022-12-01 14:18:33.436722, 1.64712
2022-12-01 14:18:33.445011, 1.64712
2022-12-01 14:18:33.456109, 1.64712
2022-12-01 14:18:33.464750, 1.64712
2022-12-01 14:18:33.472903, 1.64712
2022-12-01 14:18:33.481687, 1.64712
2022-12-01 14:18:33.493561, 1.64712
2022-12-01 14:18:33.501839, 1.64712
2022-12-01 14:18:33.509870, 1.64712
2022-12-01 14:18:33.522038, 1.65200
2022-12-01 14:18:33.530015, 1.65200
2022-12-01 14:18:33.538559, 1.65200
2022-12-01 14:18:33.547519, 1.64712
2022-12-01 14:18:33.558529, 1.64712
2022-12-01 14:18:33.567456, 1.64712
2022-12-01 14:18:33.575458, 1.64712
2022-12-01 14:18:33.587409, 1.64712
2022-12-01 14:18:33.595770, 1.64712
2022-12-01 14:18:33.604209, 1.64712
2022-12-01 14:18:33.612955, 1.64712
2022-12-01 14:18:33.624042, 1.65200
2022-12-01 14:18:33.633459, 1.65200
2022-12-01 14:18:33.641061, 1.65200
2022-12-01 14:18:33.653167, 1.65200
2022-12-01 14:18:33.661758, 1.65200
2022-12-01 14:18:33.669172, 1.65200
2022-12-01 14:18:33.677969, 1.65200
2022-12-01 14:18:33.689229, 1.65200
2022-12-01 14:18:33.698198, 1.66178
2022-12-01 14:18:33.706327, 1.67155
2022-12-01 14:18:33.718229, 1.67644
2022-12-01 14:18:33.726209, 1.65689
2022-12-01 14:18:33.735172, 1.67155
2022-12-01 14:18:33.743149, 1.65200
2022-12-01 14:18:33.754897, 1.64712
2022-12-01 14:18:33.763251, 1.64712
2022-12-01 14:18:33.772381, 1.64712
2022-12-01 14:18:33.784140, 1.64712
2022-12-01 14:18:33.792086, 1.64712
2022-12-01 14:18:33.800190, 1.64712
2022-12-01 14:18:33.808163, 1.64712
2022-12-01 14:18:33.820715, 1.64712
2022-12-01 14:18:33.829406, 1.64712
2022-12-01 14:18:33.837382, 1.64712
2022-12-01 14:18:33.845141, 1.64712
2022-12-01 14:18:33.857101, 1.64712
2022-12-01 14:18:33.866070, 1.64712
2022-12-01 14:18:33.873904, 1.64712
2022-12-01 14:18:33.886521, 1.64712
2022-12-01 14:18:33.894830, 1.64712
2022-12-01 14:18:33.902539, 1.65200
2022-12-01 14:18:33.911420, 1.65200
2022-12-01 14:18:33.923828, 1.65200
2022-12-01 14:18:33.931873, 1.65200
2022-12-01 14:18:33.939500, 1.65200
2022-12-01 14:18:33.951729, 1.65200
2022-12-01 14:18:33.960504, 1.67155
2022-12-01 14:18:33.968785, 1.64712
2022-12-01 14:18:33.976642, 1.64712
2022-12-01 14:18:33.989076, 1.64712
2022-12-01 14:18:33.997238, 1.64712
2022-12-01 14:18:34.005401, 1.64712
2022-12-01 14:18:34.017917, 1.64712
2022-12-01 14:18:34.026102, 1.64712
2022-12-01 14:18:34.034376, 1.64712
2022-12-01 14:18:34.042632, 1.64712
2022-12-01 14:18:34.054238, 1.64712
2022-12-01 14:18:34.062766, 1.64712
2022-12-01 14:18:34.071161, 1.64712
2022-12-01 14:18:34.083982, 1.64712
2022-12-01 14:18:34.091115, 1.64712
2022-12-01 14:18:34.100367, 1.64712
2022-12-01 14:18:34.107853, 1.64712
2022-12-01 14:18:34.119774, 1.64712
2022-12-01 14:18:34.128289, 1.65200
2022-12-01 14:18:34.136659, 1.65689
2022-12-01 14:18:34.148015, 1.66667
2022-12-01 14:18:34.156348, 1.66667
2022-12-01 14:18:34.164926, 1.65200
2022-12-01 14:18:34.173351, 1.67155
2022-12-01 14:18:34.186020, 1.67644
2022-12-01 14:18:34.193865, 1.66667
2022-12-01 14:18:34.202284, 1.67155
2022-12-01 14:18:34.214273, 1.67155
2022-12-01 14:18:34.222288, 1.67644
2022-12-01 14:18:34.230709, 1.67155
2022-12-01 14:18:34.238910, 1.64712
2022-12-01 14:18:34.251949, 1.64712
2022-12-01 14:18:34.259123, 1.64712
2022-12-01 14:18:34.267584, 1.64712
2022-12-01 14:18:34.279534, 1.64712
2022-12-01 14:18:34.287470, 1.64712
2022-12-01 14:18:34.295964, 1.64712
2022-12-01 14:18:34.304293, 1.65200
2022-12-01 14:18:34.316517, 1.65200
2022-12-01 14:18:34.324891, 1.65200
2022-12-01 14:18:34.332848, 1.65200
2022-12-01 14:18:34.344867, 1.64712
2022-12-01 14:18:34.353489, 1.64712
2022-12-01 14:18:34.361515, 1.65200
2022-12-01 14:18:34.369866, 1.65200
2022-12-01 14:18:34.381962, 1.65200
2022-12-01 14:18:34.390282, 1.65200
2022-12-01 14:18:34.398279, 1.64712
2022-12-01 14:18:34.410261, 1.65200
2022-12-01 14:18:34.418650, 1.66178
2022-12-01 14:18:34.426630, 1.67644
2022-12-01 14:18:34.435589, 1.67155
2022-12-01 14:18:34.447741, 1.67644
2022-12-01 14:18:34.455976, 1.67644
2022-12-01 14:18:34.464962, 1.64712
2022-12-01 14:18:34.476288, 1.64712
2022-12-01 14:18:34.484671, 1.64712
2022-12-01 14:18:34.492845, 1.64712
2022-12-01 14:18:34.501760, 1.64712
2022-12-01 14:18:34.514013, 1.64712
2022-12-01 14:18:34.521498, 1.64712
2022-12-01 14:18:34.530015, 1.64712
2022-12-01 14:18:34.541349, 1.64712
2022-12-01 14:18:34.550425, 1.65200
2022-12-01 14:18:34.558289, 1.64712
2022-12-01 14:18:34.566528, 1.64712
2022-12-01 14:18:34.579602, 1.64712
2022-12-01 14:18:34.586679, 1.65200
2022-12-01 14:18:34.595982, 1.65200
2022-12-01 14:18:34.607561, 1.65200
2022-12-01 14:18:34.614780, 1.65200
2022-12-01 14:18:34.624452, 1.65200
2022-12-01 14:18:34.632131, 1.67644
2022-12-01 14:18:34.645218, 1.64712
2022-12-01 14:18:34.652764, 1.64712
2022-12-01 14:18:34.661197, 1.64712
2022-12-01 14:18:34.669436, 1.64712
2022-12-01 14:18:34.681552, 1.64712
2022-12-01 14:18:34.689496, 1.64712
2022-12-01 14:18:34.697885, 1.64712
2022-12-01 14:18:34.709790, 1.64712
2022-12-01 14:18:34.718425, 1.65200
2022-12-01 14:18:34.726290, 1.65200
2022-12-01 14:18:34.734522, 1.64712
2022-12-01 14:18:34.747549, 1.65200
2022-12-01 14:18:34.754911, 1.65200
2022-12-01 14:18:34.763948, 1.65200
2022-12-01 14:18:34.775443, 1.65200
2022-12-01 14:18:34.784207, 1.65200
2022-12-01 14:18:34.791930, 1.64712
2022-12-01 14:18:34.800134, 1.65200
2022-12-01 14:18:34.813065, 1.64712
2022-12-01 14:18:34.820387, 1.64712
2022-12-01 14:18:34.829473, 1.64712
2022-12-01 14:18:34.841040, 1.64712
2022-12-01 14:18:34.849953, 1.64712
2022-12-01 14:18:34.857200, 1.64712
2022-12-01 14:18:34.866029, 1.64712
2022-12-01 14:18:34.877321, 1.64712
2022-12-01 14:18:34.885893, 1.64712
2022-12-01 14:18:34.894209, 1.65200
2022-12-01 14:18:34.906773, 1.65200
2022-12-01 14:18:34.915479, 1.65200
2022-12-01 14:18:34.922911, 1.65200
2022-12-01 14:18:34.931163, 1.65200
2022-12-01 14:18:34.943186, 1.65200
2022-12-01 14:18:34.951163, 1.65200
2022-12-01 14:18:34.959306, 1.65200
2022-12-01 14:18:34.971591, 1.66667
2022-12-01 14:18:34.979928, 1.65200
2022-12-01 14:18:34.988510, 1.64712
2022-12-01 14:18:34.996546, 1.64712
2022-12-01 14:18:35.008135, 1.64712
2022-12-01 14:18:35.017456, 1.64712
2022-12-01 14:18:35.024713, 1.64712
2022-12-01 14:18:35.036883, 1.64712
2022-12-01 14:18:35.045858, 1.64712
2022-12-01 14:18:35.053493, 1.64712
2022-12-01 14:18:35.061915, 1.64712
2022-12-01 14:18:35.073748, 1.64712
2022-12-01 14:18:35.082598, 1.64712
2022-12-01 14:18:35.090565, 1.64712
2022-12-01 14:18:35.102969, 1.64712
2022-12-01 14:18:35.111908, 1.64712
2022-12-01 14:18:35.120500, 1.64712
2022-12-01 14:18:35.127479, 1.64712
2022-12-01 14:18:35.139721, 1.64712
2022-12-01 14:18:35.148304, 1.64712
2022-12-01 14:18:35.156273, 1.64712
2022-12-01 14:18:35.167988, 1.65200
2022-12-01 14:18:35.176564, 1.65200
2022-12-01 14:18:35.185029, 1.65200
2022-12-01 14:18:35.192988, 1.65689
2022-12-01 14:18:35.205370, 1.66667
2022-12-01 14:18:35.212946, 1.67155
2022-12-01 14:18:35.222022, 1.67644
2022-12-01 14:18:35.233980, 1.67644
2022-12-01 14:18:35.242099, 1.64712
2022-12-01 14:18:35.250072, 1.66178
2022-12-01 14:18:35.258047, 1.65689
2022-12-01 14:18:35.270829, 1.64712
2022-12-01 14:18:35.278801, 1.64712
2022-12-01 14:18:35.287344, 1.64712
2022-12-01 14:18:35.299033, 1.64712
2022-12-01 14:18:35.307540, 1.64712
2022-12-01 14:18:35.315847, 1.64712
2022-12-01 14:18:35.324002, 1.64712
2022-12-01 14:18:35.336046, 1.64712
2022-12-01 14:18:35.344071, 1.64712
2022-12-01 14:18:35.352598, 1.64712
2022-12-01 14:18:35.364556, 1.64712
2022-12-01 14:18:35.373476, 1.64712
2022-12-01 14:18:35.381129, 1.64712
2022-12-01 14:18:35.390047, 1.64712
2022-12-01 14:18:35.402390, 1.64712
2022-12-01 14:18:35.409843, 1.64712
2022-12-01 14:18:35.419124, 1.64712
2022-12-01 14:18:35.430833, 1.64712
2022-12-01 14:18:35.438692, 1.64712
2022-12-01 14:18:35.447999, 1.64712
2022-12-01 14:18:35.455327, 1.64712
2022-12-01 14:18:35.467742, 1.64712
2022-12-01 14:18:35.475625, 1.64712
2022-12-01 14:18:35.483598, 1.64712
2022-12-01 14:18:35.496490, 1.64712
2022-12-01 14:18:35.504715, 1.64712
2022-12-01 14:18:35.512840, 1.65200
2022-12-01 14:18:35.521078, 1.65200
2022-12-01 14:18:35.533506, 1.65200
2022-12-01 14:18:35.541884, 1.64712
2022-12-01 14:18:35.549875, 1.65200
2022-12-01 14:18:35.557998, 1.65200
2022-12-01 14:18:35.569936, 1.64712
2022-12-01 14:18:35.578492, 1.64712
2022-12-01 14:18:35.586599, 1.65689
2022-12-01 14:18:35.598762, 1.66178
2022-12-01 14:18:35.606669, 1.64712
2022-12-01 14:18:35.615453, 1.64712
2022-12-01 14:18:35.623748, 1.64712
2022-12-01 14:18:35.635595, 1.64712
2022-12-01 14:18:35.643899, 1.64712
2022-12-01 14:18:35.652361, 1.64712
2022-12-01 14:18:35.665073, 1.64712
2022-12-01 14:18:35.672217, 1.64712
2022-12-01 14:18:35.680947, 1.64712
2022-12-01 14:18:35.689124, 1.64712
2022-12-01 14:18:35.701420, 1.64712
2022-12-01 14:18:35.709319, 1.64712
2022-12-01 14:18:35.717266, 1.64712
2022-12-01 14:18:35.729829, 1.65200
2022-12-01 14:18:35.737860, 1.65200
2022-12-01 14:18:35.745832, 1.64712
2022-12-01 14:18:35.753739, 1.64712
2022-12-01 14:18:35.766697, 1.64712
2022-12-01 14:18:35.774733, 1.64712
2022-12-01 14:18:35.783282, 1.64712
2022-12-01 14:18:35.795242, 1.64712
2022-12-01 14:18:35.803742, 1.64712
2022-12-01 14:18:35.811706, 1.65200
2022-12-01 14:18:35.819685, 1.65200
2022-12-01 14:18:35.831643, 1.65200
2022-12-01 14:18:35.840567, 1.65200
2022-12-01 14:18:35.848434, 1.65200
2022-12-01 14:18:35.860420, 1.65689
2022-12-01 14:18:35.868321, 1.67155
2022-12-01 14:18:35.877364, 1.67644
2022-12-01 14:18:35.885490, 1.67644
2022-12-01 14:18:35.897279, 1.66178
2022-12-01 14:18:35.909239, 1.67644
2022-12-01 14:18:35.917989, 1.67155
2022-12-01 14:18:35.926949, 1.66667
2022-12-01 14:18:35.934614, 1.64712
2022-12-01 14:18:35.942753, 1.64712
2022-12-01 14:18:35.950764, 1.64712
2022-12-01 14:18:35.962582, 1.64712
2022-12-01 14:18:35.970962, 1.64712
2022-12-01 14:18:35.979283, 1.64712
2022-12-01 14:18:35.991952, 1.64712
2022-12-01 14:18:35.999901, 1.64712
2022-12-01 14:18:36.007871, 1.64712
2022-12-01 14:18:36.016246, 1.64712
2022-12-01 14:18:36.028922, 1.64712
2022-12-01 14:18:36.036873, 1.64712
2022-12-01 14:18:36.045378, 1.64712
2022-12-01 14:18:36.057413, 1.65200
2022-12-01 14:18:36.065623, 1.65200
2022-12-01 14:18:36.073765, 1.65200
2022-12-01 14:18:36.081790, 1.66178
2022-12-01 14:18:36.094358, 1.65689
2022-12-01 14:18:36.102347, 1.65200
2022-12-01 14:18:36.110412, 1.65200
2022-12-01 14:18:36.122319, 1.66178
2022-12-01 14:18:36.131222, 1.67644
2022-12-01 14:18:36.140308, 1.66667
2022-12-01 14:18:36.148404, 1.64712
2022-12-01 14:18:36.160412, 1.64712
2022-12-01 14:18:36.168122, 1.65200
2022-12-01 14:18:36.176279, 1.65200
2022-12-01 14:18:36.188526, 1.65200
2022-12-01 14:18:36.196487, 1.64712
2022-12-01 14:18:36.204437, 1.64712
2022-12-01 14:18:36.213358, 1.64712
2022-12-01 14:18:36.224753, 1.64712
2022-12-01 14:18:36.234038, 1.64712
2022-12-01 14:18:36.242038, 1.64712
2022-12-01 14:18:36.254268, 1.64712
2022-12-01 14:18:36.262279, 1.64712
2022-12-01 14:18:36.270780, 1.64712
2022-12-01 14:18:36.278471, 1.64712
2022-12-01 14:18:36.290416, 1.64712
2022-12-01 14:18:36.299294, 1.64712
2022-12-01 14:18:36.307159, 1.64712
2022-12-01 14:18:36.319122, 1.64712
2022-12-01 14:18:36.327843, 1.64712
2022-12-01 14:18:36.335823, 1.64712
2022-12-01 14:18:36.344253, 1.64712
2022-12-01 14:18:36.356215, 1.64712
2022-12-01 14:18:36.364186, 1.64712
2022-12-01 14:18:36.372691, 1.64712
2022-12-01 14:18:36.384652, 1.65200
2022-12-01 14:18:36.392623, 1.65200
2022-12-01 14:18:36.401596, 1.65200
2022-12-01 14:18:36.409568, 1.65200
2022-12-01 14:18:36.420928, 1.65689
2022-12-01 14:18:36.429546, 1.65689
2022-12-01 14:18:36.438624, 1.66178
2022-12-01 14:18:36.446565, 1.66667
2022-12-01 14:18:36.458700, 1.66178
2022-12-01 14:18:36.467020, 1.66178
2022-12-01 14:18:36.475461, 1.65689
2022-12-01 14:18:36.487009, 1.66667
2022-12-01 14:18:36.495572, 1.67644
2022-12-01 14:18:36.503863, 1.64712
2022-12-01 14:18:36.512056, 1.64712
2022-12-01 14:18:36.524319, 1.64712
2022-12-01 14:18:36.532644, 1.64712
2022-12-01 14:18:36.540495, 1.64712
2022-12-01 14:18:36.553063, 1.67155
2022-12-01 14:18:36.561047, 1.64712
2022-12-01 14:18:36.569379, 1.64712
2022-12-01 14:18:36.577559, 1.64712
2022-12-01 14:18:36.589597, 1.64712
2022-12-01 14:18:36.597929, 1.64712
2022-12-01 14:18:36.606201, 1.64712
2022-12-01 14:18:36.617973, 1.64712
2022-12-01 14:18:36.626770, 1.64712
2022-12-01 14:18:36.634859, 1.64712
2022-12-01 14:18:36.643164, 1.64712
2022-12-01 14:18:36.655457, 1.64712
2022-12-01 14:18:36.663602, 1.64712
2022-12-01 14:18:36.671872, 1.64712
2022-12-01 14:18:36.684449, 1.64712
2022-12-01 14:18:36.692427, 1.64712
2022-12-01 14:18:36.700819, 1.64712
2022-12-01 14:18:36.709183, 1.64712
2022-12-01 14:18:36.721210, 1.64712
2022-12-01 14:18:36.730003, 1.64712
2022-12-01 14:18:36.738037, 1.64712
2022-12-01 14:18:36.749960, 1.64712
2022-12-01 14:18:36.757165, 1.64712
2022-12-01 14:18:36.765475, 1.64712
2022-12-01 14:18:36.774572, 1.64712
2022-12-01 14:18:36.786091, 1.65200
2022-12-01 14:18:36.795026, 1.64712
2022-12-01 14:18:36.802883, 1.64712
2022-12-01 14:18:36.815527, 1.65200
2022-12-01 14:18:36.823333, 1.65200
2022-12-01 14:18:36.831891, 1.65200
2022-12-01 14:18:36.839413, 1.65200
2022-12-01 14:18:36.851969, 1.65200
2022-12-01 14:18:36.860401, 1.65200
2022-12-01 14:18:36.868547, 1.65200
2022-12-01 14:18:36.880629, 1.65200
2022-12-01 14:18:36.889038, 1.65200
2022-12-01 14:18:36.897466, 1.65200
2022-12-01 14:18:36.905062, 1.65200
2022-12-01 14:18:36.917090, 1.65200
2022-12-01 14:18:36.925601, 1.64712
2022-12-01 14:18:36.933913, 1.65200
2022-12-01 14:18:36.946351, 1.64712
2022-12-01 14:18:36.954393, 1.65200
2022-12-01 14:18:36.962299, 1.65200
2022-12-01 14:18:36.971265, 1.65200
2022-12-01 14:18:36.983963, 1.65200
2022-12-01 14:18:36.991095, 1.65200
2022-12-01 14:18:37.000337, 1.65200
2022-12-01 14:18:37.011842, 1.66667
2022-12-01 14:18:37.020086, 1.66178
2022-12-01 14:18:37.028583, 1.67644
2022-12-01 14:18:37.036374, 1.64712
2022-12-01 14:18:37.048980, 1.64712
2022-12-01 14:18:37.057167, 1.64712
2022-12-01 14:18:37.065587, 1.64712
2022-12-01 14:18:37.077631, 1.64712
2022-12-01 14:18:37.085123, 1.64712
2022-12-01 14:18:37.094064, 1.64712
2022-12-01 14:18:37.101785, 1.64712
2022-12-01 14:18:37.114419, 1.64712
2022-12-01 14:18:37.123017, 1.64712
2022-12-01 14:18:37.131421, 1.64712
2022-12-01 14:18:37.142714, 1.64712
2022-12-01 14:18:37.151757, 1.64712
2022-12-01 14:18:37.158867, 1.64712
2022-12-01 14:18:37.168272, 1.64712
2022-12-01 14:18:37.180565, 1.64712
2022-12-01 14:18:37.188195, 1.65200
2022-12-01 14:18:37.196872, 1.65200
2022-12-01 14:18:37.208033, 1.65200
2022-12-01 14:18:37.217440, 1.65200
2022-12-01 14:18:37.224921, 1.65200
2022-12-01 14:18:37.233390, 1.65200
2022-12-01 14:18:37.245795, 1.65200
2022-12-01 14:18:37.253654, 1.65200
2022-12-01 14:18:37.261948, 1.65200
2022-12-01 14:18:37.269671, 1.66178
2022-12-01 14:18:37.282064, 1.65200
2022-12-01 14:18:37.291689, 1.66178
2022-12-01 14:18:37.298373, 1.67644
2022-12-01 14:18:37.311100, 1.66667
2022-12-01 14:18:37.318753, 1.65689
2022-12-01 14:18:37.327466, 1.67644
2022-12-01 14:18:37.335491, 1.64712
2022-12-01 14:18:37.348002, 1.64712
2022-12-01 14:18:37.356051, 1.64712
2022-12-01 14:18:37.364427, 1.64712
2022-12-01 14:18:37.376213, 1.64712
2022-12-01 14:18:37.385003, 1.64712
2022-12-01 14:18:37.392711, 1.64712
2022-12-01 14:18:37.401671, 1.64712
2022-12-01 14:18:37.413091, 1.64712
2022-12-01 14:18:37.422027, 1.64712
2022-12-01 14:18:37.429482, 1.64712
2022-12-01 14:18:37.442144, 1.64712
2022-12-01 14:18:37.450191, 1.64712
2022-12-01 14:18:37.458385, 1.64712
2022-12-01 14:18:37.466408, 1.65200
2022-12-01 14:18:37.478836, 1.64712
2022-12-01 14:18:37.486439, 1.65200
2022-12-01 14:18:37.494412, 1.65200
2022-12-01 14:18:37.506841, 1.65689
2022-12-01 14:18:37.515846, 1.67644
2022-12-01 14:18:37.523794, 1.66178
2022-12-01 14:18:37.531870, 1.64712
2022-12-01 14:18:37.544263, 1.64712
2022-12-01 14:18:37.552439, 1.64712
2022-12-01 14:18:37.560190, 1.64712
2022-12-01 14:18:37.572583, 1.64712
2022-12-01 14:18:37.580510, 1.64712
2022-12-01 14:18:37.589485, 1.64712
2022-12-01 14:18:37.597336, 1.64712
2022-12-01 14:18:37.609385, 1.64712
2022-12-01 14:18:37.618007, 1.64712
2022-12-01 14:18:37.626390, 1.64712
2022-12-01 14:18:37.638569, 1.64712
2022-12-01 14:18:37.646448, 1.64712
2022-12-01 14:18:37.654698, 1.64712
2022-12-01 14:18:37.663154, 1.64712
2022-12-01 14:18:37.675270, 1.64712
2022-12-01 14:18:37.683711, 1.64712
2022-12-01 14:18:37.692088, 1.64712
2022-12-01 14:18:37.704052, 1.64712
2022-12-01 14:18:37.711979, 1.64712
2022-12-01 14:18:37.720870, 1.64712
2022-12-01 14:18:37.728842, 1.64712
2022-12-01 14:18:37.740421, 1.64712
2022-12-01 14:18:37.749040, 1.64712
2022-12-01 14:18:37.757132, 1.65200
2022-12-01 14:18:37.769026, 1.65200
2022-12-01 14:18:37.777995, 1.66178
2022-12-01 14:18:37.785533, 1.66178
2022-12-01 14:18:37.794500, 1.67644
2022-12-01 14:18:37.806098, 1.65200
2022-12-01 14:18:37.814429, 1.64712
2022-12-01 14:18:37.822373, 1.64712
2022-12-01 14:18:37.835169, 1.64712
2022-12-01 14:18:37.842896, 1.64712
2022-12-01 14:18:37.851546, 1.64712
2022-12-01 14:18:37.859989, 1.64712
2022-12-01 14:18:37.871911, 1.64712
2022-12-01 14:18:37.879790, 1.64712
2022-12-01 14:18:37.887333, 1.64712
2022-12-01 14:18:37.900589, 1.64712
2022-12-01 14:18:37.909012, 1.64712
2022-12-01 14:18:37.916987, 1.64712
2022-12-01 14:18:37.924557, 1.64712
2022-12-01 14:18:37.937037, 1.64712
2022-12-01 14:18:37.945012, 1.64712
2022-12-01 14:18:37.953979, 1.64712
2022-12-01 14:18:37.973914, 1.64712
2022-12-01 14:18:37.975906, 1.64712
2022-12-01 14:18:37.981886, 1.64712
2022-12-01 14:18:37.990473, 1.64712
2022-12-01 14:18:38.003182, 1.64712
2022-12-01 14:18:38.011198, 1.64712
2022-12-01 14:18:38.019282, 1.64712
2022-12-01 14:18:38.031218, 1.64712
2022-12-01 14:18:38.040188, 1.65200
2022-12-01 14:18:38.047910, 1.65200
2022-12-01 14:18:38.055887, 1.64712
2022-12-01 14:18:38.067832, 1.64712
2022-12-01 14:18:38.076803, 1.64712
2022-12-01 14:18:38.084775, 1.65200
2022-12-01 14:18:38.096781, 1.65200
2022-12-01 14:18:38.105705, 1.65200
2022-12-01 14:18:38.113455, 1.65689
2022-12-01 14:18:38.121364, 1.65200
2022-12-01 14:18:38.134318, 1.66178
2022-12-01 14:18:38.142393, 1.67155
2022-12-01 14:18:38.150341, 1.64712
2022-12-01 14:18:38.158852, 1.64712
2022-12-01 14:18:38.170549, 1.64712
2022-12-01 14:18:38.179378, 1.64712
2022-12-01 14:18:38.187311, 1.64712
2022-12-01 14:18:38.199074, 1.64712
2022-12-01 14:18:38.207417, 1.64712
2022-12-01 14:18:38.216240, 1.64712
2022-12-01 14:18:38.223911, 1.64712
2022-12-01 14:18:38.236707, 1.64712
2022-12-01 14:18:38.244831, 1.64712
2022-12-01 14:18:38.252535, 1.64712
2022-12-01 14:18:38.264950, 1.64712
2022-12-01 14:18:38.272920, 1.64712
2022-12-01 14:18:38.281296, 1.64712
2022-12-01 14:18:38.290769, 1.64712
2022-12-01 14:18:38.302227, 1.64712
2022-12-01 14:18:38.309800, 1.64712
2022-12-01 14:18:38.317953, 1.64712
2022-12-01 14:18:38.330289, 1.64712
2022-12-01 14:18:38.339942, 1.64712
2022-12-01 14:18:38.346919, 1.64712
2022-12-01 14:18:38.354894, 1.64712
2022-12-01 14:18:38.367192, 1.65200
2022-12-01 14:18:38.375759, 1.64712
2022-12-01 14:18:38.384838, 1.65200
2022-12-01 14:18:38.395551, 1.65200
2022-12-01 14:18:38.404446, 1.65200
2022-12-01 14:18:38.412886, 1.65200
2022-12-01 14:18:38.420908, 1.65200
2022-12-01 14:18:38.432590, 1.65200
2022-12-01 14:18:38.441556, 1.65200
2022-12-01 14:18:38.449214, 1.65200
2022-12-01 14:18:38.462073, 1.65200
2022-12-01 14:18:38.470439, 1.65200
2022-12-01 14:18:38.477614, 1.65200
2022-12-01 14:18:38.486006, 1.65200
2022-12-01 14:18:38.498616, 1.65200
2022-12-01 14:18:38.506591, 1.65200
2022-12-01 14:18:38.515060, 1.65200
2022-12-01 14:18:38.526753, 1.65200
2022-12-01 14:18:38.535004, 1.65200
2022-12-01 14:18:38.543762, 1.65689
2022-12-01 14:18:38.552180, 1.67155
2022-12-01 14:18:38.563931, 1.65689
2022-12-01 14:18:38.572107, 1.64712
2022-12-01 14:18:38.580852, 1.65200
2022-12-01 14:18:38.592529, 1.64712
2022-12-01 14:18:38.600961, 1.64712
2022-12-01 14:18:38.609039, 1.64712
2022-12-01 14:18:38.617587, 1.64712
2022-12-01 14:18:38.629573, 1.64712
2022-12-01 14:18:38.637678, 1.64712
2022-12-01 14:18:38.646128, 1.64712
2022-12-01 14:18:38.658446, 1.64712
2022-12-01 14:18:38.666899, 1.64712
2022-12-01 14:18:38.675022, 1.64712
2022-12-01 14:18:38.682872, 1.64712
2022-12-01 14:18:38.695217, 1.64712
2022-12-01 14:18:38.703217, 1.64712
2022-12-01 14:18:38.711950, 1.64712
2022-12-01 14:18:38.723857, 1.64712
2022-12-01 14:18:38.732178, 1.64712
2022-12-01 14:18:38.740288, 1.64712
2022-12-01 14:18:38.748750, 1.64712
2022-12-01 14:18:38.761040, 1.64712
2022-12-01 14:18:38.769018, 1.64712
2022-12-01 14:18:38.776824, 1.64712
2022-12-01 14:18:38.789159, 1.64712
2022-12-01 14:18:38.797421, 1.64712
2022-12-01 14:18:38.805354, 1.64712
2022-12-01 14:18:38.814043, 1.65200
2022-12-01 14:18:38.826444, 1.65200
2022-12-01 14:18:38.834392, 1.65200
2022-12-01 14:18:38.842983, 1.67644
2022-12-01 14:18:38.855022, 1.67155
2022-12-01 14:18:38.862970, 1.67155
2022-12-01 14:18:38.871412, 1.64712
2022-12-01 14:18:38.879827, 1.67155
2022-12-01 14:18:38.891297, 1.64712
2022-12-01 14:18:38.899692, 1.64712
2022-12-01 14:18:38.907511, 1.64712
2022-12-01 14:18:38.920223, 1.64712
2022-12-01 14:18:38.928585, 1.64712
2022-12-01 14:18:38.937027, 1.64712
2022-12-01 14:18:38.944514, 1.64712
2022-12-01 14:18:38.957554, 1.64712
2022-12-01 14:18:38.965638, 1.64712
2022-12-01 14:18:38.974096, 1.64712
2022-12-01 14:18:38.986106, 1.64712
2022-12-01 14:18:38.994129, 1.64712
2022-12-01 14:18:39.002424, 1.64712
2022-12-01 14:18:39.010758, 1.64712
2022-12-01 14:18:39.022786, 1.64712
2022-12-01 14:18:39.031115, 1.64712
2022-12-01 14:18:39.039352, 1.64712
2022-12-01 14:18:39.047325, 1.64712
2022-12-01 14:18:39.059293, 1.64712
2022-12-01 14:18:39.068253, 1.64712
2022-12-01 14:18:39.076236, 1.64712
2022-12-01 14:18:39.088307, 1.65200
2022-12-01 14:18:39.096347, 1.65200
2022-12-01 14:18:39.104311, 1.65200
2022-12-01 14:18:39.113278, 1.65200
2022-12-01 14:18:39.125634, 1.65200
2022-12-01 14:18:39.133581, 1.65200
2022-12-01 14:18:39.141565, 1.65200
2022-12-01 14:18:39.153898, 1.65200
2022-12-01 14:18:39.162334, 1.65200
2022-12-01 14:18:39.170778, 1.65689
2022-12-01 14:18:39.178903, 1.65689
2022-12-01 14:18:39.191039, 1.66178
2022-12-01 14:18:39.198734, 1.65200
2022-12-01 14:18:39.206697, 1.65200
2022-12-01 14:18:39.219366, 1.65200
2022-12-01 14:18:39.227745, 1.65200
2022-12-01 14:18:39.235959, 1.65689
2022-12-01 14:18:39.244333, 1.66667
2022-12-01 14:18:39.256256, 1.66667
2022-12-01 14:18:39.264558, 1.65200
2022-12-01 14:18:39.272998, 1.64712
2022-12-01 14:18:39.284441, 1.64712
2022-12-01 14:18:39.292948, 1.64712
2022-12-01 14:18:39.301181, 1.64712
2022-12-01 14:18:39.309163, 1.64712
2022-12-01 14:18:39.322110, 1.64712
2022-12-01 14:18:39.330134, 1.64712
2022-12-01 14:18:39.338104, 1.64712
2022-12-01 14:18:39.350736, 1.64712
2022-12-01 14:18:39.358179, 1.64712
2022-12-01 14:18:39.366960, 1.64712
2022-12-01 14:18:39.375344, 1.64712
2022-12-01 14:18:39.387378, 1.64712
2022-12-01 14:18:39.395796, 1.64712
2022-12-01 14:18:39.403942, 1.64712
2022-12-01 14:18:39.416282, 1.65200
2022-12-01 14:18:39.424599, 1.65200
2022-12-01 14:18:39.432642, 1.65200
2022-12-01 14:18:39.440215, 1.65200
2022-12-01 14:18:39.453099, 1.65200
2022-12-01 14:18:39.461463, 1.65200
2022-12-01 14:18:39.469948, 1.65200
2022-12-01 14:18:39.481023, 1.67155
2022-12-01 14:18:39.490123, 1.66178
2022-12-01 14:18:39.497954, 1.67644
2022-12-01 14:18:39.506027, 1.65200
2022-12-01 14:18:39.517985, 1.67644
2022-12-01 14:18:39.526733, 1.64712
2022-12-01 14:18:39.534461, 1.64712
2022-12-01 14:18:39.547114, 1.64712
2022-12-01 14:18:39.555616, 1.64712
2022-12-01 14:18:39.563112, 1.64712
2022-12-01 14:18:39.571841, 1.64712
2022-12-01 14:18:39.584126, 1.64712
2022-12-01 14:18:39.592050, 1.65200
2022-12-01 14:18:39.600547, 1.65200
2022-12-01 14:18:39.612761, 1.65200
2022-12-01 14:18:39.620647, 1.64712
2022-12-01 14:18:39.629357, 1.64712
2022-12-01 14:18:39.637229, 1.64712
2022-12-01 14:18:39.649506, 1.64712
2022-12-01 14:18:39.657765, 1.65200
2022-12-01 14:18:39.666237, 1.65200
2022-12-01 14:18:39.678495, 1.65200
2022-12-01 14:18:39.686812, 1.65200
2022-12-01 14:18:39.694043, 1.67644
2022-12-01 14:18:39.703267, 1.67155
2022-12-01 14:18:39.715147, 1.65200
2022-12-01 14:18:39.722736, 1.64712
2022-12-01 14:18:39.730947, 1.65200
2022-12-01 14:18:39.743656, 1.65200
2022-12-01 14:18:39.752130, 1.65200
2022-12-01 14:18:39.760264, 1.65200
2022-12-01 14:18:39.768572, 1.64712
2022-12-01 14:18:39.780492, 1.64712
2022-12-01 14:18:39.788936, 1.65200
2022-12-01 14:18:39.796888, 1.65200
2022-12-01 14:18:39.809142, 1.64712
2022-12-01 14:18:39.817375, 1.64712
2022-12-01 14:18:39.825618, 1.64712
2022-12-01 14:18:39.834076, 1.64712
2022-12-01 14:18:39.846222, 1.64712
2022-12-01 14:18:39.854666, 1.65200
2022-12-01 14:18:39.862646, 1.65200
2022-12-01 14:18:39.870262, 1.65200
2022-12-01 14:18:39.883378, 1.64712
2022-12-01 14:18:39.891253, 1.64712
2022-12-01 14:18:39.899344, 1.64712
2022-12-01 14:18:39.911791, 1.64712
2022-12-01 14:18:39.919768, 1.64712
2022-12-01 14:18:39.928450, 1.64712
2022-12-01 14:18:39.936293, 1.64712
2022-12-01 14:18:39.948484, 1.65200
2022-12-01 14:18:39.956968, 1.65200
2022-12-01 14:18:39.964546, 1.65200
2022-12-01 14:18:39.976759, 1.65200
2022-12-01 14:18:39.985360, 1.65200
2022-12-01 14:18:39.993599, 1.65200
2022-12-01 14:18:40.001587, 1.65200
2022-12-01 14:18:40.014365, 1.65200
2022-12-01 14:18:40.022352, 1.65200
2022-12-01 14:18:40.030716, 1.65689
2022-12-01 14:18:40.042868, 1.65689
2022-12-01 14:18:40.050836, 1.67644
2022-12-01 14:18:40.058882, 1.67644
2022-12-01 14:18:40.067231, 1.65200
2022-12-01 14:18:40.079514, 1.64712
2022-12-01 14:18:40.087716, 1.64712
2022-12-01 14:18:40.095689, 1.64712
2022-12-01 14:18:40.108197, 1.64712
2022-12-01 14:18:40.116585, 1.64712
2022-12-01 14:18:40.124563, 1.64712
2022-12-01 14:18:40.132901, 1.64712
2022-12-01 14:18:40.145353, 1.64712
2022-12-01 14:18:40.153387, 1.64712
2022-12-01 14:18:40.161424, 1.64712
2022-12-01 14:18:40.173411, 1.64712
2022-12-01 14:18:40.182228, 1.64712
2022-12-01 14:18:40.190202, 1.64712
2022-12-01 14:18:40.198249, 1.64712
2022-12-01 14:18:40.210863, 1.64712
2022-12-01 14:18:40.218840, 1.64712
2022-12-01 14:18:40.226986, 1.64712
2022-12-01 14:18:40.239454, 1.65200
2022-12-01 14:18:40.247425, 1.65200
2022-12-01 14:18:40.255464, 1.65200
2022-12-01 14:18:40.263492, 1.65200
2022-12-01 14:18:40.275576, 1.65200
2022-12-01 14:18:40.283700, 1.65200
2022-12-01 14:18:40.292664, 1.65689
2022-12-01 14:18:40.304398, 1.67155
2022-12-01 14:18:40.313318, 1.66667
2022-12-01 14:18:40.320919, 1.64712
2022-12-01 14:18:40.329816, 1.64712
2022-12-01 14:18:40.341377, 1.64712
2022-12-01 14:18:40.350270, 1.64712
2022-12-01 14:18:40.358314, 1.64712
2022-12-01 14:18:40.370746, 1.64712
2022-12-01 14:18:40.378817, 1.64712
2022-12-01 14:18:40.386796, 1.64712
2022-12-01 14:18:40.394581, 1.64712
2022-12-01 14:18:40.407348, 1.64712
2022-12-01 14:18:40.415305, 1.64712
2022-12-01 14:18:40.424231, 1.65200
2022-12-01 14:18:40.436063, 1.64712
2022-12-01 14:18:40.444096, 1.64712
2022-12-01 14:18:40.452066, 1.64712
2022-12-01 14:18:40.460753, 1.65200
2022-12-01 14:18:40.472653, 1.64712
2022-12-01 14:18:40.480700, 1.65200
2022-12-01 14:18:40.489032, 1.65689
2022-12-01 14:18:40.501214, 1.66178
2022-12-01 14:18:40.509508, 1.67155
2022-12-01 14:18:40.517405, 1.64712
2022-12-01 14:18:40.526375, 1.64712
2022-12-01 14:18:40.538420, 1.64712
2022-12-01 14:18:40.546395, 1.64712
2022-12-01 14:18:40.554579, 1.64712
2022-12-01 14:18:40.566582, 1.64712
2022-12-01 14:18:40.575505, 1.64712
2022-12-01 14:18:40.582905, 1.64712
2022-12-01 14:18:40.591876, 1.64712
2022-12-01 14:18:40.603824, 1.64712
2022-12-01 14:18:40.612157, 1.64712
2022-12-01 14:18:40.620142, 1.64712
2022-12-01 14:18:40.632092, 1.64712
2022-12-01 14:18:40.641015, 1.64712
2022-12-01 14:18:40.648598, 1.64712
2022-12-01 14:18:40.657434, 1.65200
2022-12-01 14:18:40.669409, 1.65200
2022-12-01 14:18:40.677437, 1.65200
2022-12-01 14:18:40.685342, 1.65200
2022-12-01 14:18:40.698316, 1.65200
2022-12-01 14:18:40.706692, 1.65689
2022-12-01 14:18:40.714703, 1.65200
2022-12-01 14:18:40.722438, 1.66667
2022-12-01 14:18:40.735311, 1.67155
2022-12-01 14:18:40.742606, 1.66667
2022-12-01 14:18:40.751536, 1.67155
2022-12-01 14:18:40.759473, 1.64712
2022-12-01 14:18:40.772238, 1.64712
2022-12-01 14:18:40.780185, 1.64712
2022-12-01 14:18:40.788629, 1.64712
2022-12-01 14:18:40.800552, 1.64712
2022-12-01 14:18:40.808992, 1.64712
2022-12-01 14:18:40.816941, 1.64712
2022-12-01 14:18:40.825322, 1.64712
2022-12-01 14:18:40.837283, 1.64712
2022-12-01 14:18:40.845071, 1.64712
2022-12-01 14:18:40.853827, 1.64712
2022-12-01 14:18:40.866003, 1.64712
2022-12-01 14:18:40.874170, 1.64712
2022-12-01 14:18:40.882262, 1.64712
2022-12-01 14:18:40.890568, 1.64712
2022-12-01 14:18:40.902983, 1.64712
2022-12-01 14:18:40.911114, 1.64712
2022-12-01 14:18:40.919389, 1.64712
2022-12-01 14:18:40.931908, 1.64712
2022-12-01 14:18:40.939517, 1.64712
2022-12-01 14:18:40.948294, 1.64712
2022-12-01 14:18:40.956474, 1.64712
2022-12-01 14:18:40.967937, 1.65200
2022-12-01 14:18:40.976787, 1.65200
2022-12-01 14:18:40.985493, 1.64712
2022-12-01 14:18:40.997412, 1.65689
2022-12-01 14:18:41.005369, 1.65689
2022-12-01 14:18:41.013808, 1.66667
2022-12-01 14:18:41.021787, 1.65689
2022-12-01 14:18:41.034295, 1.66178
2022-12-01 14:18:41.042128, 1.65200
2022-12-01 14:18:41.050559, 1.65689
2022-12-01 14:18:41.062563, 1.65689
2022-12-01 14:18:41.070496, 1.65200
2022-12-01 14:18:41.079316, 1.65200
2022-12-01 14:18:41.087264, 1.65200
2022-12-01 14:18:41.099718, 1.65200
2022-12-01 14:18:41.107956, 1.65200
2022-12-01 14:18:41.115939, 1.65200
2022-12-01 14:18:41.127664, 1.65200
2022-12-01 14:18:41.136720, 1.65689
2022-12-01 14:18:41.144433, 1.65689
2022-12-01 14:18:41.152362, 1.67644
2022-12-01 14:18:41.164900, 1.64712
2022-12-01 14:18:41.172709, 1.64712
2022-12-01 14:18:41.181638, 1.64712
2022-12-01 14:18:41.193220, 1.64712
2022-12-01 14:18:41.202514, 1.64712
2022-12-01 14:18:41.210463, 1.65200
2022-12-01 14:18:41.218799, 1.64712
2022-12-01 14:18:41.230190, 1.65200
2022-12-01 14:18:41.239100, 1.64712
2022-12-01 14:18:41.247087, 1.64712
2022-12-01 14:18:41.258983, 1.64712
2022-12-01 14:18:41.267174, 1.64712
2022-12-01 14:18:41.275144, 1.64712
2022-12-01 14:18:41.283829, 1.64712
2022-12-01 14:18:41.296337, 1.64712
2022-12-01 14:18:41.304334, 1.64712
2022-12-01 14:18:41.312854, 1.65200
2022-12-01 14:18:41.324602, 1.65200
2022-12-01 14:18:41.332647, 1.65200
2022-12-01 14:18:41.341238, 1.65200
2022-12-01 14:18:41.349605, 1.65689
2022-12-01 14:18:41.361637, 1.65200
2022-12-01 14:18:41.369043, 1.65200
2022-12-01 14:18:41.378368, 1.65200
2022-12-01 14:18:41.390121, 1.65200
2022-12-01 14:18:41.398111, 1.65200
2022-12-01 14:18:41.406906, 1.65689
2022-12-01 14:18:41.414877, 1.65200
2022-12-01 14:18:41.426596, 1.66178
2022-12-01 14:18:41.435369, 1.65200
2022-12-01 14:18:41.443337, 1.66178
2022-12-01 14:18:41.455651, 1.64712
2022-12-01 14:18:41.463980, 1.64712
2022-12-01 14:18:41.472047, 1.64712
2022-12-01 14:18:41.480938, 1.64712
2022-12-01 14:18:41.493004, 1.64712
2022-12-01 14:18:41.500975, 1.64712
2022-12-01 14:18:41.509430, 1.64712
2022-12-01 14:18:41.521673, 1.64712
2022-12-01 14:18:41.529667, 1.64712
2022-12-01 14:18:41.538066, 1.64712
2022-12-01 14:18:41.545646, 1.64712
2022-12-01 14:18:41.557869, 1.64712
2022-12-01 14:18:41.566630, 1.64712
2022-12-01 14:18:41.574881, 1.64712
2022-12-01 14:18:41.587142, 1.65200
2022-12-01 14:18:41.595182, 1.65200
2022-12-01 14:18:41.603221, 1.65200
2022-12-01 14:18:41.611444, 1.65200
2022-12-01 14:18:41.623929, 1.65200
2022-12-01 14:18:41.631903, 1.65200
2022-12-01 14:18:41.640086, 1.66178
2022-12-01 14:18:41.648766, 1.67155
2022-12-01 14:18:41.660890, 1.64712
2022-12-01 14:18:41.669343, 1.65200
2022-12-01 14:18:41.677506, 1.65200
2022-12-01 14:18:41.689527, 1.64712
2022-12-01 14:18:41.698106, 1.64712
2022-12-01 14:18:41.706097, 1.65200
2022-12-01 14:18:41.713929, 1.65200
2022-12-01 14:18:41.725944, 1.65200
2022-12-01 14:18:41.734848, 1.65200
2022-12-01 14:18:41.742838, 1.64712
2022-12-01 14:18:41.754914, 1.64712
2022-12-01 14:18:41.763227, 1.64712
2022-12-01 14:18:41.771198, 1.64712
2022-12-01 14:18:41.779074, 1.64712
2022-12-01 14:18:41.791701, 1.64712
2022-12-01 14:18:41.799836, 1.64712
2022-12-01 14:18:41.807810, 1.65200
2022-12-01 14:18:41.819770, 1.64712
2022-12-01 14:18:41.828056, 1.64712
2022-12-01 14:18:41.837027, 1.64712
2022-12-01 14:18:41.844466, 1.64712
2022-12-01 14:18:41.856520, 1.64712
2022-12-01 14:18:41.865490, 1.65200
2022-12-01 14:18:41.873470, 1.64712
2022-12-01 14:18:41.885806, 1.64712
2022-12-01 14:18:41.894292, 1.65200
2022-12-01 14:18:41.902392, 1.64712
2022-12-01 14:18:41.910361, 1.65200
2022-12-01 14:18:41.922398, 1.65200
2022-12-01 14:18:41.931293, 1.65200
2022-12-01 14:18:41.938960, 1.65200
2022-12-01 14:18:41.951625, 1.65200
2022-12-01 14:18:41.959592, 1.65200
2022-12-01 14:18:41.968324, 1.65200
2022-12-01 14:18:41.976307, 1.65200
2022-12-01 14:18:41.988629, 1.66667
2022-12-01 14:18:41.996296, 1.66178
2022-12-01 14:18:42.004663, 1.67644
2022-12-01 14:18:42.016839, 1.67155
2022-12-01 14:18:42.025523, 1.67155
2022-12-01 14:18:42.033742, 1.65200
2022-12-01 14:18:42.041910, 1.67155
2022-12-01 14:18:42.053983, 1.64712
2022-12-01 14:18:42.061887, 1.64712
2022-12-01 14:18:42.070720, 1.64712
2022-12-01 14:18:42.082899, 1.64712
2022-12-01 14:18:42.090644, 1.64712
2022-12-01 14:18:42.098828, 1.64712
2022-12-01 14:18:42.106866, 1.64712
2022-12-01 14:18:42.119409, 1.64712
2022-12-01 14:18:42.127993, 1.64712
2022-12-01 14:18:42.135980, 1.64712
2022-12-01 14:18:42.147851, 1.64712
2022-12-01 14:18:42.156097, 1.64712
2022-12-01 14:18:42.164851, 1.64712
2022-12-01 14:18:42.172889, 1.64712
2022-12-01 14:18:42.184990, 1.64712
2022-12-01 14:18:42.193434, 1.64712
2022-12-01 14:18:42.201687, 1.64712
2022-12-01 14:18:42.213711, 1.64712
2022-12-01 14:18:42.221509, 1.64712
2022-12-01 14:18:42.229975, 1.65200
2022-12-01 14:18:42.238007, 1.65200
2022-12-01 14:18:42.249900, 1.65200
2022-12-01 14:18:42.258599, 1.65200
2022-12-01 14:18:42.266518, 1.65200
2022-12-01 14:18:42.278880, 1.65689
2022-12-01 14:18:42.287671, 1.66178
2022-12-01 14:18:42.295679, 1.65689
2022-12-01 14:18:42.304071, 1.66178
2022-12-01 14:18:42.316020, 1.67644
2022-12-01 14:18:42.324515, 1.64712
2022-12-01 14:18:42.332689, 1.65689
2022-12-01 14:18:42.344282, 1.65689
2022-12-01 14:18:42.353189, 1.64712
2022-12-01 14:18:42.361170, 1.64712
2022-12-01 14:18:42.369799, 1.64712
2022-12-01 14:18:42.381284, 1.64712
2022-12-01 14:18:42.390268, 1.64712
2022-12-01 14:18:42.398245, 1.64712
2022-12-01 14:18:42.410203, 1.64712
2022-12-01 14:18:42.418329, 1.64712
2022-12-01 14:18:42.426304, 1.64712
2022-12-01 14:18:42.435265, 1.64712
2022-12-01 14:18:42.447100, 1.64712
2022-12-01 14:18:42.455628, 1.64712
2022-12-01 14:18:42.464444, 1.64712
2022-12-01 14:18:42.476570, 1.64712
2022-12-01 14:18:42.483951, 1.64712
2022-12-01 14:18:42.492791, 1.65200
2022-12-01 14:18:42.500611, 1.64712
2022-12-01 14:18:42.513613, 1.65200
2022-12-01 14:18:42.521227, 1.65200
2022-12-01 14:18:42.529685, 1.65200
2022-12-01 14:18:42.536938, 1.64712
2022-12-01 14:18:42.549237, 1.65200
2022-12-01 14:18:42.557298, 1.65200
2022-12-01 14:18:42.565994, 1.65200
2022-12-01 14:18:42.578022, 1.65200
2022-12-01 14:18:42.587036, 1.65200
2022-12-01 14:18:42.594828, 1.65200
2022-12-01 14:18:42.603016, 1.65200
2022-12-01 14:18:42.616011, 1.66178
2022-12-01 14:18:42.624222, 1.67155
2022-12-01 14:18:42.632405, 1.67644
2022-12-01 14:18:42.643781, 1.67644
2022-12-01 14:18:42.652121, 1.65200
2022-12-01 14:18:42.661052, 1.65200
2022-12-01 14:18:42.669270, 1.64712
2022-12-01 14:18:42.681531, 1.64712
2022-12-01 14:18:42.689263, 1.64712
2022-12-01 14:18:42.697919, 1.64712
2022-12-01 14:18:42.709835, 1.64712
2022-12-01 14:18:42.717297, 1.64712
2022-12-01 14:18:42.726151, 1.64712
2022-12-01 14:18:42.734232, 1.64712
2022-12-01 14:18:42.746574, 1.64712
2022-12-01 14:18:42.754961, 1.64712
2022-12-01 14:18:42.763188, 1.64712
2022-12-01 14:18:42.775300, 1.65200
2022-12-01 14:18:42.783035, 1.65200
2022-12-01 14:18:42.791610, 1.65200
2022-12-01 14:18:42.799808, 1.64712
2022-12-01 14:18:42.811924, 1.64712
2022-12-01 14:18:42.820243, 1.64712
2022-12-01 14:18:42.828258, 1.64712
2022-12-01 14:18:42.839995, 1.64712
2022-12-01 14:18:42.849460, 1.65200
2022-12-01 14:18:42.857229, 1.65200
2022-12-01 14:18:42.865874, 1.65200
2022-12-01 14:18:42.877839, 1.65200
2022-12-01 14:18:42.885859, 1.65200
2022-12-01 14:18:42.894080, 1.65689
2022-12-01 14:18:42.906097, 1.65689
2022-12-01 14:18:42.914489, 1.65689
2022-12-01 14:18:42.922673, 1.66178
2022-12-01 14:18:42.931416, 1.67644
2022-12-01 14:18:42.943010, 1.67155
2022-12-01 14:18:42.951179, 1.64712
2022-12-01 14:18:42.959562, 1.64712
2022-12-01 14:18:42.972052, 1.64712
2022-12-01 14:18:42.980063, 1.64712
2022-12-01 14:18:42.988994, 1.64712
2022-12-01 14:18:42.996294, 1.64712
2022-12-01 14:18:43.008254, 1.64712
2022-12-01 14:18:43.016241, 1.64712
2022-12-01 14:18:43.024745, 1.64712
2022-12-01 14:18:43.036702, 1.64712
2022-12-01 14:18:43.045053, 1.64712
2022-12-01 14:18:43.053102, 1.64712
2022-12-01 14:18:43.061476, 1.64712
2022-12-01 14:18:43.074028, 1.64712
2022-12-01 14:18:43.081495, 1.65200
2022-12-01 14:18:43.090471, 1.65200
2022-12-01 14:18:43.102581, 1.65200
2022-12-01 14:18:43.110756, 1.65200
2022-12-01 14:18:43.119166, 1.64712
2022-12-01 14:18:43.126625, 1.64712
2022-12-01 14:18:43.139371, 1.64712
2022-12-01 14:18:43.147661, 1.64712
2022-12-01 14:18:43.155676, 1.65200
2022-12-01 14:18:43.168124, 1.64712
2022-12-01 14:18:43.176033, 1.64712
2022-12-01 14:18:43.184478, 1.64712
2022-12-01 14:18:43.192584, 1.64712
2022-12-01 14:18:43.204879, 1.64712
2022-12-01 14:18:43.213298, 1.64712
2022-12-01 14:18:43.221289, 1.64712
2022-12-01 14:18:43.233117, 1.64712
2022-12-01 14:18:43.241672, 1.64712
2022-12-01 14:18:43.250261, 1.64712
2022-12-01 14:18:43.257794, 1.65200
2022-12-01 14:18:43.270341, 1.65200
2022-12-01 14:18:43.278784, 1.65689
2022-12-01 14:18:43.286731, 1.65689
2022-12-01 14:18:43.298579, 1.66178
2022-12-01 14:18:43.306872, 1.67644
2022-12-01 14:18:43.315364, 1.64712
2022-12-01 14:18:43.323506, 1.64712
2022-12-01 14:18:43.335465, 1.64712
2022-12-01 14:18:43.344460, 1.64712
2022-12-01 14:18:43.352499, 1.67644
2022-12-01 14:18:43.359915, 1.64712
2022-12-01 14:18:43.372519, 1.64712
2022-12-01 14:18:43.380568, 1.64712
2022-12-01 14:18:43.389624, 1.64712
2022-12-01 14:18:43.401455, 1.64712
2022-12-01 14:18:43.410082, 1.64712
2022-12-01 14:18:43.418163, 1.64712
2022-12-01 14:18:43.426497, 1.64712
2022-12-01 14:18:43.438343, 1.64712
2022-12-01 14:18:43.446756, 1.64712
2022-12-01 14:18:43.455528, 1.64712
2022-12-01 14:18:43.466898, 1.64712
2022-12-01 14:18:43.475367, 1.64712
2022-12-01 14:18:43.483480, 1.64712
2022-12-01 14:18:43.491305, 1.64712
2022-12-01 14:18:43.503683, 1.64712
2022-12-01 14:18:43.512384, 1.64712
2022-12-01 14:18:43.520851, 1.64712
2022-12-01 14:18:43.532516, 1.64712
2022-12-01 14:18:43.540893, 1.64712
2022-12-01 14:18:43.549181, 1.64712
2022-12-01 14:18:43.557841, 1.64712
2022-12-01 14:18:43.569588, 1.64712
2022-12-01 14:18:43.578068, 1.65200
2022-12-01 14:18:43.586184, 1.64712
2022-12-01 14:18:43.598528, 1.65200
2022-12-01 14:18:43.606031, 1.65200
2022-12-01 14:18:43.614002, 1.64712
2022-12-01 14:18:43.622966, 1.65200
2022-12-01 14:18:43.634638, 1.65200
2022-12-01 14:18:43.644105, 1.65200
2022-12-01 14:18:43.652091, 1.65200
2022-12-01 14:18:43.663819, 1.65689
2022-12-01 14:18:43.671792, 1.65689
2022-12-01 14:18:43.681022, 1.65200
2022-12-01 14:18:43.688896, 1.65689
2022-12-01 14:18:43.700141, 1.65200
2022-12-01 14:18:43.708966, 1.65200
2022-12-01 14:18:43.716783, 1.65200
2022-12-01 14:18:43.730094, 1.66178
2022-12-01 14:18:43.738020, 1.65689
2022-12-01 14:18:43.746089, 1.65689
2022-12-01 14:18:43.754113, 1.65200
2022-12-01 14:18:43.765768, 1.65689
2022-12-01 14:18:43.774529, 1.65689
2022-12-01 14:18:43.783247, 1.67155
2022-12-01 14:18:43.795674, 1.64712
2022-12-01 14:18:43.803358, 1.64712
2022-12-01 14:18:43.812063, 1.64712
2022-12-01 14:18:43.819571, 1.65200
2022-12-01 14:18:43.831162, 1.64712
2022-12-01 14:18:43.839732, 1.64712
2022-12-01 14:18:43.848939, 1.65200
2022-12-01 14:18:43.860464, 1.64712
2022-12-01 14:18:43.868399, 1.64712
2022-12-01 14:18:43.876737, 1.64712
2022-12-01 14:18:43.885047, 1.64712
2022-12-01 14:18:43.897917, 1.64712
2022-12-01 14:18:43.905435, 1.64712
2022-12-01 14:18:43.914087, 1.64712
2022-12-01 14:18:43.925810, 1.64712
2022-12-01 14:18:43.934356, 1.64712
2022-12-01 14:18:43.942550, 1.64712
2022-12-01 14:18:43.950727, 1.64712
2022-12-01 14:18:43.963092, 1.64712
2022-12-01 14:18:43.970133, 1.64712
2022-12-01 14:18:43.979541, 1.64712
2022-12-01 14:18:43.991528, 1.64712
2022-12-01 14:18:43.999549, 1.64712
2022-12-01 14:18:44.008001, 1.64712
2022-12-01 14:18:44.015980, 1.64712
2022-12-01 14:18:44.028466, 1.64712
2022-12-01 14:18:44.036225, 1.64712
2022-12-01 14:18:44.044217, 1.64712
2022-12-01 14:18:44.056647, 1.64712
2022-12-01 14:18:44.064990, 1.64712
2022-12-01 14:18:44.072966, 1.64712
2022-12-01 14:18:44.081618, 1.64712
2022-12-01 14:18:44.093568, 1.64712
2022-12-01 14:18:44.102236, 1.64712
2022-12-01 14:18:44.109754, 1.64712
2022-12-01 14:18:44.121884, 1.64712
2022-12-01 14:18:44.130628, 1.64712
2022-12-01 14:18:44.138617, 1.65200
2022-12-01 14:18:44.147935, 1.65200
2022-12-01 14:18:44.159459, 1.64712
2022-12-01 14:18:44.167484, 1.64712
2022-12-01 14:18:44.176163, 1.64712
2022-12-01 14:18:44.188119, 1.64712
2022-12-01 14:18:44.196053, 1.64712
2022-12-01 14:18:44.204969, 1.64712
2022-12-01 14:18:44.212253, 1.64712
2022-12-01 14:18:44.225278, 1.64712
2022-12-01 14:18:44.233945, 1.64712
2022-12-01 14:18:44.241121, 1.64712
2022-12-01 14:18:44.249092, 1.64712
2022-12-01 14:18:44.261559, 1.64712
2022-12-01 14:18:44.269481, 1.64712
2022-12-01 14:18:44.278385, 1.64712
2022-12-01 14:18:44.290731, 1.64712
2022-12-01 14:18:44.298711, 1.65200
2022-12-01 14:18:44.307165, 1.65200
2022-12-01 14:18:44.314848, 1.65200
2022-12-01 14:18:44.327100, 1.65200
2022-12-01 14:18:44.336040, 1.67155
2022-12-01 14:18:44.343987, 1.64712
2022-12-01 14:18:44.355977, 1.64712
2022-12-01 14:18:44.364121, 1.65689
2022-12-01 14:18:44.372112, 1.64712
2022-12-01 14:18:44.380658, 1.64712
2022-12-01 14:18:44.393131, 1.64712
2022-12-01 14:18:44.401127, 1.64712
2022-12-01 14:18:44.409125, 1.64712
2022-12-01 14:18:44.421687, 1.66178
2022-12-01 14:18:44.429665, 1.64712
2022-12-01 14:18:44.437503, 1.64712
2022-12-01 14:18:44.445471, 1.64712
2022-12-01 14:18:44.458425, 1.64712
2022-12-01 14:18:44.466401, 1.64712
2022-12-01 14:18:44.474631, 1.64712
2022-12-01 14:18:44.486860, 1.64712
2022-12-01 14:18:44.494567, 1.64712
2022-12-01 14:18:44.503637, 1.64712
2022-12-01 14:18:44.511884, 1.64712
2022-12-01 14:18:44.523286, 1.64712
2022-12-01 14:18:44.531650, 1.64712
2022-12-01 14:18:44.539624, 1.64712
2022-12-01 14:18:44.552581, 1.64712
2022-12-01 14:18:44.560331, 1.64712
2022-12-01 14:18:44.568303, 1.64712
2022-12-01 14:18:44.577300, 1.64712
2022-12-01 14:18:44.589477, 1.64712
2022-12-01 14:18:44.597936, 1.64712
2022-12-01 14:18:44.605904, 1.64712
2022-12-01 14:18:44.618457, 1.64712
2022-12-01 14:18:44.626511, 1.65200
2022-12-01 14:18:44.635020, 1.65200
2022-12-01 14:18:44.642650, 1.65200
2022-12-01 14:18:44.655144, 1.65200
2022-12-01 14:18:44.663139, 1.65200
2022-12-01 14:18:44.671412, 1.65200
2022-12-01 14:18:44.682953, 1.64712
2022-12-01 14:18:44.691920, 1.64712
2022-12-01 14:18:44.699640, 1.64712
2022-12-01 14:18:44.707603, 1.64712
2022-12-01 14:18:44.720109, 1.64712
2022-12-01 14:18:44.728461, 1.64712
2022-12-01 14:18:44.737144, 1.64712
2022-12-01 14:18:44.749446, 1.64712
2022-12-01 14:18:44.757054, 1.64712
2022-12-01 14:18:44.765397, 1.64712
2022-12-01 14:18:44.773873, 1.64712
2022-12-01 14:18:44.785380, 1.65200
2022-12-01 14:18:44.793615, 1.65200
2022-12-01 14:18:44.802211, 1.64712
2022-12-01 14:18:44.814863, 1.64712
2022-12-01 14:18:44.822958, 1.65200
2022-12-01 14:18:44.831351, 1.65200
2022-12-01 14:18:44.839658, 1.65200
2022-12-01 14:18:44.851814, 1.65200
2022-12-01 14:18:44.860429, 1.65200
2022-12-01 14:18:44.867822, 1.65689
2022-12-01 14:18:44.881108, 1.65200
2022-12-01 14:18:44.888567, 1.65200
2022-12-01 14:18:44.897147, 1.65200
2022-12-01 14:18:44.904928, 1.66178
2022-12-01 14:18:44.917066, 1.67644
2022-12-01 14:18:44.925850, 1.65200
2022-12-01 14:18:44.933552, 1.65200
2022-12-01 14:18:44.945302, 1.65200
2022-12-01 14:18:44.954108, 1.65200
2022-12-01 14:18:44.962105, 1.64712
2022-12-01 14:18:44.970791, 1.64712
2022-12-01 14:18:44.982848, 1.64712
2022-12-01 14:18:44.990417, 1.64712
2022-12-01 14:18:44.999468, 1.64712
2022-12-01 14:18:45.011317, 1.64712
2022-12-01 14:18:45.019299, 1.64712
2022-12-01 14:18:45.027264, 1.64712
2022-12-01 14:18:45.035463, 1.64712
2022-12-01 14:18:45.048577, 1.64712
2022-12-01 14:18:45.057238, 1.64712
2022-12-01 14:18:45.065232, 1.64712
2022-12-01 14:18:45.077720, 1.65200
2022-12-01 14:18:45.084573, 1.65200
2022-12-01 14:18:45.093843, 1.65200
2022-12-01 14:18:45.101088, 1.65200
2022-12-01 14:18:45.113714, 1.65200
2022-12-01 14:18:45.122029, 1.64712
2022-12-01 14:18:45.130376, 1.64712
2022-12-01 14:18:45.138203, 1.64712
2022-12-01 14:18:45.150177, 1.64712
2022-12-01 14:18:45.158904, 1.64712
2022-12-01 14:18:45.167213, 1.64712
2022-12-01 14:18:45.179323, 1.64712
2022-12-01 14:18:45.187948, 1.65200
2022-12-01 14:18:45.195773, 1.65200
2022-12-01 14:18:45.204382, 1.65200
2022-12-01 14:18:45.215822, 1.65200
2022-12-01 14:18:45.223986, 1.65689
2022-12-01 14:18:45.233068, 1.67155
2022-12-01 14:18:45.244565, 1.64712
2022-12-01 14:18:45.252561, 1.64712
2022-12-01 14:18:45.261341, 1.64712
2022-12-01 14:18:45.269788, 1.64712
2022-12-01 14:18:45.280981, 1.64712
2022-12-01 14:18:45.290150, 1.64712
2022-12-01 14:18:45.298313, 1.64712
2022-12-01 14:18:45.309532, 1.64712
2022-12-01 14:18:45.318834, 1.64712
2022-12-01 14:18:45.326699, 1.64712
2022-12-01 14:18:45.335263, 1.64712
2022-12-01 14:18:45.347070, 1.64712
2022-12-01 14:18:45.355334, 1.64712
2022-12-01 14:18:45.363974, 1.64712
2022-12-01 14:18:45.376136, 1.64712
2022-12-01 14:18:45.384182, 1.64712
2022-12-01 14:18:45.392149, 1.64712
2022-12-01 14:18:45.400298, 1.64712
2022-12-01 14:18:45.413585, 1.64712
2022-12-01 14:18:45.421041, 1.64712
2022-12-01 14:18:45.429860, 1.64712
2022-12-01 14:18:45.441391, 1.64712
2022-12-01 14:18:45.449078, 1.64712
2022-12-01 14:18:45.457859, 1.64712
2022-12-01 14:18:45.466076, 1.64712
2022-12-01 14:18:45.478609, 1.64712
2022-12-01 14:18:45.486922, 1.64712
2022-12-01 14:18:45.494617, 1.64712
2022-12-01 14:18:45.507231, 1.64712
2022-12-01 14:18:45.515050, 1.65200
2022-12-01 14:18:45.524196, 1.65200
2022-12-01 14:18:45.532142, 1.65200
2022-12-01 14:18:45.544675, 1.65200
2022-12-01 14:18:45.552312, 1.65200
2022-12-01 14:18:45.560560, 1.65200
2022-12-01 14:18:45.572238, 1.65200
2022-12-01 14:18:45.580993, 1.65689
2022-12-01 14:18:45.588966, 1.67155
2022-12-01 14:18:45.596891, 1.64712
2022-12-01 14:18:45.608907, 1.65200
2022-12-01 14:18:45.617980, 1.67155
2022-12-01 14:18:45.625843, 1.65689
2022-12-01 14:18:45.637673, 1.64712
2022-12-01 14:18:45.646505, 1.64712
2022-12-01 14:18:45.653918, 1.64712
2022-12-01 14:18:45.661987, 1.64712
2022-12-01 14:18:45.674490, 1.64712
2022-12-01 14:18:45.682458, 1.64712
2022-12-01 14:18:45.691191, 1.64712
2022-12-01 14:18:45.703146, 1.64712
2022-12-01 14:18:45.711955, 1.64712
2022-12-01 14:18:45.719577, 1.64712
2022-12-01 14:18:45.727563, 1.64712
2022-12-01 14:18:45.740261, 1.64712
2022-12-01 14:18:45.748232, 1.64712
2022-12-01 14:18:45.756273, 1.64712
2022-12-01 14:18:45.768975, 1.64712
2022-12-01 14:18:45.776947, 1.64712
2022-12-01 14:18:45.784937, 1.64712
2022-12-01 14:18:45.792909, 1.64712
2022-12-01 14:18:45.805381, 1.65200
2022-12-01 14:18:45.814294, 1.65200
2022-12-01 14:18:45.822327, 1.65200
2022-12-01 14:18:45.834178, 1.65200
2022-12-01 14:18:45.843091, 1.65200
2022-12-01 14:18:45.851092, 1.65200
2022-12-01 14:18:45.859421, 1.65200
2022-12-01 14:18:45.871614, 1.65689
2022-12-01 14:18:45.879784, 1.66178
2022-12-01 14:18:45.887830, 1.64712
2022-12-01 14:18:45.899769, 1.66178
2022-12-01 14:18:45.908407, 1.64712
2022-12-01 14:18:45.916365, 1.64712
2022-12-01 14:18:45.924305, 1.64712
2022-12-01 14:18:45.936438, 1.64712
2022-12-01 14:18:45.944592, 1.64712
2022-12-01 14:18:45.953512, 1.64712
2022-12-01 14:18:45.965442, 1.64712
2022-12-01 14:18:45.973656, 1.64712
2022-12-01 14:18:45.981626, 1.64712
2022-12-01 14:18:45.990600, 1.64712
2022-12-01 14:18:46.002308, 1.64712
2022-12-01 14:18:46.010300, 1.64712
2022-12-01 14:18:46.019205, 1.64712
2022-12-01 14:18:46.026712, 1.64712
2022-12-01 14:18:46.039524, 1.64712
2022-12-01 14:18:46.047635, 1.64712
2022-12-01 14:18:46.056072, 1.64712
2022-12-01 14:18:46.068186, 1.65200
2022-12-01 14:18:46.075631, 1.64712
2022-12-01 14:18:46.083830, 1.65200
2022-12-01 14:18:46.092869, 1.66178
2022-12-01 14:18:46.104887, 1.67155
2022-12-01 14:18:46.112913, 1.65200
2022-12-01 14:18:46.120876, 1.64712
2022-12-01 14:18:46.133484, 1.64712
2022-12-01 14:18:46.141724, 1.64712
2022-12-01 14:18:46.150643, 1.64712
2022-12-01 14:18:46.158514, 1.64712
2022-12-01 14:18:46.170478, 1.64712
2022-12-01 14:18:46.178514, 1.64712
2022-12-01 14:18:46.186471, 1.64712
2022-12-01 14:18:46.199377, 1.64712
2022-12-01 14:18:46.207415, 1.64712
2022-12-01 14:18:46.216544, 1.64712
2022-12-01 14:18:46.224001, 1.64712
2022-12-01 14:18:46.235798, 1.64712
2022-12-01 14:18:46.244313, 1.64712
2022-12-01 14:18:46.252705, 1.64712
2022-12-01 14:18:46.264668, 1.64712
2022-12-01 14:18:46.272714, 1.64712
2022-12-01 14:18:46.280937, 1.64712
2022-12-01 14:18:46.288986, 1.64712
2022-12-01 14:18:46.301484, 1.64712
2022-12-01 14:18:46.309391, 1.64712
2022-12-01 14:18:46.317409, 1.64712
2022-12-01 14:18:46.330314, 1.64712
2022-12-01 14:18:46.338247, 1.64712
2022-12-01 14:18:46.346214, 1.64712
2022-12-01 14:18:46.355181, 1.64712
2022-12-01 14:18:46.366620, 1.64712
2022-12-01 14:18:46.375034, 1.64712
2022-12-01 14:18:46.383002, 1.64712
