2022-12-02 18:28:25.151300
2022-12-02 18:28:25.163222
2022-12-02 18:28:25.171853
2022-12-02 18:28:25.179994
2022-12-02 18:28:25.188342
2022-12-02 18:28:25.200460
2022-12-02 18:28:25.208698
2022-12-02 18:28:25.216852
2022-12-02 18:28:25.229192
2022-12-02 18:28:25.237473
2022-12-02 18:28:25.245515
2022-12-02 18:28:25.253583
2022-12-02 18:28:25.265811
2022-12-02 18:28:25.273613
2022-12-02 18:28:25.282476
2022-12-02 18:28:25.294840
2022-12-02 18:28:25.302782
2022-12-02 18:28:25.311212
2022-12-02 18:28:25.319303
2022-12-02 18:28:25.331564
2022-12-02 18:28:25.338813
2022-12-02 18:28:25.348275
2022-12-02 18:28:25.359926
2022-12-02 18:28:25.368363
2022-12-02 18:28:25.376439
2022-12-02 18:28:25.384201
2022-12-02 18:28:25.396195
2022-12-02 18:28:25.404481
2022-12-02 18:28:25.413440
2022-12-02 18:28:25.425539
2022-12-02 18:28:25.434427
2022-12-02 18:28:25.442333
2022-12-02 18:28:25.450500
2022-12-02 18:28:25.462532
2022-12-02 18:28:25.470429
2022-12-02 18:28:25.479468
2022-12-02 18:28:25.491269
2022-12-02 18:28:25.499499
2022-12-02 18:28:25.507694
2022-12-02 18:28:25.515865
2022-12-02 18:28:25.528431
2022-12-02 18:28:25.536375
2022-12-02 18:28:25.544586
2022-12-02 18:28:25.552384
2022-12-02 18:28:25.565334
2022-12-02 18:28:25.573339
2022-12-02 18:28:25.581554
2022-12-02 18:28:25.592728
2022-12-02 18:28:25.601706
2022-12-02 18:28:25.609970
2022-12-02 18:28:25.618357
2022-12-02 18:28:25.630648
2022-12-02 18:28:25.638843
2022-12-02 18:28:25.647100
2022-12-02 18:28:25.659421
2022-12-02 18:28:25.667206
2022-12-02 18:28:25.675845
2022-12-02 18:28:25.683260
2022-12-02 18:28:25.696136
2022-12-02 18:28:25.704387
2022-12-02 18:28:25.712505
2022-12-02 18:28:25.724707
2022-12-02 18:28:25.733147
2022-12-02 18:28:25.741263
2022-12-02 18:28:25.749586
2022-12-02 18:28:25.761674
2022-12-02 18:28:25.769991
2022-12-02 18:28:25.778472
2022-12-02 18:28:25.789738
2022-12-02 18:28:25.798048
2022-12-02 18:28:25.806514
2022-12-02 18:28:25.815006
2022-12-02 18:28:25.827446
2022-12-02 18:28:25.835372
2022-12-02 18:28:25.843631
2022-12-02 18:28:25.855183
2022-12-02 18:28:25.864336
2022-12-02 18:28:25.871917
2022-12-02 18:28:25.879534
2022-12-02 18:28:25.892223
2022-12-02 18:28:25.900348
2022-12-02 18:28:25.909445
2022-12-02 18:28:25.921585
2022-12-02 18:28:25.929480
2022-12-02 18:28:25.937841
2022-12-02 18:28:25.945998
2022-12-02 18:28:25.957829
2022-12-02 18:28:25.966551
2022-12-02 18:28:25.974191
2022-12-02 18:28:25.987109
2022-12-02 18:28:25.995336
2022-12-02 18:28:26.003098
2022-12-02 18:28:26.011685
2022-12-02 18:28:26.023679
2022-12-02 18:28:26.032187
2022-12-02 18:28:26.039956
2022-12-02 18:28:26.051863
2022-12-02 18:28:26.060699
2022-12-02 18:28:26.068774
2022-12-02 18:28:26.077436
2022-12-02 18:28:26.088731
2022-12-02 18:28:26.097294
2022-12-02 18:28:26.105457
2022-12-02 18:28:26.118063
2022-12-02 18:28:26.126076
2022-12-02 18:28:26.134196
2022-12-02 18:28:26.142386
2022-12-02 18:28:26.154955
2022-12-02 18:28:26.163444
2022-12-02 18:28:26.171443
2022-12-02 18:28:26.183548
2022-12-02 18:28:26.191698
2022-12-02 18:28:26.200203
2022-12-02 18:28:26.208458
2022-12-02 18:28:26.219986
2022-12-02 18:28:26.228661
2022-12-02 18:28:26.235870
2022-12-02 18:28:26.249604
2022-12-02 18:28:26.256974
2022-12-02 18:28:26.265575
2022-12-02 18:28:26.273551
2022-12-02 18:28:26.285497
2022-12-02 18:28:26.294051
2022-12-02 18:28:26.301961
2022-12-02 18:28:26.314739
2022-12-02 18:28:26.322738
2022-12-02 18:28:26.331167
2022-12-02 18:28:26.338564
2022-12-02 18:28:26.350984
2022-12-02 18:28:26.359852
2022-12-02 18:28:26.367431
2022-12-02 18:28:26.380486
2022-12-02 18:28:26.388487
2022-12-02 18:28:26.396547
2022-12-02 18:28:26.404531
2022-12-02 18:28:26.417331
2022-12-02 18:28:26.425455
2022-12-02 18:28:26.433460
2022-12-02 18:28:26.441755
2022-12-02 18:28:26.453784
2022-12-02 18:28:26.462041
2022-12-02 18:28:26.470060
2022-12-02 18:28:26.482529
2022-12-02 18:28:26.490511
2022-12-02 18:28:26.499196
2022-12-02 18:28:26.506994
2022-12-02 18:28:26.519503
2022-12-02 18:28:26.526841
2022-12-02 18:28:26.535372
2022-12-02 18:28:26.548338
2022-12-02 18:28:26.556082
2022-12-02 18:28:26.564587
2022-12-02 18:28:26.572775
2022-12-02 18:28:26.584748
2022-12-02 18:28:26.593446
2022-12-02 18:28:26.600824
2022-12-02 18:28:26.613640
2022-12-02 18:28:26.621610
2022-12-02 18:28:26.630023
2022-12-02 18:28:26.638138
2022-12-02 18:28:26.649514
2022-12-02 18:28:26.658559
2022-12-02 18:28:26.666778
2022-12-02 18:28:26.678445
2022-12-02 18:28:26.686402
2022-12-02 18:28:26.694840
2022-12-02 18:28:26.703618
2022-12-02 18:28:26.716094
2022-12-02 18:28:26.724034
2022-12-02 18:28:26.732616
2022-12-02 18:28:26.744532
2022-12-02 18:28:26.752526
2022-12-02 18:28:26.760781
2022-12-02 18:28:26.768796
2022-12-02 18:28:26.781596
2022-12-02 18:28:26.789633
2022-12-02 18:28:26.798006
2022-12-02 18:28:26.810031
2022-12-02 18:28:26.817937
2022-12-02 18:28:26.826504
2022-12-02 18:28:26.834647
2022-12-02 18:28:26.847481
2022-12-02 18:28:26.855113
2022-12-02 18:28:26.863545
2022-12-02 18:28:26.875930
2022-12-02 18:28:26.884224
2022-12-02 18:28:26.892424
2022-12-02 18:28:26.900407
2022-12-02 18:28:26.912439
2022-12-02 18:28:26.920893
2022-12-02 18:28:26.929060
2022-12-02 18:28:26.941380
2022-12-02 18:28:26.949522
2022-12-02 18:28:26.958182
2022-12-02 18:28:26.966029
2022-12-02 18:28:26.977061
2022-12-02 18:28:26.986477
2022-12-02 18:28:26.993750
2022-12-02 18:28:27.006543
2022-12-02 18:28:27.014899
2022-12-02 18:28:27.023118
2022-12-02 18:28:27.031103
2022-12-02 18:28:27.043237
2022-12-02 18:28:27.051537
2022-12-02 18:28:27.060441
2022-12-02 18:28:27.071561
2022-12-02 18:28:27.080588
2022-12-02 18:28:27.088405
2022-12-02 18:28:27.096588
2022-12-02 18:28:27.109385
2022-12-02 18:28:27.117418
2022-12-02 18:28:27.125618
2022-12-02 18:28:27.137952
2022-12-02 18:28:27.146424
2022-12-02 18:28:27.154610
2022-12-02 18:28:27.162549
2022-12-02 18:28:27.174597
2022-12-02 18:28:27.183052
2022-12-02 18:28:27.191232
2022-12-02 18:28:27.203406
2022-12-02 18:28:27.211720
2022-12-02 18:28:27.219998
2022-12-02 18:28:27.228344
2022-12-02 18:28:27.240088
2022-12-02 18:28:27.248594
2022-12-02 18:28:27.256095
2022-12-02 18:28:27.265615
2022-12-02 18:28:27.277467
2022-12-02 18:28:27.284707
2022-12-02 18:28:27.293599
2022-12-02 18:28:27.305255
2022-12-02 18:28:27.313247
2022-12-02 18:28:27.321448
2022-12-02 18:28:27.330444
2022-12-02 18:28:27.343003
2022-12-02 18:28:27.350261
2022-12-02 18:28:27.359255
2022-12-02 18:28:27.371434
2022-12-02 18:28:27.379653
2022-12-02 18:28:27.387831
2022-12-02 18:28:27.396047
2022-12-02 18:28:27.408050
2022-12-02 18:28:27.416600
2022-12-02 18:28:27.424163
2022-12-02 18:28:27.436321
2022-12-02 18:28:27.445381
2022-12-02 18:28:27.453484
2022-12-02 18:28:27.461703
2022-12-02 18:28:27.473410
2022-12-02 18:28:27.481930
2022-12-02 18:28:27.489610
2022-12-02 18:28:27.502410
2022-12-02 18:28:27.510452
2022-12-02 18:28:27.518798
2022-12-02 18:28:27.527066
2022-12-02 18:28:27.539238
2022-12-02 18:28:27.547348
2022-12-02 18:28:27.555625
2022-12-02 18:28:27.567644
2022-12-02 18:28:27.575479
2022-12-02 18:28:27.583860
2022-12-02 18:28:27.591735
2022-12-02 18:28:27.604638
2022-12-02 18:28:27.612725
2022-12-02 18:28:27.621067
2022-12-02 18:28:27.632380
2022-12-02 18:28:27.641263
2022-12-02 18:28:27.650093
2022-12-02 18:28:27.658203
2022-12-02 18:28:27.670359
2022-12-02 18:28:27.678696
2022-12-02 18:28:27.686674
2022-12-02 18:28:27.699216
2022-12-02 18:28:27.707421
2022-12-02 18:28:27.715591
2022-12-02 18:28:27.723444
2022-12-02 18:28:27.735868
2022-12-02 18:28:27.743073
2022-12-02 18:28:27.752203
2022-12-02 18:28:27.764598
2022-12-02 18:28:27.772376
2022-12-02 18:28:27.781196
2022-12-02 18:28:27.789368
2022-12-02 18:28:27.801204
2022-12-02 18:28:27.809244
2022-12-02 18:28:27.817686
2022-12-02 18:28:27.830061
2022-12-02 18:28:27.837790
2022-12-02 18:28:27.846496
2022-12-02 18:28:27.854067
2022-12-02 18:28:27.866860
2022-12-02 18:28:27.875469
2022-12-02 18:28:27.883287
2022-12-02 18:28:27.895882
2022-12-02 18:28:27.904071
2022-12-02 18:28:27.912356
2022-12-02 18:28:27.919725
2022-12-02 18:28:27.932083
2022-12-02 18:28:27.940255
2022-12-02 18:28:27.947958
2022-12-02 18:28:27.961066
2022-12-02 18:28:27.969480
2022-12-02 18:28:27.977583
2022-12-02 18:28:27.985653
2022-12-02 18:28:27.997978
2022-12-02 18:28:28.006138
2022-12-02 18:28:28.014332
2022-12-02 18:28:28.026919
2022-12-02 18:28:28.034957
2022-12-02 18:28:28.043450
2022-12-02 18:28:28.050623
2022-12-02 18:28:28.063678
2022-12-02 18:28:28.071277
2022-12-02 18:28:28.079458
2022-12-02 18:28:28.092408
2022-12-02 18:28:28.100438
2022-12-02 18:28:28.108788
2022-12-02 18:28:28.116965
2022-12-02 18:28:28.129359
2022-12-02 18:28:28.137390
2022-12-02 18:28:28.145723
2022-12-02 18:28:28.153914
2022-12-02 18:28:28.165917
2022-12-02 18:28:28.174022
2022-12-02 18:28:28.182295
2022-12-02 18:28:28.194904
2022-12-02 18:28:28.202872
2022-12-02 18:28:28.211249
2022-12-02 18:28:28.219323
2022-12-02 18:28:28.231674
2022-12-02 18:28:28.239338
2022-12-02 18:28:28.247967
2022-12-02 18:28:28.260223
2022-12-02 18:28:28.268387
2022-12-02 18:28:28.276721
2022-12-02 18:28:28.284870
2022-12-02 18:28:28.296114
2022-12-02 18:28:28.304489
2022-12-02 18:28:28.312890
2022-12-02 18:28:28.325796
2022-12-02 18:28:28.333932
2022-12-02 18:28:28.342086
2022-12-02 18:28:28.350131
2022-12-02 18:28:28.362701
2022-12-02 18:28:28.370865
2022-12-02 18:28:28.379451
2022-12-02 18:28:28.391285
2022-12-02 18:28:28.399567
2022-12-02 18:28:28.407766
2022-12-02 18:28:28.415931
2022-12-02 18:28:28.428454
2022-12-02 18:28:28.436118
2022-12-02 18:28:28.444555
2022-12-02 18:28:28.456858
2022-12-02 18:28:28.465089
2022-12-02 18:28:28.473119
2022-12-02 18:28:28.481838
2022-12-02 18:28:28.493794
2022-12-02 18:28:28.501796
2022-12-02 18:28:28.509985
2022-12-02 18:28:28.522104
2022-12-02 18:28:28.530383
2022-12-02 18:28:28.538626
2022-12-02 18:28:28.546892
2022-12-02 18:28:28.559361
2022-12-02 18:28:28.567466
2022-12-02 18:28:28.575879
2022-12-02 18:28:28.587588
2022-12-02 18:28:28.596461
2022-12-02 18:28:28.604356
2022-12-02 18:28:28.612672
2022-12-02 18:28:28.624623
2022-12-02 18:28:28.633044
2022-12-02 18:28:28.641364
2022-12-02 18:28:28.653296
2022-12-02 18:28:28.661054
2022-12-02 18:28:28.669689
2022-12-02 18:28:28.678045
2022-12-02 18:28:28.690289
2022-12-02 18:28:28.697854
2022-12-02 18:28:28.706463
2022-12-02 18:28:28.718916
2022-12-02 18:28:28.727590
2022-12-02 18:28:28.735338
2022-12-02 18:28:28.743154
2022-12-02 18:28:28.755819
2022-12-02 18:28:28.764108
2022-12-02 18:28:28.771888
2022-12-02 18:28:28.783517
2022-12-02 18:28:28.792457
2022-12-02 18:28:28.800698
2022-12-02 18:28:28.809452
2022-12-02 18:28:28.820793
2022-12-02 18:28:28.829341
2022-12-02 18:28:28.837260
2022-12-02 18:28:28.850134
2022-12-02 18:28:28.858073
2022-12-02 18:28:28.866511
2022-12-02 18:28:28.874798
2022-12-02 18:28:28.887048
2022-12-02 18:28:28.895553
2022-12-02 18:28:28.903397
2022-12-02 18:28:28.915611
2022-12-02 18:28:28.923864
2022-12-02 18:28:28.931252
2022-12-02 18:28:28.940170
2022-12-02 18:28:28.952261
2022-12-02 18:28:28.959946
2022-12-02 18:28:28.968232
2022-12-02 18:28:28.977122
2022-12-02 18:28:28.988854
2022-12-02 18:28:28.997154
2022-12-02 18:28:29.005551
2022-12-02 18:28:29.017367
2022-12-02 18:28:29.026405
2022-12-02 18:28:29.034107
2022-12-02 18:28:29.042656
2022-12-02 18:28:29.054834
2022-12-02 18:28:29.063360
2022-12-02 18:28:29.070757
2022-12-02 18:28:29.083395
2022-12-02 18:28:29.091860
2022-12-02 18:28:29.100017
2022-12-02 18:28:29.108378
2022-12-02 18:28:29.120406
2022-12-02 18:28:29.128755
2022-12-02 18:28:29.136922
2022-12-02 18:28:29.149364
2022-12-02 18:28:29.157371
2022-12-02 18:28:29.165525
2022-12-02 18:28:29.173630
2022-12-02 18:28:29.185955
2022-12-02 18:28:29.194519
2022-12-02 18:28:29.201885
2022-12-02 18:28:29.214542
2022-12-02 18:28:29.222597
2022-12-02 18:28:29.230787
2022-12-02 18:28:29.239105
2022-12-02 18:28:29.251181
2022-12-02 18:28:29.259334
2022-12-02 18:28:29.267936
2022-12-02 18:28:29.279487
2022-12-02 18:28:29.288235
2022-12-02 18:28:29.296476
2022-12-02 18:28:29.304072
2022-12-02 18:28:29.317017
2022-12-02 18:28:29.324689
2022-12-02 18:28:29.333405
2022-12-02 18:28:29.345721
2022-12-02 18:28:29.353396
2022-12-02 18:28:29.361117
2022-12-02 18:28:29.369812
2022-12-02 18:28:29.382556
2022-12-02 18:28:29.390685
2022-12-02 18:28:29.399166
2022-12-02 18:28:29.411468
2022-12-02 18:28:29.419577
2022-12-02 18:28:29.427716
2022-12-02 18:28:29.435770
2022-12-02 18:28:29.447870
2022-12-02 18:28:29.455380
2022-12-02 18:28:29.463982
2022-12-02 18:28:29.476284
2022-12-02 18:28:29.484796
2022-12-02 18:28:29.492458
2022-12-02 18:28:29.501137
2022-12-02 18:28:29.513670
2022-12-02 18:28:29.521447
2022-12-02 18:28:29.530090
2022-12-02 18:28:29.542194
2022-12-02 18:28:29.549897
2022-12-02 18:28:29.558241
2022-12-02 18:28:29.566959
2022-12-02 18:28:29.579375
2022-12-02 18:28:29.587010
2022-12-02 18:28:29.595706
2022-12-02 18:28:29.607934
2022-12-02 18:28:29.615996
2022-12-02 18:28:29.624278
2022-12-02 18:28:29.632251
2022-12-02 18:28:29.644700
2022-12-02 18:28:29.652064
2022-12-02 18:28:29.661230
2022-12-02 18:28:29.673459
2022-12-02 18:28:29.681715
2022-12-02 18:28:29.689729
2022-12-02 18:28:29.698041
2022-12-02 18:28:29.709747
2022-12-02 18:28:29.718483
2022-12-02 18:28:29.725944
2022-12-02 18:28:29.738467
2022-12-02 18:28:29.747365
2022-12-02 18:28:29.754580
2022-12-02 18:28:29.763546
2022-12-02 18:28:29.775796
2022-12-02 18:28:29.783594
2022-12-02 18:28:29.792461
2022-12-02 18:28:29.803670
2022-12-02 18:28:29.812710
2022-12-02 18:28:29.820542
2022-12-02 18:28:29.829251
2022-12-02 18:28:29.840828
2022-12-02 18:28:29.848813
2022-12-02 18:28:29.857826
2022-12-02 18:28:29.865660
2022-12-02 18:28:29.877937
2022-12-02 18:28:29.886286
2022-12-02 18:28:29.894407
2022-12-02 18:28:29.906913
2022-12-02 18:28:29.915161
2022-12-02 18:28:29.923377
2022-12-02 18:28:29.931480
2022-12-02 18:28:29.943036
2022-12-02 18:28:29.952016
2022-12-02 18:28:29.959192
2022-12-02 18:28:29.971594
2022-12-02 18:28:29.979931
2022-12-02 18:28:29.988596
2022-12-02 18:28:29.996617
2022-12-02 18:28:30.008916
2022-12-02 18:28:30.017388
2022-12-02 18:28:30.025683
2022-12-02 18:28:30.037246
2022-12-02 18:28:30.046028
2022-12-02 18:28:30.053575
2022-12-02 18:28:30.062253
2022-12-02 18:28:30.074805
2022-12-02 18:28:30.082223
2022-12-02 18:28:30.091487
2022-12-02 18:28:30.103483
2022-12-02 18:28:30.111609
2022-12-02 18:28:30.118969
2022-12-02 18:28:30.127286
2022-12-02 18:28:30.139910
2022-12-02 18:28:30.148466
2022-12-02 18:28:30.156734
2022-12-02 18:28:30.168861
2022-12-02 18:28:30.177252
2022-12-02 18:28:30.185234
2022-12-02 18:28:30.193501
2022-12-02 18:28:30.205018
2022-12-02 18:28:30.214012
2022-12-02 18:28:30.222119
2022-12-02 18:28:30.234073
2022-12-02 18:28:30.242319
2022-12-02 18:28:30.250988
2022-12-02 18:28:30.259123
2022-12-02 18:28:30.271053
2022-12-02 18:28:30.279417
2022-12-02 18:28:30.286795
2022-12-02 18:28:30.299600
2022-12-02 18:28:30.307944
2022-12-02 18:28:30.316321
2022-12-02 18:28:30.324586
2022-12-02 18:28:30.336769
2022-12-02 18:28:30.344763
2022-12-02 18:28:30.352587
2022-12-02 18:28:30.365611
2022-12-02 18:28:30.373774
2022-12-02 18:28:30.381903
2022-12-02 18:28:30.389869
2022-12-02 18:28:30.402533
2022-12-02 18:28:30.410604
2022-12-02 18:28:30.418501
2022-12-02 18:28:30.431112
2022-12-02 18:28:30.438583
2022-12-02 18:28:30.447294
2022-12-02 18:28:30.455273
2022-12-02 18:28:30.467501
2022-12-02 18:28:30.476371
2022-12-02 18:28:30.484015
2022-12-02 18:28:30.496691
2022-12-02 18:28:30.504624
2022-12-02 18:28:30.513408
2022-12-02 18:28:30.521146
2022-12-02 18:28:30.533041
2022-12-02 18:28:30.541793
2022-12-02 18:28:30.549202
2022-12-02 18:28:30.562136
2022-12-02 18:28:30.570120
2022-12-02 18:28:30.578353
2022-12-02 18:28:30.588146
2022-12-02 18:28:30.599079
2022-12-02 18:28:30.607348
2022-12-02 18:28:30.615417
2022-12-02 18:28:30.626939
2022-12-02 18:28:30.635328
2022-12-02 18:28:30.643870
2022-12-02 18:28:30.651912
2022-12-02 18:28:30.664247
2022-12-02 18:28:30.672277
2022-12-02 18:28:30.680561
2022-12-02 18:28:30.688909
2022-12-02 18:28:30.700717
2022-12-02 18:28:30.708810
2022-12-02 18:28:30.717168
2022-12-02 18:28:30.729810
2022-12-02 18:28:30.737938
2022-12-02 18:28:30.745548
2022-12-02 18:28:30.753950
2022-12-02 18:28:30.766181
2022-12-02 18:28:30.775086
2022-12-02 18:28:30.783228
2022-12-02 18:28:30.795409
2022-12-02 18:28:30.803030
2022-12-02 18:28:30.811882
2022-12-02 18:28:30.819895
2022-12-02 18:28:30.831974
2022-12-02 18:28:30.840533
2022-12-02 18:28:30.848043
2022-12-02 18:28:30.860987
2022-12-02 18:28:30.869276
2022-12-02 18:28:30.876570
2022-12-02 18:28:30.884582
2022-12-02 18:28:30.897859
2022-12-02 18:28:30.906048
2022-12-02 18:28:30.914261
2022-12-02 18:28:30.926099
2022-12-02 18:28:30.934368
2022-12-02 18:28:30.942276
2022-12-02 18:28:30.950287
2022-12-02 18:28:30.962979
2022-12-02 18:28:30.971254
2022-12-02 18:28:30.979813
2022-12-02 18:28:30.992085
2022-12-02 18:28:31.000437
2022-12-02 18:28:31.008410
2022-12-02 18:28:31.016634
2022-12-02 18:28:31.028467
2022-12-02 18:28:31.036637
2022-12-02 18:28:31.044476
2022-12-02 18:28:31.057714
2022-12-02 18:28:31.065618
2022-12-02 18:28:31.074207
2022-12-02 18:28:31.082180
2022-12-02 18:28:31.093812
2022-12-02 18:28:31.103468
2022-12-02 18:28:31.110404
2022-12-02 18:28:31.124875
2022-12-02 18:28:31.131202
2022-12-02 18:28:31.139466
2022-12-02 18:28:31.147624
2022-12-02 18:28:31.159296
2022-12-02 18:28:31.167871
2022-12-02 18:28:31.176256
2022-12-02 18:28:31.188625
2022-12-02 18:28:31.196788
2022-12-02 18:28:31.205012
2022-12-02 18:28:31.213192
2022-12-02 18:28:31.225490
2022-12-02 18:28:31.233663
2022-12-02 18:28:31.241949
2022-12-02 18:28:31.253281
2022-12-02 18:28:31.262209
2022-12-02 18:28:31.270198
2022-12-02 18:28:31.278501
2022-12-02 18:28:31.292582
2022-12-02 18:28:31.303898
2022-12-02 18:28:31.312694
2022-12-02 18:28:31.319257
2022-12-02 18:28:31.327551
2022-12-02 18:28:31.336102
2022-12-02 18:28:31.353622
2022-12-02 18:28:31.456847
2022-12-02 18:28:31.490841
2022-12-02 18:28:31.492330
2022-12-02 18:28:31.494350
2022-12-02 18:28:31.495476
2022-12-02 18:28:31.496082
2022-12-02 18:28:31.497114
2022-12-02 18:28:31.498122
2022-12-02 18:28:31.498122
2022-12-02 18:28:31.499865
2022-12-02 18:28:31.500315
2022-12-02 18:28:31.501666
2022-12-02 18:28:31.501666
2022-12-02 18:28:31.503499
2022-12-02 18:28:31.503499
2022-12-02 18:28:31.505320
2022-12-02 18:28:31.506152
2022-12-02 18:28:31.515366
2022-12-02 18:28:31.524487
2022-12-02 18:28:31.532461
2022-12-02 18:28:31.540887
2022-12-02 18:28:31.553198
2022-12-02 18:28:31.561391
2022-12-02 18:28:31.569012
2022-12-02 18:28:31.577901
2022-12-02 18:28:31.590038
2022-12-02 18:28:31.597666
2022-12-02 18:28:31.606391
2022-12-02 18:28:31.618396
2022-12-02 18:28:31.626332
2022-12-02 18:28:31.634646
2022-12-02 18:28:31.642802
2022-12-02 18:28:31.655471
2022-12-02 18:28:31.663356
2022-12-02 18:28:31.671899
2022-12-02 18:28:31.684473
2022-12-02 18:28:31.692245
2022-12-02 18:28:31.700646
2022-12-02 18:28:31.708748
2022-12-02 18:28:31.720887
2022-12-02 18:28:31.729070
2022-12-02 18:28:31.736898
2022-12-02 18:28:31.749544
2022-12-02 18:28:31.757736
2022-12-02 18:28:31.765710
2022-12-02 18:28:31.774087
2022-12-02 18:28:31.786155
2022-12-02 18:28:31.813473
2022-12-02 18:28:31.941002
2022-12-02 18:28:31.975677
2022-12-02 18:28:31.993980
2022-12-02 18:28:31.995211
2022-12-02 18:28:31.997887
2022-12-02 18:28:31.998876
2022-12-02 18:28:32.003089
2022-12-02 18:28:32.004734
2022-12-02 18:28:32.006911
2022-12-02 18:28:32.008521
2022-12-02 18:28:32.009978
2022-12-02 18:28:32.010475
2022-12-02 18:28:32.012478
2022-12-02 18:28:32.013942
2022-12-02 18:28:32.015290
2022-12-02 18:28:32.017620
2022-12-02 18:28:32.031396
2022-12-02 18:28:32.034244
2022-12-02 18:28:32.036598
2022-12-02 18:28:32.038595
2022-12-02 18:28:32.040405
2022-12-02 18:28:32.041982
2022-12-02 18:28:32.043220
2022-12-02 18:28:32.045102
2022-12-02 18:28:32.046140
2022-12-02 18:28:32.050563
2022-12-02 18:28:32.052641
2022-12-02 18:28:32.067165
2022-12-02 18:28:32.071831
2022-12-02 18:28:32.076740
2022-12-02 18:28:32.085473
2022-12-02 18:28:32.093814
2022-12-02 18:28:32.101514
2022-12-02 18:28:32.114325
2022-12-02 18:28:32.122503
2022-12-02 18:28:32.130740
2022-12-02 18:28:32.142761
2022-12-02 18:28:32.151224
2022-12-02 18:28:32.158690
2022-12-02 18:28:32.167636
2022-12-02 18:28:32.179933
2022-12-02 18:28:32.188089
2022-12-02 18:28:32.196313
2022-12-02 18:28:32.208582
2022-12-02 18:28:32.216634
2022-12-02 18:28:32.225440
2022-12-02 18:28:32.233314
2022-12-02 18:28:32.245642
2022-12-02 18:28:32.253589
2022-12-02 18:28:32.261844
2022-12-02 18:28:32.274462
2022-12-02 18:28:32.282097
2022-12-02 18:28:32.290856
2022-12-02 18:28:32.298945
2022-12-02 18:28:32.310732
2022-12-02 18:28:32.318577
2022-12-02 18:28:32.327020
2022-12-02 18:28:32.338899
2022-12-02 18:28:32.347144
2022-12-02 18:28:32.355774
2022-12-02 18:28:32.363574
2022-12-02 18:28:32.376087
2022-12-02 18:28:32.384567
2022-12-02 18:28:32.393004
2022-12-02 18:28:32.404926
2022-12-02 18:28:32.413459
2022-12-02 18:28:32.421299
2022-12-02 18:28:32.429560
2022-12-02 18:28:32.441751
2022-12-02 18:28:32.450416
2022-12-02 18:28:32.458323
2022-12-02 18:28:32.466494
2022-12-02 18:28:32.478030
2022-12-02 18:28:32.486475
2022-12-02 18:28:32.494912
2022-12-02 18:28:32.507263
2022-12-02 18:28:32.515732
2022-12-02 18:28:32.524088
2022-12-02 18:28:32.532059
2022-12-02 18:28:32.544636
2022-12-02 18:28:32.552606
2022-12-02 18:28:32.561083
2022-12-02 18:28:32.573435
2022-12-02 18:28:32.581561
2022-12-02 18:28:32.589852
2022-12-02 18:28:32.597923
2022-12-02 18:28:32.610497
2022-12-02 18:28:32.618440
2022-12-02 18:28:32.626751
2022-12-02 18:28:32.638206
2022-12-02 18:28:32.647208
2022-12-02 18:28:32.655258
2022-12-02 18:28:32.663529
2022-12-02 18:28:32.675950
2022-12-02 18:28:32.683971
2022-12-02 18:28:32.692498
2022-12-02 18:28:32.703709
2022-12-02 18:28:32.712757
2022-12-02 18:28:32.720910
2022-12-02 18:28:32.729258
2022-12-02 18:28:32.741035
2022-12-02 18:28:32.748931
2022-12-02 18:28:32.757502
2022-12-02 18:28:32.768889
2022-12-02 18:28:32.777880
2022-12-02 18:28:32.785510
2022-12-02 18:28:32.794184
2022-12-02 18:28:32.806809
2022-12-02 18:28:32.815024
2022-12-02 18:28:32.823309
2022-12-02 18:28:32.835600
2022-12-02 18:28:32.843874
2022-12-02 18:28:32.852048
2022-12-02 18:28:32.859967
2022-12-02 18:28:32.871417
2022-12-02 18:28:32.879821
2022-12-02 18:28:32.888505
2022-12-02 18:28:32.900004
2022-12-02 18:28:32.909105
2022-12-02 18:28:32.921100
2022-12-02 18:28:32.925123
2022-12-02 18:28:32.937487
2022-12-02 18:28:32.945451
2022-12-02 18:28:32.953248
2022-12-02 18:28:32.966007
2022-12-02 18:28:32.974191
2022-12-02 18:28:32.982656
2022-12-02 18:28:32.990631
2022-12-02 18:28:33.003241
2022-12-02 18:28:33.010405
2022-12-02 18:28:33.019194
2022-12-02 18:28:33.031590
2022-12-02 18:28:33.040277
2022-12-02 18:28:33.048597
2022-12-02 18:28:33.056139
2022-12-02 18:28:33.069025
2022-12-02 18:28:33.076607
2022-12-02 18:28:33.084907
2022-12-02 18:28:33.096965
2022-12-02 18:28:33.105016
2022-12-02 18:28:33.113551
2022-12-02 18:28:33.122080
2022-12-02 18:28:33.133989
2022-12-02 18:28:33.142148
2022-12-02 18:28:33.150068
2022-12-02 18:28:33.162352
2022-12-02 18:28:33.170984
2022-12-02 18:28:33.179056
2022-12-02 18:28:33.187632
2022-12-02 18:28:33.199070
2022-12-02 18:28:33.207889
2022-12-02 18:28:33.215674
2022-12-02 18:28:33.228360
2022-12-02 18:28:33.236649
2022-12-02 18:28:33.244530
2022-12-02 18:28:33.253473
2022-12-02 18:28:33.264481
2022-12-02 18:28:33.273220
2022-12-02 18:28:33.281525
2022-12-02 18:28:33.289188
2022-12-02 18:28:33.301617
2022-12-02 18:28:33.310420
2022-12-02 18:28:33.318437
2022-12-02 18:28:33.330698
2022-12-02 18:28:33.338652
2022-12-02 18:28:33.347366
2022-12-02 18:28:33.355232
2022-12-02 18:28:33.367842
2022-12-02 18:28:33.375625
2022-12-02 18:28:33.383696
2022-12-02 18:28:33.396043
2022-12-02 18:28:33.404119
2022-12-02 18:28:33.412940
2022-12-02 18:28:33.420508
2022-12-02 18:28:33.432730
2022-12-02 18:28:33.441240
2022-12-02 18:28:33.449401
2022-12-02 18:28:33.461404
2022-12-02 18:28:33.469340
2022-12-02 18:28:33.478400
2022-12-02 18:28:33.486702
2022-12-02 18:28:33.497964
2022-12-02 18:28:33.506775
2022-12-02 18:28:33.515976
2022-12-02 18:28:33.527489
2022-12-02 18:28:33.535672
2022-12-02 18:28:33.543532
2022-12-02 18:28:33.551879
2022-12-02 18:28:33.563418
2022-12-02 18:28:33.572440
2022-12-02 18:28:33.580552
2022-12-02 18:28:33.592345
2022-12-02 18:28:33.601268
2022-12-02 18:28:33.609212
2022-12-02 18:28:33.617526
2022-12-02 18:28:33.629361
2022-12-02 18:28:33.637324
2022-12-02 18:28:33.645526
2022-12-02 18:28:33.658492
2022-12-02 18:28:33.666792
2022-12-02 18:28:33.675392
2022-12-02 18:28:33.683213
2022-12-02 18:28:33.694885
2022-12-02 18:28:33.703372
2022-12-02 18:28:33.711762
2022-12-02 18:28:33.723719
2022-12-02 18:28:33.732316
2022-12-02 18:28:33.740557
2022-12-02 18:28:33.748445
2022-12-02 18:28:33.760703
2022-12-02 18:28:33.769048
2022-12-02 18:28:33.776756
2022-12-02 18:28:33.789387
2022-12-02 18:28:33.797839
2022-12-02 18:28:33.805748
2022-12-02 18:28:33.814120
2022-12-02 18:28:33.826308
2022-12-02 18:28:33.834521
2022-12-02 18:28:33.842873
2022-12-02 18:28:33.854240
2022-12-02 18:28:33.863255
2022-12-02 18:28:33.871288
2022-12-02 18:28:33.879137
2022-12-02 18:28:33.892053
2022-12-02 18:28:33.900180
2022-12-02 18:28:33.908395
2022-12-02 18:28:33.920821
2022-12-02 18:28:33.928633
2022-12-02 18:28:33.936726
2022-12-02 18:28:33.944633
2022-12-02 18:28:33.957082
2022-12-02 18:28:33.965195
2022-12-02 18:28:33.973950
2022-12-02 18:28:33.985646
2022-12-02 18:28:33.994413
2022-12-02 18:28:34.002750
2022-12-02 18:28:34.010731
2022-12-02 18:28:34.023048
2022-12-02 18:28:34.030942
2022-12-02 18:28:34.039512
2022-12-02 18:28:34.050576
2022-12-02 18:28:34.059943
2022-12-02 18:28:34.068151
2022-12-02 18:28:34.075723
2022-12-02 18:28:34.088224
2022-12-02 18:28:34.096815
2022-12-02 18:28:34.104582
2022-12-02 18:28:34.116542
2022-12-02 18:28:34.125758
2022-12-02 18:28:34.134051
2022-12-02 18:28:34.141655
2022-12-02 18:28:34.154207
2022-12-02 18:28:34.162263
2022-12-02 18:28:34.170833
2022-12-02 18:28:34.178817
2022-12-02 18:28:34.190995
2022-12-02 18:28:34.199261
2022-12-02 18:28:34.206852
2022-12-02 18:28:34.219531
2022-12-02 18:28:34.228031
2022-12-02 18:28:34.236044
2022-12-02 18:28:34.244215
2022-12-02 18:28:34.256636
2022-12-02 18:28:34.264567
2022-12-02 18:28:34.272639
2022-12-02 18:28:34.284639
2022-12-02 18:28:34.292758
2022-12-02 18:28:34.301226
2022-12-02 18:28:34.309933
2022-12-02 18:28:34.321900
2022-12-02 18:28:34.330452
2022-12-02 18:28:34.338426
2022-12-02 18:28:34.350642
2022-12-02 18:28:34.359055
2022-12-02 18:28:34.366305
2022-12-02 18:28:34.374994
2022-12-02 18:28:34.387647
2022-12-02 18:28:34.395232
2022-12-02 18:28:34.404154
2022-12-02 18:28:34.416274
2022-12-02 18:28:34.424230
2022-12-02 18:28:34.432370
2022-12-02 18:28:34.440942
2022-12-02 18:28:34.452793
2022-12-02 18:28:34.461423
2022-12-02 18:28:34.469485
2022-12-02 18:28:34.481707
2022-12-02 18:28:34.490024
2022-12-02 18:28:34.497999
2022-12-02 18:28:34.506549
2022-12-02 18:28:34.518594
2022-12-02 18:28:34.526788
2022-12-02 18:28:34.534948
2022-12-02 18:28:34.547423
2022-12-02 18:28:34.555222
2022-12-02 18:28:34.563704
2022-12-02 18:28:34.571785
2022-12-02 18:28:34.584015
2022-12-02 18:28:34.591595
2022-12-02 18:28:34.600843
2022-12-02 18:28:34.612868
2022-12-02 18:28:34.621139
2022-12-02 18:28:34.629376
2022-12-02 18:28:34.637652
2022-12-02 18:28:34.649568
2022-12-02 18:28:34.657812
2022-12-02 18:28:34.666063
2022-12-02 18:28:34.678435
2022-12-02 18:28:34.686579
2022-12-02 18:28:34.694944
2022-12-02 18:28:34.703125
2022-12-02 18:28:34.714514
2022-12-02 18:28:34.723069
2022-12-02 18:28:34.731343
2022-12-02 18:28:34.744000
2022-12-02 18:28:34.751852
2022-12-02 18:28:34.760223
2022-12-02 18:28:34.768730
2022-12-02 18:28:34.780491
2022-12-02 18:28:34.788708
2022-12-02 18:28:34.797066
2022-12-02 18:28:34.809263
2022-12-02 18:28:34.817214
2022-12-02 18:28:34.825905
2022-12-02 18:28:34.834211
2022-12-02 18:28:34.846445
2022-12-02 18:28:34.854309
2022-12-02 18:28:34.862032
2022-12-02 18:28:34.874682
2022-12-02 18:28:34.883186
2022-12-02 18:28:34.891105
2022-12-02 18:28:34.899387
2022-12-02 18:28:34.911743
2022-12-02 18:28:34.920133
2022-12-02 18:28:34.927569
2022-12-02 18:28:34.940302
2022-12-02 18:28:34.948733
2022-12-02 18:28:34.956919
2022-12-02 18:28:34.965196
2022-12-02 18:28:34.977116
2022-12-02 18:28:34.985370
2022-12-02 18:28:34.993718
2022-12-02 18:28:35.001551
2022-12-02 18:28:35.014238
2022-12-02 18:28:35.022019
2022-12-02 18:28:35.030517
2022-12-02 18:28:35.042886
2022-12-02 18:28:35.050901
2022-12-02 18:28:35.059096
2022-12-02 18:28:35.066868
2022-12-02 18:28:35.079514
2022-12-02 18:28:35.087659
2022-12-02 18:28:35.096436
2022-12-02 18:28:35.108634
2022-12-02 18:28:35.116747
2022-12-02 18:28:35.124954
2022-12-02 18:28:35.133026
2022-12-02 18:28:35.145263
2022-12-02 18:28:35.153593
2022-12-02 18:28:35.161880
2022-12-02 18:28:35.174062
2022-12-02 18:28:35.182290
2022-12-02 18:28:35.190614
2022-12-02 18:28:35.198992
2022-12-02 18:28:35.210533
2022-12-02 18:28:35.219236
2022-12-02 18:28:35.226824
2022-12-02 18:28:35.239491
2022-12-02 18:28:35.247530
2022-12-02 18:28:35.255857
2022-12-02 18:28:35.263580
2022-12-02 18:28:35.276451
2022-12-02 18:28:35.284563
2022-12-02 18:28:35.292713
2022-12-02 18:28:35.304826
2022-12-02 18:28:35.312917
2022-12-02 18:28:35.321629
2022-12-02 18:28:35.329843
2022-12-02 18:28:35.341852
2022-12-02 18:28:35.350036
2022-12-02 18:28:35.377738
2022-12-02 18:28:35.378732
2022-12-02 18:28:35.380793
2022-12-02 18:28:35.387211
2022-12-02 18:28:35.395219
2022-12-02 18:28:35.407553
2022-12-02 18:28:35.415708
2022-12-02 18:28:35.423637
2022-12-02 18:28:35.435512
2022-12-02 18:28:35.444395
2022-12-02 18:28:35.452172
2022-12-02 18:28:35.460881
2022-12-02 18:28:35.472434
2022-12-02 18:28:35.480459
2022-12-02 18:28:35.489501
2022-12-02 18:28:35.501416
2022-12-02 18:28:35.510028
2022-12-02 18:28:35.518386
2022-12-02 18:28:35.526517
2022-12-02 18:28:35.538931
2022-12-02 18:28:35.547005
2022-12-02 18:28:35.554923
2022-12-02 18:28:35.567334
2022-12-02 18:28:35.575094
2022-12-02 18:28:35.583713
2022-12-02 18:28:35.591742
2022-12-02 18:28:35.603710
2022-12-02 18:28:35.611855
2022-12-02 18:28:35.620661
2022-12-02 18:28:35.633435
2022-12-02 18:28:35.641093
2022-12-02 18:28:35.648507
2022-12-02 18:28:35.657011
2022-12-02 18:28:35.669398
2022-12-02 18:28:35.677201
2022-12-02 18:28:35.685962
2022-12-02 18:28:35.698286
2022-12-02 18:28:35.706023
2022-12-02 18:28:35.714868
2022-12-02 18:28:35.722295
2022-12-02 18:28:35.735181
2022-12-02 18:28:35.743275
2022-12-02 18:28:35.751078
2022-12-02 18:28:35.763658
2022-12-02 18:28:35.771860
2022-12-02 18:28:35.780291
2022-12-02 18:28:35.788566
2022-12-02 18:28:35.800665
2022-12-02 18:28:35.808676
2022-12-02 18:28:35.816858
2022-12-02 18:28:35.829399
2022-12-02 18:28:35.837583
2022-12-02 18:28:35.845909
2022-12-02 18:28:35.854526
2022-12-02 18:28:35.866311
2022-12-02 18:28:35.873844
2022-12-02 18:28:35.882709
2022-12-02 18:28:35.890195
2022-12-02 18:28:35.903197
2022-12-02 18:28:35.911384
2022-12-02 18:28:35.919282
2022-12-02 18:28:35.931369
2022-12-02 18:28:35.939647
2022-12-02 18:28:35.947794
2022-12-02 18:28:35.956563
2022-12-02 18:28:35.967873
2022-12-02 18:28:35.976697
2022-12-02 18:28:35.984615
2022-12-02 18:28:35.996789
2022-12-02 18:28:36.005596
2022-12-02 18:28:36.013795
2022-12-02 18:28:36.021145
2022-12-02 18:28:36.034811
2022-12-02 18:28:36.042113
2022-12-02 18:28:36.050483
2022-12-02 18:28:36.062624
2022-12-02 18:28:36.070789
2022-12-02 18:28:36.078650
2022-12-02 18:28:36.086490
2022-12-02 18:28:36.099845
2022-12-02 18:28:36.107951
2022-12-02 18:28:36.116239
2022-12-02 18:28:36.128213
2022-12-02 18:28:36.136739
2022-12-02 18:28:36.144340
2022-12-02 18:28:36.152331
2022-12-02 18:28:36.165153
2022-12-02 18:28:36.173565
2022-12-02 18:28:36.181655
2022-12-02 18:28:36.193762
2022-12-02 18:28:36.201880
2022-12-02 18:28:36.210318
2022-12-02 18:28:36.218524
2022-12-02 18:28:36.230806
2022-12-02 18:28:36.239379
2022-12-02 18:28:36.247388
2022-12-02 18:28:36.259819
2022-12-02 18:28:36.267794
2022-12-02 18:28:36.276438
2022-12-02 18:28:36.284338
2022-12-02 18:28:36.296554
2022-12-02 18:28:36.304891
2022-12-02 18:28:36.312988
2022-12-02 18:28:36.325389
2022-12-02 18:28:36.333298
2022-12-02 18:28:36.341666
2022-12-02 18:28:36.349854
2022-12-02 18:28:36.362016
2022-12-02 18:28:36.370239
2022-12-02 18:28:36.377870
2022-12-02 18:28:36.390817
2022-12-02 18:28:36.398930
2022-12-02 18:28:36.406974
2022-12-02 18:28:36.415512
2022-12-02 18:28:36.427894
2022-12-02 18:28:36.435572
2022-12-02 18:28:36.444533
2022-12-02 18:28:36.456465
2022-12-02 18:28:36.464265
2022-12-02 18:28:36.472790
2022-12-02 18:28:36.480671
2022-12-02 18:28:36.493539
2022-12-02 18:28:36.500952
2022-12-02 18:28:36.509547
2022-12-02 18:28:36.522042
2022-12-02 18:28:36.529970
2022-12-02 18:28:36.538044
2022-12-02 18:28:36.546157
2022-12-02 18:28:36.558480
2022-12-02 18:28:36.566068
2022-12-02 18:28:36.574970
2022-12-02 18:28:36.587574
2022-12-02 18:28:36.595356
2022-12-02 18:28:36.603990
2022-12-02 18:28:36.612197
2022-12-02 18:28:36.624180
2022-12-02 18:28:36.632662
2022-12-02 18:28:36.640884
2022-12-02 18:28:36.652734
2022-12-02 18:28:36.661553
2022-12-02 18:28:36.669276
2022-12-02 18:28:36.677649
2022-12-02 18:28:36.690018
2022-12-02 18:28:36.697919
2022-12-02 18:28:36.706519
2022-12-02 18:28:36.717453
2022-12-02 18:28:36.726668
2022-12-02 18:28:36.734203
2022-12-02 18:28:36.742937
2022-12-02 18:28:36.755034
2022-12-02 18:28:36.763326
2022-12-02 18:28:36.771439
2022-12-02 18:28:36.779827
2022-12-02 18:28:36.791761
2022-12-02 18:28:36.800199
2022-12-02 18:28:36.808005
2022-12-02 18:28:36.820716
2022-12-02 18:28:36.828054
2022-12-02 18:28:36.837083
2022-12-02 18:28:36.845104
2022-12-02 18:28:36.857129
2022-12-02 18:28:36.865412
2022-12-02 18:28:36.874007
2022-12-02 18:28:36.885635
2022-12-02 18:28:36.894005
2022-12-02 18:28:36.902419
2022-12-02 18:28:36.910642
2022-12-02 18:28:36.922671
2022-12-02 18:28:36.931341
2022-12-02 18:28:36.938943
2022-12-02 18:28:36.950968
2022-12-02 18:28:36.958862
2022-12-02 18:28:36.968251
2022-12-02 18:28:36.976422
2022-12-02 18:28:36.988481
2022-12-02 18:28:36.995985
2022-12-02 18:28:37.004658
2022-12-02 18:28:37.017255
2022-12-02 18:28:37.025838
2022-12-02 18:28:37.033888
2022-12-02 18:28:37.042438
2022-12-02 18:28:37.054300
2022-12-02 18:28:37.062375
2022-12-02 18:28:37.070742
2022-12-02 18:28:37.082779
2022-12-02 18:28:37.090955
2022-12-02 18:28:37.099208
2022-12-02 18:28:37.106980
2022-12-02 18:28:37.118757
2022-12-02 18:28:37.127984
2022-12-02 18:28:37.136226
2022-12-02 18:28:37.148705
2022-12-02 18:28:37.156451
2022-12-02 18:28:37.165106
2022-12-02 18:28:37.173125
2022-12-02 18:28:37.185260
2022-12-02 18:28:37.193782
2022-12-02 18:28:37.201830
2022-12-02 18:28:37.213930
2022-12-02 18:28:37.222144
2022-12-02 18:28:37.230169
2022-12-02 18:28:37.238160
2022-12-02 18:28:37.250553
2022-12-02 18:28:37.258427
2022-12-02 18:28:37.267652
2022-12-02 18:28:37.279263
2022-12-02 18:28:37.288021
2022-12-02 18:28:37.296291
2022-12-02 18:28:37.304092
2022-12-02 18:28:37.316699
2022-12-02 18:28:37.324886
2022-12-02 18:28:37.332950
2022-12-02 18:28:37.345029
2022-12-02 18:28:37.353478
2022-12-02 18:28:37.361085
2022-12-02 18:28:37.369806
2022-12-02 18:28:37.382076
2022-12-02 18:28:37.390084
2022-12-02 18:28:37.398408
2022-12-02 18:28:37.410933
2022-12-02 18:28:37.418900
2022-12-02 18:28:37.427544
2022-12-02 18:28:37.435055
2022-12-02 18:28:37.447422
2022-12-02 18:28:37.454895
2022-12-02 18:28:37.463746
2022-12-02 18:28:37.475143
2022-12-02 18:28:37.484070
2022-12-02 18:28:37.492559
2022-12-02 18:28:37.500391
2022-12-02 18:28:37.512554
2022-12-02 18:28:37.521111
2022-12-02 18:28:37.529671
2022-12-02 18:28:37.541964
2022-12-02 18:28:37.550130
2022-12-02 18:28:37.558170
2022-12-02 18:28:37.566310
2022-12-02 18:28:37.578413
2022-12-02 18:28:37.586841
2022-12-02 18:28:37.594885
2022-12-02 18:28:37.603255
2022-12-02 18:28:37.615102
2022-12-02 18:28:37.623509
2022-12-02 18:28:37.631324
2022-12-02 18:28:37.644066
2022-12-02 18:28:37.651580
2022-12-02 18:28:37.660683
2022-12-02 18:28:37.668627
2022-12-02 18:28:37.681525
2022-12-02 18:28:37.689178
2022-12-02 18:28:37.697548
2022-12-02 18:28:37.709781
2022-12-02 18:28:37.717313
2022-12-02 18:28:37.726147
2022-12-02 18:28:37.734074
2022-12-02 18:28:37.746537
2022-12-02 18:28:37.753994
2022-12-02 18:28:37.762690
2022-12-02 18:28:37.775457
2022-12-02 18:28:37.783564
2022-12-02 18:28:37.791941
2022-12-02 18:28:37.799941
2022-12-02 18:28:37.812444
2022-12-02 18:28:37.819776
2022-12-02 18:28:37.828607
2022-12-02 18:28:37.840422
2022-12-02 18:28:37.849181
2022-12-02 18:28:37.857167
2022-12-02 18:28:37.864541
2022-12-02 18:28:37.877567
2022-12-02 18:28:37.885730
2022-12-02 18:28:37.893547
2022-12-02 18:28:37.905960
2022-12-02 18:28:37.914379
2022-12-02 18:28:37.922030
2022-12-02 18:28:37.930588
2022-12-02 18:28:37.942805
2022-12-02 18:28:37.950831
2022-12-02 18:28:37.959124
2022-12-02 18:28:37.971355
2022-12-02 18:28:37.979819
2022-12-02 18:28:37.987686
2022-12-02 18:28:37.996390
2022-12-02 18:28:38.008247
2022-12-02 18:28:38.016488
2022-12-02 18:28:38.024868
2022-12-02 18:28:38.037169
2022-12-02 18:28:38.045185
2022-12-02 18:28:38.053610
2022-12-02 18:28:38.061489
2022-12-02 18:28:38.074033
2022-12-02 18:28:38.082006
2022-12-02 18:28:38.089658
2022-12-02 18:28:38.102244
2022-12-02 18:28:38.110024
2022-12-02 18:28:38.119105
2022-12-02 18:28:38.127398
2022-12-02 18:28:38.139571
2022-12-02 18:28:38.147828
2022-12-02 18:28:38.155782
2022-12-02 18:28:38.168345
2022-12-02 18:28:38.176243
2022-12-02 18:28:38.193293
2022-12-02 18:28:38.208116
2022-12-02 18:28:38.225844
2022-12-02 18:28:38.246519
2022-12-02 18:28:38.255530
2022-12-02 18:28:38.261212
2022-12-02 18:28:38.268282
2022-12-02 18:28:38.272006
2022-12-02 18:28:38.273982
2022-12-02 18:28:38.275519
2022-12-02 18:28:38.278615
2022-12-02 18:28:38.287048
2022-12-02 18:28:38.299015
2022-12-02 18:28:38.307284
2022-12-02 18:28:38.315596
2022-12-02 18:28:38.323114
2022-12-02 18:28:38.335420
2022-12-02 18:28:38.344489
2022-12-02 18:28:38.351789
2022-12-02 18:28:38.364748
2022-12-02 18:28:38.372722
2022-12-02 18:28:38.380886
2022-12-02 18:28:38.388861
2022-12-02 18:28:38.401519
2022-12-02 18:28:38.409623
2022-12-02 18:28:38.417523
2022-12-02 18:28:38.429628
2022-12-02 18:28:38.438516
2022-12-02 18:28:38.446786
2022-12-02 18:28:38.454941
2022-12-02 18:28:38.467027
2022-12-02 18:28:38.475682
2022-12-02 18:28:38.483515
2022-12-02 18:28:38.492226
2022-12-02 18:28:38.504203
2022-12-02 18:28:38.512685
2022-12-02 18:28:38.520917
2022-12-02 18:28:38.532322
2022-12-02 18:28:38.541404
2022-12-02 18:28:38.549196
2022-12-02 18:28:38.557003
2022-12-02 18:28:38.569054
2022-12-02 18:28:38.577702
2022-12-02 18:28:38.586601
2022-12-02 18:28:38.597975
2022-12-02 18:28:38.607221
2022-12-02 18:28:38.614449
2022-12-02 18:28:38.623379
2022-12-02 18:28:38.635183
2022-12-02 18:28:38.643772
2022-12-02 18:28:38.651265
2022-12-02 18:28:38.664047
2022-12-02 18:28:38.672571
2022-12-02 18:28:38.680334
2022-12-02 18:28:38.688860
2022-12-02 18:28:38.700798
2022-12-02 18:28:38.708835
2022-12-02 18:28:38.717086
2022-12-02 18:28:38.729450
2022-12-02 18:28:38.737642
2022-12-02 18:28:38.746059
2022-12-02 18:28:38.753525
2022-12-02 18:28:38.766421
2022-12-02 18:28:38.774704
2022-12-02 18:28:38.782228
2022-12-02 18:28:38.795055
2022-12-02 18:28:38.803405
2022-12-02 18:28:38.811564
2022-12-02 18:28:38.819438
2022-12-02 18:28:38.831469
2022-12-02 18:28:38.840450
2022-12-02 18:28:38.848206
2022-12-02 18:28:38.860526
2022-12-02 18:28:38.868403
2022-12-02 18:28:38.876687
2022-12-02 18:28:38.885277
2022-12-02 18:28:38.897410
2022-12-02 18:28:38.904809
2022-12-02 18:28:38.913822
2022-12-02 18:28:38.925802
2022-12-02 18:28:38.934319
2022-12-02 18:28:38.942492
2022-12-02 18:28:38.950797
2022-12-02 18:28:38.962739
2022-12-02 18:28:38.970447
2022-12-02 18:28:38.979434
2022-12-02 18:28:38.991382
2022-12-02 18:28:38.999787
2022-12-02 18:28:39.008016
2022-12-02 18:28:39.015506
2022-12-02 18:28:39.028224
2022-12-02 18:28:39.035753
2022-12-02 18:28:39.043933
2022-12-02 18:28:39.056685
2022-12-02 18:28:39.065135
2022-12-02 18:28:39.073282
2022-12-02 18:28:39.081650
2022-12-02 18:28:39.093960
2022-12-02 18:28:39.102134
2022-12-02 18:28:39.110326
2022-12-02 18:28:39.122627
2022-12-02 18:28:39.131010
2022-12-02 18:28:39.139467
2022-12-02 18:28:39.147087
2022-12-02 18:28:39.159571
2022-12-02 18:28:39.167472
2022-12-02 18:28:39.175952
2022-12-02 18:28:39.187419
2022-12-02 18:28:39.196122
2022-12-02 18:28:39.204626
2022-12-02 18:28:39.212240
2022-12-02 18:28:39.224185
2022-12-02 18:28:39.233098
2022-12-02 18:28:39.241406
2022-12-02 18:28:39.253667
2022-12-02 18:28:39.261493
2022-12-02 18:28:39.269518
2022-12-02 18:28:39.277594
2022-12-02 18:28:39.290611
2022-12-02 18:28:39.298797
2022-12-02 18:28:39.307454
2022-12-02 18:28:39.314997
2022-12-02 18:28:39.326944
2022-12-02 18:28:39.335487
2022-12-02 18:28:39.343474
2022-12-02 18:28:39.355997
2022-12-02 18:28:39.364158
2022-12-02 18:28:39.372283
2022-12-02 18:28:39.380491
2022-12-02 18:28:39.392697
2022-12-02 18:28:39.400937
2022-12-02 18:28:39.409499
2022-12-02 18:28:39.421331
2022-12-02 18:28:39.429916
2022-12-02 18:28:39.437707
2022-12-02 18:28:39.445990
2022-12-02 18:28:39.458100
2022-12-02 18:28:39.466580
2022-12-02 18:28:39.474092
2022-12-02 18:28:39.487048
2022-12-02 18:28:39.495262
2022-12-02 18:28:39.502879
2022-12-02 18:28:39.511429
2022-12-02 18:28:39.523978
2022-12-02 18:28:39.531586
2022-12-02 18:28:39.540557
2022-12-02 18:28:39.551928
2022-12-02 18:28:39.560223
2022-12-02 18:28:39.569085
2022-12-02 18:28:39.577128
2022-12-02 18:28:39.588636
2022-12-02 18:28:39.597579
2022-12-02 18:28:39.605280
2022-12-02 18:28:39.617666
2022-12-02 18:28:39.625819
2022-12-02 18:28:39.634784
2022-12-02 18:28:39.642109
2022-12-02 18:28:39.654844
2022-12-02 18:28:39.662811
2022-12-02 18:28:39.670982
2022-12-02 18:28:39.683623
2022-12-02 18:28:39.691263
2022-12-02 18:28:39.700028
2022-12-02 18:28:39.707547
2022-12-02 18:28:39.719817
2022-12-02 18:28:39.728569
2022-12-02 18:28:39.736827
2022-12-02 18:28:39.749002
2022-12-02 18:28:39.757528
2022-12-02 18:28:39.765326
2022-12-02 18:28:39.773680
2022-12-02 18:28:39.786167
2022-12-02 18:28:39.794226
2022-12-02 18:28:39.802705
2022-12-02 18:28:39.814144
2022-12-02 18:28:39.822986
2022-12-02 18:28:39.830883
2022-12-02 18:28:39.839260
2022-12-02 18:28:39.851366
2022-12-02 18:28:39.859062
2022-12-02 18:28:39.867104
2022-12-02 18:28:39.880438
2022-12-02 18:28:39.888812
2022-12-02 18:28:39.897119
2022-12-02 18:28:39.904428
2022-12-02 18:28:39.917252
2022-12-02 18:28:39.925420
2022-12-02 18:28:39.933111
2022-12-02 18:28:39.945779
2022-12-02 18:28:39.954358
2022-12-02 18:28:39.962228
2022-12-02 18:28:39.970829
2022-12-02 18:28:39.982904
2022-12-02 18:28:39.991679
2022-12-02 18:28:39.999519
2022-12-02 18:28:40.011022
2022-12-02 18:28:40.019608
2022-12-02 18:28:40.027288
2022-12-02 18:28:40.035939
2022-12-02 18:28:40.048050
2022-12-02 18:28:40.056314
2022-12-02 18:28:40.064485
2022-12-02 18:28:40.076086
2022-12-02 18:28:40.084760
2022-12-02 18:28:40.093468
2022-12-02 18:28:40.101736
2022-12-02 18:28:40.113745
2022-12-02 18:28:40.121712
2022-12-02 18:28:40.130156
2022-12-02 18:28:40.142340
2022-12-02 18:28:40.150730
2022-12-02 18:28:40.158658
2022-12-02 18:28:40.167253
2022-12-02 18:28:40.179496
2022-12-02 18:28:40.187565
2022-12-02 18:28:40.195419
2022-12-02 18:28:40.203395
2022-12-02 18:28:40.216270
2022-12-02 18:28:40.224611
2022-12-02 18:28:40.232241
2022-12-02 18:28:40.244668
2022-12-02 18:28:40.252703
2022-12-02 18:28:40.260847
2022-12-02 18:28:40.269634
2022-12-02 18:28:40.281708
2022-12-02 18:28:40.289630
2022-12-02 18:28:40.298075
2022-12-02 18:28:40.310471
2022-12-02 18:28:40.318687
2022-12-02 18:28:40.326864
2022-12-02 18:28:40.335058
2022-12-02 18:28:40.347143
2022-12-02 18:28:40.355922
2022-12-02 18:28:40.364216
2022-12-02 18:28:40.376405
2022-12-02 18:28:40.384066
2022-12-02 18:28:40.392179
2022-12-02 18:28:40.400241
2022-12-02 18:28:40.413272
2022-12-02 18:28:40.421390
2022-12-02 18:28:40.429320
2022-12-02 18:28:40.441447
2022-12-02 18:28:40.449643
2022-12-02 18:28:40.457543
2022-12-02 18:28:40.466191
2022-12-02 18:28:40.477738
2022-12-02 18:28:40.486842
2022-12-02 18:28:40.494940
2022-12-02 18:28:40.507509
2022-12-02 18:28:40.515632
2022-12-02 18:28:40.523784
2022-12-02 18:28:40.531939
2022-12-02 18:28:40.543504
2022-12-02 18:28:40.552247
2022-12-02 18:28:40.560919
2022-12-02 18:28:40.572935
2022-12-02 18:28:40.581064
2022-12-02 18:28:40.589401
2022-12-02 18:28:40.596601
2022-12-02 18:28:40.609717
2022-12-02 18:28:40.617722
2022-12-02 18:28:40.626420
2022-12-02 18:28:40.638220
2022-12-02 18:28:40.646476
2022-12-02 18:28:40.654757
2022-12-02 18:28:40.662816
2022-12-02 18:28:40.675471
2022-12-02 18:28:40.682737
2022-12-02 18:28:40.691839
2022-12-02 18:28:40.703693
2022-12-02 18:28:40.711779
2022-12-02 18:28:40.720422
2022-12-02 18:28:40.728194
2022-12-02 18:28:40.740908
2022-12-02 18:28:40.749036
2022-12-02 18:28:40.757575
2022-12-02 18:28:40.769550
2022-12-02 18:28:40.777770
2022-12-02 18:28:40.786053
2022-12-02 18:28:40.794578
2022-12-02 18:28:40.806019
2022-12-02 18:28:40.814465
2022-12-02 18:28:40.822802
2022-12-02 18:28:40.834710
2022-12-02 18:28:40.843017
2022-12-02 18:28:40.851217
2022-12-02 18:28:40.859382
2022-12-02 18:28:40.872167
2022-12-02 18:28:40.879920
2022-12-02 18:28:40.887980
2022-12-02 18:28:40.900444
2022-12-02 18:28:40.908920
2022-12-02 18:28:40.917078
2022-12-02 18:28:40.925252
2022-12-02 18:28:40.936646
2022-12-02 18:28:40.945603
2022-12-02 18:28:40.953935
2022-12-02 18:28:40.965216
2022-12-02 18:28:40.974155
2022-12-02 18:28:40.982025
2022-12-02 18:28:40.990573
2022-12-02 18:28:41.003083
2022-12-02 18:28:41.011189
2022-12-02 18:28:41.019475
2022-12-02 18:28:41.031816
2022-12-02 18:28:41.039695
2022-12-02 18:28:41.047133
2022-12-02 18:28:41.055880
2022-12-02 18:28:41.068097
2022-12-02 18:28:41.076448
2022-12-02 18:28:41.084706
2022-12-02 18:28:41.092889
2022-12-02 18:28:41.104918
2022-12-02 18:28:41.113640
2022-12-02 18:28:41.121812
2022-12-02 18:28:41.133436
2022-12-02 18:28:41.141599
2022-12-02 18:28:41.150343
2022-12-02 18:28:41.158182
2022-12-02 18:28:41.170481
2022-12-02 18:28:41.178514
2022-12-02 18:28:41.186400
2022-12-02 18:28:41.198908
2022-12-02 18:28:41.206860
2022-12-02 18:28:41.215763
2022-12-02 18:28:41.223882
2022-12-02 18:28:41.236154
2022-12-02 18:28:41.244366
2022-12-02 18:28:41.252582
2022-12-02 18:28:41.264840
2022-12-02 18:28:41.272814
2022-12-02 18:28:41.281476
2022-12-02 18:28:41.288755
2022-12-02 18:28:41.301756
2022-12-02 18:28:41.309945
2022-12-02 18:28:41.318402
2022-12-02 18:28:41.330833
2022-12-02 18:28:41.338910
2022-12-02 18:28:41.347176
2022-12-02 18:28:41.355476
2022-12-02 18:28:41.367395
2022-12-02 18:28:41.375837
2022-12-02 18:28:41.383303
2022-12-02 18:28:41.395950
2022-12-02 18:28:41.404568
2022-12-02 18:28:41.412571
2022-12-02 18:28:41.420633
2022-12-02 18:28:41.432607
2022-12-02 18:28:41.440932
2022-12-02 18:28:41.449167
2022-12-02 18:28:41.461291
2022-12-02 18:28:41.469741
2022-12-02 18:28:41.477444
2022-12-02 18:28:41.485937
2022-12-02 18:28:41.498676
2022-12-02 18:28:41.506749
2022-12-02 18:28:41.515146
2022-12-02 18:28:41.526233
2022-12-02 18:28:41.535329
2022-12-02 18:28:41.543623
2022-12-02 18:28:41.551569
2022-12-02 18:28:41.563902
2022-12-02 18:28:41.572571
2022-12-02 18:28:41.580297
2022-12-02 18:28:41.592901
2022-12-02 18:28:41.600800
2022-12-02 18:28:41.609001
2022-12-02 18:28:41.617304
2022-12-02 18:28:41.629726
2022-12-02 18:28:41.637680
2022-12-02 18:28:41.646137
2022-12-02 18:28:41.658586
2022-12-02 18:28:41.665750
2022-12-02 18:28:41.674677
2022-12-02 18:28:41.682574
2022-12-02 18:28:41.694430
2022-12-02 18:28:41.702848
2022-12-02 18:28:41.711033
2022-12-02 18:28:41.723195
2022-12-02 18:28:41.731808
2022-12-02 18:28:41.740421
2022-12-02 18:28:41.748308
2022-12-02 18:28:41.760582
2022-12-02 18:28:41.768548
2022-12-02 18:28:41.777158
2022-12-02 18:28:41.789587
2022-12-02 18:28:41.797406
2022-12-02 18:28:41.805772
2022-12-02 18:28:41.814092
2022-12-02 18:28:41.825949
2022-12-02 18:28:41.834336
2022-12-02 18:28:41.842458
2022-12-02 18:28:41.854933
2022-12-02 18:28:41.863238
2022-12-02 18:28:41.871104
2022-12-02 18:28:41.879342
2022-12-02 18:28:41.891827
2022-12-02 18:28:41.900013
2022-12-02 18:28:41.908587
2022-12-02 18:28:41.915597
2022-12-02 18:28:41.928292
2022-12-02 18:28:41.936316
2022-12-02 18:28:41.945052
2022-12-02 18:28:41.956691
2022-12-02 18:28:41.964626
2022-12-02 18:28:41.973803
2022-12-02 18:28:41.981945
2022-12-02 18:28:41.994027
2022-12-02 18:28:42.002573
2022-12-02 18:28:42.010575
2022-12-02 18:28:42.022933
2022-12-02 18:28:42.030956
2022-12-02 18:28:42.039478
2022-12-02 18:28:42.047637
2022-12-02 18:28:42.059804
2022-12-02 18:28:42.067925
2022-12-02 18:28:42.075277
2022-12-02 18:28:42.088163
2022-12-02 18:28:42.096731
2022-12-02 18:28:42.104284
2022-12-02 18:28:42.113085
2022-12-02 18:28:42.125483
2022-12-02 18:28:42.133257
2022-12-02 18:28:42.140746
2022-12-02 18:28:42.152947
2022-12-02 18:28:42.161170
2022-12-02 18:28:42.170418
2022-12-02 18:28:42.177923
2022-12-02 18:28:42.190230
2022-12-02 18:28:42.198593
2022-12-02 18:28:42.207050
2022-12-02 18:28:42.219339
2022-12-02 18:28:42.227048
2022-12-02 18:28:42.235742
2022-12-02 18:28:42.244078
2022-12-02 18:28:42.255871
2022-12-02 18:28:42.264391
2022-12-02 18:28:42.272467
2022-12-02 18:28:42.284298
2022-12-02 18:28:42.293244
2022-12-02 18:28:42.301398
2022-12-02 18:28:42.309695
2022-12-02 18:28:42.321052
2022-12-02 18:28:42.329477
2022-12-02 18:28:42.337952
2022-12-02 18:28:42.350260
2022-12-02 18:28:42.358671
2022-12-02 18:28:42.366410
2022-12-02 18:28:42.374779
2022-12-02 18:28:42.387595
2022-12-02 18:28:42.395397
2022-12-02 18:28:42.403907
2022-12-02 18:28:42.415591
2022-12-02 18:28:42.424475
2022-12-02 18:28:42.432122
2022-12-02 18:28:42.440969
2022-12-02 18:28:42.452990
2022-12-02 18:28:42.461338
2022-12-02 18:28:42.468876
2022-12-02 18:28:42.481723
2022-12-02 18:28:42.490017
2022-12-02 18:28:42.498199
2022-12-02 18:28:42.506484
2022-12-02 18:28:42.518162
2022-12-02 18:28:42.526653
2022-12-02 18:28:42.534967
2022-12-02 18:28:42.547768
2022-12-02 18:28:42.555595
2022-12-02 18:28:42.563738
2022-12-02 18:28:42.571162
2022-12-02 18:28:42.583845
2022-12-02 18:28:42.592362
2022-12-02 18:28:42.600493
2022-12-02 18:28:42.612682
2022-12-02 18:28:42.620978
2022-12-02 18:28:42.628879
2022-12-02 18:28:42.637408
2022-12-02 18:28:42.648731
2022-12-02 18:28:42.657745
2022-12-02 18:28:42.665413
2022-12-02 18:28:42.678106
2022-12-02 18:28:42.686191
2022-12-02 18:28:42.694643
2022-12-02 18:28:42.702836
2022-12-02 18:28:42.715186
2022-12-02 18:28:42.723441
2022-12-02 18:28:42.731894
2022-12-02 18:28:42.743765
2022-12-02 18:28:42.752044
2022-12-02 18:28:42.760128
2022-12-02 18:28:42.768313
2022-12-02 18:28:42.780623
2022-12-02 18:28:42.789021
2022-12-02 18:28:42.797237
2022-12-02 18:28:42.805583
2022-12-02 18:28:42.817144
2022-12-02 18:28:42.825729
2022-12-02 18:28:42.833678
2022-12-02 18:28:42.846097
2022-12-02 18:28:42.853761
2022-12-02 18:28:42.862646
2022-12-02 18:28:42.869977
2022-12-02 18:28:42.882965
2022-12-02 18:28:42.891597
2022-12-02 18:28:42.899615
2022-12-02 18:28:42.911518
2022-12-02 18:28:42.918982
2022-12-02 18:28:42.927572
2022-12-02 18:28:42.936606
2022-12-02 18:28:42.948486
2022-12-02 18:28:42.956109
2022-12-02 18:28:42.964922
2022-12-02 18:28:42.977160
2022-12-02 18:28:42.985387
2022-12-02 18:28:42.993034
2022-12-02 18:28:43.001565
2022-12-02 18:28:43.013205
2022-12-02 18:28:43.022140
2022-12-02 18:28:43.030396
2022-12-02 18:28:43.042810
2022-12-02 18:28:43.051032
2022-12-02 18:28:43.059482
2022-12-02 18:28:43.067211
2022-12-02 18:28:43.079491
2022-12-02 18:28:43.087735
2022-12-02 18:28:43.095789
2022-12-02 18:28:43.107845
2022-12-02 18:28:43.117692
2022-12-02 18:28:43.124744
2022-12-02 18:28:43.132611
2022-12-02 18:28:43.145586
2022-12-02 18:28:43.153603
2022-12-02 18:28:43.161230
2022-12-02 18:28:43.173121
2022-12-02 18:28:43.181204
2022-12-02 18:28:43.189863
2022-12-02 18:28:43.197827
2022-12-02 18:28:43.210469
2022-12-02 18:28:43.218986
2022-12-02 18:28:43.227031
2022-12-02 18:28:43.238656
2022-12-02 18:28:43.247288
2022-12-02 18:28:43.255297
2022-12-02 18:28:43.263078
2022-12-02 18:28:43.276400
2022-12-02 18:28:43.284533
2022-12-02 18:28:43.292633
2022-12-02 18:28:43.304214
2022-12-02 18:28:43.313399
2022-12-02 18:28:43.321492
2022-12-02 18:28:43.329702
2022-12-02 18:28:43.341857
2022-12-02 18:28:43.350026
2022-12-02 18:28:43.358260
2022-12-02 18:28:43.370674
2022-12-02 18:28:43.377999
2022-12-02 18:28:43.386909
2022-12-02 18:28:43.394573
2022-12-02 18:28:43.407620
2022-12-02 18:28:43.414994
2022-12-02 18:28:43.423776
2022-12-02 18:28:43.434757
2022-12-02 18:28:43.443840
2022-12-02 18:28:43.452476
2022-12-02 18:28:43.460797
2022-12-02 18:28:43.472310
2022-12-02 18:28:43.481153
2022-12-02 18:28:43.488384
2022-12-02 18:28:43.501603
2022-12-02 18:28:43.509831
2022-12-02 18:28:43.517195
2022-12-02 18:28:43.526395
2022-12-02 18:28:43.538644
2022-12-02 18:28:43.546518
2022-12-02 18:28:43.554859
2022-12-02 18:28:43.566708
2022-12-02 18:28:43.575591
2022-12-02 18:28:43.583349
2022-12-02 18:28:43.591898
2022-12-02 18:28:43.604159
2022-12-02 18:28:43.611884
2022-12-02 18:28:43.620591
2022-12-02 18:28:43.628150
2022-12-02 18:28:43.640880
2022-12-02 18:28:43.648269
2022-12-02 18:28:43.658122
2022-12-02 18:28:43.669650
2022-12-02 18:28:43.677629
2022-12-02 18:28:43.685855
2022-12-02 18:28:43.693660
2022-12-02 18:28:43.705578
2022-12-02 18:28:43.713846
2022-12-02 18:28:43.722389
2022-12-02 18:28:43.733988
2022-12-02 18:28:43.742199
2022-12-02 18:28:43.750899
2022-12-02 18:28:43.759356
2022-12-02 18:28:43.771110
2022-12-02 18:28:43.779564
2022-12-02 18:28:43.788070
2022-12-02 18:28:43.800310
2022-12-02 18:28:43.808593
2022-12-02 18:28:43.816590
2022-12-02 18:28:43.824824
2022-12-02 18:28:43.837181
2022-12-02 18:28:43.845512
2022-12-02 18:28:43.853534
2022-12-02 18:28:43.864828
2022-12-02 18:28:43.873904
2022-12-02 18:28:43.881284
2022-12-02 18:28:43.890531
2022-12-02 18:28:43.902695
2022-12-02 18:28:43.910876
2022-12-02 18:28:43.919139
2022-12-02 18:28:43.931383
2022-12-02 18:28:43.939604
2022-12-02 18:28:43.947611
2022-12-02 18:28:43.955487
2022-12-02 18:28:43.968277
2022-12-02 18:28:43.976687
2022-12-02 18:28:43.984961
2022-12-02 18:28:43.997231
2022-12-02 18:28:44.005542
2022-12-02 18:28:44.012664
2022-12-02 18:28:44.021756
2022-12-02 18:28:44.033822
2022-12-02 18:28:44.042350
2022-12-02 18:28:44.050196
2022-12-02 18:28:44.062625
2022-12-02 18:28:44.070740
2022-12-02 18:28:44.079034
2022-12-02 18:28:44.087298
2022-12-02 18:28:44.099213
2022-12-02 18:28:44.107940
2022-12-02 18:28:44.115850
2022-12-02 18:28:44.127249
2022-12-02 18:28:44.135706
2022-12-02 18:28:44.144405
2022-12-02 18:28:44.152871
2022-12-02 18:28:44.164756
2022-12-02 18:28:44.172805
2022-12-02 18:28:44.180750
2022-12-02 18:28:44.193554
2022-12-02 18:28:44.201542
2022-12-02 18:28:44.210147
2022-12-02 18:28:44.217998
2022-12-02 18:28:44.229608
2022-12-02 18:28:44.238680
2022-12-02 18:28:44.246908
2022-12-02 18:28:44.259046
2022-12-02 18:28:44.267335
2022-12-02 18:28:44.275440
2022-12-02 18:28:44.283689
2022-12-02 18:28:44.296309
2022-12-02 18:28:44.304492
2022-12-02 18:28:44.312593
2022-12-02 18:28:44.324985
2022-12-02 18:28:44.333021
2022-12-02 18:28:44.341393
2022-12-02 18:28:44.349111
2022-12-02 18:28:44.361770
2022-12-02 18:28:44.369875
2022-12-02 18:28:44.377642
2022-12-02 18:28:44.389627
2022-12-02 18:28:44.397637
2022-12-02 18:28:44.406602
2022-12-02 18:28:44.414885
2022-12-02 18:28:44.426870
2022-12-02 18:28:44.434526
2022-12-02 18:28:44.443423
2022-12-02 18:28:44.455696
2022-12-02 18:28:44.464061
2022-12-02 18:28:44.471794
2022-12-02 18:28:44.479960
2022-12-02 18:28:44.492368
2022-12-02 18:28:44.500353
2022-12-02 18:28:44.508667
2022-12-02 18:28:44.517042
2022-12-02 18:28:44.529406
2022-12-02 18:28:44.536864
2022-12-02 18:28:44.545303
2022-12-02 18:28:44.557422
2022-12-02 18:28:44.565550
2022-12-02 18:28:44.574510
2022-12-02 18:28:44.581891
2022-12-02 18:28:44.594219
2022-12-02 18:28:44.603265
2022-12-02 18:28:44.611721
2022-12-02 18:28:44.624064
2022-12-02 18:28:44.631092
2022-12-02 18:28:44.640270
2022-12-02 18:28:44.647922
2022-12-02 18:28:44.659981
2022-12-02 18:28:44.668186
2022-12-02 18:28:44.677008
2022-12-02 18:28:44.689634
2022-12-02 18:28:44.697624
2022-12-02 18:28:44.705993
2022-12-02 18:28:44.714190
2022-12-02 18:28:44.725673
2022-12-02 18:28:44.733686
2022-12-02 18:28:44.742838
2022-12-02 18:28:44.755004
2022-12-02 18:28:44.762625
2022-12-02 18:28:44.771462
2022-12-02 18:28:44.779487
2022-12-02 18:28:44.791535
2022-12-02 18:28:44.799860
2022-12-02 18:28:44.808253
2022-12-02 18:28:44.820675
2022-12-02 18:28:44.828503
2022-12-02 18:28:44.836936
2022-12-02 18:28:44.844969
2022-12-02 18:28:44.857612
2022-12-02 18:28:44.864579
2022-12-02 18:28:44.873618
2022-12-02 18:28:44.885734
2022-12-02 18:28:44.894130
2022-12-02 18:28:44.902274
2022-12-02 18:28:44.910460
2022-12-02 18:28:44.922942
2022-12-02 18:28:44.931231
2022-12-02 18:28:44.939627
2022-12-02 18:28:44.951255
2022-12-02 18:28:44.959967
2022-12-02 18:28:44.968106
2022-12-02 18:28:44.976087
2022-12-02 18:28:44.988569
2022-12-02 18:28:44.996759
2022-12-02 18:28:45.004947
2022-12-02 18:28:45.017210
2022-12-02 18:28:45.025506
2022-12-02 18:28:45.033533
2022-12-02 18:28:45.041136
2022-12-02 18:28:45.053757
2022-12-02 18:28:45.061774
2022-12-02 18:28:45.069952
2022-12-02 18:28:45.082257
2022-12-02 18:28:45.090096
2022-12-02 18:28:45.098987
2022-12-02 18:28:45.106386
2022-12-02 18:28:45.118778
2022-12-02 18:28:45.127210
2022-12-02 18:28:45.135599
2022-12-02 18:28:45.147533
2022-12-02 18:28:45.155919
2022-12-02 18:28:45.164400
2022-12-02 18:28:45.172612
2022-12-02 18:28:45.184323
2022-12-02 18:28:45.193085
2022-12-02 18:28:45.200874
2022-12-02 18:28:45.213154
2022-12-02 18:28:45.221632
2022-12-02 18:28:45.229355
2022-12-02 18:28:45.238002
2022-12-02 18:28:45.249880
2022-12-02 18:28:45.258043
2022-12-02 18:28:45.266763
2022-12-02 18:28:45.278865
2022-12-02 18:28:45.286636
2022-12-02 18:28:45.294619
2022-12-02 18:28:45.302786
2022-12-02 18:28:45.315442
2022-12-02 18:28:45.323576
2022-12-02 18:28:45.332133
2022-12-02 18:28:45.344861
2022-12-02 18:28:45.352834
2022-12-02 18:28:45.361164
2022-12-02 18:28:45.369485
2022-12-02 18:28:45.380921
2022-12-02 18:28:45.389772
2022-12-02 18:28:45.397974
2022-12-02 18:28:45.406107
2022-12-02 18:28:45.418630
2022-12-02 18:28:45.426087
2022-12-02 18:28:45.435032
2022-12-02 18:28:45.447500
2022-12-02 18:28:45.455261
2022-12-02 18:28:45.463472
2022-12-02 18:28:45.471729
2022-12-02 18:28:45.484126
2022-12-02 18:28:45.491717
2022-12-02 18:28:45.500512
2022-12-02 18:28:45.512815
2022-12-02 18:28:45.520931
2022-12-02 18:28:45.529442
2022-12-02 18:28:45.537615
2022-12-02 18:28:45.549204
2022-12-02 18:28:45.557843
2022-12-02 18:28:45.565551
2022-12-02 18:28:45.578582
2022-12-02 18:28:45.586619
2022-12-02 18:28:45.594104
2022-12-02 18:28:45.602392
2022-12-02 18:28:45.614475
2022-12-02 18:28:45.622720
2022-12-02 18:28:45.631575
2022-12-02 18:28:45.643600
2022-12-02 18:28:45.652073
2022-12-02 18:28:45.659900
2022-12-02 18:28:45.668410
2022-12-02 18:28:45.679669
2022-12-02 18:28:45.688706
2022-12-02 18:28:45.696304
2022-12-02 18:28:45.709417
2022-12-02 18:28:45.717243
2022-12-02 18:28:45.725569
2022-12-02 18:28:45.733815
2022-12-02 18:28:45.746349
2022-12-02 18:28:45.754277
2022-12-02 18:28:45.762645
2022-12-02 18:28:45.774057
2022-12-02 18:28:45.782806
2022-12-02 18:28:45.791128
2022-12-02 18:28:45.799227
2022-12-02 18:28:45.810757
2022-12-02 18:28:45.819944
2022-12-02 18:28:45.827136
2022-12-02 18:28:45.840543
2022-12-02 18:28:45.848166
2022-12-02 18:28:45.856665
2022-12-02 18:28:45.865084
2022-12-02 18:28:45.877520
2022-12-02 18:28:45.885405
2022-12-02 18:28:45.893337
2022-12-02 18:28:45.906041
2022-12-02 18:28:45.913919
2022-12-02 18:28:45.922615
2022-12-02 18:28:45.930549
2022-12-02 18:28:45.941873
2022-12-02 18:28:45.950859
2022-12-02 18:28:45.958500
2022-12-02 18:28:45.971320
2022-12-02 18:28:45.979975
2022-12-02 18:28:45.987971
2022-12-02 18:28:45.995200
2022-12-02 18:28:46.008632
2022-12-02 18:28:46.016300
2022-12-02 18:28:46.024996
2022-12-02 18:28:46.037078
2022-12-02 18:28:46.045327
2022-12-02 18:28:46.053504
2022-12-02 18:28:46.061653
2022-12-02 18:28:46.073874
2022-12-02 18:28:46.081834
2022-12-02 18:28:46.089887
2022-12-02 18:28:46.102155
2022-12-02 18:28:46.110254
2022-12-02 18:28:46.118430
2022-12-02 18:28:46.127052
2022-12-02 18:28:46.138278
2022-12-02 18:28:46.147151
2022-12-02 18:28:46.155628
2022-12-02 18:28:46.168140
2022-12-02 18:28:46.176008
2022-12-02 18:28:46.184520
2022-12-02 18:28:46.192098
2022-12-02 18:28:46.205007
2022-12-02 18:28:46.212455
2022-12-02 18:28:46.221527
2022-12-02 18:28:46.229622
2022-12-02 18:28:46.241798
2022-12-02 18:28:46.249974
2022-12-02 18:28:46.258300
2022-12-02 18:28:46.269489
2022-12-02 18:28:46.278767
2022-12-02 18:28:46.286138
2022-12-02 18:28:46.294828
2022-12-02 18:28:46.307204
2022-12-02 18:28:46.315424
2022-12-02 18:28:46.322920
2022-12-02 18:28:46.335806
2022-12-02 18:28:46.343241
2022-12-02 18:28:46.351503
2022-12-02 18:28:46.360138
2022-12-02 18:28:46.372222
2022-12-02 18:28:46.380299
2022-12-02 18:28:46.388554
2022-12-02 18:28:46.400721
2022-12-02 18:28:46.408740
2022-12-02 18:28:46.417581
2022-12-02 18:28:46.425909
2022-12-02 18:28:46.438162
2022-12-02 18:28:46.446427
2022-12-02 18:28:46.454245
2022-12-02 18:28:46.466590
2022-12-02 18:28:46.475049
2022-12-02 18:28:46.482898
2022-12-02 18:28:46.491728
2022-12-02 18:28:46.504099
2022-12-02 18:28:46.512296
2022-12-02 18:28:46.520428
2022-12-02 18:28:46.532130
2022-12-02 18:28:46.540202
2022-12-02 18:28:46.549054
2022-12-02 18:28:46.557173
2022-12-02 18:28:46.569655
2022-12-02 18:28:46.577488
2022-12-02 18:28:46.586047
2022-12-02 18:28:46.596982
2022-12-02 18:28:46.606056
2022-12-02 18:28:46.613834
2022-12-02 18:28:46.622834
2022-12-02 18:28:46.635154
2022-12-02 18:28:46.643302
2022-12-02 18:28:46.651520
2022-12-02 18:28:46.663581
2022-12-02 18:28:46.671525
2022-12-02 18:28:46.680144
2022-12-02 18:28:46.688294
2022-12-02 18:28:46.700234
2022-12-02 18:28:46.708853
2022-12-02 18:28:46.716696
2022-12-02 18:28:46.729281
2022-12-02 18:28:46.737568
2022-12-02 18:28:46.745621
2022-12-02 18:28:46.753855
2022-12-02 18:28:46.765900
2022-12-02 18:28:46.773987
2022-12-02 18:28:46.781663
2022-12-02 18:28:46.794059
2022-12-02 18:28:46.803031
2022-12-02 18:28:46.811259
2022-12-02 18:28:46.819643
2022-12-02 18:28:46.831490
2022-12-02 18:28:46.839772
2022-12-02 18:28:46.847307
2022-12-02 18:28:46.860454
2022-12-02 18:28:46.868618
2022-12-02 18:28:46.876304
2022-12-02 18:28:46.884704
2022-12-02 18:28:46.896899
2022-12-02 18:28:46.905358
2022-12-02 18:28:46.913506
2022-12-02 18:28:46.925708
2022-12-02 18:28:46.933800
2022-12-02 18:28:46.942224
2022-12-02 18:28:46.950191
2022-12-02 18:28:46.962668
2022-12-02 18:28:46.970267
2022-12-02 18:28:46.978899
2022-12-02 18:28:46.990772
2022-12-02 18:28:46.999757
2022-12-02 18:28:47.007617
2022-12-02 18:28:47.015924
2022-12-02 18:28:47.028522
2022-12-02 18:28:47.036635
2022-12-02 18:28:47.044651
2022-12-02 18:28:47.053013
2022-12-02 18:28:47.064881
2022-12-02 18:28:47.073487
2022-12-02 18:28:47.081367
2022-12-02 18:28:47.093711
2022-12-02 18:28:47.101875
2022-12-02 18:28:47.110185
2022-12-02 18:28:47.117540
2022-12-02 18:28:47.130284
2022-12-02 18:28:47.138499
2022-12-02 18:28:47.146830
2022-12-02 18:28:47.159085
2022-12-02 18:28:47.167242
2022-12-02 18:28:47.175184
2022-12-02 18:28:47.183498
2022-12-02 18:28:47.195807
2022-12-02 18:28:47.203983
2022-12-02 18:28:47.212234
2022-12-02 18:28:47.224217
2022-12-02 18:28:47.232699
2022-12-02 18:28:47.240851
2022-12-02 18:28:47.249283
2022-12-02 18:28:47.261046
2022-12-02 18:28:47.269435
2022-12-02 18:28:47.277542
2022-12-02 18:28:47.289626
2022-12-02 18:28:47.297737
2022-12-02 18:28:47.305744
2022-12-02 18:28:47.313958
2022-12-02 18:28:47.326564
2022-12-02 18:28:47.334974
2022-12-02 18:28:47.343084
2022-12-02 18:28:47.354740
2022-12-02 18:28:47.363554
2022-12-02 18:28:47.371288
2022-12-02 18:28:47.380254
2022-12-02 18:28:47.392548
2022-12-02 18:28:47.400772
2022-12-02 18:28:47.408145
2022-12-02 18:28:47.421257
2022-12-02 18:28:47.429617
2022-12-02 18:28:47.437805
2022-12-02 18:28:47.445710
2022-12-02 18:28:47.457964
2022-12-02 18:28:47.466470
2022-12-02 18:28:47.474264
2022-12-02 18:28:47.486930
2022-12-02 18:28:47.495423
2022-12-02 18:28:47.503403
2022-12-02 18:28:47.511542
2022-12-02 18:28:47.523960
2022-12-02 18:28:47.531709
2022-12-02 18:28:47.540296
2022-12-02 18:28:47.552510
2022-12-02 18:28:47.560728
2022-12-02 18:28:47.568955
2022-12-02 18:28:47.577128
2022-12-02 18:28:47.589544
2022-12-02 18:28:47.596386
2022-12-02 18:28:47.605854
2022-12-02 18:28:47.618236
2022-12-02 18:28:47.626009
2022-12-02 18:28:47.634530
2022-12-02 18:28:47.642705
2022-12-02 18:28:47.654984
2022-12-02 18:28:47.663096
2022-12-02 18:28:47.671526
2022-12-02 18:28:47.683750
2022-12-02 18:28:47.691169
2022-12-02 18:28:47.699955
2022-12-02 18:28:47.708208
2022-12-02 18:28:47.719821
2022-12-02 18:28:47.728853
2022-12-02 18:28:47.736631
2022-12-02 18:28:47.749154
2022-12-02 18:28:47.757532
2022-12-02 18:28:47.765341
2022-12-02 18:28:47.773516
2022-12-02 18:28:47.785247
2022-12-02 18:28:47.794248
2022-12-02 18:28:47.802643
2022-12-02 18:28:47.814595
2022-12-02 18:28:47.822926
2022-12-02 18:28:47.830990
2022-12-02 18:28:47.839629
2022-12-02 18:28:47.851690
2022-12-02 18:28:47.859515
2022-12-02 18:28:47.868027
2022-12-02 18:28:47.879842
2022-12-02 18:28:47.888511
2022-12-02 18:28:47.896234
2022-12-02 18:28:47.904447
2022-12-02 18:28:47.917097
2022-12-02 18:28:47.924952
2022-12-02 18:28:47.933679
2022-12-02 18:28:47.941082
2022-12-02 18:28:47.954071
2022-12-02 18:28:47.962299
2022-12-02 18:28:47.970263
2022-12-02 18:28:47.981673
2022-12-02 18:28:47.990762
2022-12-02 18:28:47.998985
2022-12-02 18:28:48.007220
2022-12-02 18:28:48.019637
2022-12-02 18:28:48.027474
2022-12-02 18:28:48.035970
2022-12-02 18:28:48.048057
2022-12-02 18:28:48.056526
2022-12-02 18:28:48.064183
2022-12-02 18:28:48.073479
2022-12-02 18:28:48.085159
2022-12-02 18:28:48.092431
2022-12-02 18:28:48.101195
2022-12-02 18:28:48.113202
2022-12-02 18:28:48.121738
2022-12-02 18:28:48.129747
2022-12-02 18:28:48.138072
2022-12-02 18:28:48.150004
2022-12-02 18:28:48.158522
2022-12-02 18:28:48.166837
2022-12-02 18:28:48.179536
2022-12-02 18:28:48.187652
2022-12-02 18:28:48.195623
2022-12-02 18:28:48.203961
2022-12-02 18:28:48.215899
2022-12-02 18:28:48.224080
2022-12-02 18:28:48.232518
2022-12-02 18:28:48.244329
2022-12-02 18:28:48.253056
2022-12-02 18:28:48.261011
2022-12-02 18:28:48.269633
2022-12-02 18:28:48.281418
2022-12-02 18:28:48.289861
2022-12-02 18:28:48.298108
2022-12-02 18:28:48.309870
2022-12-02 18:28:48.318276
2022-12-02 18:28:48.326628
2022-12-02 18:28:48.334844
2022-12-02 18:28:48.346956
2022-12-02 18:28:48.355326
2022-12-02 18:28:48.363037
2022-12-02 18:28:48.375731
2022-12-02 18:28:48.383893
2022-12-02 18:28:48.392168
2022-12-02 18:28:48.400406
2022-12-02 18:28:48.412743
2022-12-02 18:28:48.421109
2022-12-02 18:28:48.429089
2022-12-02 18:28:48.440970
2022-12-02 18:28:48.450039
2022-12-02 18:28:48.457978
2022-12-02 18:28:48.465743
2022-12-02 18:28:48.477709
2022-12-02 18:28:48.486243
2022-12-02 18:28:48.493868
2022-12-02 18:28:48.505899
2022-12-02 18:28:48.514869
2022-12-02 18:28:48.522722
2022-12-02 18:28:48.531037
2022-12-02 18:28:48.543855
2022-12-02 18:28:48.551768
2022-12-02 18:28:48.560354
2022-12-02 18:28:48.572691
2022-12-02 18:28:48.580701
2022-12-02 18:28:48.588872
2022-12-02 18:28:48.596864
2022-12-02 18:28:48.609554
2022-12-02 18:28:48.617467
2022-12-02 18:28:48.625350
2022-12-02 18:28:48.638012
2022-12-02 18:28:48.645730
2022-12-02 18:28:48.654214
2022-12-02 18:28:48.661921
2022-12-02 18:28:48.674478
2022-12-02 18:28:48.683216
2022-12-02 18:28:48.691918
2022-12-02 18:28:48.703478
2022-12-02 18:28:48.711637
2022-12-02 18:28:48.719900
2022-12-02 18:28:48.728060
2022-12-02 18:28:48.740535
2022-12-02 18:28:48.748327
2022-12-02 18:28:48.756792
2022-12-02 18:28:48.768425
2022-12-02 18:28:48.777637
2022-12-02 18:28:48.785535
2022-12-02 18:28:48.793714
2022-12-02 18:28:48.805212
2022-12-02 18:28:48.814058
2022-12-02 18:28:48.822202
2022-12-02 18:28:48.829607
2022-12-02 18:28:48.842914
2022-12-02 18:28:48.851040
2022-12-02 18:28:48.859216
2022-12-02 18:28:48.871521
2022-12-02 18:28:48.879543
2022-12-02 18:28:48.888043
2022-12-02 18:28:48.895816
2022-12-02 18:28:48.908029
2022-12-02 18:28:48.916848
2022-12-02 18:28:48.924845
2022-12-02 18:28:48.936231
2022-12-02 18:28:48.945374
2022-12-02 18:28:48.953329
2022-12-02 18:28:48.960650
2022-12-02 18:28:48.973840
2022-12-02 18:28:48.981939
2022-12-02 18:28:48.989338
2022-12-02 18:28:49.002627
2022-12-02 18:28:49.010696
2022-12-02 18:28:49.018923
2022-12-02 18:28:49.027302
2022-12-02 18:28:49.039644
2022-12-02 18:28:49.047508
2022-12-02 18:28:49.055836
2022-12-02 18:28:49.068224
2022-12-02 18:28:49.075499
2022-12-02 18:28:49.084536
2022-12-02 18:28:49.092412
2022-12-02 18:28:49.105001
2022-12-02 18:28:49.112747
2022-12-02 18:28:49.120772
2022-12-02 18:28:49.133676
2022-12-02 18:28:49.141167
2022-12-02 18:28:49.150053
2022-12-02 18:28:49.157410
2022-12-02 18:28:49.170519
2022-12-02 18:28:49.178795
2022-12-02 18:28:49.186993
2022-12-02 18:28:49.198607
2022-12-02 18:28:49.207545
2022-12-02 18:28:49.215154
2022-12-02 18:28:49.223551
2022-12-02 18:28:49.235691
2022-12-02 18:28:49.243257
2022-12-02 18:28:49.252648
2022-12-02 18:28:49.264534
2022-12-02 18:28:49.272934
2022-12-02 18:28:49.280820
2022-12-02 18:28:49.289551
2022-12-02 18:28:49.301750
2022-12-02 18:28:49.309757
2022-12-02 18:28:49.318020
2022-12-02 18:28:49.329446
2022-12-02 18:28:49.338426
2022-12-02 18:28:49.346024
2022-12-02 18:28:49.354619
2022-12-02 18:28:49.367179
2022-12-02 18:28:49.375331
2022-12-02 18:28:49.383222
2022-12-02 18:28:49.395382
2022-12-02 18:28:49.403844
2022-12-02 18:28:49.412153
2022-12-02 18:28:49.420319
2022-12-02 18:28:49.432019
2022-12-02 18:28:49.440404
2022-12-02 18:28:49.448116
2022-12-02 18:28:49.460298
2022-12-02 18:28:49.469040
2022-12-02 18:28:49.477381
2022-12-02 18:28:49.485433
2022-12-02 18:28:49.497837
2022-12-02 18:28:49.506041
2022-12-02 18:28:49.513757
2022-12-02 18:28:49.525758
2022-12-02 18:28:49.534616
2022-12-02 18:28:49.543050
2022-12-02 18:28:49.551666
2022-12-02 18:28:49.562672
2022-12-02 18:28:49.571906
2022-12-02 18:28:49.579241
2022-12-02 18:28:49.592297
2022-12-02 18:28:49.600647
2022-12-02 18:28:49.608793
2022-12-02 18:28:49.616759
2022-12-02 18:28:49.629007
2022-12-02 18:28:49.637658
2022-12-02 18:28:49.645183
2022-12-02 18:28:49.653846
2022-12-02 18:28:49.666130
2022-12-02 18:28:49.674327
2022-12-02 18:28:49.682672
2022-12-02 18:28:49.694860
2022-12-02 18:28:49.702907
2022-12-02 18:28:49.711277
2022-12-02 18:28:49.719550
2022-12-02 18:28:49.731607
2022-12-02 18:28:49.739891
2022-12-02 18:28:49.748075
2022-12-02 18:28:49.760659
2022-12-02 18:28:49.768315
2022-12-02 18:28:49.776903
2022-12-02 18:28:49.785008
2022-12-02 18:28:49.796671
2022-12-02 18:28:49.805516
2022-12-02 18:28:49.813138
2022-12-02 18:28:49.825763
2022-12-02 18:28:49.834117
2022-12-02 18:28:49.842245
2022-12-02 18:28:49.850512
2022-12-02 18:28:49.862027
2022-12-02 18:28:49.870941
2022-12-02 18:28:49.878419
2022-12-02 18:28:49.890463
2022-12-02 18:28:49.899672
2022-12-02 18:28:49.907566
2022-12-02 18:28:49.916126
2022-12-02 18:28:49.928656
2022-12-02 18:28:49.936225
2022-12-02 18:28:49.944758
2022-12-02 18:28:49.956976
2022-12-02 18:28:49.965034
2022-12-02 18:28:49.973547
2022-12-02 18:28:49.981035
2022-12-02 18:28:49.993917
2022-12-02 18:28:50.001732
2022-12-02 18:28:50.009914
2022-12-02 18:28:50.022267
2022-12-02 18:28:50.030277
2022-12-02 18:28:50.038749
2022-12-02 18:28:50.046758
2022-12-02 18:28:50.058481
2022-12-02 18:28:50.067658
2022-12-02 18:28:50.075647
2022-12-02 18:28:50.087975
2022-12-02 18:28:50.095410
2022-12-02 18:28:50.104223
2022-12-02 18:28:50.112271
2022-12-02 18:28:50.124429
2022-12-02 18:28:50.133237
2022-12-02 18:28:50.140799
2022-12-02 18:28:50.153324
2022-12-02 18:28:50.161849
2022-12-02 18:28:50.170112
2022-12-02 18:28:50.178227
2022-12-02 18:28:50.189955
2022-12-02 18:28:50.198055
2022-12-02 18:28:50.207044
2022-12-02 18:28:50.219117
2022-12-02 18:28:50.227343
2022-12-02 18:28:50.235562
2022-12-02 18:28:50.243905
2022-12-02 18:28:50.256022
2022-12-02 18:28:50.263914
2022-12-02 18:28:50.272464
2022-12-02 18:28:50.284726
2022-12-02 18:28:50.292746
2022-12-02 18:28:50.301144
2022-12-02 18:28:50.308926
2022-12-02 18:28:50.320958
2022-12-02 18:28:50.329301
2022-12-02 18:28:50.337692
2022-12-02 18:28:50.349615
2022-12-02 18:28:50.357715
2022-12-02 18:28:50.365863
2022-12-02 18:28:50.374535
2022-12-02 18:28:50.386505
2022-12-02 18:28:50.395202
2022-12-02 18:28:50.403408
2022-12-02 18:28:50.415696
2022-12-02 18:28:50.422990
2022-12-02 18:28:50.432190
2022-12-02 18:28:50.439666
2022-12-02 18:28:50.452589
2022-12-02 18:28:50.460381
2022-12-02 18:28:50.469103
2022-12-02 18:28:50.481207
2022-12-02 18:28:50.489195
2022-12-02 18:28:50.497021
2022-12-02 18:28:50.505808
2022-12-02 18:28:50.518128
2022-12-02 18:28:50.526236
2022-12-02 18:28:50.534353
2022-12-02 18:28:50.542529
2022-12-02 18:28:50.554338
2022-12-02 18:28:50.562639
2022-12-02 18:28:50.570743
2022-12-02 18:28:50.582575
2022-12-02 18:28:50.590907
2022-12-02 18:28:50.599607
2022-12-02 18:28:50.608063
2022-12-02 18:28:50.620559
2022-12-02 18:28:50.628052
2022-12-02 18:28:50.636995
2022-12-02 18:28:50.649340
2022-12-02 18:28:50.657421
2022-12-02 18:28:50.665718
2022-12-02 18:28:50.673539
2022-12-02 18:28:50.685960
2022-12-02 18:28:50.694022
2022-12-02 18:28:50.702186
2022-12-02 18:28:50.714609
2022-12-02 18:28:50.722649
2022-12-02 18:28:50.731117
2022-12-02 18:28:50.739261
2022-12-02 18:28:50.751318
2022-12-02 18:28:50.759601
2022-12-02 18:28:50.767884
2022-12-02 18:28:50.780077
2022-12-02 18:28:50.788403
2022-12-02 18:28:50.796363
2022-12-02 18:28:50.804902
2022-12-02 18:28:50.817085
2022-12-02 18:28:50.825453
2022-12-02 18:28:50.832628
2022-12-02 18:28:50.845046
2022-12-02 18:28:50.854036
2022-12-02 18:28:50.861936
2022-12-02 18:28:50.870226
2022-12-02 18:28:50.882337
2022-12-02 18:28:50.890757
2022-12-02 18:28:50.898845
2022-12-02 18:28:50.911583
2022-12-02 18:28:50.919561
2022-12-02 18:28:50.927732
2022-12-02 18:28:50.935910
2022-12-02 18:28:50.948279
2022-12-02 18:28:50.956471
2022-12-02 18:28:50.964488
2022-12-02 18:28:50.976901
2022-12-02 18:28:50.985020
2022-12-02 18:28:50.993390
2022-12-02 18:28:51.001697
2022-12-02 18:28:51.013016
2022-12-02 18:28:51.021089
2022-12-02 18:28:51.029880
2022-12-02 18:28:51.041845
2022-12-02 18:28:51.050647
2022-12-02 18:28:51.057906
2022-12-02 18:28:51.066990
2022-12-02 18:28:51.078414
2022-12-02 18:28:51.087633
2022-12-02 18:28:51.095295
2022-12-02 18:28:51.107759
2022-12-02 18:28:51.116295
2022-12-02 18:28:51.124185
2022-12-02 18:28:51.132336
2022-12-02 18:28:51.144803
2022-12-02 18:28:51.152989
2022-12-02 18:28:51.161194
2022-12-02 18:28:51.173355
2022-12-02 18:28:51.181367
2022-12-02 18:28:51.189396
2022-12-02 18:28:51.198043
2022-12-02 18:28:51.209928
2022-12-02 18:28:51.218700
2022-12-02 18:28:51.226570
2022-12-02 18:28:51.238305
2022-12-02 18:28:51.246628
2022-12-02 18:28:51.255145
2022-12-02 18:28:51.262750
2022-12-02 18:28:51.275619
2022-12-02 18:28:51.283637
2022-12-02 18:28:51.292368
2022-12-02 18:28:51.303783
2022-12-02 18:28:51.311800
2022-12-02 18:28:51.320756
2022-12-02 18:28:51.328677
2022-12-02 18:28:51.341662
2022-12-02 18:28:51.349493
2022-12-02 18:28:51.357541
2022-12-02 18:28:51.370081
2022-12-02 18:28:51.378352
2022-12-02 18:28:51.386683
2022-12-02 18:28:51.394723
2022-12-02 18:28:51.406990
2022-12-02 18:28:51.414663
2022-12-02 18:28:51.423453
2022-12-02 18:28:51.431569
2022-12-02 18:28:51.443499
2022-12-02 18:28:51.452128
2022-12-02 18:28:51.460243
2022-12-02 18:28:51.472121
2022-12-02 18:28:51.480396
2022-12-02 18:28:51.488475
2022-12-02 18:28:51.496630
2022-12-02 18:28:51.509663
2022-12-02 18:28:51.517563
2022-12-02 18:28:51.525773
2022-12-02 18:28:51.537120
2022-12-02 18:28:51.546146
2022-12-02 18:28:51.553625
2022-12-02 18:28:51.561839
2022-12-02 18:28:51.574725
2022-12-02 18:28:51.582975
2022-12-02 18:28:51.591281
2022-12-02 18:28:51.603457
2022-12-02 18:28:51.611453
2022-12-02 18:28:51.620038
2022-12-02 18:28:51.628163
2022-12-02 18:28:51.639379
2022-12-02 18:28:51.647682
2022-12-02 18:28:51.656575
2022-12-02 18:28:51.669161
2022-12-02 18:28:51.677386
2022-12-02 18:28:51.685671
2022-12-02 18:28:51.693754
2022-12-02 18:28:51.704480
2022-12-02 18:28:51.713896
2022-12-02 18:28:51.722271
2022-12-02 18:28:51.733829
2022-12-02 18:28:51.742631
2022-12-02 18:28:51.751186
2022-12-02 18:28:51.759025
2022-12-02 18:28:51.771454
2022-12-02 18:28:51.779347
2022-12-02 18:28:51.787914
2022-12-02 18:28:51.800200
2022-12-02 18:28:51.808287
2022-12-02 18:28:51.816565
2022-12-02 18:28:51.824485
2022-12-02 18:28:51.836904
2022-12-02 18:28:51.844946
2022-12-02 18:28:51.853155
2022-12-02 18:28:51.865701
2022-12-02 18:28:51.873650
2022-12-02 18:28:51.881709
2022-12-02 18:28:51.890256
2022-12-02 18:28:51.902462
2022-12-02 18:28:51.910705
2022-12-02 18:28:51.918836
2022-12-02 18:28:51.931354
2022-12-02 18:28:51.939217
2022-12-02 18:28:51.947555
2022-12-02 18:28:51.955768
2022-12-02 18:28:51.968149
2022-12-02 18:28:51.975936
2022-12-02 18:28:51.983854
2022-12-02 18:28:51.996489
2022-12-02 18:28:52.005116
2022-12-02 18:28:52.012905
2022-12-02 18:28:52.021535
2022-12-02 18:28:52.032627
2022-12-02 18:28:52.041269
2022-12-02 18:28:52.050082
2022-12-02 18:28:52.061432
2022-12-02 18:28:52.070257
2022-12-02 18:28:52.078283
2022-12-02 18:28:52.086881
2022-12-02 18:28:52.098641
2022-12-02 18:28:52.106952
2022-12-02 18:28:52.115303
2022-12-02 18:28:52.127752
2022-12-02 18:28:52.135918
2022-12-02 18:28:52.144171
2022-12-02 18:28:52.152789
2022-12-02 18:28:52.164726
2022-12-02 18:28:52.172804
2022-12-02 18:28:52.181129
2022-12-02 18:28:52.193456
2022-12-02 18:28:52.201360
2022-12-02 18:28:52.209869
2022-12-02 18:28:52.217779
2022-12-02 18:28:52.229195
2022-12-02 18:28:52.238303
2022-12-02 18:28:52.246423
2022-12-02 18:28:52.254287
2022-12-02 18:28:52.266833
2022-12-02 18:28:52.274898
2022-12-02 18:28:52.283062
2022-12-02 18:28:52.295649
2022-12-02 18:28:52.303839
2022-12-02 18:28:52.311502
2022-12-02 18:28:52.320329
2022-12-02 18:28:52.332667
2022-12-02 18:28:52.340606
2022-12-02 18:28:52.348772
2022-12-02 18:28:52.361438
2022-12-02 18:28:52.368743
2022-12-02 18:28:52.377741
2022-12-02 18:28:52.385814
2022-12-02 18:28:52.398302
2022-12-02 18:28:52.406163
2022-12-02 18:28:52.414980
2022-12-02 18:28:52.426932
2022-12-02 18:28:52.435039
2022-12-02 18:28:52.443317
2022-12-02 18:28:52.451575
2022-12-02 18:28:52.462499
2022-12-02 18:28:52.471915
2022-12-02 18:28:52.479866
2022-12-02 18:28:52.492352
2022-12-02 18:28:52.500710
2022-12-02 18:28:52.508722
2022-12-02 18:28:52.517030
2022-12-02 18:28:52.528705
2022-12-02 18:28:52.537581
2022-12-02 18:28:52.545490
2022-12-02 18:28:52.557063
2022-12-02 18:28:52.565303
2022-12-02 18:28:52.574076
2022-12-02 18:28:52.582086
2022-12-02 18:28:52.593580
2022-12-02 18:28:52.603243
2022-12-02 18:28:52.610476
2022-12-02 18:28:52.623173
2022-12-02 18:28:52.631269
2022-12-02 18:28:52.639427
2022-12-02 18:28:52.647952
2022-12-02 18:28:52.659192
2022-12-02 18:28:52.668151
2022-12-02 18:28:52.676353
2022-12-02 18:28:52.688299
2022-12-02 18:28:52.696118
2022-12-02 18:28:52.705756
2022-12-02 18:28:52.712681
2022-12-02 18:28:52.725239
2022-12-02 18:28:52.733693
2022-12-02 18:28:52.742181
2022-12-02 18:28:52.754206
2022-12-02 18:28:52.762262
2022-12-02 18:28:52.770067
2022-12-02 18:28:52.778914
2022-12-02 18:28:52.791363
2022-12-02 18:28:52.799355
2022-12-02 18:28:52.807510
2022-12-02 18:28:52.820055
2022-12-02 18:28:52.827818
2022-12-02 18:28:52.836580
2022-12-02 18:28:52.844576
2022-12-02 18:28:52.856694
2022-12-02 18:28:52.864360
2022-12-02 18:28:52.873201
2022-12-02 18:28:52.885529
2022-12-02 18:28:52.893339
2022-12-02 18:28:52.901439
2022-12-02 18:28:52.910024
2022-12-02 18:28:52.922563
2022-12-02 18:28:52.930717
2022-12-02 18:28:52.938978
2022-12-02 18:28:52.951234
2022-12-02 18:28:52.959432
2022-12-02 18:28:52.967584
2022-12-02 18:28:52.975803
2022-12-02 18:28:52.988020
2022-12-02 18:28:52.995668
2022-12-02 18:28:53.004358
2022-12-02 18:28:53.015966
2022-12-02 18:28:53.024939
2022-12-02 18:28:53.033106
2022-12-02 18:28:53.041220
2022-12-02 18:28:53.053230
2022-12-02 18:28:53.061362
2022-12-02 18:28:53.069958
2022-12-02 18:28:53.082299
2022-12-02 18:28:53.090201
2022-12-02 18:28:53.098729
2022-12-02 18:28:53.106451
2022-12-02 18:28:53.118983
2022-12-02 18:28:53.127139
2022-12-02 18:28:53.135678
2022-12-02 18:28:53.143412
2022-12-02 18:28:53.155187
2022-12-02 18:28:53.164200
2022-12-02 18:28:53.172009
2022-12-02 18:28:53.184661
2022-12-02 18:28:53.192817
2022-12-02 18:28:53.201399
2022-12-02 18:28:53.209263
2022-12-02 18:28:53.221396
2022-12-02 18:28:53.229535
2022-12-02 18:28:53.237768
2022-12-02 18:28:53.249099
2022-12-02 18:28:53.258300
2022-12-02 18:28:53.266496
2022-12-02 18:28:53.274704
2022-12-02 18:28:53.286867
2022-12-02 18:28:53.295305
2022-12-02 18:28:53.303040
2022-12-02 18:28:53.315087
2022-12-02 18:28:53.323371
2022-12-02 18:28:53.332104
2022-12-02 18:28:53.339545
2022-12-02 18:28:53.352713
2022-12-02 18:28:53.360730
2022-12-02 18:28:53.369020
2022-12-02 18:28:53.381309
2022-12-02 18:28:53.389204
2022-12-02 18:28:53.397727
2022-12-02 18:28:53.404934
2022-12-02 18:28:53.417946
2022-12-02 18:28:53.426359
2022-12-02 18:28:53.434372
2022-12-02 18:28:53.446407
2022-12-02 18:28:53.454673
2022-12-02 18:28:53.462963
2022-12-02 18:28:53.471583
2022-12-02 18:28:53.483053
2022-12-02 18:28:53.491056
2022-12-02 18:28:53.499965
2022-12-02 18:28:53.511839
2022-12-02 18:28:53.520538
2022-12-02 18:28:53.527817
2022-12-02 18:28:53.536874
2022-12-02 18:28:53.549245
2022-12-02 18:28:53.556773
2022-12-02 18:28:53.565665
2022-12-02 18:28:53.577590
2022-12-02 18:28:53.586176
2022-12-02 18:28:53.594255
2022-12-02 18:28:53.602580
2022-12-02 18:28:53.614551
2022-12-02 18:28:53.622161
2022-12-02 18:28:53.630996
2022-12-02 18:28:53.643690
2022-12-02 18:28:53.651363
2022-12-02 18:28:53.659898
2022-12-02 18:28:53.667856
2022-12-02 18:28:53.679983
2022-12-02 18:28:53.688583
2022-12-02 18:28:53.696660
2022-12-02 18:28:53.709020
2022-12-02 18:28:53.717108
2022-12-02 18:28:53.725659
2022-12-02 18:28:53.733691
2022-12-02 18:28:53.745516
2022-12-02 18:28:53.753983
2022-12-02 18:28:53.761858
2022-12-02 18:28:53.774021
2022-12-02 18:28:53.782503
2022-12-02 18:28:53.790598
2022-12-02 18:28:53.798892
2022-12-02 18:28:53.810914
2022-12-02 18:28:53.819588
2022-12-02 18:28:53.827549
2022-12-02 18:28:53.839385
2022-12-02 18:28:53.848201
2022-12-02 18:28:53.855533
2022-12-02 18:28:53.864496
2022-12-02 18:28:53.876219
2022-12-02 18:28:53.884130
2022-12-02 18:28:53.892361
2022-12-02 18:28:53.905533
2022-12-02 18:28:53.913327
2022-12-02 18:28:53.921652
2022-12-02 18:28:53.929917
2022-12-02 18:28:53.942264
2022-12-02 18:28:53.950336
2022-12-02 18:28:53.958721
2022-12-02 18:28:53.966860
2022-12-02 18:28:53.979010
2022-12-02 18:28:53.987583
2022-12-02 18:28:53.995095
2022-12-02 18:28:54.007450
2022-12-02 18:28:54.016011
2022-12-02 18:28:54.024049
2022-12-02 18:28:54.032594
2022-12-02 18:28:54.044179
2022-12-02 18:28:54.053150
2022-12-02 18:28:54.060398
2022-12-02 18:28:54.072683
2022-12-02 18:28:54.081663
2022-12-02 18:28:54.089562
2022-12-02 18:28:54.098026
2022-12-02 18:28:54.109585
2022-12-02 18:28:54.117871
2022-12-02 18:28:54.125844
2022-12-02 18:28:54.138380
2022-12-02 18:28:54.147043
2022-12-02 18:28:54.155399
2022-12-02 18:28:54.163590
2022-12-02 18:28:54.175835
2022-12-02 18:28:54.184172
2022-12-02 18:28:54.192308
2022-12-02 18:28:54.204307
2022-12-02 18:28:54.212285
2022-12-02 18:28:54.220753
2022-12-02 18:28:54.228414
2022-12-02 18:28:54.241699
2022-12-02 18:28:54.249215
2022-12-02 18:28:54.257744
2022-12-02 18:28:54.270064
2022-12-02 18:28:54.277416
2022-12-02 18:28:54.286309
2022-12-02 18:28:54.293937
2022-12-02 18:28:54.306534
2022-12-02 18:28:54.315217
2022-12-02 18:28:54.322580
2022-12-02 18:28:54.335622
2022-12-02 18:28:54.343519
2022-12-02 18:28:54.352044
2022-12-02 18:28:54.360207
2022-12-02 18:28:54.372020
2022-12-02 18:28:54.380723
2022-12-02 18:28:54.388408
2022-12-02 18:28:54.401261
2022-12-02 18:28:54.409706
2022-12-02 18:28:54.417597
2022-12-02 18:28:54.425720
2022-12-02 18:28:54.438017
2022-12-02 18:28:54.445975
2022-12-02 18:28:54.454124
2022-12-02 18:28:54.466215
2022-12-02 18:28:54.474936
2022-12-02 18:28:54.482966
2022-12-02 18:28:54.491086
2022-12-02 18:28:54.503719
2022-12-02 18:28:54.511577
2022-12-02 18:28:54.519685
2022-12-02 18:28:54.532345
2022-12-02 18:28:54.539754
2022-12-02 18:28:54.548605
2022-12-02 18:28:54.557044
2022-12-02 18:28:54.569165
2022-12-02 18:28:54.577111
2022-12-02 18:28:54.585604
2022-12-02 18:28:54.597760
2022-12-02 18:28:54.605151
2022-12-02 18:28:54.614048
2022-12-02 18:28:54.622290
2022-12-02 18:28:54.634692
2022-12-02 18:28:54.642172
2022-12-02 18:28:54.650626
2022-12-02 18:28:54.663044
2022-12-02 18:28:54.670525
2022-12-02 18:28:54.679094
2022-12-02 18:28:54.686875
2022-12-02 18:28:54.699757
2022-12-02 18:28:54.707861
2022-12-02 18:28:54.716359
2022-12-02 18:28:54.728614
2022-12-02 18:28:54.736799
2022-12-02 18:28:54.745066
2022-12-02 18:28:54.753592
2022-12-02 18:28:54.765215
2022-12-02 18:28:54.773969
2022-12-02 18:28:54.782022
2022-12-02 18:28:54.793857
2022-12-02 18:28:54.802713
2022-12-02 18:28:54.810454
2022-12-02 18:28:54.818934
2022-12-02 18:28:54.831069
2022-12-02 18:28:54.839188
2022-12-02 18:28:54.849311
2022-12-02 18:28:54.854966
2022-12-02 18:28:54.867364
2022-12-02 18:28:54.876322
2022-12-02 18:28:54.883396
2022-12-02 18:28:54.896653
2022-12-02 18:28:54.904325
2022-12-02 18:28:54.913345
2022-12-02 18:28:54.920794
2022-12-02 18:28:54.933637
2022-12-02 18:28:54.941850
2022-12-02 18:28:54.949953
2022-12-02 18:28:54.962040
2022-12-02 18:28:54.970603
2022-12-02 18:28:54.978443
2022-12-02 18:28:54.986841
2022-12-02 18:28:54.998626
2022-12-02 18:28:55.007467
2022-12-02 18:28:55.015608
2022-12-02 18:28:55.026864
2022-12-02 18:28:55.036129
2022-12-02 18:28:55.043771
2022-12-02 18:28:55.052596
2022-12-02 18:28:55.064779
2022-12-02 18:28:55.072523
2022-12-02 18:28:55.080461
2022-12-02 18:28:55.093603
2022-12-02 18:28:55.101489
2022-12-02 18:28:55.109606
2022-12-02 18:28:55.117991
2022-12-02 18:28:55.129800
2022-12-02 18:28:55.138335
2022-12-02 18:28:55.145759
2022-12-02 18:28:55.158822
2022-12-02 18:28:55.166718
2022-12-02 18:28:55.175400
2022-12-02 18:28:55.183707
2022-12-02 18:28:55.195525
2022-12-02 18:28:55.203948
2022-12-02 18:28:55.211979
2022-12-02 18:28:55.224606
2022-12-02 18:28:55.232731
2022-12-02 18:28:55.240812
2022-12-02 18:28:55.249034
2022-12-02 18:28:55.260356
2022-12-02 18:28:55.269612
2022-12-02 18:28:55.276900
2022-12-02 18:28:55.290038
2022-12-02 18:28:55.298320
2022-12-02 18:28:55.306274
2022-12-02 18:28:55.314595
2022-12-02 18:28:55.326767
2022-12-02 18:28:55.334210
2022-12-02 18:28:55.343061
2022-12-02 18:28:55.355020
2022-12-02 18:28:55.363362
2022-12-02 18:28:55.371599
2022-12-02 18:28:55.380153
2022-12-02 18:28:55.392145
2022-12-02 18:28:55.400490
2022-12-02 18:28:55.407693
2022-12-02 18:28:55.421023
2022-12-02 18:28:55.429120
2022-12-02 18:28:55.437082
2022-12-02 18:28:55.445458
2022-12-02 18:28:55.457925
2022-12-02 18:28:55.466282
2022-12-02 18:28:55.474443
2022-12-02 18:28:55.486301
2022-12-02 18:28:55.494689
2022-12-02 18:28:55.502883
2022-12-02 18:28:55.511207
2022-12-02 18:28:55.523706
2022-12-02 18:28:55.531637
2022-12-02 18:28:55.539679
2022-12-02 18:28:55.552221
2022-12-02 18:28:55.559951
2022-12-02 18:28:55.568711
2022-12-02 18:28:55.576686
2022-12-02 18:28:55.588655
2022-12-02 18:28:55.597205
2022-12-02 18:28:55.605493
2022-12-02 18:28:55.617780
2022-12-02 18:28:55.625439
2022-12-02 18:28:55.633630
2022-12-02 18:28:55.641480
2022-12-02 18:28:55.654317
2022-12-02 18:28:55.662106
2022-12-02 18:28:55.669939
2022-12-02 18:28:55.682550
2022-12-02 18:28:55.691715
2022-12-02 18:28:55.699731
2022-12-02 18:28:55.707778
2022-12-02 18:28:55.720047
2022-12-02 18:28:55.727959
2022-12-02 18:28:55.736014
2022-12-02 18:28:55.743742
2022-12-02 18:28:55.755906
2022-12-02 18:28:55.764858
2022-12-02 18:28:55.772574
2022-12-02 18:28:55.785154
2022-12-02 18:28:55.793254
2022-12-02 18:28:55.801823
2022-12-02 18:28:55.809462
2022-12-02 18:28:55.821631
2022-12-02 18:28:55.830533
2022-12-02 18:28:55.838663
2022-12-02 18:28:55.850894
2022-12-02 18:28:55.859520
2022-12-02 18:28:55.867306
2022-12-02 18:28:55.875874
2022-12-02 18:28:55.887603
2022-12-02 18:28:55.896128
2022-12-02 18:28:55.903714
2022-12-02 18:28:55.915969
2022-12-02 18:28:55.924962
2022-12-02 18:28:55.933142
2022-12-02 18:28:55.941256
2022-12-02 18:28:55.953622
2022-12-02 18:28:55.961519
2022-12-02 18:28:55.969768
2022-12-02 18:28:55.982301
2022-12-02 18:28:55.990133
2022-12-02 18:28:55.998469
2022-12-02 18:28:56.006670
2022-12-02 18:28:56.019093
2022-12-02 18:28:56.026284
2022-12-02 18:28:56.034858
2022-12-02 18:28:56.047671
2022-12-02 18:28:56.055843
2022-12-02 18:28:56.064059
2022-12-02 18:28:56.072043
2022-12-02 18:28:56.084370
2022-12-02 18:28:56.092463
2022-12-02 18:28:56.101022
2022-12-02 18:28:56.113298
2022-12-02 18:28:56.121074
2022-12-02 18:28:56.129807
2022-12-02 18:28:56.138091
2022-12-02 18:28:56.150127
2022-12-02 18:28:56.158090
2022-12-02 18:28:56.166322
2022-12-02 18:28:56.178803
2022-12-02 18:28:56.187415
2022-12-02 18:28:56.194843
2022-12-02 18:28:56.203083
2022-12-02 18:28:56.215719
2022-12-02 18:28:56.223914
2022-12-02 18:28:56.231970
2022-12-02 18:28:56.243232
2022-12-02 18:28:56.252442
2022-12-02 18:28:56.259809
2022-12-02 18:28:56.268950
2022-12-02 18:28:56.280772
2022-12-02 18:28:56.289346
2022-12-02 18:28:56.297477
2022-12-02 18:28:56.309053
2022-12-02 18:28:56.318141
2022-12-02 18:28:56.326182
2022-12-02 18:28:56.334236
2022-12-02 18:28:56.346705
2022-12-02 18:28:56.354963
2022-12-02 18:28:56.363247
2022-12-02 18:28:56.374659
2022-12-02 18:28:56.383747
2022-12-02 18:28:56.391767
2022-12-02 18:28:56.400130
2022-12-02 18:28:56.412330
2022-12-02 18:28:56.420373
2022-12-02 18:28:56.427994
2022-12-02 18:28:56.440258
2022-12-02 18:28:56.448169
2022-12-02 18:28:56.456875
2022-12-02 18:28:56.465027
2022-12-02 18:28:56.477364
2022-12-02 18:28:56.485735
2022-12-02 18:28:56.493452
2022-12-02 18:28:56.506109
2022-12-02 18:28:56.514792
2022-12-02 18:28:56.522947
2022-12-02 18:28:56.531075
2022-12-02 18:28:56.543127
2022-12-02 18:28:56.551621
2022-12-02 18:28:56.558495
2022-12-02 18:28:56.568048
2022-12-02 18:28:56.579788
2022-12-02 18:28:56.587682
2022-12-02 18:28:56.596745
2022-12-02 18:28:56.608894
2022-12-02 18:28:56.617124
2022-12-02 18:28:56.625047
2022-12-02 18:28:56.633607
2022-12-02 18:28:56.645874
2022-12-02 18:28:56.653266
2022-12-02 18:28:56.662184
2022-12-02 18:28:56.674722
2022-12-02 18:28:56.682388
2022-12-02 18:28:56.690971
2022-12-02 18:28:56.699049
2022-12-02 18:28:56.710883
2022-12-02 18:28:56.719716
2022-12-02 18:28:56.727153
2022-12-02 18:28:56.739176
2022-12-02 18:28:56.747744
2022-12-02 18:28:56.755768
2022-12-02 18:28:56.763834
2022-12-02 18:28:56.776244
2022-12-02 18:28:56.785090
2022-12-02 18:28:56.792935
2022-12-02 18:28:56.805148
2022-12-02 18:28:56.813725
2022-12-02 18:28:56.820896
2022-12-02 18:28:56.829821
2022-12-02 18:28:56.841687
2022-12-02 18:28:56.849593
2022-12-02 18:28:56.858589
2022-12-02 18:28:56.870834
2022-12-02 18:28:56.879196
2022-12-02 18:28:56.886812
2022-12-02 18:28:56.895604
2022-12-02 18:28:56.907989
2022-12-02 18:28:56.916266
2022-12-02 18:28:56.924436
2022-12-02 18:28:56.936442
2022-12-02 18:28:56.944345
2022-12-02 18:28:56.952993
2022-12-02 18:28:56.961012
2022-12-02 18:28:56.973228
2022-12-02 18:28:56.981749
2022-12-02 18:28:56.989772
2022-12-02 18:28:57.002099
2022-12-02 18:28:57.009310
2022-12-02 18:28:57.018606
2022-12-02 18:28:57.026223
2022-12-02 18:28:57.039045
2022-12-02 18:28:57.047148
2022-12-02 18:28:57.055723
2022-12-02 18:28:57.067684
2022-12-02 18:28:57.075425
2022-12-02 18:28:57.084077
2022-12-02 18:28:57.092121
2022-12-02 18:28:57.103897
2022-12-02 18:28:57.112734
2022-12-02 18:28:57.120984
2022-12-02 18:28:57.133240
2022-12-02 18:28:57.141299
2022-12-02 18:28:57.149754
2022-12-02 18:28:57.157410
2022-12-02 18:28:57.170235
2022-12-02 18:28:57.177957
2022-12-02 18:28:57.186276
2022-12-02 18:28:57.198461
2022-12-02 18:28:57.206807
2022-12-02 18:28:57.214955
2022-12-02 18:28:57.222613
2022-12-02 18:28:57.235121
2022-12-02 18:28:57.242801
2022-12-02 18:28:57.251961
2022-12-02 18:28:57.264109
2022-12-02 18:28:57.272226
2022-12-02 18:28:57.280424
2022-12-02 18:28:57.288259
2022-12-02 18:28:57.300020
2022-12-02 18:28:57.308836
2022-12-02 18:28:57.317724
2022-12-02 18:28:57.328674
2022-12-02 18:28:57.337557
2022-12-02 18:28:57.345472
2022-12-02 18:28:57.354199
2022-12-02 18:28:57.366066
2022-12-02 18:28:57.374091
2022-12-02 18:28:57.382660
2022-12-02 18:28:57.395444
2022-12-02 18:28:57.403628
2022-12-02 18:28:57.411551
2022-12-02 18:28:57.419893
2022-12-02 18:28:57.432102
2022-12-02 18:28:57.440717
2022-12-02 18:28:57.448401
2022-12-02 18:28:57.456801
2022-12-02 18:28:57.469053
2022-12-02 18:28:57.477065
2022-12-02 18:28:57.485749
2022-12-02 18:28:57.497253
2022-12-02 18:28:57.506049
2022-12-02 18:28:57.514110
2022-12-02 18:28:57.522351
2022-12-02 18:28:57.534492
2022-12-02 18:28:57.541776
2022-12-02 18:28:57.551001
2022-12-02 18:28:57.562660
2022-12-02 18:28:57.571625
2022-12-02 18:28:57.579759
2022-12-02 18:28:57.587399
2022-12-02 18:28:57.600203
2022-12-02 18:28:57.608445
2022-12-02 18:28:57.616453
2022-12-02 18:28:57.628800
2022-12-02 18:28:57.637106
2022-12-02 18:28:57.645253
2022-12-02 18:28:57.653234
2022-12-02 18:28:57.665264
2022-12-02 18:28:57.674001
2022-12-02 18:28:57.681869
2022-12-02 18:28:57.693641
2022-12-02 18:28:57.702341
2022-12-02 18:28:57.710368
2022-12-02 18:28:57.718963
2022-12-02 18:28:57.731363
2022-12-02 18:28:57.739772
2022-12-02 18:28:57.747748
2022-12-02 18:28:57.759308
2022-12-02 18:28:57.768220
2022-12-02 18:28:57.775843
2022-12-02 18:28:57.784745
2022-12-02 18:28:57.796860
2022-12-02 18:28:57.804245
2022-12-02 18:28:57.813112
2022-12-02 18:28:57.825618
2022-12-02 18:28:57.833597
2022-12-02 18:28:57.841900
2022-12-02 18:28:57.850083
2022-12-02 18:28:57.862255
2022-12-02 18:28:57.869999
2022-12-02 18:28:57.878443
2022-12-02 18:28:57.890887
2022-12-02 18:28:57.899058
2022-12-02 18:28:57.907443
2022-12-02 18:28:57.915559
2022-12-02 18:28:57.926828
2022-12-02 18:28:57.936107
2022-12-02 18:28:57.944021
2022-12-02 18:28:57.956627
2022-12-02 18:28:57.964759
2022-12-02 18:28:57.972977
2022-12-02 18:28:57.981162
2022-12-02 18:28:57.992692
2022-12-02 18:28:58.001630
2022-12-02 18:28:58.009653
2022-12-02 18:28:58.021740
2022-12-02 18:28:58.030084
2022-12-02 18:28:58.037981
2022-12-02 18:28:58.046407
2022-12-02 18:28:58.058916
2022-12-02 18:28:58.067050
2022-12-02 18:28:58.075260
2022-12-02 18:28:58.087340
2022-12-02 18:28:58.095721
2022-12-02 18:28:58.103355
2022-12-02 18:28:58.111860
2022-12-02 18:28:58.124722
2022-12-02 18:28:58.132700
2022-12-02 18:28:58.140830
2022-12-02 18:28:58.153103
2022-12-02 18:28:58.161041
2022-12-02 18:28:58.169572
2022-12-02 18:28:58.177431
2022-12-02 18:28:58.188615
2022-12-02 18:28:58.198186
2022-12-02 18:28:58.206254
2022-12-02 18:28:58.218516
2022-12-02 18:28:58.226820
2022-12-02 18:28:58.234398
2022-12-02 18:28:58.242412
2022-12-02 18:28:58.255625
2022-12-02 18:28:58.263742
2022-12-02 18:28:58.271610
2022-12-02 18:28:58.280290
2022-12-02 18:28:58.292351
2022-12-02 18:28:58.300738
2022-12-02 18:28:58.308754
2022-12-02 18:28:58.320820
2022-12-02 18:28:58.329018
2022-12-02 18:28:58.337321
2022-12-02 18:28:58.345675
2022-12-02 18:28:58.357121
2022-12-02 18:28:58.366008
2022-12-02 18:28:58.374229
2022-12-02 18:28:58.386197
2022-12-02 18:28:58.394303
2022-12-02 18:28:58.402780
2022-12-02 18:28:58.410921
2022-12-02 18:28:58.423275
2022-12-02 18:28:58.431732
2022-12-02 18:28:58.439810
2022-12-02 18:28:58.452215
2022-12-02 18:28:58.460005
2022-12-02 18:28:58.468628
2022-12-02 18:28:58.476664
2022-12-02 18:28:58.489006
2022-12-02 18:28:58.497079
2022-12-02 18:28:58.505734
2022-12-02 18:28:58.517766
2022-12-02 18:28:58.525544
2022-12-02 18:28:58.534061
2022-12-02 18:28:58.542188
2022-12-02 18:28:58.554449
2022-12-02 18:28:58.561756
2022-12-02 18:28:58.570694
2022-12-02 18:28:58.583172
2022-12-02 18:28:58.591730
2022-12-02 18:28:58.599848
2022-12-02 18:28:58.606995
2022-12-02 18:28:58.620039
2022-12-02 18:28:58.628240
2022-12-02 18:28:58.636152
2022-12-02 18:28:58.648539
2022-12-02 18:28:58.656918
2022-12-02 18:28:58.665036
2022-12-02 18:28:58.673363
2022-12-02 18:28:58.685728
2022-12-02 18:28:58.693285
2022-12-02 18:28:58.701872
2022-12-02 18:28:58.714134
2022-12-02 18:28:58.722641
2022-12-02 18:28:58.730768
2022-12-02 18:28:58.738841
2022-12-02 18:28:58.751157
2022-12-02 18:28:58.758536
2022-12-02 18:28:58.767735
2022-12-02 18:28:58.778863
2022-12-02 18:28:58.787846
2022-12-02 18:28:58.795838
2022-12-02 18:28:58.803464
2022-12-02 18:28:58.816345
2022-12-02 18:28:58.823748
2022-12-02 18:28:58.833069
2022-12-02 18:28:58.845145
2022-12-02 18:28:58.853129
2022-12-02 18:28:58.860863
2022-12-02 18:28:58.869210
2022-12-02 18:28:58.881949
2022-12-02 18:28:58.889676
2022-12-02 18:28:58.897829
2022-12-02 18:28:58.910380
2022-12-02 18:28:58.918510
2022-12-02 18:28:58.927082
2022-12-02 18:28:58.935025
2022-12-02 18:28:58.947081
2022-12-02 18:28:58.955910
2022-12-02 18:28:58.963266
2022-12-02 18:28:58.976161
2022-12-02 18:28:58.984625
2022-12-02 18:28:58.992110
2022-12-02 18:28:59.000590
2022-12-02 18:28:59.013271
2022-12-02 18:28:59.021214
2022-12-02 18:28:59.029766
2022-12-02 18:28:59.042097
2022-12-02 18:28:59.049607
2022-12-02 18:28:59.058516
2022-12-02 18:28:59.066175
2022-12-02 18:28:59.078642
2022-12-02 18:28:59.086834
2022-12-02 18:28:59.094993
2022-12-02 18:28:59.107414
2022-12-02 18:28:59.115376
2022-12-02 18:28:59.123223
2022-12-02 18:28:59.132156
2022-12-02 18:28:59.144116
2022-12-02 18:28:59.152644
2022-12-02 18:28:59.159975
2022-12-02 18:28:59.168870
2022-12-02 18:28:59.181348
2022-12-02 18:28:59.189777
2022-12-02 18:28:59.197755
2022-12-02 18:28:59.209538
2022-12-02 18:28:59.218198
2022-12-02 18:28:59.225385
2022-12-02 18:28:59.234634
2022-12-02 18:28:59.246564
2022-12-02 18:28:59.254571
2022-12-02 18:28:59.263000
2022-12-02 18:28:59.275265
2022-12-02 18:28:59.283210
2022-12-02 18:28:59.291798
2022-12-02 18:28:59.299569
2022-12-02 18:28:59.312374
2022-12-02 18:28:59.320205
2022-12-02 18:28:59.328611
2022-12-02 18:28:59.340933
2022-12-02 18:28:59.348589
2022-12-02 18:28:59.357247
2022-12-02 18:28:59.365777
2022-12-02 18:28:59.377883
2022-12-02 18:28:59.385899
2022-12-02 18:28:59.394030
2022-12-02 18:28:59.405965
2022-12-02 18:28:59.414502
2022-12-02 18:28:59.421988
2022-12-02 18:28:59.430551
2022-12-02 18:28:59.443161
2022-12-02 18:28:59.451500
2022-12-02 18:28:59.459639
2022-12-02 18:28:59.472110
2022-12-02 18:28:59.480214
2022-12-02 18:28:59.488293
2022-12-02 18:28:59.496561
2022-12-02 18:28:59.508745
2022-12-02 18:28:59.516287
2022-12-02 18:28:59.525183
2022-12-02 18:28:59.537467
2022-12-02 18:28:59.545487
2022-12-02 18:28:59.553475
2022-12-02 18:28:59.562120
2022-12-02 18:28:59.573794
2022-12-02 18:28:59.582477
2022-12-02 18:28:59.590145
2022-12-02 18:28:59.603010
2022-12-02 18:28:59.610895
2022-12-02 18:28:59.619111
2022-12-02 18:28:59.627381
2022-12-02 18:28:59.639871
2022-12-02 18:28:59.648175
2022-12-02 18:28:59.656495
2022-12-02 18:28:59.667945
2022-12-02 18:28:59.676709
2022-12-02 18:28:59.684903
2022-12-02 18:28:59.692979
2022-12-02 18:28:59.705731
2022-12-02 18:28:59.713475
2022-12-02 18:28:59.721748
2022-12-02 18:28:59.734162
2022-12-02 18:28:59.741719
2022-12-02 18:28:59.750381
2022-12-02 18:28:59.758618
2022-12-02 18:28:59.771060
2022-12-02 18:28:59.779344
2022-12-02 18:28:59.786805
2022-12-02 18:28:59.799721
2022-12-02 18:28:59.807993
2022-12-02 18:28:59.816157
2022-12-02 18:28:59.824369
2022-12-02 18:28:59.836054
2022-12-02 18:28:59.844720
2022-12-02 18:28:59.852219
2022-12-02 18:28:59.865213
2022-12-02 18:28:59.873643
2022-12-02 18:28:59.881902
2022-12-02 18:28:59.889841
2022-12-02 18:28:59.902085
2022-12-02 18:28:59.909931
2022-12-02 18:28:59.918026
2022-12-02 18:28:59.930062
2022-12-02 18:28:59.939026
2022-12-02 18:28:59.947202
2022-12-02 18:28:59.955433
2022-12-02 18:28:59.967636
2022-12-02 18:28:59.974998
2022-12-02 18:28:59.983736
2022-12-02 18:28:59.996521
2022-12-02 18:29:00.004619
2022-12-02 18:29:00.011838
2022-12-02 18:29:00.020686
2022-12-02 18:29:00.032270
2022-12-02 18:29:00.041075
2022-12-02 18:29:00.049569
2022-12-02 18:29:00.057813
2022-12-02 18:29:00.070230
2022-12-02 18:29:00.077947
2022-12-02 18:29:00.085819
2022-12-02 18:29:00.098260
2022-12-02 18:29:00.106950
2022-12-02 18:29:00.114648
2022-12-02 18:29:00.123176
2022-12-02 18:29:00.135298
2022-12-02 18:29:00.143266
2022-12-02 18:29:00.151542
2022-12-02 18:29:00.164394
2022-12-02 18:29:00.172509
2022-12-02 18:29:00.179798
2022-12-02 18:29:00.188914
2022-12-02 18:29:00.201116
2022-12-02 18:29:00.209322
2022-12-02 18:29:00.217737
2022-12-02 18:29:00.229755
2022-12-02 18:29:00.237628
2022-12-02 18:29:00.245222
2022-12-02 18:29:00.254296
2022-12-02 18:29:00.266759
2022-12-02 18:29:00.274819
2022-12-02 18:29:00.282657
2022-12-02 18:29:00.295250
2022-12-02 18:29:00.302978
2022-12-02 18:29:00.311022
2022-12-02 18:29:00.319285
2022-12-02 18:29:00.332157
2022-12-02 18:29:00.340553
2022-12-02 18:29:00.348653
2022-12-02 18:29:00.360642
2022-12-02 18:29:00.368555
2022-12-02 18:29:00.377048
2022-12-02 18:29:00.385574
2022-12-02 18:29:00.397693
2022-12-02 18:29:00.405654
2022-12-02 18:29:00.413940
2022-12-02 18:29:00.425852
2022-12-02 18:29:00.434545
2022-12-02 18:29:00.442676
2022-12-02 18:29:00.451373
2022-12-02 18:29:00.463026
2022-12-02 18:29:00.471506
2022-12-02 18:29:00.479627
2022-12-02 18:29:00.491570
2022-12-02 18:29:00.500051
2022-12-02 18:29:00.508052
2022-12-02 18:29:00.516643
2022-12-02 18:29:00.527663
2022-12-02 18:29:00.536570
2022-12-02 18:29:00.544727
2022-12-02 18:29:00.557748
2022-12-02 18:29:00.565791
2022-12-02 18:29:00.573885
2022-12-02 18:29:00.582084
2022-12-02 18:29:00.594370
2022-12-02 18:29:00.602209
2022-12-02 18:29:00.610472
2022-12-02 18:29:00.623025
2022-12-02 18:29:00.631030
2022-12-02 18:29:00.638384
2022-12-02 18:29:00.647647
2022-12-02 18:29:00.659718
2022-12-02 18:29:00.668110
2022-12-02 18:29:00.675758
2022-12-02 18:29:00.687722
2022-12-02 18:29:00.695680
2022-12-02 18:29:00.704362
2022-12-02 18:29:00.712939
2022-12-02 18:29:00.724862
2022-12-02 18:29:00.732441
2022-12-02 18:29:00.741082
2022-12-02 18:29:00.754220
2022-12-02 18:29:00.762350
2022-12-02 18:29:00.770803
2022-12-02 18:29:00.778830
2022-12-02 18:29:00.790986
2022-12-02 18:29:00.799199
2022-12-02 18:29:00.807369
2022-12-02 18:29:00.819398
2022-12-02 18:29:00.827778
2022-12-02 18:29:00.835980
2022-12-02 18:29:00.843720
2022-12-02 18:29:00.855639
2022-12-02 18:29:00.864144
2022-12-02 18:29:00.872747
2022-12-02 18:29:00.881015
2022-12-02 18:29:00.893124
2022-12-02 18:29:00.901656
2022-12-02 18:29:00.909466
2022-12-02 18:29:00.922138
2022-12-02 18:29:00.930353
2022-12-02 18:29:00.938651
2022-12-02 18:29:00.946759
2022-12-02 18:29:00.958817
2022-12-02 18:29:00.967127
2022-12-02 18:29:00.974958
2022-12-02 18:29:00.987177
2022-12-02 18:29:00.995538
2022-12-02 18:29:01.003741
2022-12-02 18:29:01.012225
2022-12-02 18:29:01.024216
2022-12-02 18:29:01.032788
2022-12-02 18:29:01.040822
2022-12-02 18:29:01.053134
2022-12-02 18:29:01.061306
2022-12-02 18:29:01.069267
2022-12-02 18:29:01.077700
2022-12-02 18:29:01.090055
2022-12-02 18:29:01.098269
2022-12-02 18:29:01.106441
2022-12-02 18:29:01.118182
2022-12-02 18:29:01.126068
2022-12-02 18:29:01.134907
2022-12-02 18:29:01.143065
2022-12-02 18:29:01.155462
2022-12-02 18:29:01.163757
2022-12-02 18:29:01.171680
2022-12-02 18:29:01.184308
2022-12-02 18:29:01.192170
2022-12-02 18:29:01.201017
2022-12-02 18:29:01.208731
2022-12-02 18:29:01.220802
2022-12-02 18:29:01.229369
2022-12-02 18:29:01.237792
2022-12-02 18:29:01.249744
2022-12-02 18:29:01.257775
2022-12-02 18:29:01.265083
2022-12-02 18:29:01.274292
2022-12-02 18:29:01.286442
2022-12-02 18:29:01.294313
2022-12-02 18:29:01.302693
2022-12-02 18:29:01.315311
2022-12-02 18:29:01.323563
2022-12-02 18:29:01.331631
2022-12-02 18:29:01.339778
2022-12-02 18:29:01.352233
2022-12-02 18:29:01.360384
2022-12-02 18:29:01.368310
2022-12-02 18:29:01.380808
2022-12-02 18:29:01.388883
2022-12-02 18:29:01.397187
2022-12-02 18:29:01.405429
2022-12-02 18:29:01.417207
2022-12-02 18:29:01.425479
2022-12-02 18:29:01.433943
2022-12-02 18:29:01.446465
2022-12-02 18:29:01.453941
2022-12-02 18:29:01.462587
2022-12-02 18:29:01.470632
2022-12-02 18:29:01.483256
2022-12-02 18:29:01.491267
2022-12-02 18:29:01.499766
2022-12-02 18:29:01.511881
2022-12-02 18:29:01.519831
2022-12-02 18:29:01.528373
2022-12-02 18:29:01.536227
2022-12-02 18:29:01.548859
2022-12-02 18:29:01.556900
2022-12-02 18:29:01.565088
2022-12-02 18:29:01.577767
2022-12-02 18:29:01.585361
2022-12-02 18:29:01.593645
2022-12-02 18:29:01.601789
2022-12-02 18:29:01.613830
2022-12-02 18:29:01.622371
2022-12-02 18:29:01.630176
2022-12-02 18:29:01.642637
2022-12-02 18:29:01.651094
2022-12-02 18:29:01.659061
2022-12-02 18:29:01.666664
2022-12-02 18:29:01.679704
2022-12-02 18:29:01.687865
2022-12-02 18:29:01.696052
2022-12-02 18:29:01.707864
2022-12-02 18:29:01.716688
2022-12-02 18:29:01.724325
2022-12-02 18:29:01.733123
2022-12-02 18:29:01.745497
2022-12-02 18:29:01.753397
2022-12-02 18:29:01.761846
2022-12-02 18:29:01.768707
2022-12-02 18:29:01.782131
2022-12-02 18:29:01.790352
2022-12-02 18:29:01.798778
2022-12-02 18:29:01.810868
2022-12-02 18:29:01.818991
2022-12-02 18:29:01.827270
2022-12-02 18:29:01.835150
2022-12-02 18:29:01.847754
2022-12-02 18:29:01.855911
2022-12-02 18:29:01.864201
2022-12-02 18:29:01.876465
2022-12-02 18:29:01.884671
2022-12-02 18:29:01.892390
2022-12-02 18:29:01.901261
2022-12-02 18:29:01.913272
2022-12-02 18:29:01.921659
2022-12-02 18:29:01.929739
2022-12-02 18:29:01.941723
2022-12-02 18:29:01.950095
2022-12-02 18:29:01.958010
2022-12-02 18:29:01.966202
2022-12-02 18:29:01.978660
2022-12-02 18:29:01.986549
2022-12-02 18:29:01.994959
2022-12-02 18:29:02.006801
2022-12-02 18:29:02.015068
2022-12-02 18:29:02.023216
2022-12-02 18:29:02.031361
2022-12-02 18:29:02.043608
2022-12-02 18:29:02.052208
2022-12-02 18:29:02.060287
2022-12-02 18:29:02.072568
2022-12-02 18:29:02.081166
2022-12-02 18:29:02.089590
2022-12-02 18:29:02.097666
2022-12-02 18:29:02.109876
2022-12-02 18:29:02.118030
2022-12-02 18:29:02.126060
2022-12-02 18:29:02.138224
2022-12-02 18:29:02.146860
2022-12-02 18:29:02.154153
2022-12-02 18:29:02.162532
2022-12-02 18:29:02.175277
2022-12-02 18:29:02.183128
2022-12-02 18:29:02.191570
2022-12-02 18:29:02.203902
2022-12-02 18:29:02.212248
2022-12-02 18:29:02.220676
2022-12-02 18:29:02.228116
2022-12-02 18:29:02.240707
2022-12-02 18:29:02.249108
2022-12-02 18:29:02.257306
2022-12-02 18:29:02.269422
2022-12-02 18:29:02.277845
2022-12-02 18:29:02.285791
2022-12-02 18:29:02.294267
2022-12-02 18:29:02.305983
2022-12-02 18:29:02.314432
2022-12-02 18:29:02.322024
2022-12-02 18:29:02.334251
2022-12-02 18:29:02.342496
2022-12-02 18:29:02.351194
2022-12-02 18:29:02.359765
2022-12-02 18:29:02.372107
2022-12-02 18:29:02.380304
2022-12-02 18:29:02.388594
2022-12-02 18:29:02.400598
2022-12-02 18:29:02.408707
2022-12-02 18:29:02.417133
2022-12-02 18:29:02.425095
2022-12-02 18:29:02.437796
2022-12-02 18:29:02.445210
2022-12-02 18:29:02.453909
2022-12-02 18:29:02.466130
2022-12-02 18:29:02.474413
2022-12-02 18:29:02.482702
2022-12-02 18:29:02.490771
2022-12-02 18:29:02.502855
2022-12-02 18:29:02.511292
2022-12-02 18:29:02.519522
2022-12-02 18:29:02.530992
2022-12-02 18:29:02.539813
2022-12-02 18:29:02.547560
2022-12-02 18:29:02.555989
2022-12-02 18:29:02.567923
2022-12-02 18:29:02.576031
2022-12-02 18:29:02.584690
2022-12-02 18:29:02.593035
2022-12-02 18:29:02.604734
2022-12-02 18:29:02.613657
2022-12-02 18:29:02.621897
2022-12-02 18:29:02.634094
2022-12-02 18:29:02.642165
2022-12-02 18:29:02.650766
2022-12-02 18:29:02.658467
2022-12-02 18:29:02.671117
2022-12-02 18:29:02.679052
2022-12-02 18:29:02.687325
2022-12-02 18:29:02.699848
2022-12-02 18:29:02.707724
2022-12-02 18:29:02.716131
2022-12-02 18:29:02.723874
2022-12-02 18:29:02.736486
2022-12-02 18:29:02.744853
2022-12-02 18:29:02.752480
2022-12-02 18:29:02.765362
2022-12-02 18:29:02.773827
2022-12-02 18:29:02.781668
2022-12-02 18:29:02.789890
2022-12-02 18:29:02.801777
2022-12-02 18:29:02.810377
2022-12-02 18:29:02.818303
2022-12-02 18:29:02.830180
2022-12-02 18:29:02.838772
2022-12-02 18:29:02.847021
2022-12-02 18:29:02.855397
2022-12-02 18:29:02.867636
2022-12-02 18:29:02.875327
2022-12-02 18:29:02.884019
2022-12-02 18:29:02.895645
2022-12-02 18:29:02.904253
2022-12-02 18:29:02.912202
2022-12-02 18:29:02.920418
2022-12-02 18:29:02.932917
2022-12-02 18:29:02.940524
2022-12-02 18:29:02.949673
2022-12-02 18:29:02.961853
2022-12-02 18:29:02.970056
2022-12-02 18:29:02.978332
2022-12-02 18:29:02.986794
2022-12-02 18:29:02.998154
2022-12-02 18:29:03.006777
2022-12-02 18:29:03.014637
2022-12-02 18:29:03.026819
2022-12-02 18:29:03.035096
2022-12-02 18:29:03.043828
2022-12-02 18:29:03.051484
2022-12-02 18:29:03.064336
2022-12-02 18:29:03.072268
2022-12-02 18:29:03.080567
2022-12-02 18:29:03.092817
2022-12-02 18:29:03.100867
2022-12-02 18:29:03.109182
2022-12-02 18:29:03.117956
2022-12-02 18:29:03.129952
2022-12-02 18:29:03.138142
2022-12-02 18:29:03.146256
2022-12-02 18:29:03.157956
2022-12-02 18:29:03.166375
2022-12-02 18:29:03.173713
2022-12-02 18:29:03.182938
2022-12-02 18:29:03.194031
2022-12-02 18:29:03.203592
2022-12-02 18:29:03.211480
2022-12-02 18:29:03.223823
2022-12-02 18:29:03.232359
2022-12-02 18:29:03.240400
2022-12-02 18:29:03.247911
2022-12-02 18:29:03.260049
2022-12-02 18:29:03.268416
2022-12-02 18:29:03.276670
2022-12-02 18:29:03.289685
2022-12-02 18:29:03.297806
2022-12-02 18:29:03.306037
2022-12-02 18:29:03.314204
2022-12-02 18:29:03.326310
2022-12-02 18:29:03.334202
2022-12-02 18:29:03.342649
2022-12-02 18:29:03.355217
2022-12-02 18:29:03.362550
2022-12-02 18:29:03.371214
2022-12-02 18:29:03.379772
2022-12-02 18:29:03.391425
2022-12-02 18:29:03.399434
2022-12-02 18:29:03.408106
2022-12-02 18:29:03.420143
2022-12-02 18:29:03.428059
2022-12-02 18:29:03.435905
2022-12-02 18:29:03.445245
2022-12-02 18:29:03.457009
2022-12-02 18:29:03.465772
2022-12-02 18:29:03.473696
2022-12-02 18:29:03.482134
2022-12-02 18:29:03.493826
2022-12-02 18:29:03.502382
2022-12-02 18:29:03.510560
2022-12-02 18:29:03.523069
2022-12-02 18:29:03.530986
2022-12-02 18:29:03.539763
2022-12-02 18:29:03.547156
2022-12-02 18:29:03.559887
2022-12-02 18:29:03.568063
2022-12-02 18:29:03.576138
2022-12-02 18:29:03.588813
2022-12-02 18:29:03.596734
2022-12-02 18:29:03.605003
2022-12-02 18:29:03.613287
2022-12-02 18:29:03.625073
2022-12-02 18:29:03.633683
2022-12-02 18:29:03.641638
2022-12-02 18:29:03.653591
2022-12-02 18:29:03.662321
2022-12-02 18:29:03.670186
2022-12-02 18:29:03.678477
2022-12-02 18:29:03.690242
2022-12-02 18:29:03.698735
2022-12-02 18:29:03.706942
2022-12-02 18:29:03.719792
2022-12-02 18:29:03.727806
2022-12-02 18:29:03.735740
2022-12-02 18:29:03.744222
2022-12-02 18:29:03.756674
2022-12-02 18:29:03.764784
2022-12-02 18:29:03.772838
2022-12-02 18:29:03.784904
2022-12-02 18:29:03.793377
2022-12-02 18:29:03.801273
2022-12-02 18:29:03.809822
2022-12-02 18:29:03.821595
2022-12-02 18:29:03.830148
2022-12-02 18:29:03.838122
2022-12-02 18:29:03.850646
2022-12-02 18:29:03.858618
2022-12-02 18:29:03.867567
2022-12-02 18:29:03.875108
2022-12-02 18:29:03.887451
2022-12-02 18:29:03.895682
2022-12-02 18:29:03.903503
2022-12-02 18:29:03.916141
2022-12-02 18:29:03.923558
2022-12-02 18:29:03.932212
2022-12-02 18:29:03.940173
2022-12-02 18:29:03.952956
2022-12-02 18:29:03.960791
2022-12-02 18:29:03.969778
2022-12-02 18:29:03.981715
2022-12-02 18:29:03.989927
2022-12-02 18:29:03.997881
2022-12-02 18:29:04.006721
2022-12-02 18:29:04.018008
2022-12-02 18:29:04.026098
2022-12-02 18:29:04.034758
2022-12-02 18:29:04.047337
2022-12-02 18:29:04.055213
2022-12-02 18:29:04.063757
2022-12-02 18:29:04.071976
2022-12-02 18:29:04.083777
2022-12-02 18:29:04.091933
2022-12-02 18:29:04.099978
2022-12-02 18:29:04.112802
2022-12-02 18:29:04.121012
2022-12-02 18:29:04.129550
2022-12-02 18:29:04.137782
2022-12-02 18:29:04.149038
2022-12-02 18:29:04.157830
2022-12-02 18:29:04.165591
2022-12-02 18:29:04.177992
2022-12-02 18:29:04.186788
2022-12-02 18:29:04.194887
2022-12-02 18:29:04.202689
2022-12-02 18:29:04.215126
2022-12-02 18:29:04.222888
2022-12-02 18:29:04.231794
2022-12-02 18:29:04.244015
2022-12-02 18:29:04.252426
2022-12-02 18:29:04.260400
2022-12-02 18:29:04.268401
2022-12-02 18:29:04.280847
2022-12-02 18:29:04.289040
2022-12-02 18:29:04.297114
2022-12-02 18:29:04.309268
2022-12-02 18:29:04.317697
2022-12-02 18:29:04.325734
2022-12-02 18:29:04.333685
2022-12-02 18:29:04.346062
2022-12-02 18:29:04.354776
2022-12-02 18:29:04.362774
2022-12-02 18:29:04.370894
2022-12-02 18:29:04.383088
2022-12-02 18:29:04.390155
2022-12-02 18:29:04.399680
2022-12-02 18:29:04.411852
2022-12-02 18:29:04.419948
2022-12-02 18:29:04.428294
2022-12-02 18:29:04.435847
2022-12-02 18:29:04.448193
2022-12-02 18:29:04.456629
2022-12-02 18:29:04.465470
2022-12-02 18:29:04.477471
2022-12-02 18:29:04.485539
2022-12-02 18:29:04.493668
2022-12-02 18:29:04.501865
2022-12-02 18:29:04.514129
2022-12-02 18:29:04.522579
2022-12-02 18:29:04.530806
2022-12-02 18:29:04.542428
2022-12-02 18:29:04.550649
2022-12-02 18:29:04.558864
2022-12-02 18:29:04.567697
2022-12-02 18:29:04.579869
2022-12-02 18:29:04.588244
2022-12-02 18:29:04.596221
2022-12-02 18:29:04.608173
2022-12-02 18:29:04.616765
2022-12-02 18:29:04.624571
2022-12-02 18:29:04.632932
2022-12-02 18:29:04.645393
2022-12-02 18:29:04.653276
2022-12-02 18:29:04.661731
2022-12-02 18:29:04.673130
2022-12-02 18:29:04.681813
2022-12-02 18:29:04.689900
2022-12-02 18:29:04.697811
2022-12-02 18:29:04.710737
2022-12-02 18:29:04.718919
2022-12-02 18:29:04.727045
2022-12-02 18:29:04.739688
2022-12-02 18:29:04.747819
2022-12-02 18:29:04.756032
2022-12-02 18:29:04.764261
2022-12-02 18:29:04.775409
2022-12-02 18:29:04.784368
2022-12-02 18:29:04.792498
2022-12-02 18:29:04.804666
2022-12-02 18:29:04.812662
2022-12-02 18:29:04.821520
2022-12-02 18:29:04.829670
2022-12-02 18:29:04.841655
2022-12-02 18:29:04.849839
2022-12-02 18:29:04.858154
2022-12-02 18:29:04.870343
2022-12-02 18:29:04.878630
2022-12-02 18:29:04.886805
2022-12-02 18:29:04.894921
2022-12-02 18:29:04.906459
2022-12-02 18:29:04.914724
2022-12-02 18:29:04.923312
2022-12-02 18:29:04.935392
2022-12-02 18:29:04.944063
2022-12-02 18:29:04.952266
2022-12-02 18:29:04.960592
2022-12-02 18:29:04.972763
2022-12-02 18:29:04.980701
2022-12-02 18:29:04.989081
2022-12-02 18:29:05.001564
2022-12-02 18:29:05.009849
2022-12-02 18:29:05.017967
2022-12-02 18:29:05.025896
2022-12-02 18:29:05.037452
2022-12-02 18:29:05.046545
2022-12-02 18:29:05.054549
2022-12-02 18:29:05.066947
2022-12-02 18:29:05.075374
2022-12-02 18:29:05.082949
2022-12-02 18:29:05.091374
2022-12-02 18:29:05.103485
2022-12-02 18:29:05.112042
2022-12-02 18:29:05.119616
2022-12-02 18:29:05.132199
2022-12-02 18:29:05.140586
2022-12-02 18:29:05.148796
2022-12-02 18:29:05.157189
2022-12-02 18:29:05.169189
2022-12-02 18:29:05.177209
2022-12-02 18:29:05.185592
2022-12-02 18:29:05.193865
2022-12-02 18:29:05.206110
2022-12-02 18:29:05.214472
2022-12-02 18:29:05.222567
2022-12-02 18:29:05.234613
