2.33138
2.34115
2.34604
2.34115
2.36070
2.33138
2.33138
2.31672
2.30694
2.29228
2.27273
2.25318
2.21408
2.21408
2.13587
2.08700
2.04301
1.99413
1.95992
1.90616
1.87195
1.83284
1.80352
1.78397
1.75953
1.73998
1.73021
1.71065
1.69599
1.67644
1.64712
1.62268
1.60313
1.55914
1.53470
1.52493
1.45650
1.41740
1.41740
1.34897
1.30987
1.30987
1.24633
1.21212
1.17791
1.14858
1.11926
1.08504
1.06061
1.03617
1.00196
0.97263
0.95797
0.92375
0.90420
0.88954
0.85533
0.84066
0.83089
0.81623
0.83578
0.86510
0.91887
0.99707
1.09482
1.20235
1.32454
1.44184
1.55914
1.66178
1.74487
1.80841
1.85728
1.89150
1.91105
1.92571
1.93060
1.92571
1.92082
1.95015
1.91105
1.90127
1.91593
1.87683
1.85728
1.83773
1.80841
1.78397
1.73998
1.70088
1.68622
1.62268
1.58358
1.56403
1.51515
1.48583
1.50538
1.44673
1.42717
1.45161
1.40274
1.38807
1.37830
1.35875
1.34409
1.31476
1.29521
1.27077
1.24145
1.21212
1.19746
1.15347
1.11926
1.09971
1.06061
1.03128
1.02151
0.97263
0.94330
0.94330
0.89932
0.87977
0.86022
0.82600
0.80156
0.80156
0.76246
0.74291
0.73314
0.69892
0.68426
0.66960
0.65494
0.65982
0.65982
0.67937
0.73803
0.78690
0.86022
0.97263
1.04106
1.13392
1.22190
1.30499
1.37830
1.43206
1.47116
1.51026
1.52493
1.53959
1.54936
1.54936
1.54936
1.55425
1.54936
1.54936
1.56403
1.54448
1.53470
1.53470
1.51026
1.49071
1.47116
1.43695
1.40762
1.39785
1.35875
1.33431
1.34897
1.30499
1.29521
1.28543
1.28055
1.27077
1.26588
1.26100
1.25611
1.24145
1.22678
1.21701
1.19746
1.17791
1.17302
1.13881
1.11437
1.08993
1.07038
1.05572
1.02151
1.00196
0.99218
0.96285
0.93842
0.92375
0.89932
0.87977
0.86510
0.84555
0.83089
0.80645
0.78690
0.77713
0.75758
0.73803
0.72825
0.70870
0.70381
0.71848
0.69892
0.71848
0.74780
0.78690
0.85533
0.91398
0.98240
1.08016
1.11926
1.18768
1.23167
1.28055
1.30987
1.33431
1.35875
1.35875
1.36852
1.36364
1.36852
1.36364
1.36364
1.36364
1.35386
1.34409
1.34897
1.31965
1.30499
1.28543
1.27077
1.24633
1.23167
1.22190
1.20723
1.20235
1.19257
1.18768
1.18280
1.18768
1.18280
1.17791
1.17791
1.17302
1.17302
1.15836
1.14369
1.13881
1.12414
1.10948
1.09482
1.07527
1.06061
1.04106
1.02151
1.00684
0.98729
0.97263
0.95797
0.94330
0.92864
0.91398
0.89932
0.88465
0.86999
0.88954
0.84066
0.82600
0.84066
0.79668
0.78201
0.79668
0.75758
0.74780
0.78201
0.75758
0.77224
0.83089
0.85044
0.89932
0.97752
1.02639
1.09482
1.16813
1.21701
1.26588
1.31476
1.34409
1.37341
1.39296
1.40274
1.41251
1.42229
1.42229
1.42717
1.43206
1.43695
1.43206
1.42717
1.46139
1.41740
1.40762
1.41740
1.37830
1.35875
1.36852
1.32454
1.30987
1.31476
1.28543
1.28055
1.28055
1.26588
1.26100
1.26588
1.25122
1.24633
1.24145
1.23167
1.21701
1.21212
1.18768
1.17302
1.16325
1.14369
1.12414
1.10459
1.08504
1.06549
1.04594
1.06061
1.01662
0.99707
1.01662
0.97263
0.96285
0.96285
0.93353
0.92375
0.91887
0.90420
0.88954
0.88465
0.86999
0.86022
0.85044
0.84066
0.82600
0.82600
0.81623
0.81134
0.81623
0.82600
0.85044
0.88465
0.93353
0.98240
1.03617
1.12903
1.15836
1.21212
1.29521
1.30987
1.34897
1.39296
1.39785
1.41251
1.44184
1.45161
1.46139
1.48094
1.48583
1.49560
1.51026
1.51515
1.52004
1.52981
1.52493
1.52004
1.51515
1.50049
1.49071
1.47605
1.47116
1.44673
1.43695
1.46628
1.42229
1.41740
1.43206
1.40762
1.40762
1.41251
1.39296
1.39296
1.38807
1.37341
1.36364
1.35875
1.34409
1.32942
1.31476
1.30010
1.28543
1.27077
1.25122
1.23656
1.22190
1.24145
1.19257
1.17302
1.19257
1.15347
1.13881
1.14369
1.11437
1.09971
1.09971
1.07527
1.06061
1.05572
1.04106
1.03128
1.02639
1.01173
1.00196
0.99707
0.98240
0.97263
0.96774
0.95797
0.95797
0.95797
1.00684
1.00196
1.04594
1.11926
1.14369
1.19746
1.28543
1.31476
1.36364
1.42229
1.44673
1.48094
1.51515
1.52981
1.54936
1.56891
1.58358
1.59335
1.61290
1.62268
1.63734
1.65200
1.66178
1.67155
1.67644
1.67644
1.67155
1.67155
1.65689
1.64712
1.64223
1.63245
1.62268
1.64712
1.60802
1.60802
1.60802
1.61290
1.60313
1.60802
1.60802
1.60313
1.59824
1.59824
1.58847
1.58847
1.56891
1.55914
1.55425
1.53470
1.52493
1.52981
1.49560
1.48094
1.48094
1.45161
1.43206
1.42717
1.40274
1.39296
1.38319
1.36852
1.35386
1.34897
1.33431
1.31965
1.31476
1.30010
1.28543
1.28055
1.26588
1.25611
1.25122
1.24145
1.22678
1.22190
1.24145
1.20723
1.19257
1.21701
1.17302
1.16813
1.17791
1.15347
1.14858
1.16325
1.14369
1.15347
1.17791
1.19746
1.23656
1.29032
1.33920
1.39785
1.46628
1.52004
1.57380
1.62757
1.66667
1.70088
1.73021
1.75464
1.77419
1.79374
1.80841
1.82796
1.83773
1.85239
1.86217
1.87195
1.88172
1.90127
1.89638
1.90127
1.92571
1.89638
1.88661
1.88172
1.87683
1.86706
1.88661
1.85239
1.84751
1.85239
1.85239
1.88172
1.85728
1.85728
1.86217
1.86217
1.86217
1.86217
1.85239
1.84751
1.84262
1.82307
1.81329
1.79863
1.78397
1.77908
1.75464
1.73998
1.73021
1.71065
1.69599
1.69599
1.66178
1.67644
1.63734
1.62757
1.60802
1.59335
1.57380
1.56403
1.55425
1.53470
1.52004
1.51515
1.49071
1.47605
1.47116
1.44673
1.43695
1.42229
1.40762
1.39785
1.38319
1.36852
1.36852
1.35386
1.34409
1.35875
1.36364
1.38807
1.41740
1.46628
1.51515
1.57869
1.63734
1.69110
1.74487
1.79863
1.85239
1.88172
1.91593
1.95503
1.95992
1.97458
1.98436
2.01369
2.00391
2.00880
2.01369
2.01857
2.02346
2.01857
2.01369
2.03324
1.99413
1.97947
1.96970
1.95992
1.94526
1.93548
1.92571
1.91593
1.91105
1.91105
1.91105
1.90616
1.90616
1.90616
1.90127
1.89638
1.89150
1.87195
1.86217
1.84751
1.82796
1.81329
1.79863
1.77908
1.75953
1.77419
1.72532
1.70577
1.68622
1.67155
1.64712
1.62757
1.60802
1.58847
1.57869
1.55425
1.53959
1.52981
1.50538
1.49071
1.48583
1.45650
1.44184
1.43206
1.41251
1.40274
1.40274
1.37341
1.35875
1.38319
1.33431
1.31965
1.30987
1.29521
1.29521
1.27077
1.25611
1.27566
1.24145
1.24145
1.24633
1.27566
1.31965
1.36364
1.42717
1.50538
1.57380
1.65689
1.73998
1.80352
1.87683
1.95992
1.98436
2.03324
2.06256
2.09189
2.14076
2.14076
2.16031
2.17986
2.18964
2.20430
2.21408
2.23363
2.24340
2.25318
2.27273
2.25806
2.25318
2.23851
2.22874
2.21408
2.20919
2.18475
2.17498
2.16031
2.15543
2.14565
2.13587
2.16031
2.12121
2.11632
2.13587
2.09677
2.08700
2.09189
2.05767
2.03812
2.03324
2.00391
1.97947
1.96481
1.93548
1.91105
1.88661
1.86217
1.83284
1.80841
1.78397
1.75953
1.73998
1.72532
1.69110
1.67155
1.66178
1.62757
1.61290
1.58847
1.56891
1.54936
1.52493
1.50538
1.49071
1.47116
1.45650
1.45161
1.42717
1.40762
1.42717
1.37830
1.35875
1.37830
1.33431
1.32454
1.30499
1.29032
1.29032
1.27077
1.26100
1.27077
1.27566
1.30010
1.34409
1.40274
1.48094
1.55425
1.64712
1.74976
1.83773
1.93548
2.03324
2.09189
2.16031
2.21408
2.25806
2.29717
2.31672
2.33627
2.35582
2.39980
2.38025
2.39980
2.40469
2.41935
2.42913
2.42913
2.42913
2.42424
2.41447
2.39980
2.38025
2.36070
2.33627
2.31672
2.32649
2.27761
2.26295
2.24829
2.23363
2.22874
2.24829
2.20430
2.19941
2.21896
2.17498
2.16520
2.17009
2.13099
2.11144
2.11144
2.06256
2.04790
2.01369
1.98436
1.95992
1.92571
1.89638
1.87195
1.83773
1.80841
1.81329
1.74976
1.72532
1.69599
1.67155
1.65200
1.62757
1.60313
1.59824
1.56403
1.54448
1.54448
1.50538
1.48583
1.48583
1.45161
1.43206
1.45161
1.40274
1.38807
1.37341
1.35875
1.34897
1.32942
1.31476
1.31476
1.28543
1.27566
1.30499
1.28055
1.31476
1.32942
1.37341
1.46139
1.52493
1.62268
1.72043
1.82307
1.93060
2.02835
2.11144
2.19941
2.24829
2.29717
2.35582
2.35582
2.39980
2.38025
2.39003
2.39003
2.39003
2.38514
2.38514
2.37537
2.36559
2.38025
2.33138
2.31672
2.29717
2.27273
2.24829
2.22874
2.20430
2.18964
2.19453
2.15543
2.15054
2.16031
2.14076
2.14076
2.14565
2.13587
2.13099
2.12610
2.10655
2.08700
2.07722
2.04790
2.02835
2.00880
1.97458
1.94526
1.91593
1.88661
1.86217
1.82796
1.80352
1.77908
1.74487
1.71554
1.70088
1.66178
1.63734
1.64712
1.58847
1.56891
1.53959
1.52004
1.50538
1.48094
1.45161
1.43695
1.41251
1.39296
1.39785
1.35875
1.33920
1.35386
1.30987
1.29032
1.27077
1.25611
1.27566
1.24633
1.26100
1.31965
1.33431
1.39296
1.49560
1.57869
1.68133
1.80352
1.90127
2.00391
2.09189
2.17009
2.23851
2.28250
2.31183
2.35093
2.34604
2.36070
2.34604
2.33627
2.32649
2.32160
2.30694
2.29717
2.28250
2.26784
2.24340
2.22385
2.19453
2.16520
2.14076
2.11144
2.09189
2.07234
2.04301
2.03324
2.02346
2.00880
2.00391
2.02835
1.98925
1.98436
1.96970
1.97947
1.95015
1.94037
1.91105
1.89150
1.86217
1.83773
1.83773
1.77908
1.74487
1.71554
1.68622
1.66178
1.63245
1.60802
1.58358
1.55425
1.52981
1.51026
1.48094
1.45161
1.46139
1.41251
1.38807
1.40274
1.35386
1.33431
1.30987
1.29032
1.27566
1.25611
1.24145
1.21701
1.20235
1.19257
1.16813
1.15347
1.16813
1.12414
1.11926
1.09971
1.09482
1.08993
1.09971
1.14369
1.18768
1.26588
1.36852
1.47605
1.60313
1.73021
1.86217
1.98436
2.09189
2.18475
2.26295
2.31183
2.35582
2.38025
2.39003
2.41447
2.39980
2.39980
2.39980
2.39980
2.39980
2.39492
2.39492
2.39003
2.38025
2.36559
2.35093
2.33138
2.34115
2.27761
2.25806
2.22385
2.19941
2.17009
2.14565
2.12610
2.11144
2.09677
2.08211
2.08700
2.06256
2.04790
2.03812
2.03324
1.99902
1.97947
1.95992
1.92571
1.89638
1.87195
1.83284
1.79863
1.76442
1.73021
1.70088
1.67155
1.64223
1.62268
1.58358
1.54936
1.54448
1.50049
1.47116
1.48583
1.42717
1.41251
1.38319
1.36364
1.36364
1.32942
1.30987
1.32942
1.28055
1.26100
1.24633
1.23167
1.24145
1.19257
1.17791
1.18768
1.14369
1.12414
1.14858
1.10459
1.10948
1.12414
1.15836
1.21701
1.29521
1.39785
1.51515
1.63734
1.76931
1.89638
2.00880
2.10655
2.18475
2.24340
2.29228
2.32160
2.33627
2.36070
2.35093
2.35582
2.34604
2.34604
2.34604
2.34115
2.33627
2.33138
2.32649
2.31672
2.30205
2.27761
2.25318
2.22385
2.19453
2.16031
2.13099
2.10655
2.07722
2.04790
2.03324
2.01369
1.99902
1.99902
1.97458
1.95992
1.96481
1.94037
1.92571
1.90616
1.88661
1.88172
1.83284
1.80841
1.77419
1.74487
1.71554
1.68133
1.65200
1.65689
1.59335
1.56403
1.57380
1.51026
1.48583
1.46139
1.44184
1.42229
1.39296
1.37341
1.36364
1.33920
1.31476
1.33431
1.28543
1.27077
1.28543
1.23656
1.22190
1.20723
1.19746
1.17302
1.15836
1.15347
1.13392
1.11926
1.14858
1.10459
1.11437
1.13392
1.16813
1.22678
1.30499
1.40762
1.52004
1.64712
1.77908
1.89150
2.00391
2.12610
2.17009
2.22385
2.28250
2.28250
2.30205
2.30205
2.30694
2.30694
2.30205
2.33138
2.29228
2.29228
2.28250
2.27273
2.25806
2.24340
2.21896
2.21408
2.17498
2.14565
2.12610
2.08211
2.06256
2.03812
2.01857
2.00391
1.99413
1.98925
1.98436
1.97458
1.97458
1.96970
1.95992
1.97947
1.94037
1.92082
1.89638
1.87683
1.85239
1.82307
1.82307
1.76442
1.73998
1.70577
1.67644
1.65689
1.62757
1.59824
1.58358
1.55425
1.52981
1.51515
1.49071
1.47605
1.45161
1.43206
1.44184
1.39296
1.37830
1.36852
1.34409
1.32942
1.30987
1.29521
1.28055
1.25611
1.23656
1.22190
1.20723
1.20235
1.19746
1.21212
1.25122
1.30499
1.38319
1.48583
1.58358
1.70088
1.81329
1.92082
2.02346
2.09677
2.16031
2.24340
2.23851
2.27273
2.26784
2.27761
2.26295
2.26295
2.24340
2.23851
2.21408
2.19941
2.18475
2.16031
2.14076
2.14565
2.08211
2.05279
2.02346
1.99413
1.96481
1.94526
1.94037
1.90616
1.92082
1.89150
1.88172
1.88172
1.87683
1.87683
1.89150
1.85728
1.84751
1.82796
1.80841
1.79863
1.75953
1.73509
1.70577
1.67644
1.67644
1.61779
1.59335
1.56403
1.53959
1.53470
1.48583
1.46139
1.43695
1.41251
1.42229
1.37341
1.35386
1.33431
1.31476
1.30987
1.28055
1.26100
1.24633
1.22678
1.21701
1.18768
1.17302
1.17791
1.13881
1.12414
1.10459
1.08993
1.11437
1.08504
1.10459
1.13881
1.20235
1.31476
1.37830
1.52004
1.61290
1.73021
1.87195
1.94037
2.02835
2.09677
2.14565
2.19941
2.20919
2.21896
2.25318
2.24829
2.23363
2.24340
2.22385
2.22385
2.21896
2.21896
2.20430
2.19941
2.17986
2.16520
2.13587
2.10655
2.07722
2.04790
2.00391
1.97458
1.97947
1.91593
1.89150
1.87683
1.86217
1.85239
1.83773
1.83773
1.81818
1.80841
1.78886
1.78397
1.74976
1.73021
1.70088
1.67155
1.64712
1.61290
1.58358
1.56403
1.52493
1.50049
1.47605
1.44184
1.41740
1.38319
1.35875
1.34409
1.31476
1.29521
1.27077
1.25122
1.23167
1.21212
1.19257
1.19257
1.15836
1.14369
1.12414
1.10948
1.11926
1.07527
1.05572
1.06549
1.02151
1.00684
0.99707
0.99218
0.99707
1.01173
1.04594
1.11926
1.17791
1.26588
1.36364
1.47116
1.57869
1.67155
1.75953
1.84262
1.89150
1.93548
1.99902
1.98436
2.00391
1.99902
2.00391
2.01857
2.01369
2.03324
2.01857
2.02835
2.02346
2.02346
2.02346
2.00391
1.98436
1.95992
1.93060
1.91105
1.87195
1.86706
1.81329
1.78886
1.77908
1.74487
1.73021
1.72043
1.71065
1.70088
1.68622
1.68133
1.66667
1.65200
1.63734
1.61779
1.59824
1.57869
1.56891
1.52981
1.50049
1.49560
1.45161
1.42717
1.39785
1.37341
1.35875
1.32454
1.30499
1.28055
1.26588
1.24145
1.21701
1.20723
1.17791
1.16325
1.14369
1.12903
1.12903
1.09971
1.08993
1.07038
1.06061
1.05083
1.03128
1.01662
1.01173
0.99218
0.97752
0.99218
0.94819
0.93842
0.95308
0.91887
0.91887
0.92375
0.94330
1.00684
1.04594
1.11926
1.20723
1.30499
1.40274
1.50049
1.59824
1.67644
1.73998
1.79374
1.84262
1.86706
1.88661
1.92082
1.91593
1.93060
1.93060
1.93548
1.97458
1.95015
1.95992
1.95992
1.95503
1.95503
1.93548
1.91593
1.89638
1.87195
1.87195
1.81818
1.79374
1.77419
1.74976
1.73509
1.72532
1.71554
1.71065
1.70088
1.69599
1.69110
1.68622
1.67155
1.66178
1.67155
1.63245
1.61779
1.59824
1.57380
1.57380
1.53470
1.54448
1.48583
1.46628
1.47116
1.41740
1.40762
1.37830
1.35386
1.34897
1.31965
1.30010
1.28543
1.27077
1.25611
1.23656
1.22678
1.24633
1.19746
1.18768
1.17302
1.15836
1.15836
1.13392
1.12414
1.10948
1.09482
1.08993
1.07527
1.06061
1.07527
1.03617
1.03128
1.02639
1.03617
1.08993
1.08993
1.13392
1.20235
1.28543
1.39296
1.46628
1.55425
1.64223
1.72043
1.81329
1.83773
1.90127
1.90127
1.92571
1.93060
1.94037
1.94037
1.94037
1.94037
1.94526
1.94037
1.94037
1.93548
1.92571
1.91105
1.89638
1.87195
1.84751
1.82307
1.79863
1.78886
1.75953
1.74487
1.76931
1.72532
1.72043
1.74976
1.71554
1.71065
1.74487
1.70577
1.72043
1.69110
1.69110
1.66178
1.67644
1.62268
1.60802
1.57869
1.54936
1.55914
1.50538
1.48583
1.49071
1.44184
1.42229
1.39785
1.37830
1.35386
1.33920
1.34409
1.30499
1.29032
1.30987
1.25611
1.24145
1.25611
1.21212
1.20235
1.18280
1.17302
1.16813
1.14858
1.13392
1.11926
1.10948
1.09971
1.08016
1.06549
1.06061
1.05572
1.07038
1.07038
1.09971
1.14369
1.19746
1.30987
1.36852
1.46628
1.56403
1.65689
1.74487
1.81818
1.90616
1.93548
1.97458
1.99902
2.01369
2.02346
2.03324
2.03812
2.04301
2.04790
2.05279
2.04790
2.04790
2.04301
2.03324
2.02346
2.01369
1.97947
1.95503
1.93060
1.90616
1.87683
1.85728
1.83284
1.82307
1.81329
1.80352
1.79374
1.79374
1.77908
1.77908
1.76442
1.75953
1.74487
1.72532
1.71554
1.69599
1.67155
1.66178
1.62268
1.59335
1.56891
1.54448
1.53959
1.50049
1.47605
1.45650
1.43206
1.43695
1.38807
1.36852
1.34409
1.32454
1.30987
1.29032
1.27077
1.25611
1.24145
1.22678
1.21212
1.19746
1.19746
1.17302
1.16325
1.15836
1.12903
1.12414
1.10459
1.08993
1.08993
1.06549
1.05572
1.04106
1.03128
1.03128
1.02639
1.04106
1.07038
1.11437
1.21701
1.25611
1.36364
1.46139
1.56891
1.67155
1.77419
1.88172
1.94526
2.00880
2.05767
2.09677
2.15543
2.14076
2.16031
2.17009
2.17498
2.19453
2.19453
2.19941
2.20919
2.21408
2.21408
2.20919
2.19941
2.17986
2.16031
2.13587
2.10655
2.07722
2.05279
2.01857
1.99413
1.96970
1.95015
1.93548
1.92082
1.90616
1.89638
1.88661
1.87683
1.86217
1.84262
1.86217
1.80841
1.78886
1.75953
1.73509
1.71065
1.68133
1.66178
1.62757
1.59824
1.56891
1.53959
1.51515
1.49071
1.47605
1.44184
1.42229
1.39785
1.37341
1.35875
1.33431
1.30987
1.31476
1.27566
1.25611
1.27566
1.22678
1.21212
1.19257
1.17302
1.16813
1.14369
1.12414
1.11437
1.09971
1.08016
1.06549
1.05572
1.04106
1.02639
1.05083
1.01173
1.02151
1.04106
1.08016
1.16813
1.20723
1.29032
1.38319
1.48583
1.59335
1.68133
1.76931
1.84262
1.90127
1.95015
1.98436
2.01369
2.02346
2.03324
2.03812
2.05279
2.04790
2.05279
2.05767
2.05767
2.05767
2.05279
2.04790
2.06745
2.03812
2.00880
1.97458
1.94526
1.91593
1.89150
1.86706
1.85239
1.82796
1.80841
1.79863
1.77908
1.77419
1.75953
1.75464
1.74487
1.73998
1.72043
1.72043
1.68622
1.66667
1.67155
1.62268
1.59335
1.56891
1.54936
1.53470
1.49560
1.47116
1.45161
1.42229
1.39785
1.40762
1.34897
1.33431
1.30987
1.29032
1.27077
1.25122
1.23656
1.21701
1.20235
1.18280
1.16813
1.15836
1.13881
1.11926
1.13881
1.08993
1.08016
1.07038
1.05572
1.08016
1.03128
1.02151
1.00684
0.99707
0.99218
0.98240
0.98729
0.98729
1.00196
1.06061
1.09482
1.18280
1.24145
1.32942
1.42229
1.51515
1.59824
1.67644
1.74976
1.79863
1.84262
1.89638
1.89638
1.92082
1.92082
1.92571
1.93060
1.93060
1.96481
1.93060
1.93548
1.92571
1.91593
1.90616
1.89150
1.87683
1.85239
1.83284
1.81818
1.78886
1.76931
1.79374
1.74487
1.73509
1.74976
1.72043
1.71554
1.73021
1.70577
1.70088
1.72043
1.68133
1.67155
1.65689
1.63734
1.61779
1.61290
1.57380
1.55425
1.52493
1.50049
1.47605
1.45650
1.42717
1.40762
1.41251
1.36852
1.35386
1.32454
1.30987
1.30010
1.27077
1.25122
1.23167
1.22190
1.20235
1.18768
1.17791
1.15347
1.14369
1.12903
1.11437
1.12414
1.08504
1.07038
1.06549
1.04594
1.03617
1.02151
1.01662
1.02151
1.01173
1.03617
1.06061
1.09971
1.16325
1.23167
1.34897
1.39785
1.51026
1.56403
1.63734
1.70577
1.75464
1.79863
1.83284
1.84751
1.86706
1.87195
1.87683
1.87683
1.87683
1.87195
1.87683
1.87195
1.86706
1.85728
1.84751
1.83773
1.81818
1.79863
1.77908
1.75953
1.73998
1.72532
1.72043
1.69599
1.68622
1.68622
1.67155
1.66667
1.66667
1.65689
1.64712
1.65200
1.63245
1.62757
1.60802
1.58847
1.57380
1.55425
1.52981
1.51026
1.49071
1.49560
1.44673
1.42717
1.40274
1.38807
1.38319
1.34409
1.33431
1.30987
1.29032
1.29032
1.25611
1.26100
1.22678
1.21701
1.19746
1.18280
1.18280
1.15836
1.15347
1.13392
1.12414
1.11437
1.09971
1.09971
1.08016
1.06549
1.06061
1.05083
1.03617
1.02639
1.01662
1.01173
1.02639
1.02151
1.04106
1.07527
1.11926
1.19257
1.26588
1.35386
1.44673
1.54936
1.64223
1.75953
1.80352
1.87683
1.93060
1.97458
2.00880
2.05279
2.05279
2.06745
2.08211
2.09189
2.12610
2.11144
2.12121
2.13099
2.13587
2.15054
2.14565
2.16520
2.13099
2.11632
2.09677
2.08211
2.05767
2.07234
2.01857
2.00391
2.01369
1.97458
1.96481
1.97458
1.94526
1.93548
1.95015
1.91105
1.90127
1.90616
1.86706
1.84751
1.82796
1.80841
1.78397
1.75953
1.73509
1.70577
1.71065
1.65200
1.63245
1.60313
1.57869
1.55914
1.53470
1.53959
1.49071
1.47605
1.45161
1.43206
1.42229
1.40274
1.38807
1.36852
1.35386
1.35386
1.32454
1.30987
1.32454
1.28055
1.27077
1.25611
1.24633
1.26100
1.21701
1.20723
1.19257
1.17791
1.20723
1.16813
1.17791
1.17791
1.20235
1.23656
1.29521
1.36364
1.44673
1.53470
1.63245
1.73998
1.81818
1.90616
1.97458
2.03812
2.08211
2.12121
2.15054
2.17009
2.18475
2.19941
2.20919
2.21408
2.22874
2.23363
2.24340
2.24829
2.25318
2.24829
2.23851
2.23851
2.20919
2.18964
2.17009
2.14565
2.11632
2.09677
2.07234
2.05279
2.07234
2.02835
2.01857
2.03812
1.99902
1.99413
1.99413
1.96970
1.95992
1.94037
1.92571
1.90616
1.91105
1.85728
1.84262
1.80841
1.78397
1.75953
1.73509
1.71065
1.68622
1.66667
1.63734
1.62268
1.59335
1.57380
1.55425
1.53470
1.52981
1.50049
1.48583
1.48094
1.45161
1.43695
1.42229
1.40762
1.39296
1.37341
1.37830
1.34897
1.33431
1.34897
1.30499
1.29032
1.28055
1.26588
1.28543
1.24145
1.23656
1.23167
1.23656
1.28543
1.28543
1.35386
1.39785
1.48094
1.55914
1.64712
1.73998
1.82796
1.91105
1.97458
2.03324
2.08211
2.11144
2.13099
2.14565
2.15543
2.16031
2.16031
2.16520
2.16520
2.16520
2.17009
2.16520
2.16031
2.14565
2.16520
2.11144
2.11144
2.07234
2.05279
2.02835
2.03324
1.99413
1.97947
1.97947
1.95992
1.95503
1.95992
1.94526
1.94037
1.94037
1.92571
1.91593
1.91593
1.88661
1.86706
1.84751
1.82307
1.79863
1.77419
1.74976
1.74487
1.70088
1.68133
1.65200
1.63245
1.60313
1.57869
1.57380
1.54448
1.52493
1.52004
1.49071
1.47116
1.49560
1.44184
1.42717
1.41251
1.39785
1.38319
1.36364
1.35386
1.32942
1.31965
1.30010
1.28543
1.29032
1.26100
1.25122
1.23656
1.22678
1.23656
1.23656
1.25611
1.28543
1.34897
1.40274
1.47605
1.56403
1.65689
1.74487
1.82796
1.89638
1.95992
2.01369
2.05279
2.11632
2.10166
2.12121
2.11632
2.12121
2.12121
2.12121
2.12121
2.11632
2.11632
2.11632
2.11144
2.10166
2.08211
2.07722
2.03812
2.01857
1.99413
1.96970
1.95503
1.94526
1.92082
1.90616
1.91105
1.89150
1.88661
1.88172
1.87683
1.87195
1.85728
1.84751
1.83284
1.84751
1.79374
1.78397
1.73998
1.73998
1.69110
1.67155
1.63734
1.61779
1.58847
1.56891
1.54448
1.51515
1.49560
1.47605
1.45161
1.43206
1.44184
1.39296
1.37830
1.35875
1.33920
1.32454
1.30987
1.30499
1.28055
1.27077
1.28055
1.23656
1.22190
1.21212
1.19257
1.19257
1.16813
1.15347
1.15347
1.12903
1.11926
1.10459
1.09971
1.12903
1.09971
1.12903
1.15347
1.20723
1.27566
1.35386
1.46628
1.54936
1.65200
1.75464
1.84262
1.94526
1.98925
2.04790
2.08700
2.12121
2.17498
2.16031
2.20919
2.18964
2.19453
2.20430
2.21408
2.21896
2.25318
2.23363
2.23363
2.23363
2.22385
2.20430
2.19453
2.16031
2.13587
2.12121
2.09189
2.05767
2.04790
2.01369
1.99902
1.99902
1.96970
1.95992
1.98436
1.93548
1.92082
1.91105
1.92571
1.87195
1.85728
1.83284
1.80841
1.78886
1.75464
1.72532
1.73021
1.66667
1.64712
1.61290
1.58847
1.60313
1.54448
1.52493
1.49560
1.47605
1.45161
1.43206
1.44673
1.39296
1.38319
1.35875
1.33920
1.35875
1.30987
1.30010
1.28543
1.27077
1.25611
1.24145
1.23167
1.21701
1.21212
1.18768
1.17791
1.16325
1.15347
1.17302
1.12414
1.11437
1.09971
1.09482
1.09971
1.10459
1.13392
1.19746
1.23167
1.32454
1.39785
1.50538
1.60313
1.71065
1.80841
1.90127
2.00880
2.04301
2.10166
2.13099
2.17986
2.17498
2.18964
2.19941
2.20919
2.25318
2.22874
2.25318
2.24340
2.26295
2.25806
2.27761
2.24829
2.23851
2.21896
2.18964
2.16520
2.13587
2.10655
2.09189
2.05767
2.03324
2.01857
1.99413
1.97947
1.96481
1.95503
1.94037
1.93060
1.91593
1.90127
1.92082
1.86706
1.85239
1.82307
1.79863
1.76931
1.74487
1.73509
1.68622
1.66178
1.64712
1.60802
1.57869
1.55425
1.52981
1.51515
1.48583
1.46628
1.45650
1.42229
1.40274
1.38319
1.36364
1.35875
1.33431
1.32454
1.30499
1.29032
1.30010
1.26100
1.25122
1.23656
1.22190
1.24145
1.19746
1.18768
1.17302
1.16325
1.14858
1.12903
1.12414
1.10948
1.09482
1.12903
1.08993
1.09482
1.11926
1.15836
1.23656
1.28543
1.37830
1.47116
1.57869
1.68622
1.78886
1.88661
1.97458
2.07234
2.09677
2.15543
2.16520
2.19453
2.19941
2.21408
2.21896
2.22385
2.22385
2.26784
2.23851
2.24340
2.24829
2.24340
2.24829
2.22385
2.20430
2.17986
2.16031
2.12610
2.10166
2.07234
2.05279
2.05767
2.01369
1.99902
2.02346
1.97947
1.97458
1.99902
1.96481
1.95992
1.94526
1.94037
1.91593
1.92571
1.87683
1.88661
1.82307
1.80352
1.77419
1.74976
1.72043
1.69110
1.66667
1.64223
1.65200
1.59824
1.57380
1.55425
1.53959
1.51026
1.49560
1.47605
1.46139
1.44184
1.42717
1.44184
1.40274
1.38807
1.37341
1.35875
1.37830
1.32942
1.32942
1.30010
1.29032
1.27077
1.26100
1.27566
1.22678
1.21212
1.20235
1.19257
1.19257
1.18768
1.20235
1.26588
1.27566
1.36364
1.42717
1.52493
1.62268
1.72532
1.85239
1.91105
1.99413
2.05279
2.10655
2.13099
2.16520
2.16031
2.17986
2.17009
2.17009
2.15543
2.14565
2.14076
2.13099
2.12121
2.11144
2.09189
2.08211
2.05767
2.02835
1.99902
1.97458
1.95015
1.93548
1.91593
1.90127
1.89150
1.88172
1.88172
1.87683
1.88172
1.87683
1.87195
1.86706
1.85728
1.84751
1.82796
1.84262
1.79374
1.77419
1.74487
1.72043
1.69110
1.66178
1.64223
1.60802
1.58358
1.59335
1.53470
1.54448
1.49071
1.47116
1.45161
1.46628
1.41251
1.40274
1.37830
1.36852
1.34409
1.35386
1.31476
1.30010
1.29032
1.27566
1.26100
1.24145
1.22678
1.24145
1.19257
1.17791
1.15836
1.14369
1.13392
1.12414
1.12903
1.12903
1.15347
1.18768
1.24633
1.35386
1.40762
1.51026
1.62268
1.74487
1.83773
1.93548
2.01857
2.08700
2.13587
2.17009
2.18964
2.19941
2.20430
2.20430
2.23363
2.19941
2.19453
2.18964
2.19453
2.17986
2.17009
2.15543
2.14076
2.11632
2.08700
2.06745
2.03324
2.00880
1.98436
1.96481
1.94526
1.92571
1.92571
1.90616
1.90616
1.89150
1.88661
1.88172
1.87683
1.86706
1.85239
1.83284
1.81329
1.78886
1.76931
1.73998
1.71554
1.68622
1.65689
1.65200
1.60313
1.57869
1.54936
1.52493
1.50049
1.48583
1.45161
1.43206
1.44184
1.38807
1.37341
1.34897
1.32942
1.33920
1.29521
1.27566
1.26100
1.25122
1.23167
1.21701
1.20723
1.19257
1.19746
1.15836
1.15836
1.12903
1.14858
1.09971
1.10948
1.08016
1.07527
1.07038
1.08504
1.10459
1.15347
1.21212
1.29521
1.40274
1.50538
1.62268
1.73998
1.85239
1.97458
2.03324
2.09677
2.14565
2.17498
2.19453
2.20919
2.22385
2.24340
2.25318
2.22385
2.22385
2.22385
2.23363
2.22874
2.25806
2.21896
2.20430
2.18964
2.17009
2.14076
2.11144
2.08211
2.04790
2.03324
1.98436
1.95992
1.95992
1.92082
1.90616
1.89150
1.88172
1.86706
1.87195
1.84262
1.83284
1.80352
1.79374
1.75464
1.73998
1.70577
1.67644
1.65200
1.61779
1.58847
1.55914
1.52981
1.49560
1.47116
1.44184
1.41251
1.42229
1.36364
1.34897
1.31476
1.29032
1.27077
1.25122
1.22678
1.21212
1.19257
1.17791
1.15836
1.14369
1.13392
1.10948
1.09482
1.07527
1.05572
1.03617
1.02151
1.00196
0.98729
0.97752
0.96285
0.96285
0.97263
1.00196
1.03128
1.10948
1.16813
1.25611
1.34897
1.45161
1.53959
1.62757
1.69599
1.75464
1.82796
1.84262
1.87195
1.88172
1.89150
1.89150
1.89638
1.89150
1.89150
1.88661
1.88661
1.88661
1.88661
1.89638
1.86706
1.85239
1.83284
1.80841
1.78397
1.78397
1.72532
1.70088
1.71065
1.65689
1.64223
1.62268
1.61290
1.59824
1.58847
1.57869
1.57380
1.55914
1.54936
1.53470
1.52004
1.51026
1.48094
1.46628
1.44184
1.41740
1.39296
1.36852
1.37830
1.32454
1.30010
1.27566
1.25122
1.23167
1.20723
1.20723
1.16813
1.15347
1.13392
1.12414
1.09971
1.08504
1.06549
1.07038
1.03617
1.02639
1.01173
0.99707
0.97752
0.96285
0.97263
0.93842
0.92864
0.94330
0.89443
0.90420
0.87977
0.89932
0.87488
0.88954
0.90420
0.94330
0.98729
1.06549
1.11926
1.19746
1.26588
1.34409
1.40762
1.46139
1.50538
1.54448
1.56891
1.59335
1.61290
1.61779
1.62268
1.62268
1.64223
1.62757
1.62268
1.62757
1.62757
1.61779
1.61779
1.60313
1.58847
1.56891
1.56891
1.53959
1.54936
1.51026
1.49560
1.49071
1.47605
1.47116
1.47116
1.46628
1.46628
1.46139
1.45650
1.45161
1.44184
1.45161
1.42229
1.41740
1.39785
1.38319
1.36364
1.34897
1.32454
1.30499
1.28543
1.26588
1.25122
1.23167
1.24145
1.19746
1.18768
1.16325
1.15347
1.13392
1.11926
1.10948
1.12414
1.07527
1.06549
1.06061
1.03617
1.02639
1.02151
1.00196
1.00196
0.97752
0.96774
0.95308
0.94330
0.93353
0.92864
0.92864
0.93842
0.95308
0.97263
1.00196
1.05083
1.10948
1.16813
1.23167
1.30010
1.35386
1.41740
1.46139
1.50538
1.53470
1.55914
1.60802
1.58358
1.59335
1.63734
1.60802
1.61290
1.61290
1.61779
1.62757
1.62268
1.61290
1.62268
1.60313
1.58847
1.61779
1.56891
1.55425
1.56403
1.52981
1.52004
1.54448
1.51026
1.50049
1.52493
1.49071
1.49071
1.50049
1.48094
1.47605
1.49560
1.46139
1.45161
1.46139
1.42717
1.41251
1.43206
1.38319
1.36852
1.38319
1.33920
1.31965
1.31965
1.29032
1.28055
1.26100
1.25122
1.23656
1.22190
1.21212
1.21212
1.18280
1.17302
1.17791
1.15347
1.13881
1.14858
1.12903
1.11926
1.13392
1.10459
1.09482
1.09971
1.07527
1.06549
1.08016
1.05083
1.03617
1.03617
1.03128
1.02639
1.03128
1.04594
1.07038
1.10459
1.14858
1.20723
1.26588
1.33431
1.40274
1.47116
1.52981
1.58358
1.66667
1.67644
1.70577
1.75464
1.75953
1.77419
1.80841
1.80352
1.81329
1.82307
1.83284
1.84262
1.85239
1.86217
1.86706
1.86706
1.87195
1.86217
1.85239
1.84262
1.83773
1.82307
1.80352
1.79374
1.78397
1.77908
1.76931
1.76442
1.75953
1.75464
1.74487
1.73998
1.73509
1.72532
1.72043
1.71065
1.69110
1.67644
1.66667
1.64712
1.63245
1.63734
1.59824
1.58358
1.56403
1.54936
1.52981
1.54936
1.50049
1.50049
1.46139
1.46139
1.43206
1.41740
1.40274
1.40762
1.37341
1.37341
1.35386
1.37341
1.33431
1.32942
1.30987
1.30010
1.28543
1.27566
1.26588
1.25611
1.25611
1.23656
1.23167
1.21212
1.24145
1.19746
1.20723
1.19257
1.22190
1.21701
1.26588
1.28055
1.33431
1.38807
1.45650
1.52981
1.59335
1.66178
1.72043
1.77419
1.82307
1.86217
1.89150
1.94037
1.94037
1.95503
1.96970
2.01857
1.99413
2.00880
2.01857
2.02835
2.03812
2.03812
2.04301
2.07722
2.04301
2.03324
2.02346
2.00880
1.99902
1.98436
1.96970
1.95503
1.95015
1.94037
1.94037
1.92571
1.91593
1.94526
1.90616
1.89638
1.91105
1.88661
1.87195
1.89150
1.84751
1.83284
1.83284
1.80352
1.79374
1.76442
1.77908
1.72532
1.71065
1.69599
1.68133
1.66178
1.67644
1.62268
1.60802
1.59335
1.57869
1.55914
1.54448
1.53470
1.52493
1.51026
1.49560
1.48094
1.47116
1.49071
1.44673
1.44184
1.42229
1.41251
1.43695
1.39296
1.39785
1.37341
1.36852
1.35386
1.35875
1.33431
1.32942
1.32942
1.32454
1.32942
1.35386
1.38807
1.42229
1.48583
1.53959
1.62757
1.67644
1.75464
1.81818
1.88661
1.94037
1.99413
2.03812
2.08211
2.09677
2.11632
2.13099
2.14565
2.15543
2.16031
2.17498
2.17986
2.17986
2.18475
2.18964
2.19941
2.17498
2.17009
2.16520
2.14076
2.13099
2.11632
2.10166
2.08700
2.07722
2.06745
2.06256
2.05767
2.05279
2.05279
2.06256
2.04790
2.04301
2.06745
2.02346
2.01369
2.02835
1.97947
1.95992
1.95992
1.92571
1.90616
1.88172
1.87683
1.84262
1.81818
1.79863
1.78397
1.76442
1.73998
1.72532
1.70088
1.71554
1.66178
1.67644
1.62757
1.61779
1.59335
1.57380
1.55914
1.54448
1.52493
1.52004
1.49071
1.48583
1.46628
1.44673
1.43206
1.42229
1.40274
1.40762
1.38319
1.37830
1.37341
1.38807
1.41251
1.43695
1.49071
1.54936
1.61779
1.69599
1.77419
1.85728
1.92571
1.99413
2.04790
2.10166
2.13099
2.16520
2.17986
2.18964
2.19453
2.19941
2.19941
2.19453
2.22385
2.19941
2.17986
2.17009
2.15543
2.14076
2.12610
2.10655
2.08211
2.06256
2.04790
2.02346
2.00880
2.02835
1.98925
1.98436
1.99902
1.96970
1.96481
1.97947
1.95015
1.94526
1.93060
1.91593
1.90127
1.88661
1.86217
1.83773
1.84751
1.79374
1.77908
1.74487
1.72532
1.70088
1.68133
1.65200
1.62757
1.64223
1.58358
1.56403
1.54448
1.52981
1.51026
1.49071
1.47605
1.46139
1.44673
1.42717
1.41251
1.39785
1.38807
1.36364
1.36364
1.33920
1.32942
1.31476
1.30010
1.28543
1.27077
1.26100
1.25122
1.24145
1.23656
1.24145
1.26100
1.29032
1.33431
1.40274
1.49560
1.57869
1.67644
1.77908
1.89638
1.97947
2.10166
2.14076
2.22385
2.25318
2.32160
2.32160
2.34115
2.35093
2.36559
2.37537
2.38514
2.39003
2.39980
2.40469
2.41935
2.41447
2.39980
2.39003
2.37537
2.36070
2.33627
2.31183
2.28739
2.26295
2.26295
2.21896
2.19941
2.20919
2.16031
2.15054
2.16520
2.12610
2.11144
2.11144
2.08700
2.09677
2.05279
2.03324
2.00880
1.97947
1.95015
1.92082
1.89638
1.86217
1.83284
1.81329
1.77419
1.74976
1.71554
1.69110
1.66178
1.63734
1.61290
1.58358
1.56403
1.53959
1.52004
1.50049
1.48094
1.46139
1.44184
1.46139
1.40762
1.39785
1.37341
1.38319
1.34409
1.32942
1.30987
1.29521
1.27566
1.26100
1.24633
1.23167
1.22678
1.22678
1.22678
1.24633
1.28543
1.34897
1.43206
1.52004
1.62757
1.73998
1.85239
1.96481
2.06256
2.15054
2.22385
2.27761
2.31672
2.34115
2.38025
2.37048
2.37537
2.38514
2.37537
2.39980
2.38025
2.38025
2.38514
2.38025
2.37537
2.36070
2.35093
2.32649
2.30205
2.27273
2.23851
2.20430
2.17009
2.15054
2.11632
2.09677
2.09189
2.05767
2.04301
2.02835
2.01857
2.01369
1.99413
1.97947
1.95992
1.96970
1.91593
1.89150
1.86217
1.84262
1.80352
1.77908
1.74487
1.71554
1.68622
1.66178
1.63245
1.60313
1.57380
1.54936
1.52493
1.50049
1.48094
1.46139
1.43695
1.43206
1.40762
1.38807
1.38319
1.35386
1.34897
1.32454
1.31965
1.30010
1.29521
1.27077
1.26100
1.24145
1.22678
1.21212
1.20235
1.18280
1.17302
1.17302
1.14858
1.14858
1.14858
1.16813
1.19746
1.25122
1.32454
1.41740
1.52493
1.64223
1.75953
1.87683
1.97947
2.07234
2.15054
2.20919
2.24829
2.27273
2.28739
2.32160
2.29717
2.28739
2.28739
2.29228
2.27273
2.27273
2.27273
2.30205
2.25806
2.24340
2.22385
2.20430
2.17498
2.15054
2.12121
2.09677
2.07234
2.04790
2.03324
2.01857
1.99902
1.98925
1.98436
1.98436
1.97947
2.00391
1.95992
1.95015
1.93060
1.91593
1.89150
1.87195
1.84262
1.81818
1.78886
1.76442
1.73509
1.70088
1.68133
1.64712
1.62268
1.59335
1.56891
1.57869
1.52493
1.52493
1.48583
1.46139
1.44673
1.42717
1.40762
1.40274
1.37341
1.35386
1.33920
1.31476
1.30010
1.27566
1.27566
1.24633
1.23656
1.20723
1.19257
1.20723
1.16325
1.15836
1.15836
1.16813
1.18768
1.24145
1.30499
1.38807
1.48583
1.59824
1.71065
1.82796
1.92082
2.00880
2.08211
2.12610
2.16031
2.17986
2.18964
2.18475
2.18475
2.18475
2.18964
2.14565
2.12610
2.11144
2.11144
2.07234
2.04790
2.05279
1.99902
1.99413
1.94037
1.90616
1.88172
1.85728
1.83284
1.82796
1.80352
1.79374
1.78886
1.78397
1.78397
1.77908
1.78397
1.76931
1.75953
1.74487
1.73021
1.73998
1.68622
1.66667
1.64223
1.61290
1.58847
1.56403
1.56891
1.51026
1.49071
1.46139
1.47116
1.41740
1.42229
1.37341
1.34897
1.34409
1.31476
1.30010
1.27566
1.25611
1.25611
1.22678
1.20723
1.19257
1.17791
1.16325
1.14858
1.13392
1.12903
1.10948
1.09971
1.08016
1.07038
1.05572
1.05083
1.03617
1.04106
1.03617
1.05572
1.09482
1.18768
1.24633
1.35386
1.46628
1.59824
1.73021
1.86217
1.97947
2.08211
2.15543
2.21408
2.26295
2.28250
2.30205
2.32160
2.30694
2.29717
2.29717
2.29228
2.29228
2.29228
2.28739
2.28250
2.27761
2.26784
2.24829
2.22874
2.19453
2.17009
2.13587
2.10655
2.08211
2.04301
2.01857
1.99413
1.96970
1.96481
1.94037
1.92571
1.91105
1.90616
1.88661
1.87195
1.86217
1.83773
1.82307
1.79374
1.79374
1.73998
1.71065
1.68622
1.65200
1.62268
1.58847
1.56403
1.53470
1.50538
1.47605
1.46139
1.42717
1.42229
1.38319
1.39296
1.33431
1.31965
1.30010
1.28543
1.27077
1.24633
1.22678
1.21701
1.19746
1.20235
1.16813
1.18280
1.13881
1.12903
1.11926
1.09971
1.08504
1.06549
1.05572
1.04594
1.04594
1.05083
1.09482
1.11926
1.21701
1.28543
1.41251
1.52493
1.65689
1.78886
1.92082
2.02346
2.11632
2.19453
2.24829
2.28739
2.30694
2.32160
2.33627
2.34115
2.32160
2.31183
2.31183
2.30205
2.29717
2.29228
2.28250
2.27761
2.26295
2.24340
2.21408
2.18475
2.15543
2.13587
2.09189
2.06256
2.03324
2.00391
1.97947
1.95503
1.93548
1.93548
1.90616
1.89638
1.88661
1.87683
1.86217
1.84262
1.82307
1.80352
1.77908
1.75464
1.72532
1.72532
1.66667
1.63734
1.60313
1.61290
1.54936
1.52493
1.50049
1.48094
1.44673
1.42229
1.40274
1.37830
1.35386
1.33920
1.31965
1.30010
1.28543
1.27077
1.25122
1.23656
1.22190
1.20723
1.21701
1.17791
1.16813
1.15836
1.13881
1.12903
1.11437
1.10459
1.08993
1.07527
1.07038
1.06061
1.06061
1.07038
1.09971
1.14858
1.22678
1.31965
1.43695
1.56403
1.72532
1.83284
1.99413
2.07234
2.17498
2.22874
2.28250
2.31672
2.34115
2.34604
2.34604
2.34115
2.33138
2.32160
2.31672
2.30694
2.30205
2.28739
2.31672
2.27273
2.24829
2.22385
2.19453
2.17009
2.13587
2.10655
2.07722
2.05767
2.01857
2.00391
1.97947
1.96481
1.98436
1.95015
1.94526
1.93548
1.93060
1.91593
1.90127
1.88661
1.86706
1.84751
1.82307
1.80352
1.76931
1.74487
1.71554
1.68133
1.65200
1.65689
1.60313
1.57380
1.55914
1.52004
1.52004
1.47605
1.45161
1.43695
1.41740
1.42229
1.38319
1.36852
1.34897
1.32942
1.33920
1.29521
1.29032
1.26588
1.27077
1.23167
1.22678
1.20235
1.18768
1.17302
1.15836
1.14858
1.15347
1.15836
1.18280
1.23656
1.30987
1.43206
1.51026
1.63245
1.75953
1.88172
1.99413
2.08700
2.16031
2.21408
2.28739
2.27761
2.28250
2.29228
2.29228
2.26784
2.24340
2.22874
2.20919
2.20430
2.17986
2.16520
2.09677
2.06745
2.03812
1.99902
1.95992
1.95015
1.89638
1.86706
1.84751
1.85728
1.81329
1.80352
1.79863
1.78886
1.79374
1.78886
1.79374
1.77419
1.79863
1.75464
1.73998
1.72532
1.69110
1.67644
1.64712
1.62268
1.58847
1.56403
1.55425
1.50049
1.47605
1.45161
1.43206
1.40274
1.38319
1.35875
1.33431
1.31476
1.30010
1.28055
1.25611
1.24145
1.23167
1.20723
1.19257
1.17791
1.16325
1.14858
1.13392
1.11437
1.10459
1.08504
1.07038
1.05572
1.05083
1.04106
1.03617
1.03617
1.05572
1.09971
1.15836
1.24633
1.35386
1.49071
1.63245
1.78886
1.92082
2.04301
2.16031
2.24829
2.32649
2.36559
2.39492
2.40958
2.45357
2.41935
2.41447
2.39980
2.39492
2.38514
2.37537
2.36559
2.35093
2.33627
2.32160
2.30205
2.27761
2.24829
2.20919
2.17498
2.14565
2.14076
2.07722
2.06256
2.02835
2.00880
1.99902
2.00391
1.95992
1.97458
1.94037
1.92571
1.91593
1.89638
1.87683
1.85728
1.86217
1.80352
1.76931
1.73998
1.70577
1.67644
1.64712
1.65200
1.58847
1.57380
1.52981
1.49560
1.49560
1.44673
1.42229
1.39785
1.37830
1.35386
1.33431
1.32454
1.30499
1.28543
1.30010
1.25122
1.23656
1.20723
1.20723
1.17791
1.16325
1.14369
1.12903
1.10948
1.11437
1.08016
1.09971
1.07038
1.11437
1.11437
1.17302
1.25611
1.36364
1.49071
1.64223
1.77419
1.92082
2.05279
2.17009
2.25318
2.32160
2.37537
2.40958
2.43402
2.44379
2.47312
2.44868
2.44379
2.43402
2.43402
2.41935
2.44379
2.40469
2.39492
2.41447
2.36559
2.33627
2.33627
2.27761
2.24340
2.21896
2.17009
2.13587
2.09677
2.06745
2.05279
2.02346
1.99902
1.98925
1.96970
1.98925
1.95015
1.93060
1.91593
1.89150
1.91105
1.84751
1.82307
1.82796
1.76442
1.74487
1.70088
1.66667
1.65200
1.60313
1.58847
1.54448
1.52004
1.48583
1.46628
1.43206
1.40762
1.38319
1.36364
1.33920
1.31965
1.29521
1.28055
1.26100
1.24145
1.23167
1.21701
1.19746
1.18280
1.16813
1.15347
1.13881
1.11926
1.13881
1.09482
1.08504
1.07527
1.08016
1.08504
1.11437
1.16813
1.25122
1.35386
1.48094
1.62757
1.76442
1.93548
2.03324
2.14565
2.23851
2.31183
2.36559
2.39980
2.42913
2.43402
2.43891
2.43891
2.42913
2.42424
2.40958
2.40958
2.39492
2.38514
2.37048
2.35093
2.33138
2.31183
2.28250
2.25318
2.21408
2.20919
2.14076
2.11144
2.11144
2.05279
2.03324
2.01857
2.00880
1.99902
1.98925
1.97947
1.96970
1.95503
1.94526
1.92082
1.90127
1.87683
1.85239
1.86217
1.79863
1.76931
1.73998
1.70577
1.70577
1.64223
1.61779
1.59335
1.56403
1.53959
1.52004
1.50538
1.47605
1.48583
1.44184
1.42229
1.40762
1.38319
1.40274
1.34897
1.32942
1.30987
1.29032
1.28055
1.25122
1.23656
1.22678
1.20235
1.19257
1.18280
1.18768
1.19746
1.23656
1.30010
1.39296
1.49560
1.63734
1.74487
1.87195
1.99413
2.13099
2.18964
2.26295
2.31183
2.34604
2.36559
2.37048
2.36559
2.35093
2.34115
2.31183
2.29717
2.26784
2.24340
2.21408
2.18475
2.15054
2.11144
2.07234
2.03324
2.00880
1.95503
1.92571
1.89638
1.91105
1.85728
1.86217
1.83773
1.84262
1.82796
1.82307
1.82796
1.80841
1.80352
1.78397
1.76931
1.76442
1.72532
1.70577
1.67155
1.64223
1.61290
1.60802
1.54936
1.52004
1.49071
1.46139
1.44184
1.40762
1.38319
1.35875
1.36852
1.31965
1.32454
1.28055
1.27077
1.23656
1.22190
1.23167
1.18768
1.16813
1.15347
1.13392
1.12414
1.09971
1.11926
1.07038
1.06061
1.05083
1.05572
1.07527
1.11437
1.21701
1.27566
1.39785
1.53470
1.67644
1.85728
1.96970
2.09189
2.20430
2.28739
2.37048
2.39492
2.42913
2.44379
2.45357
2.44868
2.44379
2.43402
2.44379
2.41935
2.41935
2.39492
2.38025
2.36070
2.34115
2.31672
2.28250
2.24829
2.20919
2.17498
2.13587
2.11632
2.05767
2.02835
1.99902
1.97458
1.96481
1.94526
1.93548
1.92571
1.91105
1.91593
1.88172
1.86217
1.85239
1.81818
1.79863
1.76442
1.73998
1.69599
1.66667
1.63245
1.59824
1.56403
1.56891
1.50538
1.47605
1.45161
1.41740
1.39785
1.36852
1.36364
1.32454
1.30987
1.28543
1.29521
1.24633
1.23167
1.20723
1.19746
1.17302
1.16325
1.13881
1.15347
1.09971
1.11437
1.07038
1.08993
1.06061
1.10459
1.09971
1.15836
1.24145
1.35875
1.48094
1.61779
1.76442
1.90616
2.03812
2.15543
2.25318
2.32160
2.37537
2.41447
2.43402
2.47801
2.46823
2.45357
2.45357
2.44868
2.44868
2.43402
2.42424
2.41935
2.41447
2.39492
2.37048
2.34604
2.31183
2.27761
2.23851
2.19453
2.15054
2.14076
2.06745
2.05767
2.02835
1.97458
1.95503
1.94037
1.92571
1.92082
1.90127
1.92082
1.87195
1.85239
1.83284
1.80352
1.77419
1.74487
1.71554
1.68133
1.66178
1.62268
1.58847
1.56403
1.52004
1.48583
1.45650
1.43206
1.40274
1.37830
1.35386
1.32942
1.30499
1.28055
1.26588
1.23656
1.21701
1.19746
1.18768
1.16813
1.16325
1.12903
1.11437
1.09482
1.08016
1.06061
1.04594
1.02639
1.02151
1.01662
1.03617
1.06061
1.11437
1.18768
1.30010
1.42229
1.56403
1.74487
1.85728
1.98925
2.10166
2.19453
2.27273
2.33138
2.37048
2.39980
2.40958
2.41447
2.41447
2.40958
2.40469
2.39492
2.38514
2.38025
2.39492
2.35582
2.34115
2.32160
2.29717
2.26295
2.22385
2.17986
2.14076
2.12610
2.06256
2.02346
1.98925
1.96481
1.94526
1.92571
1.91105
1.93060
1.88661
1.88172
1.86706
1.85239
1.83773
1.81818
1.79863
1.76931
1.73998
1.70577
1.68622
1.64712
1.61290
1.57869
1.54936
1.52493
1.49560
1.46628
1.44184
1.41251
1.39296
1.39296
1.34897
1.35386
1.31476
1.29521
1.27566
1.28543
1.23167
1.21701
1.19746
1.17791
1.15836
1.13881
1.12414
1.09971
1.11437
1.07527
1.07038
1.10459
1.09482
1.14369
1.22678
1.30499
1.42229
1.55425
1.69110
1.82307
1.95015
2.06745
2.15543
2.23363
2.28250
2.34604
2.34115
2.34604
2.34604
2.33627
2.32160
2.30205
2.29228
2.26784
2.24829
2.22385
2.19941
2.16520
2.13099
2.12610
2.05767
2.01369
1.97458
1.93548
1.90127
1.86706
1.85239
1.83284
1.81818
1.80841
1.80352
1.79863
1.79374
1.78886
1.78397
1.76931
1.78397
1.73021
1.70577
1.67644
1.64712
1.61779
1.57869
1.57380
1.51515
1.49071
1.45650
1.46139
1.39785
1.37341
1.34897
1.31965
1.31965
1.27566
1.25122
1.23656
1.21701
1.19746
1.17302
1.15347
1.13392
1.11437
1.09482
1.08016
1.07038
1.04106
1.02639
1.02639
1.02639
1.04594
1.09482
1.16813
1.26588
1.38319
1.52004
1.67155
1.79863
1.96481
2.04790
2.14076
2.21896
2.27761
2.31672
2.34115
2.35582
2.35093
2.36559
2.33138
2.31183
2.29228
2.27273
2.25318
2.23851
2.21896
2.18964
2.16031
2.12610
2.08700
2.04301
2.00391
1.96481
1.92082
1.88661
1.85239
1.83284
1.81818
1.80352
1.77908
1.77419
1.75464
1.77419
1.73998
1.72532
1.74487
1.69599
1.68133
1.64223
1.64712
1.58358
1.54936
1.51515
1.48583
1.45161
1.42717
1.39296
1.36364
1.33431
1.33920
1.28055
1.29032
1.23167
1.20723
1.19257
1.16813
1.17791
1.13392
1.10948
1.08993
1.07038
1.08504
1.03128
1.01173
0.99707
0.98240
0.97752
0.96774
0.97752
1.00196
1.05572
1.13392
1.23656
1.36852
1.51026
1.68622
1.80352
1.94037
2.06745
2.16520
2.24829
2.30694
2.35093
2.38514
2.39492
2.39980
2.39980
2.41447
2.38514
2.38025
2.36070
2.35093
2.37537
2.32649
2.32649
2.31672
2.29228
2.21896
2.17986
2.14076
2.09677
2.04790
2.01369
1.96481
1.93548
1.90616
1.88172
1.85728
1.86217
1.81818
1.80352
1.78886
1.77419
1.75953
1.73998
1.72532
1.69599
1.67155
1.64223
1.60802
1.57869
1.54448
1.51026
1.47605
1.44184
1.40762
1.37830
1.35386
1.32942
1.29521
1.27566
1.24145
1.21701
1.23167
1.17791
1.15347
1.13392
1.10948
1.09482
1.08504
1.05572
1.03617
1.02639
1.00196
1.00196
0.96774
0.95797
0.96285
0.95797
1.00684
1.02151
1.08993
1.18768
1.31476
1.45161
1.60802
1.74976
1.88661
2.00880
2.11632
2.19941
2.29717
2.31183
2.37537
2.36559
2.37048
2.37048
2.37048
2.39492
2.35093
2.34115
2.34115
2.32160
2.31183
2.29717
2.27761
2.24829
2.21896
2.17498
2.13587
2.12121
2.04790
2.00880
2.00880
1.93548
1.90127
1.90616
1.85728
1.82796
1.81329
1.79863
1.78397
1.76931
1.78397
1.73509
1.73998
1.69110
1.66667
1.63734
1.60802
1.57380
1.54936
1.51026
1.51026
1.44673
1.42229
1.38319
1.35386
1.31965
1.29032
1.26588
1.23656
1.24633
1.19257
1.17791
1.14858
1.12903
1.10459
1.08993
1.06549
1.06061
1.03128
1.02151
0.99218
0.99707
0.95308
0.93842
0.91887
0.90909
0.89443
0.88954
0.89443
0.90909
0.94819
1.01662
1.10459
1.21701
1.34897
1.48094
1.60802
1.73509
1.83284
1.92571
1.99413
2.04790
2.09677
2.11144
2.14076
2.12610
2.12610
2.14565
2.11144
2.11632
2.11632
2.06745
2.04790
2.02346
2.00391
1.97458
1.94037
1.90616
1.86706
1.82796
1.79863
1.75953
1.72532
1.69110
1.66667
1.64712
1.63734
1.62268
1.61290
1.61290
1.60313
1.58847
1.57380
1.56403
1.54448
1.53470
1.49560
1.47116
1.44184
1.41251
1.38319
1.34897
1.31965
1.29032
1.26100
1.23167
1.20235
1.18280
1.15836
1.15347
1.10459
1.08504
1.05572
1.04106
1.02151
0.99707
0.97752
0.95308
0.96285
0.91398
0.89443
0.87488
0.86510
0.83578
0.81623
0.81134
0.81134
0.82600
0.86510
0.92375
0.98240
1.08016
1.17791
1.27566
1.37341
1.49071
1.54936
1.64712
1.67644
1.72043
1.75464
1.76442
1.79374
1.77908
1.76931
1.75953
1.76931
1.73998
1.73021
1.70577
1.68622
1.66178
1.63734
1.60802
1.57380
1.54448
1.51026
1.48094
1.45650
1.42717
1.43206
1.38807
1.40274
1.36364
1.34897
1.34409
1.33431
1.32942
1.31965
1.31476
1.29521
1.28543
1.26100
1.27077
1.22190
1.20235
1.17791
1.15836
1.12414
1.09971
1.08016
1.05083
1.02639
1.00196
0.98240
0.97263
0.94330
0.92375
0.90420
0.88465
0.86510
0.85044
0.82600
0.81134
0.79668
0.78201
0.76246
0.74291
0.72825
0.73803
0.70381
0.68915
0.69404
0.70381
0.72336
0.79668
0.82600
0.90420
1.00684
1.08993
1.18768
1.29032
1.37341
1.46139
1.52981
1.58358
1.62757
1.65689
1.68622
1.70088
1.73509
1.72043
1.72043
1.72043
1.72532
1.72532
1.72532
1.72532
1.71554
1.70577
1.68622
1.67155
1.64712
1.62268
1.60313
1.57380
1.54936
1.55425
1.50049
1.48094
1.46139
1.45161
1.43206
1.42717
1.42229
1.41251
1.39785
1.38319
1.37341
1.35875
1.34409
1.32454
1.30499
1.28055
1.26100
1.26588
1.21212
1.19257
1.17302
1.14858
1.12414
1.09971
1.08016
1.06061
1.07527
1.01662
0.99707
0.98240
0.97263
0.95797
0.92864
0.91398
0.89932
0.87977
0.86510
0.85044
0.84066
0.81623
0.80645
0.79179
0.78690
0.78690
0.78690
0.80156
0.86510
0.87488
0.94819
1.02151
1.11437
1.20723
1.30499
1.39785
1.47605
1.55425
1.65689
1.67644
1.72532
1.74487
1.76931
1.81329
1.79374
1.80352
1.80841
1.81329
1.81818
1.81818
1.81329
1.81329
1.81329
1.79863
1.79374
1.76931
1.76442
1.72043
1.70088
1.67155
1.64712
1.62757
1.62268
1.59335
1.57380
1.55914
1.55425
1.54448
1.53470
1.55914
1.53470
1.51515
1.49560
1.48583
1.46628
1.44673
1.43206
1.42229
1.39785
1.37341
1.34897
1.35875
1.30010
1.28543
1.27077
1.24633
1.22678
1.20235
1.18280
1.16325
1.15347
1.13392
1.11437
1.09971
1.08016
1.06549
1.05572
1.04106
1.02639
1.01173
1.01173
0.98729
0.99707
0.97263
0.97752
0.92864
0.92375
0.91398
0.90420
0.90420
0.90909
0.92375
0.95797
1.01173
1.07038
1.15836
1.25611
1.35875
1.43206
1.52493
1.60802
1.68133
1.74487
1.79863
1.83773
1.87683
1.89638
1.93548
1.92571
1.94037
1.95015
1.94526
1.96481
1.95015
1.95503
1.98436
1.94037
1.93060
1.91593
1.89638
1.89150
1.85239
1.83284
1.81818
1.79863
1.78397
1.76442
1.78397
1.73998
1.73509
1.72532
1.72043
1.72532
1.71065
1.70577
1.69599
1.68133
1.67155
1.65689
1.63734
1.64712
1.60313
1.57869
1.56403
1.53959
1.51515
1.49560
1.47605
1.45650
1.43695
1.42229
1.40274
1.38807
1.36852
1.35386
1.33431
1.31965
1.30010
1.28543
1.26588
1.24633
1.22678
1.21212
1.19746
1.18280
1.16813
1.15836
1.13881
1.14369
1.14858
1.17791
1.21212
1.26100
1.32942
1.39785
1.47605
1.58358
1.66667
1.73998
1.77419
1.82307
1.86706
1.90127
1.92571
1.94037
1.97458
1.95503
1.95503
1.95503
1.94526
1.94526
1.92571
1.91593
1.89150
1.87195
1.87683
1.82307
1.80352
1.80841
1.75464
1.73021
1.72043
1.69110
1.68133
1.67155
1.66667
1.65689
1.65200
1.64223
1.64223
1.62757
1.62268
1.60802
1.59335
1.58358
1.56403
1.54936
1.52981
1.51515
1.49071
1.46628
1.44673
1.42717
1.41251
1.38807
1.36852
1.34897
1.32942
1.31965
1.29521
1.28055
1.26100
1.24145
1.22678
1.20723
1.19257
1.16813
1.18768
1.13881
1.12903
1.11437
1.09971
1.08504
1.08016
1.07038
1.07038
1.08016
1.11437
1.13881
1.18768
1.27566
1.33431
1.43206
1.51515
1.60802
1.73509
1.78397
1.85728
1.92082
1.97458
2.01369
2.05279
2.06745
2.08700
2.10166
2.11144
2.11144
2.11632
2.12121
2.12610
2.12121
2.13099
2.11144
2.09677
2.07722
2.05767
2.03812
2.00880
1.99413
1.96481
1.95015
1.92082
1.90616
1.89150
1.87683
1.86217
1.88172
1.84262
1.83284
1.82796
1.81329
1.80352
1.78397
1.76442
1.74976
1.72532
1.70088
1.70088
1.65200
1.62757
1.60313
1.57380
1.54936
1.52493
1.50538
1.47605
1.45650
1.44184
1.41251
1.38807
1.39296
1.34897
1.33431
1.31476
1.32454
1.28055
1.26588
1.25122
1.23656
1.22190
1.23167
1.19257
1.21212
1.16325
1.14858
1.16813
1.11926
1.11926
1.11926
1.12903
1.15347
1.19257
1.25122
1.32454
1.41251
1.52004
1.62268
1.73021
1.85728
1.93060
2.01369
2.09189
2.15054
2.22385
2.23851
2.26784
2.29228
2.30694
2.32160
2.33138
2.33138
2.34115
2.35582
2.35093
2.34604
2.34115
2.32649
2.31183
2.29228
2.26784
2.23851
2.21408
2.18964
2.16031
2.14076
2.11144
2.09189
2.07234
2.06256
2.04790
2.03812
2.02346
2.01369
1.99902
1.98436
1.96481
1.95503
1.92082
1.89638
1.86706
1.84262
1.81818
1.80352
1.75953
1.73509
1.71065
1.67644
1.65200
1.62268
1.59335
1.57869
1.53959
1.52004
1.51026
1.47605
1.46139
1.43695
1.41251
1.39785
1.37341
1.37830
1.34409
1.32454
1.30499
1.29032
1.27077
1.28543
1.23656
1.22678
1.21212
1.20723
1.18280
1.17302
1.17302
1.19257
1.22190
1.27566
1.35386
1.43695
1.53470
1.64712
1.76442
1.90616
1.98436
2.08211
2.16520
2.23851
2.29228
2.33627
2.36070
2.38025
2.39492
2.39980
2.39980
2.39492
2.39980
2.39980
2.40469
2.40469
2.38025
2.36559
2.34604
2.35582
2.29717
2.26784
2.24340
2.21896
2.18964
2.16520
2.15054
2.12121
2.10655
2.08700
2.07722
2.06256
2.05767
2.04790
2.05767
2.01857
2.00880
2.01369
1.96970
1.94526
1.92082
1.89638
1.87195
1.84262
1.81329
1.80352
1.75953
1.73021
1.70577
1.67644
1.65200
1.62757
1.60313
1.58358
1.55914
1.54936
1.51515
1.49071
1.47116
1.45161
1.43206
1.41251
1.39785
1.38319
1.36364
1.34897
1.32942
1.30987
1.30010
1.27566
1.26588
1.25611
1.24633
1.25122
1.27566
1.29521
1.34409
1.41740
1.50049
1.59824
1.71065
1.82307
1.93060
2.02835
2.13587
2.18475
2.24340
2.31672
2.30694
2.32160
2.32160
2.32160
2.31672
2.30694
2.29228
2.28250
2.26784
2.24829
2.22874
2.20919
2.17498
2.15054
2.14565
2.09677
2.06256
2.03324
2.02835
1.98436
1.96970
1.95015
1.94526
1.94037
1.93548
1.95503
1.92571
1.92082
1.91593
1.90616
1.91593
1.87683
1.85728
1.83284
1.80352
1.81329
1.75953
1.73021
1.70088
1.67155
1.64712
1.61779
1.58847
1.56891
1.56403
1.52493
1.49560
1.48094
1.45161
1.42717
1.42717
1.38807
1.36852
1.34897
1.32942
1.31476
1.29032
1.27077
1.25611
1.23167
1.21212
1.21701
1.18768
1.16813
1.16813
1.16813
1.17791
1.21212
1.26100
1.33920
1.42717
1.55914
1.65200
1.76931
1.88172
1.98436
2.07234
2.14565
2.19941
2.23851
2.26295
2.27761
2.27761
2.27761
2.30205
2.25806
2.24829
2.23851
2.21896
2.20430
2.21896
2.17009
2.14565
2.12610
2.08211
2.05279
2.02835
1.98925
1.95992
1.94037
1.91593
1.91105
1.88661
1.88172
1.87195
1.89638
1.85728
1.85239
1.84262
1.82796
1.83284
1.80352
1.78397
1.75953
1.73509
1.71065
1.68133
1.65689
1.62268
1.59824
1.56891
1.53959
1.52004
1.49071
1.46139
1.44184
1.41740
1.38807
1.36364
1.34897
1.32942
1.30987
1.29521
1.29032
1.25122
1.23656
1.21701
1.23167
1.18280
1.16813
1.15347
1.13881
1.12414
1.13881
1.09482
1.08016
1.07527
1.06061
1.05572
1.05572
1.06061
1.12414
1.14369
1.21212
1.33431
1.42229
1.54936
1.68622
1.81818
1.94526
2.05767
2.16031
2.23363
2.28739
2.33138
2.36070
2.37537
2.42424
2.38514
2.41935
2.39003
2.39003
2.42424
2.41447
2.39980
2.38025
2.36559
2.35093
2.33138
2.31183
2.27761
2.24829
2.21408
2.17986
2.15054
2.15054
2.09189
2.06745
2.04790
2.02835
2.01369
2.00391
1.98925
1.97947
1.95992
1.95015
1.93548
1.92082
1.90127
1.88172
1.84751
1.81818
1.79374
1.75953
1.73021
1.73021
1.66667
1.63734
1.60313
1.57380
1.54448
1.51515
1.48583
1.46139
1.43206
1.41251
1.38807
1.36852
1.33920
1.31965
1.30010
1.28055
1.26100
1.24633
1.22678
1.21212
1.18768
1.18280
1.15836
1.13881
1.12414
1.11437
1.09482
1.08504
1.08016
1.09482
1.12903
1.21701
1.27566
1.37341
1.50049
1.62757
1.75464
1.88661
2.00391
2.10166
2.18475
2.24829
2.33138
2.33627
2.36070
2.37537
2.39003
2.39003
2.39003
2.41447
2.38514
2.38025
2.37537
2.36559
2.35582
2.34604
2.34115
2.30205
2.27273
2.24340
2.20919
2.17498
2.17009
2.11144
2.08211
2.05767
2.03812
2.02346
2.01369
1.99902
1.99413
1.98436
1.97458
1.96481
1.95992
1.93060
1.91105
1.88661
1.86706
1.84262
1.81329
1.80352
1.75464
1.72532
1.69599
1.67155
1.63734
1.60802
1.58358
1.55425
1.53470
1.50538
1.48583
1.45650
1.44184
1.41740
1.39785
1.37830
1.38319
1.33920
1.32454
1.32942
1.28543
1.27077
1.25611
1.23656
1.22190
1.20235
1.18768
1.20235
1.20235
1.16813
1.18280
1.21701
1.26588
1.34409
1.45161
1.55914
1.68133
1.80352
1.95015
2.02346
2.11144
2.17986
2.23851
2.30205
2.34115
2.32160
2.32649
2.31672
2.31183
2.30205
2.28739
2.27273
2.25318
2.23363
2.21408
2.18475
2.16031
2.13099
2.11144
2.06256
2.02346
1.98925
1.96481
1.94037
1.92082
1.90616
1.92571
1.88661
1.87683
1.87195
1.87195
1.86706
1.85728
1.84751
1.83773
1.81818
1.79863
1.79863
1.74976
1.72043
1.70088
1.66178
1.63245
1.60313
1.58358
1.54936
1.52004
1.49560
1.50049
1.44184
1.41740
1.39296
1.36852
1.34409
1.32454
1.30499
1.29032
1.25611
1.23656
1.21701
1.20723
1.16813
1.14858
1.13392
1.11926
1.09482
1.07527
1.06061
1.04594
1.05083
1.06061
1.09482
1.14858
1.21701
1.31476
1.41251
1.52493
1.63734
1.75953
1.83773
1.91105
1.96970
2.00880
2.04790
2.05279
2.06256
2.06745
2.05279
2.03812
2.02835
2.01369
1.99413
1.97947
1.95503
1.93060
1.90616
1.87683
1.84262
1.80841
1.77908
1.74487
1.72043
1.69599
1.67155
1.65200
1.64223
1.66178
1.63245
1.62268
1.61779
1.62757
1.60313
1.59824
1.58847
1.59335
1.55914
1.53959
1.51515
1.49071
1.46139
1.44184
1.40762
1.38807
1.35386
1.33431
1.30499
1.30987
1.25611
1.23656
1.21701
1.19257
1.17302
1.15347
1.13881
1.11437
1.09482
1.08504
1.06549
1.05572
1.03128
1.01173
1.00196
0.98240
0.99218
0.95797
0.94330
0.95308
0.92864
0.92864
0.93842
0.97263
1.04594
1.08993
1.17791
1.29521
1.40274
1.51515
1.62268
1.72532
1.81329
1.89150
1.94526
1.98436
2.02346
2.03812
2.05279
2.05767
2.07234
2.06256
2.06256
2.06256
2.06256
2.06256
2.06256
2.04790
2.03812
2.02346
2.00391
1.97947
1.95503
1.91593
1.88661
1.85728
1.83284
1.80352
1.78397
1.76442
1.74976
1.73998
1.73509
1.72532
1.74487
1.70088
1.68622
1.67644
1.65689
1.64223
1.62268
1.59824
1.57380
1.56891
1.52493
1.49560
1.48094
1.44184
1.41251
1.39785
1.37341
1.38319
1.32942
1.30499
1.30499
1.26588
1.24145
1.22190
1.20723
1.18768
1.17302
1.15347
1.13881
1.13881
1.10948
1.09971
1.08504
1.07038
1.06061
1.06549
1.03128
1.01662
1.01173
1.01173
1.01662
1.03617
1.08016
1.14369
1.22190
1.31476
1.42229
1.52981
1.64223
1.74487
1.85239
1.91593
1.97947
2.02835
2.06256
2.08700
2.11144
2.12610
2.12610
2.13099
2.14076
2.15054
2.14565
2.15054
2.14565
2.14565
2.15543
2.13099
2.11144
2.08700
2.08211
2.03324
2.00880
1.97947
1.94037
1.91593
1.89150
1.87195
1.85728
1.83773
1.81818
1.81329
1.80352
1.78886
1.79374
1.76442
1.74487
1.73509
1.71065
1.68622
1.66178
1.64712
1.60802
1.57869
1.55914
1.52981
1.50049
1.47605
1.44673
1.42717
1.40274
1.38319
1.35875
1.33920
1.31476
1.30010
1.30499
1.27566
1.24633
1.23167
1.21212
1.19746
1.18768
1.17791
1.16325
1.14369
1.12903
1.11926
1.09971
1.09482
1.08504
1.07527
1.07527
1.08504
1.11437
1.15836
1.26100
1.31476
1.40762
1.51515
1.62268
1.72532
1.82796
1.91593
1.98436
2.06745
2.08700
2.11144
2.13587
2.15054
2.15543
2.16031
2.18475
2.16031
2.16520
2.19453
2.16520
2.16520
2.15543
2.16031
2.13099
2.11144
2.08211
2.07234
2.02346
1.99413
1.96970
1.95015
1.92082
1.90616
1.88661
1.87195
1.86706
1.86217
1.85728
1.85239
1.84262
1.82796
1.81329
1.79863
1.77908
1.77419
1.74487
1.70577
1.71554
1.66178
1.63245
1.60313
1.57869
1.55914
1.54936
1.51026
1.48583
1.48583
1.45161
1.43206
1.40762
1.39296
1.37830
1.36852
1.34409
1.32942
1.31965
1.30010
1.30010
1.26588
1.25611
1.25611
1.22678
1.20723
1.19746
1.19746
1.18768
1.18280
1.22190
1.21701
1.25122
1.31476
1.38807
1.47116
1.56891
1.67644
1.75953
1.85239
1.93060
2.02835
2.04301
2.07234
2.09677
2.11632
2.12121
2.11632
2.11144
2.13099
2.09677
2.08700
2.08211
2.05767
2.06256
2.01857
1.99413
1.95992
1.94037
1.93548
1.87683
1.85728
1.82796
1.80841
1.81818
1.78397
1.77419
1.78886
1.76931
1.76931
1.76442
1.76931
1.76931
1.75464
1.74487
1.72532
1.71065
1.69110
1.67155
1.64223
1.61779
1.62268
1.56403
1.56891
1.52004
1.49560
1.50538
1.45161
1.42717
1.40762
1.39296
1.37341
1.35875
1.35386
1.32454
1.30499
1.30499
1.27566
1.25611
1.24145
1.23167
1.21212
1.19746
1.18280
1.18768
1.15347
1.14858
1.14369
1.16813
1.17791
1.21212
1.27566
1.35875
1.44673
1.55914
1.66178
1.78397
1.86706
1.95503
2.02346
2.09677
2.12610
2.15543
2.17009
2.17986
2.18964
2.18964
2.18475
2.17986
2.17498
2.16520
2.16520
2.16031
2.14076
2.12610
2.10166
2.08211
2.06256
2.01369
1.98436
1.95015
1.92571
1.90127
1.88661
1.86217
1.85239
1.83773
1.82796
1.82307
1.81329
1.80841
1.80352
1.78886
1.77419
1.75464
1.74487
1.72043
1.69110
1.66667
1.66178
1.61290
1.58358
1.55425
1.52981
1.50049
1.48094
1.45161
1.43206
1.42229
1.41251
1.36364
1.37341
1.34409
1.30987
1.29521
1.28055
1.25611
1.24633
1.23167
1.24145
1.20235
1.20235
1.20235
1.15836
1.13881
1.12903
1.11437
1.10459
1.09971
1.13392
1.11926
1.15347
1.20723
1.28543
1.38319
1.48583
1.60313
1.72532
1.83773
1.94037
2.02835
2.11144
2.15543
2.19453
2.22874
2.26295
2.26295
2.27273
2.27761
2.27761
2.28739
2.28739
2.30205
2.28739
2.28250
2.27761
2.26295
2.24340
2.22385
2.18964
2.16031
2.13587
2.08700
2.04790
2.02835
1.99413
1.96481
1.94526
1.93060
1.91105
1.89638
1.89150
1.87683
1.86217
1.84751
1.83773
1.82796
1.78886
1.76442
1.77419
1.71065
1.68133
1.65200
1.62757
1.58847
1.55914
1.53470
1.50538
1.47605
1.44673
1.41740
1.42229
1.37341
1.34897
1.32942
1.30499
1.28543
1.27077
1.24633
1.22678
1.21701
1.22190
1.18280
1.16813
1.15347
1.13392
1.12903
1.10459
1.10948
1.07527
1.06061
1.04594
1.03617
1.03128
1.04106
1.07038
1.11437
1.17791
1.27077
1.36852
1.49071
1.61290
1.76442
1.85239
1.93548
2.01369
2.08211
2.12610
2.17009
2.18475
2.20430
2.21408
2.21408
2.21896
2.21896
2.21896
2.21896
2.22385
2.21896
2.21408
2.20430
2.19453
2.19941
2.13099
2.10655
2.07722
2.03324
1.99902
1.99413
1.93060
1.90616
1.88172
1.86706
1.85239
1.83773
1.82796
1.81818
1.80841
1.79863
1.78397
1.76442
1.75464
1.72532
1.70088
1.68133
1.65200
1.61779
1.58358
1.59335
1.52981
1.50538
1.48094
1.45161
1.43695
1.39296
1.37341
1.35386
1.34409
1.30499
1.29032
1.30010
1.24633
1.23167
1.22190
1.19746
1.18768
1.20723
1.15347
1.13881
1.12903
1.10948
1.09482
1.08504
1.07527
1.05572
1.07527
1.03128
1.02151
1.02639
1.04106
1.06549
1.11926
1.18768
1.31476
1.39296
1.52981
1.62757
1.73998
1.84262
1.93548
2.02835
2.06745
2.10655
2.13587
2.17986
2.15543
2.16031
2.15054
2.17986
2.13587
2.15543
2.15054
2.10655
2.09677
2.09677
2.06256
2.03324
2.00880
1.97458
1.94037
1.91593
1.88172
1.85728
1.83773
1.81329
1.79863
1.79374
1.78886
1.78397
1.78397
1.77908
1.77419
1.76931
1.75953
1.74487
1.73509
1.72532
1.69599
1.66667
1.63734
1.60802
1.58358
1.55914
1.52981
1.50538
1.48583
1.45161
1.43695
1.40762
1.37830
1.36852
1.33920
1.32454
1.31476
1.30987
1.26588
1.24633
1.22678
1.20723
1.19257
1.17791
1.19257
1.14369
1.12414
1.10948
1.08993
1.07527
1.07527
1.05572
1.05083
1.07038
1.10459
1.14369
1.21212
1.30499
1.40762
1.54448
1.66178
1.74976
1.84751
1.93548
1.99902
2.04790
2.08700
2.10655
2.12121
2.12121
2.11632
2.10655
2.09677
2.08211
2.07722
2.04790
2.03324
2.04301
1.98436
1.95503
1.91593
1.88172
1.84751
1.81818
1.78397
1.75464
1.73509
1.71554
1.70088
1.68622
1.68622
1.71065
1.67644
1.70577
1.66667
1.70088
1.65200
1.64223
1.62757
1.61290
1.61290
1.56403
1.53959
1.51515
1.48583
1.46139
1.43206
1.41740
1.37830
1.35386
1.32942
1.30499
1.28543
1.26100
1.23656
1.21701
1.19746
1.17791
1.17791
1.14369
1.12903
1.10948
1.08504
1.07038
1.06061
1.05083
1.03128
1.01173
1.00196
0.99707
0.98240
0.97752
0.98240
0.99218
1.03617
1.12903
1.18768
1.27566
1.40274
1.52981
1.65689
1.78397
1.89638
1.99413
2.07722
2.14076
2.17986
2.21408
2.23363
2.24340
2.25318
2.25318
2.25318
2.24829
2.24829
2.24340
2.23851
2.23851
2.21896
2.20430
2.18475
2.16520
2.13099
2.09677
2.06256
2.02835
1.99413
1.96970
1.93548
1.92082
1.91105
1.87683
1.86217
1.85239
1.85728
1.83773
1.82307
1.81329
1.80352
1.78397
1.76442
1.73998
1.71065
1.68622
1.65689
1.62757
1.59824
1.57380
1.53959
1.50538
1.48094
1.46139
1.42717
1.39785
1.39296
1.38319
1.32942
1.30987
1.29032
1.30010
1.25611
1.23656
1.22190
1.20235
1.21701
1.18280
1.15347
1.13392
1.12414
1.11926
1.09971
1.08504
1.07527
1.08016
1.09482
1.12903
1.18280
1.28055
1.35386
1.46628
1.59335
1.72043
1.84751
1.96481
2.06256
2.14076
2.20430
2.25318
2.28250
2.30694
2.32160
2.34604
2.33138
2.33138
2.33138
2.33138
2.33138
2.32649
2.32160
2.31672
2.33138
2.28739
2.25806
2.22874
2.19453
2.15543
2.12121
2.08700
2.05279
2.04301
1.98925
1.96481
1.95015
1.93060
1.92082
1.92082
1.90127
1.91105
1.87683
1.86706
1.84751
1.82796
1.80352
1.77419
1.74976
1.72043
1.69110
1.66667
1.63734
1.60313
1.58847
1.54936
1.52004
1.49560
1.46628
1.44673
1.42229
1.39785
1.37341
1.36364
1.33920
1.31965
1.30499
1.28543
1.27077
1.26588
1.23656
1.22190
1.21212
1.19746
1.17791
1.15836
1.16813
1.13392
1.11926
1.10948
1.09482
1.09971
1.11437
1.13881
1.18768
1.25611
1.34897
1.46139
1.58847
1.71554
1.82796
1.93548
2.02835
2.10655
2.16520
2.21408
2.24829
2.27273
2.28250
2.26784
2.25806
2.25806
2.25318
2.23851
2.23363
2.24829
2.21408
2.20430
2.18475
2.17986
2.12610
2.10166
2.05767
2.02835
1.99902
1.96481
1.94526
1.92082
1.90127
1.89150
1.88172
1.87683
1.87195
1.86706
1.86217
1.85728
1.84751
1.83773
1.81818
1.79863
1.77419
1.75953
1.72043
1.68622
1.66178
1.63245
1.60313
1.58847
1.54936
1.52004
1.49560
1.48094
1.44673
1.42717
1.40274
1.37830
1.35875
1.34409
1.31476
1.30010
1.28055
1.26100
1.25122
1.22190
1.20723
1.18768
1.17302
1.15347
1.13392
1.13881
1.10948
1.10948
1.11926
1.14858
1.19746
1.27566
1.34897
1.43695
1.55425
1.67644
1.74487
1.83284
1.90127
1.95992
2.00391
2.03324
2.04301
2.04790
2.04790
2.05279
2.03812
2.03812
2.01369
1.99902
1.98436
1.96481
1.93548
1.91105
1.87683
1.84262
1.81329
1.77419
1.74487
1.72532
1.68622
1.67155
1.66178
1.64712
1.64223
1.63245
1.65200
1.62757
1.62268
1.61290
1.60802
1.59824
1.58358
1.56403
1.54448
1.53959
1.50538
1.50049
1.44673
1.41251
1.40274
1.36364
1.33431
1.31965
1.29032
1.27077
1.25122
1.23167
1.21701
1.19257
1.17302
1.16325
1.14369
1.12414
1.10459
1.08993
1.07527
1.06061
1.04594
1.02639
1.01662
1.00684
0.99218
0.97752
1.00196
0.96285
0.95797
0.95308
0.96285
1.00196
1.05572
1.13392
1.26100
1.33431
1.44184
1.55425
1.69110
1.79374
1.84751
1.91593
1.96970
2.01369
2.05767
2.05279
2.06256
2.07234
2.07722
2.07722
2.08211
2.08700
2.08700
2.09189
2.08211
2.09189
2.06256
2.04790
2.05767
1.99902
1.96481
1.93548
1.90616
1.87195
1.84262
1.82307
1.80352
1.79863
1.77908
1.75953
1.74976
1.74487
1.73021
1.72043
1.70577
1.69110
1.67155
1.65200
1.62757
1.60313
1.57869
1.54936
1.52493
1.49071
1.47116
1.44184
1.42229
1.38807
1.36852
1.33920
1.33431
1.30010
1.27566
1.26588
1.24633
1.22190
1.20723
1.19746
1.18280
1.17791
1.15347
1.15836
1.12414
1.10459
1.09482
1.08016
1.07038
1.08993
1.04106
1.02639
1.01662
1.01662
1.00684
1.01662
1.03128
1.07038
1.13392
1.24145
1.31476
1.41251
1.51515
1.63245
1.73509
1.83284
1.91593
1.98436
2.03324
2.08211
2.13099
2.11632
2.13587
2.14076
2.14565
2.15543
2.17986
2.16520
2.17009
2.17498
2.17009
2.17009
2.17986
2.14076
2.15543
2.09677
2.06745
2.03812
2.00880
1.99413
1.94526
1.92082
1.92571
1.88172
1.87683
1.85728
1.84751
1.83284
1.82796
1.81818
1.82307
1.78397
1.79863
1.75953
1.72043
1.70088
1.67644
1.65200
1.63734
1.59824
1.57380
1.54936
1.55425
1.52004
1.48094
1.46139
1.43695
1.41251
1.39296
1.40762
1.36364
1.33920
1.32454
1.34409
1.31476
1.30499
1.27566
1.26100
1.24633
1.23656
1.22190
1.20723
1.19746
1.18280
1.17302
1.15836
1.15347
1.17302
1.16325
1.12414
1.12903
1.14858
1.18768
1.24145
1.31476
1.40762
1.51026
1.61779
1.73021
1.83773
1.93060
2.01369
2.06745
2.11632
2.14565
2.17498
2.18964
2.19941
2.20919
2.23851
2.21408
2.21896
2.22385
2.22385
2.21896
2.24829
2.19941
2.17986
2.16031
2.14076
2.11144
2.07722
2.04790
2.01857
1.99902
1.97947
1.96481
1.95503
1.94526
1.95503
1.96970
1.94037
1.93060
1.92571
1.91593
1.90127
1.88661
1.86706
1.84751
1.84262
1.80352
1.79374
1.74487
1.74976
1.70088
1.66667
1.64223
1.61779
1.59824
1.58358
1.55425
1.53959
1.52004
1.50538
1.48583
1.46628
1.44673
1.46139
1.41251
1.40274
1.38319
1.36852
1.35386
1.34897
1.32454
1.30010
1.29032
1.27566
1.26100
1.24633
1.23656
1.24633
1.24145
1.25122
1.32454
1.34409
1.41740
1.50538
1.60313
1.71065
1.80352
1.90127
1.98436
2.04790
2.10655
2.14076
2.16520
2.18964
2.19941
2.19941
2.20430
2.19941
2.18964
2.18475
2.17009
2.15543
2.14565
2.13099
2.09677
2.07234
2.03812
2.00880
1.96970
1.94037
1.91593
1.89638
1.87195
1.85728
1.84751
1.83773
1.83773
1.83773
1.84262
1.83773
1.82796
1.81818
1.80352
1.78886
1.76931
1.74976
1.72532
1.69599
1.66667
1.64223
1.62757
1.58847
1.55914
1.52981
1.50049
1.48094
1.46628
1.44184
1.41251
1.38807
1.36852
1.38807
1.33920
1.31965
1.30010
1.29032
1.26588
1.25122
1.23656
1.21701
1.20235
1.18768
1.16813
1.15836
1.14369
1.13881
1.11437
1.10948
1.10948
1.13392
1.15836
1.21212
1.28055
1.36852
1.47116
1.58358
1.69599
1.80841
1.91593
2.00391
2.07722
2.13587
2.17498
2.20919
2.23363
2.24340
2.28739
2.25806
2.26295
2.26295
2.26784
2.26295
2.26295
2.25806
2.24829
2.23363
2.21408
2.22385
2.16031
2.12610
2.09189
2.05767
2.03324
1.99413
1.96970
1.94526
1.93548
1.92082
1.90616
1.92082
1.88661
1.88172
1.87195
1.85728
1.83773
1.83773
1.79374
1.76931
1.74487
1.72043
1.68622
1.65200
1.62268
1.59824
1.56403
1.52981
1.50538
1.48094
1.46139
1.42717
1.41740
1.41740
1.36852
1.33920
1.31476
1.30499
1.27566
1.26100
1.26588
1.23167
1.21701
1.20235
1.21701
1.18768
1.16325
1.13881
1.12903
1.10948
1.09482
1.08504
1.07527
1.05572
1.04594
1.03617
1.04106
1.06061
1.10459
1.17302
1.22190
1.31476
1.44673
1.56403
1.67644
1.79863
1.90616
2.00880
2.08700
2.15054
2.21408
2.23363
2.26295
2.28250
2.29228
2.32160
2.30694
2.31672
2.32160
2.32649
2.32649
2.32649
2.32649
2.31672
2.30205
2.28250
2.24829
2.21408
2.17986
2.13587
2.09677
2.08700
2.02346
1.99902
1.97458
1.95015
1.93060
1.92082
1.89638
1.89150
1.89638
1.86217
1.83773
1.81818
1.79863
1.76931
1.74487
1.71065
1.71065
1.64712
1.61779
1.58847
1.55425
1.52981
1.49071
1.46628
1.44673
1.42229
1.38807
1.35875
1.33431
1.31476
1.29032
1.27077
1.25122
1.23167
1.21212
1.19257
1.17302
1.15836
1.14858
1.12414
1.10948
1.09482
1.08016
1.09971
1.08016
1.02639
1.01662
1.00196
0.99707
0.97752
0.96285
0.95797
0.95797
0.96774
1.00196
1.04594
1.11437
1.20723
1.30987
1.42229
1.53959
1.64712
1.75953
1.85239
1.92082
2.01369
2.03324
2.07722
2.10655
2.12121
2.09677
2.10166
2.09677
2.10166
2.10655
2.10166
2.10166
2.09677
2.09189
2.07722
2.05767
2.03324
1.99902
1.96481
1.93548
1.89638
1.85728
1.82796
1.79374
1.77419
1.76442
1.72532
1.71065
1.70088
1.69599
1.71065
1.67155
1.66178
1.64712
1.64712
1.62757
1.58847
1.55914
1.53470
1.51515
1.48583
1.45650
1.42717
1.40274
1.37341
1.36364
1.34897
1.30010
1.27566
1.25122
1.23656
1.20723
1.18768
1.16813
1.15836
1.13392
1.12414
1.10459
1.08993
1.07527
1.06061
1.04594
1.06061
1.05572
1.01173
1.00196
0.98240
0.96285
0.95797
0.94330
0.93353
0.94330
0.90909
0.89443
0.89443
0.89443
0.90420
0.92375
0.96285
1.01173
1.09482
1.18768
1.29032
1.39785
1.49071
1.58358
1.67155
1.75464
1.80841
1.83773
1.87195
1.88661
1.89150
1.89638
1.89638
1.89638
1.88661
1.88661
1.88661
1.87683
1.87195
1.85728
1.84262
1.82307
1.79863
1.77419
1.74976
1.71554
1.69110
1.67155
1.65200
1.63734
1.62757
1.62268
1.61779
1.63734
1.61290
1.60802
1.60802
1.60313
1.61779
1.58358
1.56403
1.56403
1.54448
1.51026
1.48583
1.46628
1.44184
1.44184
1.39296
1.37341
1.34897
1.35875
1.31476
1.28055
1.26588
1.24633
1.22678
1.20723
1.18768
1.17302
1.15836
1.14369
1.12414
1.10459
1.08993
1.07527
1.05572
1.04106
1.02639
1.01662
0.99707
0.98729
0.97263
0.99218
0.95797
0.94819
0.95308
0.96285
0.99218
1.03617
1.09482
1.17791
1.26100
1.35386
1.46628
1.53959
1.61779
1.69599
1.75464
1.79374
1.82796
1.84262
1.85728
1.86217
1.85728
1.86706
1.84262
1.84262
1.82796
1.81329
1.81329
1.78886
1.76931
1.76442
1.72532
1.72532
1.66667
1.67644
1.62268
1.59824
1.58847
1.56891
1.56403
1.55914
1.55425
1.54936
1.54936
1.54936
1.53470
1.52981
1.52493
1.54448
1.51026
1.50538
1.46139
1.43695
1.41251
1.40762
1.39296
1.37341
1.35875
1.32942
1.29032
1.27566
1.25611
1.23656
1.25122
1.19746
1.17791
1.16813
1.15347
1.13392
1.12414
1.10459
1.08993
1.08016
1.06549
1.05083
1.03617
1.02639
1.01662
1.00196
0.99218
0.97752
1.00196
0.96774
0.96285
0.95308
0.95308
0.97752
1.01662
1.06549
1.16325
1.22678
1.33431
1.44184
1.54936
1.65200
1.74976
1.82796
1.92082
1.95503
1.99413
2.02835
2.04790
2.05767
2.07234
2.07722
2.08211
2.09189
2.09677
2.11144
2.10166
2.10166
2.09677
2.09189
2.08211
2.06256
2.03812
2.01857
1.98925
1.97947
1.94037
1.92082
1.90127
1.87683
1.88172
1.84751
1.84262
1.83284
1.85239
1.81818
1.80841
1.79374
1.77908
1.76442
1.73998
1.72532
1.70088
1.67155
1.64712
1.61779
1.58847
1.56891
1.57869
1.52004
1.50049
1.48094
1.44673
1.42229
1.41740
1.37830
1.36364
1.34409
1.32942
1.30499
1.28543
1.27566
1.26100
1.24145
1.22190
1.20723
1.22678
1.18280
1.16813
1.14858
1.13881
1.12903
1.11926
1.11437
1.11926
1.12903
1.15347
1.18768
1.25122
1.33431
1.43206
1.54448
1.65200
1.76442
1.86217
1.97947
2.03324
2.09189
2.13587
2.17009
2.19453
2.21408
2.24829
2.23363
2.23851
2.24829
2.25806
2.26295
2.26784
2.26295
2.26784
2.29228
2.24829
2.23363
2.23851
2.17986
2.15543
2.12610
2.11632
2.07234
2.07722
2.02835
2.00880
1.99413
1.98436
1.96970
1.95992
1.95503
1.94526
1.92571
1.90616
1.89150
1.87195
1.84751
1.82307
1.79374
1.76931
1.76931
1.71554
1.68622
1.66178
1.63734
1.60802
1.58358
1.55914
1.54936
1.54448
1.50049
1.46628
1.45161
1.42717
1.40762
1.39296
1.37830
1.38319
1.35386
1.32942
1.31476
1.30010
1.29521
1.27077
1.25611
1.24633
1.23167
1.22190
1.20723
1.21701
1.22190
1.25611
1.28543
1.34409
1.41740
1.51026
1.61290
1.72043
1.83284
1.93548
2.02346
2.09677
2.15543
2.20430
2.23851
2.29228
2.27761
2.28250
2.29228
2.29717
2.30694
2.32160
2.30694
2.31183
2.31183
2.30694
2.28739
2.27273
2.25318
2.22385
2.19453
2.17009
2.17498
2.11144
2.11632
2.06256
2.05279
2.03812
2.02346
2.01857
2.01369
2.00391
2.02835
1.98925
1.97947
1.95992
1.94526
1.92082
1.90127
1.88172
1.85239
1.82307
1.79863
1.76931
1.73998
1.71554
1.69110
1.66667
1.64223
1.61779
1.62757
1.57380
1.55425
1.53470
1.52004
1.50049
1.48094
1.46139
1.45161
1.42229
1.41251
1.39296
1.37830
1.36364
1.37341
1.32942
1.31476
1.30499
1.29521
1.28543
1.28543
1.29521
1.32942
1.37830
1.46628
1.53959
1.60802
1.70577
1.79863
1.88661
1.96481
2.03324
2.08700
2.12610
2.15543
2.17009
2.18964
2.17986
2.17986
2.17498
2.17009
2.16031
2.15054
2.14076
2.11632
2.10166
2.07722
2.05279
2.04790
1.98925
1.95992
1.92571
1.90127
1.90127
1.86217
1.85239
1.84262
1.84751
1.83773
1.83773
1.85728
1.82796
1.82307
1.84262
1.80841
1.81818
1.76442
1.73998
1.71554
1.68622
1.66667
1.66667
1.61290
1.57869
1.55425
1.52981
1.52981
1.48583
1.46628
1.44184
1.42229
1.40762
1.38807
1.36852
1.35386
1.35875
1.34897
1.30010
1.28543
1.26588
1.25122
1.23656
1.23167
1.20235
1.18768
1.17791
1.16813
1.16325
1.16813
1.18280
1.21701
1.26588
1.36364
1.42717
1.52004
1.62268
1.72532
1.81818
1.93548
2.00880
2.03812
2.11144
2.15054
2.13587
2.14565
2.15543
2.15543
2.15543
2.16031
2.16031
2.16031
2.16031
2.15054
2.14565
2.13099
2.11144
2.08700
2.05767
2.03324
1.99902
1.97458
1.94037
1.91593
1.89638
1.87683
1.86217
1.87195
1.84262
1.83284
1.82796
1.81818
1.81329
1.79863
1.78886
1.76931
1.74976
1.73509
1.71065
1.67155
1.65200
1.62268
1.59335
1.56403
1.53959
1.51026
1.48583
1.46628
1.44184
1.41740
1.40274
1.37830
1.35386
1.34409
1.32942
1.31476
1.30010
1.28543
1.26588
1.25122
1.23656
1.23656
1.19746
1.19257
1.17791
1.15836
1.14858
1.13881
1.14858
1.11926
1.12903
1.13881
1.18768
1.20723
1.27566
1.39785
1.45650
1.56403
1.67155
1.78397
1.91105
1.99413
2.05279
2.09677
2.14076
2.16520
2.21896
2.19453
2.20430
2.21896
2.24829
2.23851
2.24340
2.28739
2.26784
2.25806
2.27273
2.24829
2.26784
2.20919
2.18475
2.15543
2.11632
2.08211
2.04790
2.01857
1.99413
1.96970
1.95015
1.93548
1.92082
1.92082
1.89638
1.88661
1.87683
1.85728
1.87683
1.82307
1.80352
1.78397
1.75953
1.74487
1.70088
1.67644
1.64712
1.61779
1.58847
1.55914
1.53470
1.51515
1.48583
1.46139
1.43695
1.41251
1.38807
1.36852
1.34897
1.32942
1.31476
1.30499
1.30987
1.28543
1.24633
1.26100
1.23167
1.21701
1.19257
1.18280
1.16813
1.15347
1.14858
1.13392
1.12903
1.12903
1.08993
1.08504
1.08993
1.09971
1.12903
1.17791
1.24145
1.31476
1.41740
1.52981
1.64712
1.76442
1.86706
1.95992
2.03812
2.09677
2.14565
2.18475
2.22874
2.22385
2.26295
2.24340
2.28250
2.25806
2.26295
2.26784
2.30205
2.27761
2.27761
2.27273
2.25318
2.23363
2.21896
2.17498
2.14565
2.11632
2.08211
2.05279
2.02346
1.99902
1.98436
1.98925
1.97458
1.95015
1.94526
1.93548
1.92571
1.91593
1.90616
1.89150
1.86706
1.85728
1.82307
1.79374
1.76442
1.73998
1.70577
1.68133
1.65200
1.62757
1.59824
1.57869
1.55425
1.52981
1.50538
1.48583
1.46628
1.45161
1.43206
1.41740
1.43695
1.38807
1.37341
1.36364
1.34409
1.33431
1.31476
1.29521
1.28543
1.30010
1.25611
1.24145
1.26100
1.21212
1.19746
1.18280
1.17302
1.17791
1.19257
1.23167
1.29032
1.32942
1.44673
1.51026
1.61779
1.72043
1.81818
1.91593
2.02835
2.08700
2.11144
2.15543
2.17009
2.18475
2.18964
2.18964
2.18475
2.18475
2.19453
2.17009
2.16031
2.14076
2.12610
2.10655
2.08211
2.05279
2.01857
1.98436
1.95503
1.92571
1.89638
1.87683
1.86217
1.84751
1.84262
1.83773
1.83773
1.83773
1.83773
1.83284
1.86217
1.81818
1.80352
1.78397
1.76442
1.73509
1.71554
1.67644
1.64712
1.61779
1.59335
1.55914
1.53470
1.50538
1.48094
1.45650
1.43206
1.40762
1.38807
1.36852
1.34897
1.32942
1.31476
1.32942
1.28055
1.26100
1.24145
1.22678
1.20723
1.19257
1.17791
1.16325
1.14858
1.14858
1.12414
1.10948
1.09971
1.09971
1.10948
1.13392
1.17302
1.24145
1.32454
1.42229
1.53470
1.65200
1.76442
1.87195
1.96481
2.04790
2.10655
2.14565
2.17986
2.19453
2.20430
2.20919
2.23363
2.20919
2.20919
2.19941
2.18964
2.20430
2.17009
2.15543
2.13587
2.11632
2.08211
2.05279
2.01369
1.97947
1.97458
1.91105
1.90127
1.87195
1.87195
1.83284
1.82307
1.83284
1.80841
1.83773
1.79863
1.78397
1.76931
1.75464
1.75464
1.72043
1.69110
1.66667
1.63734
1.60313
1.57869
1.53959
1.51026
1.48094
1.45650
1.43206
1.41740
1.37830
1.35386
1.33431
1.30987
1.28543
1.26588
1.25122
1.23167
1.21701
1.19746
1.17791
1.20235
1.17302
1.15347
1.13392
1.11437
1.09971
1.08993
1.08016
1.06061
1.06061
1.03617
1.02639
1.01662
1.01173
1.02151
1.04106
1.08504
1.15347
1.23656
1.34897
1.47116
1.60802
1.73998
1.86217
1.97458
2.06745
2.14565
2.20430
2.24829
2.28250
2.30205
2.31672
2.31672
2.32160
2.32649
2.32649
2.32649
2.36070
2.33627
2.32649
2.32649
2.30694
2.28739
2.26295
2.23851
2.19453
2.16031
2.12121
2.08211
2.04790
2.01369
1.98925
1.98925
1.94037
1.93060
1.92082
1.90616
1.89638
1.88661
1.87195
1.85239
1.83284
1.81818
1.78886
1.77419
1.72532
1.70088
1.66667
1.63245
1.60313
1.56891
1.53470
1.50538
1.48094
1.44673
1.42229
1.39296
1.36852
1.34409
1.32454
1.29521
1.28055
1.25611
1.23656
1.22190
1.20723
1.19257
1.17791
1.15836
1.14369
1.13392
1.11926
1.10459
1.08993
1.07527
1.06061
1.05083
1.04106
1.02639
1.02151
1.01662
1.02639
1.05083
1.09971
1.16813
1.26100
1.37830
1.50538
1.64223
1.77908
1.89638
2.00880
2.09677
2.17498
2.22874
2.26295
2.28739
2.30694
2.31183
2.31672
2.31183
2.31183
2.30694
2.31183
2.29717
2.29717
2.28739
2.27273
2.25318
2.22874
2.19941
2.16520
2.12610
2.08700
2.06745
2.01369
1.98436
1.95015
1.93060
1.91593
1.90127
1.89150
1.88172
1.87683
1.87195
1.85239
1.83773
1.81818
1.82307
1.77908
1.75464
1.72532
1.69599
1.66667
1.63245
1.60313
1.56891
1.53470
1.50049
1.46628
1.46139
1.43695
1.38807
1.35875
1.33431
1.31476
1.29032
1.27077
1.25611
1.23656
1.22190
1.20235
1.18280
1.18768
1.16325
1.14369
1.11437
1.09971
1.08504
1.07038
1.05572
1.04106
1.02151
1.02639
1.02639
1.07038
1.08993
1.16325
1.24145
1.33920
1.45161
1.57380
1.70577
1.79374
1.87195
1.97947
2.00391
2.06745
2.05767
2.07234
2.07234
2.06745
2.05767
2.04301
2.02346
2.00391
1.98436
1.99413
1.94037
1.91105
1.88172
1.84751
1.80841
1.80841
1.73998
1.70577
1.67644
1.65200
1.63245
1.62268
1.60802
1.60313
1.63245
1.60802
1.60313
1.62757
1.59824
1.58847
1.57380
1.58358
1.53959
1.51026
1.49071
1.46139
1.43206
1.40274
1.39785
1.34897
1.31965
1.29521
1.27077
1.27566
1.22190
1.20235
1.19746
1.16813
1.14369
1.11926
1.10459
1.08504
1.07038
1.06061
1.04106
1.02639
1.00684
0.99218
0.98240
0.96285
0.94330
0.93353
0.92375
0.91398
0.90420
0.93353
0.91398
0.94330
0.99218
1.05572
1.14858
1.25122
1.36364
1.49071
1.60313
1.70577
1.79863
1.87195
1.92571
1.96481
1.98925
2.00880
2.00880
2.00391
1.99413
2.00391
1.96970
1.95992
1.95015
1.93548
1.92082
1.89638
1.90127
1.84751
1.81329
1.78397
1.74487
1.71554
1.68622
1.66178
1.63734
1.61779
1.60313
1.59335
1.58358
1.58847
1.60802
1.57380
1.56891
1.56403
1.55425
1.53959
1.52004
1.49560
1.47605
1.45650
1.43206
1.40274
1.37830
1.35386
1.32454
1.29521
1.27077
1.25611
1.23167
1.20235
1.20723
1.16325
1.14369
1.12414
1.10459
1.08016
1.07527
1.05572
1.04106
1.02151
1.01173
1.00196
0.98240
0.97263
0.96285
0.96285
0.94330
0.92864
0.90909
0.91398
0.89932
0.90420
0.92375
0.96285
1.02151
1.10459
1.21212
1.31965
1.44184
1.56891
1.69599
1.81818
1.92571
1.96970
2.02835
2.07234
2.09677
2.11144
2.11632
2.12121
2.12121
2.13099
2.11632
2.11632
2.10655
2.10655
2.09677
2.08700
2.07234
2.05767
2.06745
2.00391
1.97458
1.95015
1.91105
1.88172
1.84751
1.82307
1.82796
1.78397
1.79374
1.75953
1.74487
1.73509
1.72532
1.73509
1.70088
1.68622
1.66667
1.64712
1.63245
1.59824
1.57869
1.55425
1.52493
1.50049
1.47116
1.44184
1.41251
1.38807
1.38807
1.33920
1.31476
1.28543
1.26588
1.24633
1.22190
1.20235
1.18768
1.16813
1.15347
1.14369
1.12903
1.11437
1.09971
1.08504
1.07038
1.06061
1.04594
1.03128
1.02151
1.00684
0.99707
0.98729
0.98240
0.97263
0.96774
0.97752
1.00196
1.04594
1.10948
1.20235
1.31476
1.43206
1.56891
1.70088
1.82307
1.93060
2.01857
2.08700
2.14076
2.17498
2.19453
2.20919
2.21408
2.21896
2.21896
2.21896
2.24340
2.20919
2.22385
2.19941
2.19453
2.18964
2.17498
2.15543
2.13099
2.10166
2.07234
2.03812
2.00391
1.98925
1.95015
1.92571
1.90616
1.89638
1.88172
1.85728
1.84751
1.84751
1.82307
1.81329
1.80352
1.79374
1.77419
1.75464
1.73509
1.71065
1.68133
1.65689
1.62757
1.60313
1.57869
1.54936
1.52004
1.50049
1.47605
1.45161
1.43206
1.41251
1.39296
1.37341
1.35386
1.33431
1.31965
1.30010
1.29521
1.27566
1.25611
1.24145
1.23167
1.22190
1.21212
1.19746
1.18280
1.17302
1.15836
1.15836
1.15347
1.16813
1.19746
1.25122
1.34897
1.40762
1.51515
1.63734
1.75953
1.88172
1.98925
2.08700
2.16520
2.22385
2.26784
2.33138
2.31672
2.32160
2.32160
2.31183
2.30694
2.30694
2.29228
2.28250
2.28250
2.25806
2.24340
2.22385
2.18964
2.16520
2.13587
2.10166
2.07234
2.03812
2.04790
1.98925
1.97947
1.95503
1.95015
1.94526
1.93548
1.93548
1.93060
1.92082
1.91593
1.90616
1.89638
1.89150
1.86706
1.84262
1.80352
1.77908
1.74976
1.72043
1.68622
1.66178
1.63245
1.60802
1.57869
1.55425
1.52981
1.52493
1.49071
1.46628
1.45161
1.42717
1.41251
1.39296
1.37830
1.38807
1.34897
1.32942
1.30987
1.29032
1.27566
1.25611
1.24633
1.23167
1.21701
1.21212
1.24145
1.24633
1.29032
1.35386
1.44184
1.54448
1.68622
1.78886
1.90616
2.04301
2.12610
2.17986
2.23851
2.27273
2.29717
2.30694
2.31672
2.31183
2.30205
2.29228
2.30694
2.25806
2.23851
2.21408
2.18475
2.16031
2.15054
2.08211
2.04301
2.00880
1.97947
1.95503
1.92082
1.90127
1.89150
1.87683
1.87195
1.87195
1.86706
1.87683
1.90127
1.86217
1.85728
1.84751
1.82796
1.81329
1.79374
1.79863
1.74487
1.72043
1.69110
1.65689
1.62268
1.59335
1.56891
1.53959
1.51515
1.49071
1.46139
1.44184
1.42717
1.39785
1.38807
1.36852
1.34409
1.32942
1.30987
1.29521
1.28543
1.24633
1.23167
1.21701
1.19257
1.17791
1.16325
1.15347
1.15836
1.17302
1.20723
1.26100
1.34409
1.44184
1.56403
1.69110
1.82307
1.94526
2.06256
2.16520
2.24340
2.31183
2.35582
2.38025
2.39980
2.42424
2.40958
2.40469
2.40958
2.39492
2.38514
2.37537
2.36070
2.34604
2.33138
2.30694
2.28250
2.25318
2.21408
2.17986
2.15054
2.11144
2.07722
2.06256
2.02835
2.00880
1.99413
1.97947
1.97458
1.96481
1.98925
1.95992
1.94037
1.92082
1.90127
1.87683
1.85239
1.82796
1.79863
1.76442
1.73021
1.69599
1.66667
1.62757
1.62268
1.56403
1.53470
1.51026
1.48094
1.46628
1.43206
1.41251
1.38807
1.37341
1.36364
1.31965
1.30499
1.28543
1.27077
1.25122
1.23167
1.21212
1.19746
1.17791
1.15836
1.14858
1.12903
1.11437
1.11926
1.13392
1.15836
1.20235
1.27566
1.37830
1.50049
1.63245
1.77419
1.91105
2.04301
2.15054
2.24340
2.31672
2.37048
2.41447
2.42913
2.44868
2.46334
2.46334
2.47312
2.46334
2.46334
2.45846
2.45846
2.45357
2.44379
2.42913
2.40958
2.38514
2.35093
2.32160
2.27273
2.23363
2.18964
2.15054
2.11632
2.08700
2.06256
2.04301
2.02835
2.03324
1.99413
2.01857
1.96970
1.95503
1.93548
1.92082
1.89638
1.87195
1.85239
1.83773
1.77908
1.74976
1.71554
1.70088
1.64712
1.62757
1.58358
1.54936
1.52493
1.50538
1.49560
1.47116
1.41740
1.40762
1.37341
1.33920
1.34897
1.32942
1.30987
1.27077
1.25611
1.26588
1.24633
1.20235
1.18280
1.16325
1.14858
1.13881
1.11926
1.10459
1.08993
1.07527
1.07038
1.06549
1.08016
1.10948
1.15836
1.23656
1.34897
1.47605
1.61290
1.75464
1.91105
2.01857
2.13099
2.22385
2.29717
2.35582
2.39003
2.41447
2.43402
2.44868
2.44868
2.44868
2.45357
2.44868
2.44868
2.44379
2.44868
2.43402
2.41447
2.39492
2.37048
2.33627
2.31672
2.25806
2.21896
2.17009
2.13587
2.09677
2.07234
2.07234
2.01857
1.99902
1.98436
1.97458
1.97458
1.98436
1.93548
1.92082
1.90127
1.87683
1.84751
1.82307
1.79374
1.76442
1.73021
1.69599
1.66178
1.63245
1.59824
1.56403
1.53470
1.50538
1.48094
1.45650
1.42229
1.40274
1.38319
1.35875
1.33920
1.31965
1.33920
1.29032
1.27077
1.26100
1.24633
1.22678
1.21701
1.19746
1.18280
1.17302
1.15347
1.14369
1.12903
1.11926
1.09971
1.08504
1.08504
1.09971
1.06549
1.07038
1.09971
1.15836
1.23656
1.33431
1.45650
1.58847
1.73021
1.87195
1.99902
2.11632
2.23363
2.31183
2.33627
2.37048
2.39003
2.39980
2.41935
2.39492
2.39003
2.38025
2.37048
2.37048
2.35093
2.34604
2.33138
2.31183
2.28739
2.25806
2.21896
2.17498
2.14076
2.10166
2.06745
2.06745
2.00880
1.99413
1.96970
1.95992
1.95503
1.95015
1.94526
1.94037
1.93548
1.92082
1.90616
1.88661
1.87195
1.84262
1.81329
1.78397
1.75464
1.74976
1.68133
1.65200
1.61779
1.57869
1.55425
1.52493
1.49560
1.46628
1.44673
1.42717
1.40274
1.38807
1.37341
1.35386
1.33920
1.31476
1.29032
1.28055
1.25611
1.24145
1.22678
1.21212
1.19257
1.17791
1.15836
1.14858
1.13392
1.11437
1.11926
1.10459
1.11437
1.14369
1.19746
1.26588
1.36364
1.48094
1.60802
1.73998
1.86217
1.97947
2.08211
2.16031
2.23363
2.29228
2.29717
2.30694
2.30694
2.30205
2.28250
2.26784
2.24829
2.22874
2.20430
2.17986
2.15054
2.11632
2.08211
2.04301
2.01369
1.95015
1.91105
1.87195
1.84262
1.81818
1.79863
1.78397
1.77419
1.76931
1.76931
1.77419
1.77419
1.77419
1.75953
1.74976
1.73509
1.72043
1.68622
1.66178
1.63245
1.63245
1.56891
1.53959
1.51026
1.47605
1.44184
1.41251
1.38319
1.35875
1.33431
1.30499
1.28055
1.27077
1.24633
1.22190
1.20235
1.18280
1.17302
1.14858
1.15347
1.11926
1.09971
1.08993
1.10948
1.06061
1.04594
1.03128
1.01662
1.01173
1.01662
0.98240
0.97752
0.98240
1.01173
1.06061
1.13392
1.23167
1.35386
1.49560
1.66178
1.78886
1.92571
2.04301
2.15543
2.25318
2.30205
2.38025
2.37537
2.39003
2.40469
2.39980
2.39492
2.39980
2.37048
2.36070
2.35093
2.33627
2.32160
2.30694
2.27761
2.24829
2.21408
2.17498
2.13099
2.09677
2.05279
2.01857
1.98436
1.95503
1.92571
1.91105
1.89150
1.88172
1.87195
1.85728
1.85239
1.84262
1.82796
1.81329
1.79374
1.76442
1.73998
1.70577
1.67644
1.64223
1.60313
1.56891
1.53470
1.50538
1.48094
1.43695
1.40762
1.37341
1.35386
1.32454
1.29521
1.27077
1.24633
1.24145
1.20723
1.19257
1.18280
1.16325
1.14369
1.13392
1.11926
1.09971
1.10948
1.07038
1.05572
1.04106
1.03128
1.02639
0.99707
0.99218
0.98729
0.99218
1.01173
1.05083
1.12414
1.24145
1.32942
1.46628
1.61290
1.76442
1.90127
2.03812
2.14565
2.26295
2.29717
2.34604
2.37537
2.39492
2.39980
2.40958
2.41447
2.40469
2.39492
2.39003
2.38514
2.37537
2.37048
2.35582
2.33627
2.31183
2.27761
2.23363
2.19453
2.15054
2.11144
2.06256
2.02346
1.98436
1.95992
1.94037
1.93548
1.89150
1.87683
1.86706
1.85728
1.84262
1.82796
1.81329
1.79374
1.76931
1.74487
1.71554
1.70577
1.64712
1.60802
1.60802
1.53959
1.50538
1.47116
1.43695
1.40762
1.37341
1.34409
1.31965
1.29032
1.27077
1.25611
1.21701
1.19257
1.17791
1.15836
1.14369
1.11926
1.10459
1.08993
1.07038
1.06061
1.04106
1.03128
1.01173
0.99707
0.98240
0.96774
0.95797
0.95797
0.97263
1.02151
1.02639
1.09971
1.19746
1.31476
1.44673
1.58847
1.73509
1.85239
1.96481
2.06745
2.14076
2.19453
2.23851
2.26784
2.28739
2.31183
2.29717
2.29717
2.29228
2.31672
2.28250
2.28739
2.27273
2.25806
2.27761
2.21896
2.22385
2.16520
2.15543
2.08211
2.05279
1.99902
1.96481
1.93060
1.90127
1.88172
1.86217
1.84751
1.83773
1.83284
1.82796
1.81818
1.80841
1.79374
1.77908
1.79374
1.76442
1.70577
1.68133
1.68622
1.61779
1.58847
1.55914
1.52981
1.49560
1.46628
1.43206
1.41251
1.38807
1.35386
1.32942
1.30987
1.29032
1.27077
1.25122
1.24145
1.21701
1.21701
1.18280
1.16813
1.14858
1.13881
1.11926
1.10459
1.08993
1.07527
1.06061
1.06061
1.03617
1.04106
1.05083
1.08016
1.13881
1.24145
1.30010
1.41251
1.53470
1.66178
1.78397
1.88172
1.97458
2.05279
2.10655
2.14565
2.17498
2.18475
2.18964
2.18475
2.17986
2.17009
2.17986
2.14076
2.12121
2.10166
2.07722
2.04790
2.01369
1.97458
1.95015
1.90616
1.86217
1.83773
1.79374
1.76931
1.73998
1.72532
1.72043
1.71554
1.71554
1.71065
1.71065
1.70577
1.69599
1.68622
1.67155
1.65200
1.64223
1.61779
1.57869
1.58847
1.52493
1.49071
1.45650
1.45161
1.39785
1.37341
1.33920
1.32454
1.29032
1.26588
1.24633
1.22678
1.21212
1.19257
1.17302
1.14858
1.13392
1.11926
1.10459
1.08504
1.06061
1.05083
1.04594
1.01662
1.00196
0.98729
0.97752
0.97752
0.99218
1.02151
1.08016
1.15347
1.27566
1.36364
1.47605
1.59824
1.72043
1.83284
1.93060
2.01369
2.07234
2.11632
2.14565
2.16520
2.17498
2.17986
2.17498
2.17009
2.16031
2.15054
2.13587
2.12610
2.11144
2.09677
2.06745
2.03812
2.00391
1.95992
1.92571
1.88172
1.84262
1.84262
1.79374
1.76442
1.74487
1.73509
1.72043
1.71554
1.71065
1.70577
1.71065
1.68133
1.67155
1.68133
1.63245
1.60802
1.57869
1.54936
1.52493
1.48583
1.46139
1.44184
1.42229
1.39296
1.38319
1.32454
1.29521
1.27077
1.25122
1.23167
1.21212
1.19746
1.17302
1.15347
1.12903
1.11926
1.09971
1.08993
1.07038
1.05572
1.04106
1.02639
1.01662
0.99707
0.97752
0.96774
0.95797
0.95797
0.97752
1.01662
1.03617
1.10459
1.19746
1.30987
1.43206
1.56403
1.69599
1.81329
1.93060
2.02835
2.09677
2.15054
2.19453
2.21896
2.24340
2.26295
2.26784
2.29228
2.27273
2.27273
2.26784
2.27273
2.26784
2.26295
2.24829
2.23363
2.19941
2.17498
2.13587
2.10166
2.05279
2.04301
1.96970
1.95503
1.90616
1.87683
1.86217
1.83284
1.82307
1.80841
1.79863
1.80352
1.76442
1.74976
1.73509
1.71554
1.68622
1.66178
1.63245
1.59824
1.56891
1.56403
1.50538
1.47116
1.44184
1.41251
1.38319
1.35386
1.32942
1.30987
1.28055
1.26588
1.26588
1.22190
1.23167
1.17791
1.15836
1.14369
1.14369
1.11926
1.09482
1.08504
1.06549
1.04594
1.03128
1.01662
1.00196
0.98729
0.96774
0.99218
0.96285
0.96285
0.98240
1.03617
1.08016
1.17302
1.27566
1.39785
1.52981
1.65689
1.77908
1.88661
1.97947
2.05279
2.11144
2.15543
2.21408
2.24340
2.22385
2.23363
2.24829
2.23363
2.26784
2.23363
2.22874
2.22874
2.22385
2.20919
2.19453
2.17009
2.13587
2.10655
2.06256
2.02835
1.97947
1.94526
1.91105
1.88172
1.85728
1.83773
1.81818
1.80352
1.79863
1.77908
1.76931
1.75953
1.74487
1.76442
1.73998
1.67644
1.65200
1.62757
1.60313
1.57380
1.54448
1.52004
1.48583
1.46139
1.43206
1.40762
1.38319
1.37341
1.33431
1.31476
1.30010
1.28055
1.25611
1.24145
1.22678
1.21212
1.20235
1.19746
1.16813
1.14858
1.13392
1.11926
1.10459
1.08993
1.07527
1.06061
1.04594
1.03128
1.02151
1.01662
1.02639
1.04106
1.08016
1.13392
1.21212
1.31476
1.42229
1.54448
1.66178
1.77419
1.87683
1.97458
2.02835
2.07722
2.11632
2.14076
2.16520
2.15054
2.16031
2.15054
2.17498
2.13099
2.12121
2.11144
2.08700
2.06745
2.04301
2.01369
1.98436
1.94037
1.93548
1.86706
1.83284
1.80352
1.78397
1.76442
1.74487
1.73998
1.73021
1.72532
1.72532
1.72532
1.72043
1.72043
1.70577
1.69599
1.67644
1.65689
1.65200
1.62268
1.60802
1.54936
1.52493
1.49560
1.49560
1.43206
1.40274
1.37830
1.35386
1.32942
1.30987
1.28543
1.27077
1.24145
1.22190
1.20723
1.18280
1.16813
1.18280
1.12903
1.11437
1.09971
1.08504
1.06549
1.04594
1.03617
1.01662
1.01173
0.99218
0.98729
0.99218
1.00684
1.05572
1.10459
1.17791
1.27566
1.38319
1.51026
1.62268
1.73509
1.84262
1.95503
1.99413
2.04790
2.08211
2.10655
2.12610
2.12121
2.11632
2.10655
2.09677
2.10655
2.06745
2.04790
2.03324
2.00391
1.97458
1.95503
1.90616
1.87195
1.83773
1.80352
1.76931
1.74487
1.70577
1.69110
1.67644
1.65689
1.65200
1.64712
1.64712
1.64223
1.64223
1.63245
1.62268
1.63734
1.58358
1.56891
1.53959
1.51515
1.48583
1.45650
1.43695
1.43206
1.37341
1.33920
1.31476
1.29032
1.26588
1.24145
1.22678
1.19257
1.17302
1.15347
1.13392
1.11437
1.13392
1.08504
1.06549
1.06061
1.05083
1.02151
1.00684
0.99218
0.97752
0.96774
0.98240
0.93842
0.92375
0.91887
0.90420
0.90420
0.94330
0.93353
0.96285
1.02639
1.10948
1.22190
1.34409
1.48583
1.65200
1.74976
1.87195
1.97947
2.06256
2.13099
2.18964
2.22385
2.26784
2.28739
2.27273
2.27273
2.27273
2.29717
2.29717
2.26784
2.26295
2.25806
2.24340
2.22385
2.20919
2.17986
2.14565
2.10655
2.10655
2.03324
1.99413
1.95992
1.94526
1.90127
1.87195
1.85239
1.84262
1.85728
1.81329
1.80352
1.79374
1.78397
1.76442
1.74487
1.72532
1.70088
1.70577
1.64223
1.61290
1.58358
1.54936
1.52004
1.50538
1.45650
1.42717
1.39785
1.36852
1.33920
1.31476
1.28543
1.26100
1.23656
1.21212
1.19257
1.17302
1.15347
1.13881
1.12414
1.11437
1.08993
1.10459
1.06061
1.03128
1.02151
1.00684
0.99707
0.98240
0.96774
0.95797
0.95797
0.96285
0.98729
1.06061
1.11926
1.17791
1.28543
1.41251
1.55425
1.69110
1.82307
1.95503
2.04301
2.12610
2.19453
2.24340
2.27761
2.30205
2.31183
2.32160
2.32160
2.32160
2.32160
2.31183
2.30205
2.29717
2.28739
2.27273
2.25318
2.23363
2.20430
2.17009
2.12610
2.09189
2.04301
2.00880
1.96970
1.95992
1.90616
1.88172
1.86217
1.84262
1.82796
1.82307
1.81818
1.79863
1.78397
1.77419
1.74976
1.72532
1.70088
1.67644
1.65689
1.63245
1.58847
1.55914
1.52981
1.49560
1.48583
1.43695
1.40762
1.39296
1.38807
1.32454
1.30987
1.28055
1.25611
1.23656
1.21701
1.19746
1.19257
1.17791
1.14858
1.13392
1.14369
1.10948
1.09482
1.08016
1.07038
1.05572
1.04594
1.05572
1.02151
1.04106
0.99707
0.99218
0.99218
1.00196
1.04106
1.08016
1.15347
1.25122
1.36364
1.50049
1.63734
1.79863
1.90616
2.02346
2.12121
2.20919
2.26784
2.31183
2.37048
2.36070
2.36559
2.38514
2.35582
2.34604
2.35582
2.32160
2.32160
2.29228
2.29228
2.25318
2.22385
2.19453
2.16031
2.13099
2.08700
2.05279
2.03812
1.98436
1.96970
1.94037
1.92571
1.91593
1.90127
1.89150
1.90616
1.88172
1.87683
1.86706
1.85728
1.83773
1.82307
1.79863
1.77419
1.74976
1.72043
1.68622
1.65689
1.62757
1.59335
1.56891
1.53959
1.51026
1.48094
1.45650
1.44673
1.40274
1.38807
1.38807
1.34897
1.32454
1.30987
1.29032
1.27077
1.25122
1.24145
1.21701
1.20723
1.18768
1.17302
1.15347
1.14858
1.13392
1.14369
1.11437
1.11926
1.13881
1.18768
1.24145
1.31965
1.42717
1.54448
1.67155
1.80352
1.92571
2.05767
2.14076
2.21896
2.26295
2.29228
2.31672
2.32160
2.32649
2.31672
2.29717
2.28250
2.24829
2.22874
2.18964
2.16031
2.11632
2.07722
2.03324
1.98436
1.94037
1.90127
1.86217
1.83284
1.80352
1.78397
1.76931
1.75464
1.74976
1.74487
1.74487
1.76931
1.74487
1.73998
1.73509
1.72043
1.70577
1.68622
1.66178
1.65689
1.60802
1.58847
1.57380
1.55914
1.49071
1.46628
1.43695
1.40274
1.37830
1.34897
1.32454
1.29521
1.27077
1.25122
1.23656
1.21212
1.19257
1.17302
1.16813
1.16325
1.11437
1.09971
1.08016
1.07527
1.08993
1.04594
1.03617
1.03128
1.03128
1.04106
1.07038
1.12414
1.19746
1.30499
1.42229
1.56891
1.71554
1.85728
1.99413
2.11632
2.21896
2.30694
2.36070
2.40958
2.43891
2.45846
2.46334
2.45846
2.44868
2.43402
2.41935
2.40469
2.38514
2.36559
2.34604
2.32160
2.29228
2.26295
2.21896
2.18475
2.13587
2.09677
2.05767
2.02835
1.99413
1.96481
1.95015
1.92571
1.91105
1.90616
1.91593
1.91105
1.87683
1.85728
1.84262
1.82307
1.81329
1.77908
1.74487
1.71065
1.71065
1.65689
1.61290
1.58358
1.54936
1.51515
1.48583
1.45650
1.41740
1.38807
1.35875
1.32942
1.30010
1.28055
1.28055
1.24145
1.21701
1.19746
1.17302
1.15836
1.14858
1.11926
1.09971
1.08504
1.06549
1.05083
1.04106
1.02151
1.01662
1.01662
1.02639
1.05572
1.11437
1.18768
1.29521
1.42717
1.56891
1.72532
1.87683
2.01857
2.15054
2.27761
2.34604
2.40469
2.45846
2.51222
2.54643
2.51711
2.52199
2.52199
2.50733
2.49756
2.49267
2.48778
2.47312
2.45846
2.43891
2.42424
2.38514
2.35582
2.31672
2.27273
2.22874
2.19941
2.14076
2.13099
2.07722
2.04301
2.01857
1.99413
1.97458
1.95992
1.94526
1.93060
1.91593
1.90127
1.88172
1.86217
1.83773
1.80841
1.77908
1.74487
1.71065
1.67644
1.63734
1.60313
1.56891
1.52981
1.50049
1.46628
1.43695
1.41251
1.40274
1.36852
1.32454
1.30010
1.28543
1.27566
1.23656
1.21701
1.19746
1.17791
1.19257
1.14369
1.12414
1.10459
1.08993
1.07527
1.06549
1.06549
1.06549
1.02151
1.01662
1.01662
1.04106
1.07527
1.13392
1.23167
1.35386
1.49071
1.64712
1.83284
1.94526
2.08211
2.19941
2.29717
2.37537
2.44379
2.47312
2.50244
2.51222
2.51222
2.50733
2.49756
2.48778
2.47801
2.46823
2.45846
2.44379
2.42424
2.40958
2.37537
2.34115
2.30694
2.25806
2.21408
2.17498
2.13099
2.09677
2.05767
2.02835
1.99902
1.97947
1.96481
1.95015
1.93060
1.91593
1.90127
1.89150
1.87195
1.84751
1.82307
1.79863
1.76931
1.73998
1.71065
1.67644
1.65689
1.59824
1.56891
1.52981
1.50049
1.47116
1.45161
1.40274
1.37830
1.34409
1.31965
1.30010
1.27077
1.27566
1.24145
1.21701
1.19746
1.17791
1.16325
1.15347
1.13392
1.12414
1.12903
1.08504
1.07038
1.06061
1.05083
1.04106
1.05083
1.07038
1.11926
1.22678
1.29521
1.41740
1.56403
1.70577
1.85728
1.99902
2.13099
2.22874
2.31672
2.38025
2.42913
2.45846
2.47312
2.48289
2.48289
2.50244
2.45357
2.44379
2.42913
2.40958
2.40958
2.37537
2.38514
2.32160
2.29717
2.24829
2.20430
2.18475
2.12121
2.08700
2.04790
2.01857
1.98925
1.97458
1.96970
1.94526
1.93548
1.93548
1.94526
1.91593
1.90616
1.90616
1.87683
1.85239
1.83284
1.80352
1.77908
1.76442
1.73998
1.71554
1.65200
1.61779
1.58358
1.55914
1.52493
1.51026
1.48094
1.46628
1.42229
1.42229
1.37341
1.35386
1.33431
1.30987
1.30010
1.27077
1.25122
1.23167
1.24145
1.19746
1.16813
1.15347
1.13881
1.13881
1.11437
1.14858
1.12414
1.14858
1.20723
1.30987
1.38807
1.50538
1.64712
1.78886
1.92571
2.04301
2.15543
2.27273
2.30694
2.35582
2.38025
2.39492
2.39492
2.38514
2.36559
2.34604
2.31672
2.29228
2.26295
2.23363
2.19453
2.16031
2.11632
2.07234
2.03324
1.98436
1.95015
1.94526
1.88172
1.89150
1.84751
1.83773
1.82796
1.83284
1.82796
1.82796
1.82796
1.82796
1.81818
1.82307
1.79374
1.77419
1.75953
1.75953
1.69599
1.66667
1.63734
1.62268
1.56891
1.53470
1.50538
1.47605
1.45161
1.42717
1.40274
1.39296
1.34897
1.32454
1.29521
1.27566
1.28055
1.23656
1.21212
1.19257
1.17302
1.15347
1.13392
1.10948
1.09482
1.08016
1.06549
1.05083
1.05083
1.06061
1.09482
1.15836
1.24633
1.34409
1.47116
1.62268
1.76442
1.91593
2.04790
2.16520
2.26295
2.33138
2.38514
2.41935
2.43402
2.43891
2.43402
2.41935
2.39492
2.39492
2.35093
2.33627
2.32160
2.28250
2.25318
2.22385
2.18475
2.14565
2.11632
2.05279
2.01857
1.96970
1.94037
1.91105
1.89150
1.87195
1.85728
1.88661
1.84262
1.83773
1.83773
1.83284
1.82307
1.80841
1.79374
1.76442
1.73998
1.71554
1.69599
1.64712
1.61779
1.58358
1.56891
1.53470
1.49071
1.46139
1.43206
1.40762
1.38319
1.35386
1.32942
1.30987
1.28543
1.26100
1.24633
1.25122
1.20235
1.17791
1.15836
1.13881
1.11926
1.11437
1.08993
1.07527
1.06061
1.04594
1.04106
1.05083
1.07527
1.11926
1.23656
1.31476
1.45161
1.60313
1.75464
1.91105
2.05279
2.17498
2.27761
2.36559
2.42913
2.47312
2.49756
2.51222
2.51222
2.50733
2.50244
2.48778
2.47312
2.46823
2.44868
2.43891
2.42424
2.39980
2.37537
2.34115
2.33627
2.26295
2.21896
2.17498
2.13099
2.09189
2.05279
2.02835
1.99902
1.97458
1.95992
1.96970
1.93548
1.92082
1.92571
1.91105
1.88172
1.86217
1.84262
1.81329
1.78397
1.75464
1.72043
1.68622
1.68622
1.61290
1.59824
1.54936
1.51515
1.52004
1.45161
1.42229
1.39785
1.37341
1.34897
1.32942
1.30499
1.28055
1.26588
1.24633
1.22678
1.20723
1.18768
1.18768
1.15347
1.13392
1.11437
1.09482
1.07527
1.09482
1.04594
1.03617
1.02639
1.02639
1.03617
1.09482
1.14858
1.24633
1.38319
1.51026
1.66178
1.81329
1.96481
2.08700
2.19941
2.29228
2.36070
2.39980
2.43402
2.44868
2.44868
2.44868
2.44868
2.42913
2.41935
2.41447
2.40469
2.39492
2.38025
2.38025
2.34115
2.32160
2.27761
2.23851
2.19941
2.15054
2.11144
2.06745
2.03324
1.99902
1.96970
1.94526
1.93060
1.91593
1.90616
1.89638
1.90127
1.88172
1.86706
1.85728
1.84262
1.84262
1.78397
1.75953
1.72532
1.69110
1.65689
1.62757
1.59824
1.59335
1.52981
1.50049
1.46628
1.44184
1.41251
1.38807
1.36364
1.34409
1.32454
1.30987
1.28543
1.26588
1.24633
1.23167
1.24145
1.19257
1.17302
1.15836
1.13392
1.12414
1.09971
1.08016
1.06061
1.04106
1.04106
1.02639
1.03128
1.05572
1.08993
1.15836
1.27077
1.36364
1.49071
1.62757
1.75953
1.88172
2.01857
2.08211
2.15054
2.19941
2.23363
2.24829
2.25806
2.25806
2.25318
2.24829
2.23363
2.21408
2.19941
2.18475
2.19941
2.14565
2.11632
2.08700
2.05767
2.01369
1.96970
1.92571
1.91593
1.85239
1.83773
1.80352
1.78886
1.77908
1.76931
1.76931
1.76931
1.76442
1.75953
1.75464
1.74487
1.72532
1.71065
1.69599
1.66667
1.64223
1.60802
1.57869
1.54448
1.51515
1.52004
1.45650
1.42717
1.40274
1.38319
1.35386
1.33431
1.31476
1.29521
1.27566
1.25611
1.24145
1.21701
1.23167
1.18280
1.16325
1.13881
1.11926
1.10459
1.08504
1.06549
1.04594
1.02639
1.02151
0.99707
0.98729
0.99707
1.02639
1.08993
1.13881
1.22678
1.34409
1.44673
1.56403
1.67155
1.77419
1.87683
1.93548
1.98925
2.03324
2.05767
2.06745
2.07722
2.06256
2.05279
2.03812
2.01857
1.99902
1.97947
1.95992
1.93060
1.89638
1.86706
1.82307
1.77908
1.73998
1.70088
1.66178
1.63245
1.61290
1.59335
1.57869
1.57869
1.56403
1.56403
1.57869
1.55914
1.58358
1.54936
1.53959
1.52493
1.50538
1.51515
1.45650
1.43206
1.40762
1.37830
1.34897
1.33920
1.28543
1.25122
1.22678
1.19257
1.18768
1.14858
1.12414
1.09971
1.08016
1.06549
1.07527
1.02151
1.00196
0.98240
0.98729
0.97752
0.94330
0.92375
0.91398
0.89932
0.87488
0.86022
0.84555
0.83578
0.82600
0.82600
0.82600
0.84555
0.88465
0.96774
1.02639
1.12903
1.25122
1.40274
1.50538
1.62268
1.73021
1.82796
1.90616
1.96481
2.01369
2.04790
2.06745
2.08211
2.09677
2.09677
2.10166
2.10166
2.10166
2.09677
2.09189
2.11144
2.07234
2.05279
2.03324
2.00391
1.96970
1.94037
1.89638
1.88172
1.82796
1.79374
1.76442
1.73998
1.72043
1.70577
1.69599
1.68133
1.68133
1.65689
1.64712
1.63245
1.64712
1.60313
1.57869
1.55425
1.55914
1.49560
1.46628
1.43695
1.41740
1.37830
1.34897
1.31476
1.29521
1.26100
1.23167
1.20723
1.18280
1.17791
1.13881
1.11437
1.12903
1.08993
1.06061
1.04594
1.05083
1.01173
0.99218
0.97752
0.96285
0.94330
0.94330
0.92375
0.90909
0.89443
0.87977
0.87488
0.85533
0.84066
0.83089
0.82600
0.84066
0.86510
0.94330
0.97752
1.06549
1.17302
1.30010
1.42717
1.55914
1.68133
1.78886
1.87683
1.95503
2.01369
2.05767
2.10166
2.11632
2.13099
2.14565
2.17986
2.16031
2.16520
2.16520
2.17009
2.17009
2.16031
2.15543
2.14076
2.13587
2.09189
2.05767
2.02346
1.98925
1.95015
1.91105
1.87683
1.84751
1.82307
1.79863
1.78397
1.76931
1.75953
1.74976
1.73509
1.72532
1.71065
1.68622
1.67155
1.65200
1.62757
1.60313
1.57869
1.54448
1.51515
1.48583
1.44673
1.41740
1.38807
1.36364
1.33431
1.30987
1.28055
1.25611
1.23167
1.20723
1.19257
1.17302
1.15347
1.13881
1.09971
1.08504
1.07038
1.05572
1.07038
1.02151
1.00684
0.99218
0.98240
0.99707
0.94819
0.93842
0.92864
0.92375
0.89932
0.89443
0.87977
0.89443
0.90420
0.93353
0.98240
1.07038
1.14369
1.25611
1.37830
1.50538
1.62757
1.73998
1.84262
1.92571
2.00880
2.05279
2.09189
2.12121
2.14076
2.17986
2.18964
2.16520
2.20430
2.17009
2.17009
2.16520
2.16031
2.14565
2.13587
2.11144
2.08700
2.06256
2.02835
1.98925
1.95503
1.92082
1.91593
1.86217
1.84262
1.82307
1.80841
1.79863
1.80352
1.78886
1.78886
1.77419
1.76931
1.75464
1.75464
1.71554
1.69599
1.67644
1.65200
1.62268
1.62757
1.57380
1.53470
1.51026
1.51026
1.44673
1.42229
1.39785
1.37341
1.34409
1.32454
1.30010
1.28055
1.26100
1.24633
1.22678
1.21212
1.22190
1.17791
1.16325
1.14858
1.12903
1.11437
1.10948
1.12414
1.08016
1.06549
1.05572
1.04594
1.03128
1.01662
1.01173
1.01173
1.01173
1.03128
1.06549
1.12903
1.21212
1.30010
1.41251
1.52981
1.64712
1.78886
1.86217
1.95503
2.05279
2.07722
2.11632
2.14076
2.16031
2.16031
2.16031
2.15054
2.14565
2.13099
2.11632
2.10166
2.08211
2.05767
2.04301
2.00391
1.96970
1.93548
1.90127
1.86706
1.84262
1.81329
1.80352
1.81329
1.77419
1.78397
1.77419
1.77419
1.77419
1.77908
1.76931
1.76442
1.75953
1.74487
1.73509
1.71065
1.68622
1.66178
1.63734
1.60802
1.57869
1.54936
1.54448
1.49071
1.46628
1.44673
1.41740
1.39296
1.36852
1.34409
1.32454
1.33431
1.28055
1.26100
1.24145
1.22190
1.21701
1.18280
1.16325
1.14858
1.13392
1.12414
1.09971
1.08016
1.08504
1.07527
1.06061
1.02151
1.01662
1.03128
1.03617
1.07038
1.13392
1.20723
1.30010
1.41740
1.54448
1.67155
1.78886
1.90616
1.99413
2.07234
2.13099
2.17498
2.19941
2.23363
2.22385
2.22385
2.21896
2.20919
2.20430
2.18475
2.17498
2.15054
2.13587
2.11144
2.07234
2.06256
2.00880
1.96970
1.93548
1.90127
1.87195
1.84262
1.82307
1.80352
1.79374
1.78397
1.77908
1.77419
1.76931
1.76442
1.75953
1.75464
1.77419
1.72532
1.71065
1.68133
1.65689
1.62757
1.63245
1.56891
1.54448
1.51515
1.48094
1.45161
1.44673
1.42229
1.36852
1.34409
1.31965
1.29521
1.27566
1.25122
1.22678
1.21212
1.18280
1.15836
1.14858
1.12414
1.10948
1.09482
1.07527
1.08016
1.04106
1.02151
1.00684
0.99218
0.97752
0.96285
0.98240
0.96774
0.97263
1.00684
1.06061
1.14369
1.25122
1.38807
1.51515
1.66178
1.81818
1.92571
2.03812
2.13587
2.20430
2.26295
2.30694
2.33627
2.35582
2.36070
2.36559
2.37048
2.36070
2.35582
2.34604
2.34604
2.34115
2.32649
2.32160
2.29228
2.26295
2.22874
2.19453
2.17009
2.11144
2.10166
2.03812
2.00391
1.97947
1.95015
1.93548
1.91593
1.90127
1.91593
1.88172
1.88661
1.86217
1.84751
1.82796
1.83773
1.78397
1.75953
1.75953
1.69599
1.66667
1.64223
1.63245
1.56403
1.52981
1.49560
1.47605
1.44673
1.39785
1.36852
1.34409
1.31965
1.29032
1.26100
1.24633
1.25122
1.19257
1.17302
1.15836
1.15347
1.11437
1.09971
1.08993
1.07038
1.05083
1.03128
1.01662
1.02151
0.98729
0.97752
0.96285
0.94330
0.93842
0.94330
0.95308
1.00196
1.05083
1.13392
1.25122
1.37341
1.51026
1.69110
1.80352
1.94037
2.05767
2.15054
2.26295
2.28739
2.33138
2.36070
2.38514
2.39492
2.39492
2.39980
2.39492
2.40958
2.42424
2.38025
2.38025
2.36559
2.35093
2.32649
2.31183
2.26295
2.22385
2.18475
2.14565
2.10166
2.06256
2.03324
1.99902
1.96481
1.95992
1.92571
1.92082
1.90127
1.89150
1.87683
1.86217
1.84751
1.83773
1.80841
1.78397
1.76931
1.72532
1.69599
1.66667
1.62757
1.59335
1.55914
1.52981
1.52493
1.46139
1.43206
1.40762
1.37341
1.35386
1.31965
1.30010
1.28055
1.23656
1.21701
1.20235
1.18768
1.16325
1.14858
1.13392
1.14369
1.09971
1.08504
1.07038
1.05572
1.08016
1.03128
1.01662
1.00684
0.98729
0.97752
0.97263
0.95797
0.96285
0.97263
1.00196
1.04594
1.12903
1.22678
1.35386
1.51515
1.63734
1.78886
1.92571
2.04301
2.14565
2.22385
2.29228
2.34115
2.36559
2.39492
2.42424
2.39492
2.39492
2.38514
2.37537
2.36559
2.35582
2.35093
2.33138
2.32649
2.28250
2.26295
2.21896
2.17986
2.14076
2.10166
2.08700
2.02835
2.02346
1.96970
1.95503
1.96970
1.92571
1.92082
1.91593
1.90616
1.89638
1.89150
1.87683
1.86217
1.84262
1.82307
1.79863
1.76442
1.73021
1.70577
1.67644
1.64223
1.60802
1.58847
1.54448
1.51026
1.49071
1.46139
1.43206
1.41251
1.38319
1.36364
1.34409
1.32454
1.30010
1.29032
1.26100
1.24145
1.22678
1.24145
1.19257
1.17302
1.15836
1.13881
1.12903
1.10948
1.09482
1.08993
1.07527
1.07038
1.08504
1.13881
1.15836
1.23656
1.33431
1.45161
1.57869
1.72043
1.84262
1.95992
2.06256
2.15543
2.22385
2.27273
2.30205
2.32160
2.32160
2.31672
2.30205
2.27761
2.25806
2.23363
2.20919
2.20430
2.14076
2.10166
2.05767
2.01369
1.96481
1.92082
1.91593
1.85728
1.82307
1.83284
1.77908
1.76442
1.79374
1.74976
1.74976
1.75464
1.76442
1.75464
1.74976
1.74976
1.73021
1.71065
1.71554
1.66667
1.64223
1.60802
1.57380
1.54448
1.52004
1.48094
1.45161
1.42717
1.39785
1.37341
1.36364
1.32454
1.29521
1.27566
1.25611
1.24145
1.21701
1.20235
1.17791
1.16325
1.13881
1.12414
1.10948
1.08993
1.07527
1.05572
1.03617
1.02639
1.01662
1.01173
1.02151
1.04594
1.10459
1.17302
1.28543
1.39785
1.53959
1.69110
1.83773
1.97947
2.09189
2.19453
2.28250
2.34115
2.38514
2.40958
2.41935
2.42424
2.41447
2.40958
2.39492
2.39492
2.36559
2.37537
2.33138
2.31183
2.28739
2.25318
2.21896
2.17986
2.14076
2.12121
2.05279
2.02835
1.97947
1.98436
1.93060
1.91105
1.89638
1.90616
1.87195
1.87195
1.86706
1.87195
1.84262
1.83284
1.81818
1.78397
1.75953
1.73509
1.70088
1.67155
1.63734
1.60313
1.59824
1.53470
1.50538
1.47605
1.46628
1.41251
1.38807
1.39296
1.33431
1.32454
1.29521
1.27566
1.25122
1.23656
1.21701
1.20723
1.21701
1.16325
1.14369
1.15836
1.11437
1.09482
1.08016
1.06549
1.05572
1.07038
1.08016
1.13392
1.21701
1.27566
1.39785
1.53470
1.71554
1.83773
1.97947
2.11144
2.21896
2.33138
2.38514
2.43891
2.48778
2.50244
2.51222
2.51711
2.53177
2.51222
2.50244
2.49756
2.48778
2.48289
2.46823
2.45846
2.43891
2.41447
2.38514
2.34604
2.30205
2.27273
2.20919
2.18475
2.13099
2.09677
2.06256
2.05767
2.01857
2.00391
1.98925
1.97458
1.98925
1.94526
1.93060
1.93060
1.89150
1.86706
1.83773
1.80841
1.77908
1.74487
1.71065
1.67155
1.64223
1.60802
1.57380
1.54448
1.51026
1.47605
1.45650
1.41740
1.38319
1.36852
1.34409
1.31965
1.29521
1.29032
1.25611
1.23656
1.22678
1.20235
1.18768
1.16813
1.14858
1.13392
1.11926
1.09971
1.08016
1.07527
1.04594
1.03128
1.02151
1.02151
1.03128
1.06061
1.11926
1.19257
1.29521
1.42229
1.56403
1.70577
1.84751
1.96970
2.08211
2.18475
2.24340
2.30205
2.34115
2.36070
2.37537
2.37537
2.37537
2.38025
2.37048
2.36559
2.39492
2.35093
2.34604
2.34115
2.32160
2.29717
2.28739
2.22874
2.18475
2.14565
2.09189
2.05279
2.01369
1.97947
1.95503
1.93060
1.91105
1.90127
1.87683
1.86706
1.85239
1.84262
1.82796
1.81329
1.79863
1.80352
1.74487
1.72043
1.71065
1.65200
1.62268
1.58847
1.59335
1.52493
1.49560
1.46139
1.43206
1.43206
1.37341
1.34897
1.32454
1.30010
1.27566
1.25611
1.23656
1.21701
1.19746
1.17791
1.15836
1.14369
1.15347
1.10459
1.08016
1.07038
1.05083
1.03617
1.04594
1.02151
0.99707
0.99707
1.01662
1.05572
1.10948
1.19257
1.29032
1.39785
1.52004
1.62757
1.73021
1.83773
1.90127
1.95992
2.00880
2.03812
2.05767
2.06745
2.07234
2.07234
2.05767
2.05279
2.03812
2.02346
2.00880
1.98925
1.97458
1.94037
1.90616
1.87683
1.83773
1.79863
1.76442
1.74976
1.70088
1.70577
1.66178
1.65200
1.65200
1.67644
1.64712
1.68133
1.64712
1.66178
1.64223
1.63245
1.64712
1.59824
1.57380
1.56403
1.52004
1.49560
1.46628
1.44184
1.41251
1.38319
1.35875
1.32942
1.30499
1.28055
1.26100
1.24145
1.22190
1.19746
1.18280
1.16325
1.14858
1.12903
1.10459
1.08504
1.08016
1.05083
1.03128
1.04594
1.00196
0.98240
0.96774
0.95308
0.93842
0.93353
0.91887
0.92375
0.93842
1.00684
1.02639
1.10948
1.20235
1.31476
1.41740
1.52493
1.62268
1.71554
1.78397
1.83773
1.88172
1.91593
1.93548
1.94526
1.94526
1.94526
1.93548
1.93060
1.91593
1.90616
1.88661
1.86706
1.84751
1.83773
1.79863
1.75953
1.73021
1.69110
1.65689
1.62757
1.60313
1.57380
1.55914
1.55425
1.54936
1.53959
1.54936
1.53470
1.53470
1.56403
1.52004
1.51026
1.49071
1.47605
1.48094
1.43206
1.40762
1.38319
1.34897
1.31965
1.29032
1.29521
1.23656
1.21701
1.18768
1.16325
1.16325
1.11926
1.11926
1.08016
1.05572
1.04106
1.03128
1.01662
1.00196
0.99218
0.97263
0.95797
0.94819
0.93353
0.91398
0.89932
0.88954
0.87977
0.86510
0.86510
0.84555
0.84066
0.85533
0.85044
0.86999
0.91398
0.98240
1.07038
1.17791
1.31476
1.40274
1.51515
1.62757
1.72532
1.80352
1.87683
1.92571
1.96481
2.00880
2.02346
2.03324
2.04790
2.05279
2.05767
2.06745
2.07234
2.07234
2.07234
2.08211
2.06256
2.04301
2.02346
2.01369
1.96970
1.93548
1.90127
1.87195
1.83773
1.80841
1.77908
1.75464
1.73509
1.72043
1.71554
1.70088
1.72043
1.68133
1.66667
1.65689
1.67155
1.61779
1.59824
1.56891
1.54448
1.51026
1.48583
1.45650
1.44184
1.40274
1.37341
1.34409
1.32454
1.30987
1.26588
1.24633
1.23656
1.19257
1.16813
1.14858
1.13392
1.11437
1.09971
1.08993
1.07038
1.05083
1.04594
1.02639
1.01173
0.99707
0.98729
0.98240
0.96285
0.94330
0.93842
0.95308
0.91398
0.89932
0.92864
0.88954
0.89443
0.90909
0.94330
1.01173
1.07527
1.17302
1.28543
1.40762
1.53470
1.63734
1.74487
1.83773
1.91593
1.97947
2.03324
2.07234
2.12121
2.11632
2.16031
2.13587
2.14565
2.14565
2.17009
2.16031
2.16520
2.18964
2.16520
2.15054
2.16520
2.13587
2.09189
2.05279
2.02346
1.98925
1.95503
1.92082
1.90127
1.86217
1.83773
1.83284
1.80352
1.79374
1.77908
1.76931
1.75953
1.77908
1.73021
1.71554
1.69110
1.66667
1.64712
1.61779
1.58847
1.58358
1.52981
1.51026
1.47605
1.44673
1.41251
1.38807
1.36364
1.32942
1.30499
1.28543
1.26100
1.24145
1.23167
1.19746
1.17791
1.19746
1.14858
1.13392
1.11437
1.10459
1.08993
1.07527
1.06061
1.08504
1.03617
1.02151
1.01662
0.99707
0.98240
0.97752
0.96774
0.95308
0.94819
0.93353
0.92375
0.91887
0.92375
0.93842
0.97263
1.03128
1.09482
1.19257
1.31965
1.41740
1.54448
1.66178
1.76931
1.87683
1.94526
2.01369
2.06256
2.10166
2.16031
2.15054
2.16520
2.16520
2.17498
2.17986
2.17986
2.18964
2.18475
2.20919
2.17986
2.17009
2.15054
2.14565
2.10655
2.07722
2.04301
2.00880
1.97458
1.94037
1.91593
1.89150
1.87683
1.86217
1.84262
1.86706
1.82796
1.85239
1.81329
1.81818
1.78397
1.77419
1.74487
1.72532
1.70088
1.67644
1.65689
1.61779
1.58847
1.55425
1.52981
1.51026
1.47116
1.44673
1.45161
1.39296
1.37341
1.34409
1.32454
1.30010
1.28543
1.26588
1.26588
1.22678
1.21701
1.19746
1.18768
