HR_time,RR-interval,heart_rate
1.3327845132983325,892.0,66.59626586918772
2.2506455460415236,917.0,65.40142042317834
3.1936534563941175,943.0,64.20657497716894
4.136661366746711,943.0,64.82036544600939
5.0293755218805,892.0,66.33525877934272
5.909516238209587,880.0,66.62186022078416
6.839950709757479,930.0,64.87614447174447
7.808105497719476,968.0,64.87614447174447
8.688246214048563,880.0,64.58954303030302
9.631254124401156,943.0,64.58954303030302
10.599408912363153,968.0,62.2589379020979
11.580137139129851,980.0,62.839992879266845
12.497998171873041,917.0,63.97191815946609
13.415859204616233,917.0,64.78762995433789
14.358867114968827,943.0,63.65570467413864
15.327021902930824,968.0,64.26949514297908
16.219736058064612,892.0,64.26949514297908
17.162743968417207,943.0,63.74651700719082
18.156045633988604,993.0,61.22613989451476
19.161920738364703,1005.0,61.5127413359562
20.092355209912597,930.0,63.16764475194371
21.010216242655787,917.0,63.94230611558008
21.978371030617783,968.0,62.839992879266845
22.95909925738448,980.0,62.54553934353934
23.889533728932374,930.0,62.81735034832403
24.84511507808967,955.0,63.35400284495021
25.800696427246965,955.0,63.35400284495021
26.731130898794856,930.0,64.51674992097361
27.636418492733345,905.0,64.24493891618891
28.60457328069534,968.0,61.914144061092856
29.648168701485545,1043.0,59.95660784449651
30.641470367056943,993.0,61.7023235935362
31.534184522190735,892.0,62.93080521231902
32.51491274895743,980.0,62.67912198447092
33.52078785333353,1005.0,60.15874487179486
34.52666295770963,1005.0,61.261058108108095
35.45709742925752,930.0,62.586589774774765
36.400105339610114,943.0,62.83827300262287
37.393407005181516,993.0,61.477823122362864
38.38670867075292,993.0,62.05887809953181
39.30456970349611,917.0,61.807194871683706
40.31044480787221,1005.0,60.83684989684765
41.354040228662406,1043.0,58.68479442585154
42.37248877184321,1018.0,61.2051715385276
43.265202926977,892.0,65.0935829231967
44.132770204501384,867.0,66.11371311399358
45.10092499246338,968.0,63.10838539156142
46.13194697444889,1031.0,61.84522239771587
47.04980800719208,917.0,61.0705610340795
48.05568311156817,1005.0,60.16832734151002
49.136998848772485,1081.0,57.314932364341075
50.19316770836739,1056.0,58.36140473276213
51.14874905752468,955.0,60.258408906882586
52.12947728429138,980.0,60.95974841305542
53.14792582747218,1018.0,61.81986268846998
54.065786860215375,917.0,61.81986268846998
55.04651508698207,980.0,61.118523182297146
56.102683946576974,1056.0,58.49327479147358
57.14627936736718,1043.0,59.02992728809976
58.10186071652447,955.0,59.491785011676996
59.132882698509974,1031.0,59.725496148908846
60.16390468049548,1031.0,57.50943701578191
61.23264697889508,1068.0,59.31991929220467
62.17565488924768,943.0,60.31468977375565
63.156383116014375,980.0,60.5374682051282
64.21255197560929,1056.0,58.2651282051282
65.26872083520419,1056.0,59.080839999999995
66.21172874555678,943.0,60.5374682051282
67.19245697232347,980.0,61.735959766309634
68.18575863789488,993.0,59.691766352655016
69.22935405868508,1043.0,59.95660784449651
70.19750884664708,968.0,60.21474448844328
71.17823707341377,980.0,60.44845562567513
72.20925905539927,1031.0,58.95513251505081
73.25285447618948,1043.0,60.351899287091555
74.17071550893267,917.0,61.61151126048402
75.13887029689467,968.0,62.581856235320075
76.13217196246606,993.0,62.581856235320075
77.05003299520925,917.0,63.71378151551932
77.96789402795245,917.0,62.97714767791512
78.99891600993794,1031.0,61.0705610340795
80.00479111431405,1005.0,61.0705610340795
80.92265214705724,917.0,62.33017300747197
81.89080693501924,968.0,62.33017300747197
82.89668203939534,1005.0,62.6328058080808
83.80196963333383,905.0,64.69856944444444
84.68211034966292,880.0,66.31070255255256
85.6125448212108,930.0,64.61130297990297
86.5932730479775,980.0,63.67746462373859
87.5111340807207,917.0,61.34666976864253
88.5547295015109,1043.0,58.82621197549934
89.67376555512931,1119.0,55.972816998330394
90.72993441472421,1056.0,58.30361185342645
91.66036888627211,930.0,61.639781441441436
92.6033767966247,943.0,62.34112094761427
93.6218253398055,1018.0,60.48351901234567
94.6402738829863,1018.0,60.77012045378711
95.57070835453419,930.0,61.525409152742476
96.55143658130089,980.0,61.28592737014687
97.5824585632864,1031.0,59.67379426203876
98.5883336676625,1005.0,61.37319383468834
99.49362126160099,905.0,64.06736388888888
100.39890885553947,905.0,64.84202525252525
101.36706364350147,968.0,61.685997474747474
102.42323250309637,1056.0,61.088911138411135
103.35366697464427,930.0,60.56593300262287
104.34696864021566,993.0,61.267272508795706
105.36541718339647,1018.0,59.4096705735271
106.38386572657727,1018.0,60.77012045378711
107.31430019812517,930.0,61.267272508795706
108.30760186369656,993.0,61.764424563804305
109.30090352926796,993.0,62.05887809953181
110.21876456201115,917.0,63.41932797979182
111.14919903355904,930.0,64.49317641861037
112.09220694391163,943.0,64.19872288288288
113.02264141545953,930.0,64.49317641861037
113.94050244820272,917.0,64.21411712036476
114.89608379736002,955.0,63.11180388405153
115.8768120241267,980.0,63.414436684660366
116.7820996180652,905.0,63.98009742434742
117.7125340896131,930.0,64.79580921921922
118.65554199996569,943.0,62.83827300262287
119.64884366553709,993.0,61.735959766309634
120.62957189230379,980.0,62.93080521231902
121.52228604743758,892.0,64.88834142891537
122.42757364137607,905.0,66.2851082009561
123.34543467411926,917.0,65.09026275494672
124.28844258447185,943.0,65.40142042317834
125.18115673960564,892.0,67.00359407346036
126.03615057832532,855.0,66.18788227858857
127.01687880509202,980.0,62.72069683257918
128.07304766468692,1056.0,58.72698592870543
129.10406964667243,1031.0,82.51857994579944
129.55671344364168,930.0,105.4413080159749
130.03450411822033,968.0,106.70091998936735
131.00265890618232,1018.0,82.15403727331797
132.02110744936311,968.0,60.95277890011223
132.9892622373251,867.0,63.34786717415702
133.8568295148495,930.0,65.20546910942562
134.7872639863974,1031.0,63.94585713603316
135.8182859683829,1043.0,60.05744575136405
136.8618813891731,943.0,59.77084430992261
137.80488929952568,1018.0,60.01032609251821
138.8233378427065,1031.0,60.24403722975006
139.85435982469198,917.0,60.82509220691901
140.7722208574352,968.0,61.84522239771587
141.7403756453972,1005.0,62.33017300747197
142.74625074977328,993.0,60.67526959148446
143.7395524153447,917.0,61.807194871683706
144.65741344808788,980.0,62.31701474347858
145.63814167485458,993.0,62.31701474347858
146.63144334042596,1018.0,60.16495927248247
147.64989188360678,917.0,61.56172604452321
148.56775291634997,943.0,62.63557448334178
149.51076082670255,980.0,63.390863182297146
150.49148905346925,993.0,61.735959766309634
151.48479071904066,905.0,62.619647544087414
152.39007831297914,955.0,63.156300040713596
153.34565966213643,1031.0,62.419666203109394
154.37668164412193,1018.0,59.96497793150445
155.39513018730275,930.0,60.530638671191504
156.32556465885062,867.0,64.18533891862876
157.193131936375,930.0,66.04294085389736
158.1235664079229,968.0,65.20546910942562
159.0917211958849,905.0,64.24493891618891
159.9970087898234,917.0,64.53939245191643
160.9148698225666,993.0,64.01641431612816
161.90817148813798,1018.0,61.56172604452321
162.92662003131878,917.0,61.56172604452321
163.84448106406197,968.0,62.084704180311476
164.812635852024,1018.0,62.084704180311476
165.83108439520478,993.0,60.429800764323964
166.82438606077616,917.0,61.56172604452321
167.74224709351938,955.0,62.85366724010476
168.69782844267667,993.0,62.85366724010476
169.69113010824807,1005.0,60.947080596269146
170.69700521262416,917.0,61.807194871683706
171.61486624536735,955.0,62.60198401225666
172.57044759452464,968.0,63.37664537589303
173.53860238248663,993.0,61.721741959905515
174.53190404805804,892.0,63.19564670416052
175.42461820319184,917.0,64.32757198435976
176.34247923593503,930.0,65.68802186461977
177.27291370748293,930.0,64.77977786005182
178.2033481790308,867.0,66.04294085389736
179.07091545655518,880.0,67.27123274578926
179.95105617288428,930.0,67.27123274578926
180.88149064443218,955.0,65.14795547652915
181.83707199358946,892.0,64.82790758920521
182.72978614872326,905.0,65.42499392554154
183.63507374266175,968.0,65.15318292075686
184.60322853062374,980.0,63.14262567987568
185.58395675739044,905.0,63.14262567987568
186.48924435132892,917.0,64.27455096007492
187.4071053840721,980.0,64.27455096007492
188.3878336108388,968.0,62.839992879266845
189.3559883988008,880.0,63.77383123543123
190.2361291151299,943.0,64.58954303030302
191.1791370254825,993.0,64.06656489451476
192.17243869105388,980.0,61.735959766309634
193.15316691782058,905.0,62.619647544087414
194.0584545117591,917.0,64.27455096007492
194.97631554450228,968.0,64.53939245191643
195.94447033246428,993.0,62.581856235320075
196.93777199803566,905.0,62.88448903592891
197.84305959197417,905.0,64.31904711673698
198.74834718591265,930.0,65.67949699699699
199.67878165746055,955.0,64.51674992097361
200.63436300661783,867.0,65.47728011421032
201.50193028414222,855.0,67.37390730021984
202.3569241228619,943.0,67.65296659846547
203.2999320332145,1005.0,64.48321696078429
204.3058071375906,917.0,62.88104331050227
205.22366817033378,955.0,62.60198401225666
206.1792495194911,1031.0,62.11703340250056
207.2102715014766,1005.0,60.21044675866494
208.21614660585269,917.0,61.0705610340795
209.13400763859588,1018.0,61.31004281667511
210.15245618177667,1043.0,60.59138106968716
211.19605160256688,917.0,60.59138106968716
212.11391263531007,943.0,62.16238156351432
213.05692054566268,993.0,63.132726538350376
214.05022221123406,1018.0,60.980671067354265
215.06867075441488,930.0,61.267272508795706
215.99910522596275,993.0,61.267272508795706
216.99240689153416,1043.0,60.79407958896825
218.03600231232437,1031.0,58.69699587110404
219.06702429430987,905.0,60.65453208770039
219.97231188824836,980.0,61.88301370648321
220.95304011501506,1043.0,61.64930256925136
221.99663553580527,943.0,60.76561479147358
222.93964344615785,968.0,61.030456283315075
223.90779823411984,1031.0,61.264167420546926
224.93882021610534,1031.0,59.45368514412416
225.96984219809084,917.0,60.585610424323406
226.88770323083403,955.0,62.11703340250056
227.84328457999135,955.0,63.648456380677715
228.79886592914863,968.0,62.51653110047847
229.76702071711063,867.0,64.63980836973857
230.634587994635,905.0,65.80255544576197
231.5398755885735,943.0,66.35342574879226
232.4828834989261,1005.0,63.183676111111104
233.4887586033022,955.0,62.02092903508771
234.4443399524595,980.0,61.205217240215916
235.4250681792262,1005.0,61.205217240215916
236.4309432836023,930.0,61.77087797990297
237.3613777551502,930.0,62.873191216216206
238.29181222669808,980.0,63.38301108801108
239.27254045346479,955.0,62.81735034832403
240.22812180262207,892.0,63.725594352891974
241.12083595775587,968.0,63.99043584473347
242.08899074571787,980.0,63.45378334810729
243.06971897248457,955.0,61.979878603852285
244.02530032164185,880.0,64.04564224021593
244.90544103797095,955.0,64.5822947368421
245.86102238712823,993.0,63.78750559626915
246.85432405269964,968.0,61.721741959905515
247.82247884066163,880.0,63.51569459148446
248.70261955699073,943.0,64.58954303030302
249.6456274673433,968.0,64.58954303030302
250.6137822553053,943.0,63.07464969696969
251.5567901656579,892.0,64.26949514297908
252.44950432079168,880.0,66.33525877934272
253.32964503712077,955.0,66.05619948109711
254.28522638627805,1031.0,63.05087175866495
255.31624836826356,917.0,62.11703340250056
256.2341094010068,955.0,62.11703340250056
257.18969075016406,1018.0,62.356515185096164
258.20813929334486,980.0,60.95974841305542
259.18886752011156,892.0,62.433653157310424
260.08158167524533,917.0,64.58570862830653
260.9994427079885,1018.0,63.830419929351166
262.0178912511693,1018.0,61.064573989514614
263.0363397943501,930.0,60.77012045378711
263.96677426589804,955.0,62.06206164936866
264.9223556150553,1081.0,60.92034617420357
266.00367135225963,993.0,59.55989629394357
266.996973017831,955.0,59.55989629394357
267.95255436698835,867.0,64.11683023395031
268.8201216445127,855.0,67.37390730021984
269.6751154832324,917.0,68.23402157563442
270.5929765159756,968.0,65.8389333015896
271.5611313039376,905.0,64.53939245191643
272.46641889787605,917.0,64.53939245191643
273.38427993061924,968.0,64.53939245191643
274.35243471858126,993.0,62.581856235320075
275.34573638415264,905.0,62.88448903592891
276.25102397809115,943.0,63.43535933895921
277.19403188844376,993.0,63.43535933895921
278.18733355401514,980.0,61.735959766309634
279.16806178078184,917.0,62.31701474347858
280.08592281352503,943.0,63.390863182297146
281.02893072387764,980.0,63.390863182297146
282.00965895064434,980.0,61.994096410256404
282.99038717741104,930.0,62.280697851697845
283.9208216489589,968.0,62.54553934353934
284.8889764369209,1005.0,62.035719471744464
285.894851541297,1018.0,60.17811753647586
286.9133000844778,905.0,61.61267561728394
287.8185876784163,968.0,62.38733698092031
288.7867424663783,968.0,63.40746717171717
289.7548972543403,980.0,61.7080675990676
290.735625481107,892.0,63.45378334810729
291.62833963624075,917.0,64.58570862830653
292.54620066898394,930.0,65.68802186461977
293.47663514053187,930.0,64.77977786005182
294.40706961207974,867.0,66.04294085389736
295.27463688960415,880.0,67.27123274578926
296.15477760593325,917.0,67.56568628151676
297.07263863867644,943.0,65.72146831050227
298.015646549029,855.0,66.38980360461991
298.8706403877487,880.0,67.3236419607843
299.75078110407776,980.0,66.50793016591251
300.73150933084446,968.0,63.77383123543123
301.6996641188065,943.0,62.2589379020979
302.6426720291591,955.0,62.79559039872408
303.5982533783164,980.0,62.530748906882586
304.5789816050831,917.0,63.11180388405153
305.49684263782626,842.0,65.92322218727227
306.33926303774126,917.0,67.31998895931301
307.25712407048445,1031.0,64.9284517057213
308.2881460524699,993.0,61.32224426192761
309.2814477180413,905.0,61.62487706253644
310.1867353119798,968.0,62.88448903592891
311.15489009994184,1018.0,62.38733698092031
312.17333864312263,1031.0,59.69316692671976
313.2043606251081,930.0,60.530638671191504
314.13479509665603,993.0,61.0277907262001
315.1280967622274,980.0,62.022561207751075
316.1088249889941,930.0,62.022561207751075
317.039259460542,880.0,64.61130297990297
317.9194001768711,980.0,64.61130297990297
318.9001284036378,993.0,63.25085309964297
319.89343006920916,905.0,62.619647544087414
320.79871766314767,1005.0,62.10982767229254
321.8045927675238,1043.0,61.13948269745649
322.848188188314,943.0,60.255794919678706
323.79119609866655,968.0,61.030456283315075
324.75935088662857,1043.0,61.030456283315075
325.8029463074188,1031.0,59.21997400689231
326.83396828940425,930.0,60.05744575136405
327.7644027609522,943.0,62.10163916501867
328.7074106713048,993.0,62.83827300262287
329.70071233687617,968.0,62.00080125815113
330.66886712483813,892.0,63.19564670416052
331.56158127997196,955.0,63.99043584473347
332.51716262912925,968.0,63.99043584473347
333.4853174170912,892.0,63.99043584473347
334.37803157222504,930.0,64.55609658442052
335.3084660437729,968.0,64.55609658442052
336.27662083173493,955.0,63.08219184016552
337.2322021808922,917.0,63.37664537589303
338.1500632136354,968.0,63.37664537589303
339.11821800159737,968.0,63.10483437110834
340.0863727895594,905.0,63.40746717171717
340.9916603834979,943.0,63.95833747474747
341.93466829385045,993.0,63.43535933895921
342.9279699594219,1005.0,61.22613989451476
343.933845063798,905.0,62.10982767229254
344.83913265773646,980.0,62.36796431623931
345.81986088450316,1018.0,62.122495489078815
346.83830942768395,917.0,61.81986268846998
347.75617046042714,955.0,62.356515185096164
348.7117518095844,1018.0,62.356515185096164
349.7302003527652,993.0,60.70161176910865
350.72350201833666,930.0,61.267272508795706
351.65393648988453,980.0,62.022561207751075
352.63466471665123,993.0,62.022561207751075
353.62796638222267,955.0,61.45690046806402
354.58354773137995,993.0,61.19876382411725
355.57684939695133,1056.0,60.000272262935816
356.6330182565462,1005.0,58.95379989451476
357.63889336092234,905.0,60.911336111111105
358.54418095486085,1018.0,61.61267561728394
359.56262949804164,980.0,62.122495489078815
360.54335772480835,905.0,62.122495489078815
361.4486453187468,892.0,64.88834142891537
362.34135947388063,993.0,64.6302047849686
363.334661139452,943.0,63.74651700719082
364.2776690498046,880.0,64.06656489451476
365.1578097661337,955.0,64.86135403508771
366.113391115291,1031.0,63.05087175866495
367.14441309727647,1018.0,59.96497793150445
368.16286164045727,917.0,60.82509220691901
369.08072267320046,968.0,62.084704180311476
370.0488774611625,943.0,63.65570467413864
370.9918853715151,880.0,64.58954303030302
371.8720260878442,905.0,66.02410111111111
372.77731368178263,1005.0,64.69856944444444
373.78318878615875,993.0,62.10982767229254
374.7764904517301,905.0,62.10982767229254
375.68177804566864,955.0,63.156300040713596
376.6373593948259,993.0,63.156300040713596
377.6306610603973,993.0,61.19876382411725
378.62396272596874,930.0,61.764424563804305
379.5543971975166,968.0,62.28740269959257
380.52255198547863,980.0,62.54553934353934
381.50328021224533,993.0,61.18508946327933
382.4965818778167,917.0,62.31701474347858
383.4144429105599,968.0,62.581856235320075
384.3825976985219,1043.0,61.61151126048402
385.4261931193121,955.0,60.75139698506946
386.3817744684694,1005.0,59.97673562143309
387.3876495728455,1093.0,59.0956177707199
388.4815387488545,955.0,59.0956177707199
389.4371200980118,1018.0,58.850148943559404
390.4555686411926,1056.0,59.50312020792722
391.5117375007875,1056.0,57.50983950617283
392.5679063603824,955.0,58.80178070175438
393.5234877095397,955.0,60.79506140350877
394.479069058697,1005.0,61.7418697368421
395.4849441630731,993.0,60.947080596269146
396.4782458286445,905.0,62.10982767229254
397.383533422583,955.0,63.156300040713596
398.3391147717403,1018.0,62.659147985705
399.3575633149211,993.0,60.70161176910865
400.3508649804925,905.0,61.864358845132045
401.256152574431,1005.0,62.10982767229254
402.26202767880704,1018.0,61.61267561728394
403.2804762219879,980.0,59.913276044634365
404.2612044487546,892.0,62.433653157310424
405.15391860388837,930.0,64.29125509257904
406.08435307543624,968.0,64.55609658442052
407.05250786339826,980.0,62.54553934353934
408.03323609016496,905.0,63.14262567987568
408.9385236841034,930.0,63.98009742434742
409.86895815565134,968.0,64.24493891618891
410.8371129436133,930.0,63.647852579852575
411.76754741516123,880.0,64.87614447174447
412.6476881314903,867.0,67.27123274578926
413.5152554090147,930.0,67.27123274578926
414.44568988056255,968.0,65.20546910942562
415.4138446685246,892.0,64.55609658442052
416.30655882365835,917.0,64.85055012014803
417.22441985640154,1018.0,63.830419929351166
418.24286839958233,1005.0,61.31004281667511
419.24874350395845,917.0,61.31004281667511
420.16660453670164,917.0,63.46209828767122
421.08446556944483,1005.0,63.46209828767122
422.09034067382095,1043.0,60.83684989684765
423.13393609461116,917.0,60.83684989684765
424.05179712735435,993.0,61.08853312469576
425.0450987929257,1031.0,61.32224426192761
426.07612077491126,943.0,60.74118928475866
427.0191286852638,930.0,62.10163916501867
427.94956315681173,980.0,63.09640964656964
428.93029138357844,993.0,62.022561207751075
429.9235930491498,955.0,61.45690046806402
430.8791743983071,955.0,61.9935529646902
431.8347557474644,1005.0,61.7418697368421
432.8406308518405,1043.0,59.97673562143309
433.8842262726307,955.0,59.97673562143309
434.839807621788,993.0,60.2284188492812
435.83310928735943,1031.0,60.46212998651305
436.8641312693449,1018.0,59.1701887909315
437.8825798125257,955.0,59.96497793150445
438.838161161683,980.0,60.95974841305542
439.8188893884497,1018.0,60.95974841305542
440.8373379316305,905.0,62.122495489078815
441.742625525569,943.0,62.93820728395061
442.6856334359216,993.0,63.43535933895921
443.678935101493,917.0,63.132726538350376
444.5967961342362,905.0,64.01641431612816
445.5020837281747,993.0,64.01641431612816
446.49538539374606,1005.0,62.10982767229254
447.5012604981222,892.0,62.42098534052415
448.39397465325595,917.0,64.07588875651166
449.31183568599914,980.0,64.58570862830653
450.29256391276584,968.0,62.839992879266845
451.26071870072786,892.0,63.45378334810729
452.15343285586164,917.0,64.85055012014803
453.0712938886048,968.0,64.85055012014803
454.0394486765668,943.0,63.65570467413864
454.9824565869194,880.0,64.58954303030302
455.8625973032485,955.0,64.86135403508771
456.8181786524058,1031.0,63.05087175866495
457.8492006343913,955.0,61.256919127086
458.8047819835486,867.0,63.38019639634611
459.67234926107295,917.0,65.77173364993781
460.59021029381614,980.0,65.23508115331163
461.57093852058284,993.0,62.31701474347858
462.5642401861543,892.0,62.93080521231902
463.45695434128805,943.0,63.74651700719082
464.39996225164066,1043.0,62.776172032354765
465.44355767243087,980.0,60.76561479147358
466.42428589919757,917.0,61.34666976864253
467.34214693194076,1031.0,61.58038090587438
468.37316891392624,1056.0,60.123752700746174
469.4293377735211,968.0,58.991827420546926
470.39749256148315,955.0,60.52325039872408
471.35307391064043,930.0,63.08219184016552
472.2835083821883,880.0,65.14795547652915
473.1636490985174,829.0,68.31908386568387
473.9934960596277,867.0,69.8767003952569
474.8610633371521,1031.0,66.55132478550081
475.8920853191376,1056.0,61.38691569459172
476.9482541787325,930.0,59.82929916501867
477.87868865028037,1068.0,59.14466301006888
478.94743094868,1106.0,58.28392816158403
480.0538935634937,1005.0,56.671795053475925
481.0597686678698,1131.0,55.63216237373736
482.1913781602929,1131.0,55.2304861111111
483.32298765271605,1043.0,54.51182436412315
484.3665830735062,943.0,58.04657547523426
485.3095909838588,1043.0,59.53713317269076
486.353186404649,1131.0,58.04657547523426
487.48479589707216,968.0,57.49570517220396
488.4529506850341,1005.0,58.21436691919191
489.45882578941024,1081.0,59.036402061310774
490.54014152661455,1068.0,57.09215393296853
491.6088838250142,968.0,57.86681529660489
492.57703861297614,1005.0,59.25399959893047
493.58291371735226,1031.0,59.938635753880256
494.61393569933773,1018.0,58.91850556308339
495.6323842425185,917.0,60.82509220691901
496.5502452752617,993.0,61.56172604452321
497.54354694083315,1043.0,61.08853312469576
498.58714236162336,1043.0,58.46328473387219
499.6307377824135,993.0,58.46328473387219
500.62403944798496,968.0,59.95660784449651
501.5921942359469,980.0,61.18508946327933
502.5729224627136,892.0,63.45378334810729
503.46563661784745,943.0,64.00465365113759
504.4086445282,968.0,64.26949514297908
505.376799316162,955.0,62.79559039872408
506.3323806653193,892.0,63.99043584473347
507.2250948204531,993.0,63.467457708945204
508.2183964860245,1018.0,62.175516513363654
509.2368450292053,917.0,61.56172604452321
510.1547060619485,1005.0,61.31004281667511
511.1605811663246,1018.0,61.31004281667511
512.1790297095054,930.0,61.0155892809476
513.1094641810533,993.0,61.267272508795706
514.1027658466247,1043.0,60.79407958896825
515.1463612674149,955.0,60.2284188492812
516.1019426165722,1031.0,59.491785011676996
517.1329645985577,1031.0,59.725496148908846
518.1639865805432,1031.0,58.19407317073169
519.1950085625286,930.0,60.2911568885959
520.1254430340766,993.0,61.0277907262001
521.118744699648,1056.0,60.56593300262287
522.1749135592429,1018.0,58.708331067354266
523.1933621024236,917.0,60.36323448334178
524.1112231351668,968.0,62.084704180311476
525.0793779231288,1005.0,62.33017300747197
526.085253027505,1018.0,60.17811753647586
527.1037015706858,917.0,61.31004281667511
528.021562603429,980.0,61.81986268846998
529.0022908301956,993.0,62.31701474347858
529.995592495767,1005.0,60.410428099642964
531.0014676001432,930.0,61.5127413359562
531.9319020716911,943.0,62.586589774774765
532.8749099820436,993.0,62.83827300262287
533.868211647615,955.0,62.272612262935816
534.8237929967723,905.0,63.156300040713596
535.7290805907109,968.0,63.67927817650186
536.6972353786729,993.0,62.88448903592891
537.6905370442443,955.0,61.721741959905515
538.6461183934015,1018.0,60.70161176910865
539.6645669365823,1031.0,59.96497793150445
540.6955889185679,930.0,60.530638671191504
541.6260233901157,993.0,61.0277907262001
542.6193250556871,1005.0,61.5127413359562
543.6252001600632,917.0,61.807194871683706
544.5430611928064,1031.0,61.0705610340795
545.5740831747919,1056.0,71.19962376992856
546.240475431441,641.0,100.7209653518994
546.6302520343868,616.0,112.51192135381237
547.2714974134266,754.0,114.96188361796331
547.8875959148569,1056.0,90.16161372549018
548.642002243139,905.0,77.90879999999999
549.6981711027339,955.0,67.53899444444444
550.6034586966724,993.0,61.95780847953216
551.5590400458298,955.0,63.156300040713596
552.5523417114011,892.0,61.9935529646902
553.5079230605584,930.0,63.467457708945204
554.4006372156922,993.0,64.82790758920521
555.3310716872401,955.0,64.03311844863225
556.3243733528114,867.0,62.55921370437726
557.2799547019688,943.0,64.11683023395031
558.1475219794931,1056.0,65.19067867276887
559.0905298898457,1056.0,63.19739797101448
560.1466987494407,930.0,59.080839999999995
561.2028676090356,1068.0,59.367441441441436
562.1333020805835,1106.0,59.14466301006888
563.202044378983,1005.0,58.28392816158403
564.3085069937968,1005.0,56.671795053475925
565.3143820981729,993.0,57.8413818181818
566.320257202549,917.0,59.90060822784809
567.3135588681204,842.0,61.807194871683706
568.2314199008636,880.0,65.6650855433255
569.0738403007786,1018.0,68.2538273154774
569.9539810171076,1005.0,66.10177184448128
570.9724295602884,917.0,62.243881172839494
571.9783046646645,1081.0,61.31004281667511
572.8961656974077,1144.0,60.16832734151002
573.9774814346121,1018.0,57.76489080304849
575.1216643658398,1156.0,55.61283533205238
576.1401129090207,616.0,54.40658811263883
577.2968692790531,528.0,54.40658811263883
578.441052210281,1018.0,54.40658811263883
579.4595007534617,1043.0,56.28135788739001
580.5030961742519,1043.0,57.966132678863595
581.5466915950421,943.0,59.53713317269076
582.4896995053948,1043.0,59.53713317269076
583.533294926185,1068.0,59.08620815497282
584.6020372245846,980.0,58.27049636010103
585.5827654513513,1018.0,58.74368927992848
586.601213994532,1056.0,58.966467711301036
587.657382854127,1031.0,57.97169722975006
588.6884048361125,955.0,59.263638425331614
589.6439861852698,1031.0,59.725496148908846
590.6750081672553,1031.0,59.725496148908846
591.7060301492407,930.0,60.2911568885959
592.6364646207887,993.0,61.0277907262001
593.6297662863601,1018.0,61.267272508795706
594.6482148295408,917.0,61.56172604452321
595.566075862284,955.0,62.356515185096164
596.5216572114414,993.0,62.85366724010476
597.5149588770128,1031.0,60.46212998651305
598.5459808589983,917.0,61.32224426192761
599.4638418917415,943.0,62.39609270074617
600.406849802094,993.0,63.132726538350376
601.4001514676654,1018.0,60.980671067354265
602.4186000108463,930.0,61.267272508795706
603.3490344823941,968.0,61.79025064458397
604.3171892703562,1018.0,61.79025064458397
605.335637813537,917.0,62.084704180311476
606.2534988462802,930.0,62.92217592478322
607.1839333178281,943.0,64.49317641861037
608.1269412281806,1031.0,62.10163916501867
609.1579632101661,943.0,61.81503772357723
610.1009711205187,917.0,62.39609270074617
611.0188321532619,980.0,63.390863182297146
611.9995603800286,1005.0,62.065331515630476
613.0054354844048,1031.0,59.67379426203876
614.0364574663902,930.0,60.776107498352
614.9668919379382,930.0,62.38824060646011
615.897326409486,1068.0,61.70360445151033
616.9660687078856,1005.0,60.09147134340221
617.9719438122617,905.0,60.68855767973855
618.8772314062002,968.0,62.6328058080808
619.8453861941622,1043.0,61.914144061092856
620.8889816149524,1005.0,59.704924616648405
621.8948567193285,943.0,60.255794919678706
622.8378646296811,1005.0,60.974456666666654
623.8437397340572,1018.0,60.72898783950616
624.862188277238,1005.0,59.40345617283949
625.8680633816141,905.0,61.61267561728394
626.7733509755526,892.0,64.3785215571205
627.6660651306863,980.0,64.88834142891537
628.646793357453,980.0,63.18894185626579
629.6275215842197,943.0,61.994096410256404
630.5705294945724,1056.0,60.5374682051282
631.6266983541673,1081.0,58.640464031007745
632.7080140913715,980.0,57.82475223613595
633.6887423181382,1043.0,58.05289882248133
634.7323377389284,1081.0,58.05289882248133
635.8136534761328,993.0,57.79476217853456
636.8069551417042,930.0,60.12555703363062
637.737389613252,993.0,61.764424563804305
638.7306912788234,1018.0,61.267272508795706
639.7491398220043,905.0,61.864358845132045
640.6544274159428,943.0,62.93820728395061
641.5974353262953,968.0,63.95833747474747
642.5655901142574,943.0,63.07464969696969
643.5085980246099,955.0,62.79559039872408
644.4641793737673,1005.0,62.02092903508771
645.4700544781433,930.0,62.30753047652915
646.4004889496912,1005.0,61.261058108108095
647.4063640540674,1068.0,60.09147134340222
648.4751063524669,930.0,60.09147134340221
649.4055408240148,1005.0,60.09147134340221
650.411415928391,980.0,61.77087797990297
651.3921441551577,980.0,60.668564743589734
652.3728723819244,917.0,62.57515138742535
653.2907334146676,980.0,62.57515138742535
654.2714616414343,1081.0,60.6781472133049
655.3527773786385,993.0,59.023243797317384
656.3460790442099,880.0,61.35384892552251
657.226219760539,968.0,63.51569459148446
658.194374548501,1005.0,63.26401136363636
659.2002496528771,930.0,62.035719471744464
660.130684124425,930.0,62.873191216216206
661.0611185959729,1018.0,62.62772238905571
662.0795671391537,1056.0,60.06878094761427
663.1357359987486,955.0,59.50312020792722
664.0913173479059,1031.0,59.263638425331614
665.1223393298914,1081.0,58.823262456339364
666.2036550670957,1068.0,56.60720332321243
667.2723973654953,968.0,57.86681529660489
668.2405521534573,1043.0,58.53533785194252
669.2841475742475,1043.0,58.98626286966046
670.3277429950377,943.0,59.53713317269076
671.2707509053903,980.0,60.76561479147358
672.251479132157,1056.0,60.5374682051282
673.3076479917519,1056.0,58.2651282051282
674.3638168513468,943.0,59.080839999999995
675.3068247616994,968.0,60.802309696969694
676.2749795496615,1018.0,61.50364920314253
677.2934280928422,1018.0,59.932648709315366
678.311876636023,930.0,60.77012045378711
679.2423111075709,968.0,61.79025064458397
680.2104658955329,1005.0,62.035719471744464
681.216340999909,993.0,60.67526959148446
682.2096426654804,917.0,61.807194871683706
683.1275036982236,980.0,62.31701474347858
684.1082319249903,1056.0,61.118523182297146
685.1644007845852,1031.0,58.72698592870543
686.1954227665707,917.0,60.123752700746174
687.1132837993139,980.0,61.58038090587438
688.0940120260806,1031.0,61.58038090587438
689.1250340080661,993.0,59.925477489886866
690.1183356736375,917.0,61.32224426192761
691.0361967063807,1018.0,61.56172604452321
692.0546452495614,1056.0,60.36323448334178
693.1108141091564,1056.0,57.50983950617283
694.1669829687513,943.0,59.080839999999995
695.1099908791039,980.0,60.5374682051282
696.0907191058706,1043.0,60.76561479147358
697.1343145266608,955.0,60.48655549322797
698.0898958758181,1043.0,59.258073874445145
699.1334912966082,1119.0,57.96609770008478
700.2525273502267,905.0,59.128844776108174
701.1578149441651,905.0,62.05672596754057
702.0631025381036,1005.0,64.06736388888888
703.0689776424798,1068.0,60.68855767973855
704.1377199408794,955.0,59.52581060371516
705.0933012900366,1068.0,58.35622383900929
706.1620435884363,1119.0,57.51517268236685
707.2810796420547,968.0,57.243361677582165
708.2492344300167,1081.0,57.02576413996246
709.330550167221,1056.0,58.089593727977444
710.3867190268159,980.0,57.82475223613595
711.3674472535826,955.0,60.258408906882586
712.3230286027399,1018.0,60.95974841305542
713.3414771459206,1068.0,59.280341776554664
714.4102194443203,955.0,59.280341776554664
715.3658007934775,1031.0,59.04085999395907
716.3968227754631,1056.0,59.263638425331614
717.452991635058,980.0,58.72698592870543
718.4337198618247,1031.0,58.72698592870543
719.4647418438102,1043.0,58.95513251505081
720.5083372646004,1031.0,57.96036203349984
721.539359246586,930.0,60.05744575136405
722.4697937181338,968.0,61.55076886198837
723.4379485060958,993.0,62.28740269959257
724.4312501716672,980.0,61.18508946327933
725.4119783984339,905.0,62.619647544087414
726.3172659923724,943.0,63.69349598290598
727.260273902725,993.0,63.43535933895921
728.2535755682964,1068.0,60.056553129808876
729.3223178666959,905.0,60.940240907586656
730.2276054606344,917.0,62.595144323574175
731.1454664933776,968.0,64.53939245191643
732.1136212813396,943.0,63.65570467413864
733.0566291916922,993.0,62.00080125815113
734.0499308572637,1043.0,60.50747814752681
735.0935262780538,1056.0,58.23513814752681
736.1496951376488,968.0,58.758116283315076
737.1178499256107,1068.0,58.30719126559714
738.1865922240104,1081.0,57.86681529660489
739.2679079612146,968.0,57.86681529660489
740.2360627491767,1056.0,58.089593727977444
741.2922316087715,1081.0,58.089593727977444
742.3735473459759,993.0,57.56661559218918
743.3668490115473,1031.0,58.02847331576641
744.3978709935328,1068.0,58.246070853386115
745.4666132919324,1068.0,56.82480086083213
746.535355590332,993.0,57.56143469843633
747.5286572559033,1043.0,58.01235971615426
748.5722526766936,1119.0,57.17130855951183
749.691288730312,1018.0,56.67415650450323
750.7097372734928,1131.0,55.183598807046735
751.8413467659159,1131.0,54.985017283950604
752.972956258339,1005.0,55.2304861111111
753.9788313627151,1081.0,56.05252125322996
755.0601470999194,1106.0,56.45419751585622
756.1666097147331,955.0,57.50066988427728
757.1221910638905,993.0,59.13953741445096
758.1154927294618,1056.0,60.000272262935816
759.1716615890567,955.0,60.000272262935816
760.1272429382141,1018.0,59.50312020792722
761.1456914813948,1068.0,59.280341776554664
762.2144337797945,1018.0,57.988400580973114
763.2328823229752,917.0,60.140456051969224
764.1507433557184,968.0,62.084704180311476
765.1188981436804,993.0,62.581856235320075
766.1121998092518,930.0,62.28740269959257
767.0426342807997,980.0,62.022561207751075
768.0233625075664,1031.0,61.28592737014687
769.0543844895519,993.0,59.925477489886866
770.0476861551233,867.0,62.58540725577315
770.9152534326477,943.0,64.39588953219592
771.8582613430003,1005.0,64.14420630434782
772.8641364473764,943.0,62.299988333333324
773.807144357729,943.0,62.299988333333324
774.7501522680816,993.0,62.55167156118143
775.743453933653,980.0,61.735959766309634
776.7241821604197,905.0,62.619647544087414
777.6294697543582,1056.0,61.42115598290598
778.6856386139531,1119.0,58.90069818976279
779.8046746675715,955.0,57.7379511137394
780.7602560167288,1018.0,58.439290619912235
781.7787045599096,1031.0,59.96497793150445
782.8097265418951,930.0,60.530638671191504
783.740161013443,867.0,63.945857136033155
784.6077282909673,917.0,66.33739438962488
785.5255893237105,1018.0,64.47979245435627
786.5440378668914,980.0,61.81986268846998
787.5247660936581,892.0,62.433653157310424
788.4174802487919,980.0,63.18894185626579
789.3982084755586,1043.0,61.96046023748297
790.4418038963487,1031.0,58.95513251505081
791.4728258783342,930.0,60.05744575136405
792.4032603498821,1043.0,60.05744575136405
793.4468557706723,1056.0,59.59558802778682
794.5030246302672,1031.0,57.49850430992261
795.5340466122527,917.0,60.123752700746174
796.4519076449959,943.0,62.39609270074617
797.3949155553486,968.0,63.65570467413864
798.3630703433105,993.0,62.00080125815113
799.356372008882,917.0,62.581856235320075
800.2742330416252,980.0,62.31701474347858
801.2549612683919,1056.0,61.118523182297146
802.3111301279868,1043.0,58.49327479147358
803.354725548777,968.0,58.758116283315076
804.3228803367389,1005.0,59.704924616648405
805.328755441115,1031.0,59.938635753880256
806.3597774231005,1005.0,59.16397439024389
807.3656525274766,1018.0,58.91850556308339
808.3841010706574,1031.0,58.91850556308339
809.4151230526429,1043.0,58.199843816095445
810.4587184734331,993.0,58.69699587110404
811.4520201390045,993.0,59.433629708708246
812.4453218045759,1005.0,60.152291455696194
813.451196908952,993.0,60.152291455696194
814.4444985745234,905.0,62.10982767229254
815.349786168462,980.0,62.619647544087414
816.3305143952286,1018.0,62.122495489078815
817.3489629384094,930.0,61.525409152742476
818.2793974099573,968.0,61.79025064458397
819.2475521979193,980.0,62.54553934353934
820.228280424686,993.0,61.18508946327933
821.2215820902574,892.0,62.93080521231902
822.1142962453912,1005.0,62.42098534052415
823.1201713497672,1068.0,60.99971534797017
824.1889136481669,968.0,59.25399959893047
825.1570684361288,1005.0,59.25399959893047
826.162943540505,1043.0,59.704924616648405
827.2065389612952,968.0,59.704924616648405
828.1746937492572,1106.0,57.89738143483022
829.2811563640709,1119.0,56.60540526046986
830.4001924176894,993.0,56.082427124681594
831.3934940832607,1081.0,56.5027860041742
832.474809820465,1106.0,56.70588074370433
833.5812724352787,993.0,56.70588074370433
834.5745741008501,1056.0,57.14625671269658
835.630742960445,1068.0,57.784213129808876
836.6994852588447,968.0,58.30719126559715
837.6676400468066,1056.0,58.30719126559714
838.7238089064016,1106.0,57.66923484848484
839.8302715212152,1005.0,56.89457348484847
840.8361466255914,1106.0,56.03383863636362
841.9426092404051,1106.0,56.03383863636362
843.0490718552188,1043.0,55.31517688937567
844.092667276009,930.0,58.734853179301965
845.0231017475569,1018.0,60.29692753395965
846.0415502907376,1031.0,60.530638671191504
847.0725722727232,1031.0,58.433554953327295
848.1035942547087,955.0,59.725496148908846
849.0591756038659,1031.0,59.725496148908846
850.0901975858515,1081.0,58.823262456339364
851.1715133230558,993.0,58.02847331576641
852.1648149886272,1005.0,58.51342392552251
853.1706900930033,1081.0,58.51342392552251
854.2520058302076,1131.0,56.05252125322996
855.3836153226307,943.0,57.37805291989663
856.3266232329833,968.0,59.53989858585858
857.2947780209453,1005.0,61.74911803030302
858.3006531253213,1081.0,59.036402061310774
859.3819688625257,968.0,59.036402061310774
860.3501236504877,1043.0,58.317740314322826
861.3937190712779,1056.0,58.758116283315076
862.4498879308728,1056.0,57.03664658634538
863.5060567904677,930.0,59.367441441441436
864.4364912620156,905.0,62.523469219219216
865.3417788559541,943.0,64.79580921921922
866.2847867663066,943.0,64.50920777777777
867.2277946766593,1018.0,62.05451950617283
868.24624321984,1131.0,58.51976839506172
869.3778527122632,1068.0,56.02464996368917
870.4465950106628,968.0,57.04478015448603
871.4147497986248,1056.0,58.30719126559714
872.4709186582197,1106.0,57.66923484848484
873.5773812730334,1005.0,56.89457348484847
874.5832563774095,930.0,59.45351492628991
875.5136908489574,1043.0,60.54239636112015
876.5572862697476,1031.0,60.05744575136405
877.5883082517331,943.0,59.77084430992261
878.5313161620857,980.0,60.99932592870543
879.5120443888524,1043.0,60.76561479147358
880.5556398096426,1031.0,58.95513251505081
881.5866617916281,955.0,59.491785011676996
882.5422431407854,1056.0,59.263638425331614
883.5984120003803,1056.0,58.80178070175438
884.6545808599752,943.0,59.080839999999995
885.5975887703278,980.0,60.5374682051282
886.5783169970945,1043.0,60.76561479147358
887.6219124178847,1043.0,58.72142137781896
888.6655078386749,930.0,59.8237346141322
889.5959423102228,1031.0,60.05744575136405
890.6269642922083,1068.0,59.60652073364612
891.6957065906079,1005.0,57.994387625538
892.701581694984,955.0,59.52581060371516
893.6571630441413,1043.0,59.97673562143309
894.7007584649315,1031.0,59.491785011676996
895.731780446917,905.0,60.65453208770039
896.6370680408555,968.0,62.147855198324706
897.6052228288175,1043.0,61.914144061092856
898.6488182496076,892.0,62.225301729324464
899.5415324047415,867.0,64.62039000336925
900.4090996822658,993.0,65.59073497820532
901.4024013478372,1043.0,62.351696118541305
902.4459967686274,917.0,61.08853312469576
903.3638578013706,1043.0,60.118188149859705
904.4074532221608,1093.0,59.23707029914651
905.5013423981699,930.0,58.942616763419004
906.4317768697177,1056.0,58.71447017707362
907.4879457293126,1106.0,58.50670659295658
908.5944083441264,968.0,57.66923484848484
909.5625631320884,1043.0,57.89738143483022
910.6061585528786,1031.0,59.21997400689231
911.6371805348641,955.0,59.491785011676996
912.5927618840213,1005.0,60.21044675866494
913.5986369883975,1018.0,60.44992854126055
914.6170855315783,955.0,60.44992854126055
915.5726668807356,867.0,63.61967817894171
916.44023415826,943.0,65.19067867276887
917.3832420686125,993.0,64.39588953219592
918.376543734184,917.0,63.132726538350376
919.2944047669272,1018.0,61.56172604452321
920.3128533101079,1018.0,61.064573989514614
921.3313018532888,955.0,60.204459714100054
922.286883202446,1005.0,60.44992854126055
923.2927583068222,1068.0,59.52581060371516
924.3615006052217,968.0,59.25399959893047
925.3296553931838,1018.0,59.008530771769976
926.3481039363645,1018.0,59.932648709315366
927.3665524795454,1005.0,59.157987345679
928.3724275839214,943.0,60.72898783950616
929.3154354942741,1005.0,60.974456666666654
930.3213105986501,1031.0,60.48950605691056
931.3523325806357,955.0,60.21044675866494
932.3079139297929,1018.0,59.96497793150445
933.3263624729738,1031.0,59.96497793150445
934.3573844549593,993.0,59.1701887909315
935.3506861205307,943.0,60.74118928475866
936.2936940308832,993.0,61.477823122362864
937.2869956964546,1043.0,60.50747814752681
938.3305911172448,943.0,60.50747814752681
939.2735990275975,1005.0,60.255794919678706
940.2794741319735,1005.0,60.974456666666654
941.2853492363496,1005.0,59.648924999999984
942.2912243407258,968.0,60.42358636363635
943.2593791286878,1056.0,59.476778030303024
944.3155479882827,1056.0,58.529969696969694
945.3717168478776,930.0,59.367441441441436
946.3021513194254,968.0,61.088911138411135
947.2703061073875,1018.0,61.79025064458397
948.2887546505682,1031.0,59.69316692671976
949.3197766325537,905.0,61.12772500752784
950.2250642264922,943.0,62.69872550135501
951.1680721368448,1005.0,63.183676111111104
952.173947241221,980.0,61.48427653846153
953.1546754679877,905.0,62.36796431623931
954.059963061926,968.0,63.14262567987568
955.0281178498881,1031.0,62.147855198324706
956.0591398318736,1031.0,59.45368514412416
957.0901618138591,917.0,60.585610424323406
958.0080228466023,1031.0,60.585610424323406
959.0390448285877,1081.0,59.683376731753924
960.1203605657921,955.0,58.823262456339364
961.0759419149495,1056.0,58.36140473276213
962.1321107745443,1056.0,58.80178070175438
963.1882796341392,1005.0,57.755308333333325
964.1941547385153,917.0,60.60870331050227
965.1120157712585,1043.0,60.83684989684765
966.1556111920487,1005.0,60.83684989684765
967.1614862964248,955.0,59.97673562143309
968.1170676455821,1018.0,60.44992854126055
969.135516188763,1005.0,60.44992854126055
970.141391293139,930.0,61.0155892809476
971.0718257646869,993.0,61.5127413359562
972.0651274302583,1018.0,61.267272508795706
973.0835759734391,1005.0,59.655139400687595
974.0894510778152,930.0,61.0155892809476
975.019885549363,1031.0,60.776107498352
976.0509075313486,1043.0,60.05744575136405
977.0945029521388,943.0,59.77084430992261
978.0375108624913,1018.0,60.01032609251821
979.0559594056722,1043.0,60.01032609251821
980.0995548264624,968.0,59.45945578948791
981.0677096144244,993.0,59.95660784449651
982.0610112799958,1056.0,59.72846125815113
983.1171801395907,1068.0,57.784213129808876
984.1859224379903,955.0,58.579002270381835
985.1415037871476,1018.0,59.28034177655467
986.1599523303283,1043.0,59.7312667942726
987.2035477511185,1018.0,58.43932559869105
988.2219962942994,943.0,60.01032609251821
989.165004204652,1018.0,60.48351901234567
990.1834527478328,1043.0,60.01032609251821
991.227048168623,1005.0,58.68479442585154
992.2329232729991,917.0,60.83684989684765
993.1507843057423,1018.0,61.31004281667511
994.1692328489231,1043.0,60.59138106968716
995.2128282697133,943.0,60.01032609251821
996.1558361800659,1018.0,60.01032609251821
997.1742847232467,1043.0,60.01032609251821
998.2178801440369,1005.0,58.68479442585154
999.223755248413,930.0,60.54239636112015
1000.1541897199609,1005.0,61.261058108108095
1001.1600648243369,1056.0,60.314249774774765
1002.2162336839319,943.0,60.027648333333325
1003.1592415942845,930.0,61.639781441441436
1004.0896760658324,1005.0,62.586589774774765
1005.0955511702085,1018.0,61.0155892809476
1006.1139997133893,930.0,61.0155892809476
1007.0444341849371,1031.0,60.530638671191504
1008.0754561669227,1043.0,60.05744575136405
1009.1190515877129,943.0,59.77084430992261
1010.0620594980654,1005.0,60.255794919678706
1011.0679346024416,1081.0,59.587272364341075
1012.1492503396458,1018.0,58.01627187051391
1013.1676988828267,943.0,59.34180353718058
1014.1107067931792,1018.0,60.48351901234567
1015.1291553363601,1018.0,60.48351901234567
1016.1476038795408,955.0,60.204459714100054
1017.1031852286982,980.0,60.95974841305542
1018.0839134554649,1031.0,60.72026663045982
1019.1149354374504,1005.0,59.67379426203876
1020.1208105418265,955.0,60.21044675866494
1021.0763918909838,1005.0,60.69539736842104
1022.0822669953599,1005.0,60.69539736842104
1023.0881420997359,955.0,60.69539736842104
1024.0437234488932,993.0,60.947080596269146
1025.0370251144645,1043.0,60.2284188492812
1026.0806205352549,1043.0,58.46328473387219
1027.124215956045,955.0,59.258073874445145
1028.0797973052024,1056.0,59.02992728809976
1029.1359661647973,1081.0,58.36140473276213
1030.2172819020016,980.0,57.82475223613595
1031.1980101287684,1043.0,58.05289882248133
1032.2416055495585,1043.0,58.72142137781896
1033.2852009703486,943.0,59.53713317269076
1034.2282088807012,980.0,60.76561479147358
1035.208937107468,1005.0,61.48427653846153
1036.214812211844,1018.0,59.913276044634365
1037.233260755025,905.0,61.61267561728394
1038.1385483489635,943.0,62.93820728395061
1039.081556259316,943.0,64.50920777777777
1040.0245641696686,980.0,62.8098082051282
1041.0052923964352,917.0,63.390863182297146
1041.9231534291785,905.0,64.27455096007492
1042.828441023117,980.0,64.27455096007492
1043.8091692498836,1018.0,62.122495489078815
1044.8276177930645,943.0,61.238807711301035
1045.770625703417,968.0,61.50364920314253
1046.738780491379,1018.0,61.50364920314253
1047.7572290345597,1031.0,59.69316692671976
1048.7882510165452,930.0,60.530638671191504
1049.7186854880931,1018.0,60.530638671191504
1050.737134031274,1056.0,60.06878094761427
1051.793302890869,968.0,59.23130920314253
1052.761457678831,1018.0,59.23130920314253
1053.7799062220117,1031.0,59.69316692671976
1054.8109282039973,1068.0,57.74891879837752
1055.8796705023967,955.0,59.04085999395906
1056.8352518515542,993.0,59.77749383156327
1057.8285535171256,1018.0,60.70161176910865
1058.8470020603063,1043.0,58.93647765369965
1059.8905974810966,930.0,60.29692753395965
1060.8210319526445,930.0,62.15452946922826
1061.7514664241924,993.0,63.12487444406431
1062.7447680897637,1005.0,61.5127413359562
1063.75064319414,943.0,61.22613989451476
1064.6936511044923,1043.0,60.255794919678706
1065.7372465252827,1068.0,59.08620815497282
1066.8059888236821,968.0,58.53533785194252
1067.7741436116441,1056.0,58.30719126559714
1068.830312471239,1043.0,58.758116283315076
1069.8739078920294,1018.0,57.73798609251821
1070.89235643521,917.0,60.59138106968716
1071.8102174679534,1031.0,60.82509220691901
1072.8412394499387,1106.0,59.26301785226132
1073.9477020647525,1031.0,56.871480598669606
1074.978724046738,905.0,59.565650652870154
1075.8840116406766,993.0,61.62487706253644
1076.877313306248,1031.0,61.62487706253644
1077.9083352882335,993.0,59.667340845940096
1078.9016369538049,917.0,61.32224426192761
1079.819497986548,1056.0,60.860386538350376
1080.8756668461428,1043.0,59.89004156351432
1081.9192622669332,930.0,59.59558802778682
1082.849696738481,955.0,61.588868729541204
1083.8052780876383,1031.0,61.822579866773054
1084.8363000696238,968.0,60.98510812230131
1085.8044548575858,880.0,62.77906075388026
1086.684595573915,1031.0,62.77906075388026
1087.7156175559003,1156.0,59.41096786850476
1088.8723739259328,980.0,57.080362740299634
1089.8531021526996,1194.0,54.425896244792575
1091.0475788391461,1194.0,53.879910661268546
1092.2420555255928,1043.0,52.651429042485724
1093.285650946383,1181.0,52.82955199881271
1094.4675541940248,641.0,53.0076749551397
1095.649457441667,540.0,53.48086787496715
1096.6679059848477,1018.0,54.63461884208514
1097.7743685996613,1106.0,56.426326226315425
1098.843110898061,1068.0,55.95313330648798
1099.886706318851,1043.0,59.66726313214177
1100.8045673515944,917.0,61.61151126048402
1101.7727221395564,968.0,62.084704180311476
1102.7911706827372,1018.0,60.429800764323964
1103.7844723483086,993.0,61.267272508795706
1104.7149068198564,930.0,61.0277907262001
1105.745928801842,1031.0,59.176327900650854
1106.839817977851,1093.0,55.75665161072456
1107.9462805926646,1106.0,56.75142209227553
1108.9270088194314,980.0,57.18161492527079
1109.995751117831,1068.0,57.18161492527079
1111.1022137326447,1106.0,57.1816149252708
1112.0829419594113,980.0,57.63253994298873
1113.1265373802016,1043.0,58.05289882248133
1114.2078531174059,1081.0,57.54307895068646
1115.213728221782,1005.0,59.587272364341075
1116.1567361321347,943.0,60.974456666666654
1117.1626112365107,1005.0,59.587272364341075
1118.243926973715,1081.0,59.30821306609546
1119.1995083228724,955.0,59.06274423893497
1120.217956866053,1018.0,58.439290619912235
1121.3369929196715,1119.0,56.90786764173508
1122.368014901657,1031.0,58.765469577003685
1123.298449373205,930.0,59.82929916501867
1124.3546182327998,1056.0,58.927065472449186
1125.435933970004,1081.0,57.56661559218918
1126.4292356355754,993.0,56.70588074370433
1127.5356982503893,1106.0,56.285521864211724
1128.6421608652029,1106.0,56.285521864211724
1129.6354625307742,993.0,57.14625671269658
1130.6916313903691,1056.0,57.14625671269658
1131.798094005183,1106.0,57.40439335664335
1132.7788222319496,980.0,58.10573286281618
1133.7972707751305,1018.0,58.966467711301036
1134.8534396347254,1056.0,57.50983950617283
1135.9096084943203,1056.0,58.80178070175438
1136.8651898434775,955.0,59.50312020792722
1137.8836383866583,1018.0,59.7312667942726
1138.9272338074486,1043.0,58.199843816095445
1139.9582557894341,1031.0,60.05744575136405
1140.888690260982,930.0,60.05744575136405
1141.932285681772,1043.0,59.8237346141322
1142.9758811025624,1043.0,57.49293975903614
1144.0194765233525,1043.0,60.118188149859705
1144.9373375560958,917.0,61.61151126048402
1145.9054923440578,968.0,61.16058624276609
1146.9742346424573,1068.0,58.30719126559714
1148.0304035020522,1056.0,58.85806156862745
1148.9734114124049,943.0,59.30898658634538
1150.0170068331952,1043.0,58.86861061735313
1151.0983225703994,1081.0,56.59627061735313
1152.1544914299943,1056.0,90.45322403100775
1152.5316945941354,943.0,107.30494444444443
1153.097499340347,1018.0,108.00628395061727
1154.1159478835277,1081.0,73.48080798162502
1155.197263620732,968.0,58.79093323415028
1156.165418408694,1043.0,58.317740314322826
1157.209013829484,1081.0,58.317740314322826
1158.2903295666886,1068.0,56.37349218598058
1159.359071865088,943.0,58.41768559963519
1160.3020797754407,980.0,60.31468977375565
1161.2828080022075,1056.0,60.5374682051282
1162.3389768618024,1043.0,58.49327479147358
1163.3825722825925,955.0,59.02992728809976
1164.3381536317497,1018.0,59.7312667942726
1165.3566021749307,1018.0,60.204459714100054
1166.3750507181114,930.0,60.77012045378711
1167.3054851896593,1005.0,61.0155892809476
1168.3113602940355,1056.0,60.314249774774765
1169.3675291536304,1043.0,57.98345491967871
1170.4111245744205,955.0,59.02992728809976
1171.3667059235777,1005.0,59.97673562143309
1172.3725810279539,1068.0,59.52581060371516
1173.4413233263535,980.0,58.989158107088976
1174.4220515531201,955.0,60.03563047551003
1175.3776329022776,1018.0,60.95974841305542
1176.3960814454583,1043.0,59.7312667942726
1177.4396768662484,955.0,59.7312667942726
1178.3952582154059,980.0,60.48655549322797
1179.3759864421725,1031.0,60.72026663045982
1180.407008424158,1043.0,58.95513251505081
1181.450603844948,943.0,59.77084430992261
1182.3936117553008,1068.0,59.08620815497282
1183.4623540537004,1043.0,59.08620815497283
1184.5059494744905,1018.0,57.51520766114566
1185.5243980176715,880.0,61.525219425851546
1186.4045387340004,968.0,63.01854253647586
1187.3726935219624,1056.0,62.31720303030303
1188.4288623815573,955.0,60.52325039872408
1189.3844437307148,980.0,60.258408906882586
1190.3651719574814,1081.0,59.81803293789034
1191.4464876946856,1043.0,58.05289882248133
1192.490083115476,943.0,58.86861061735313
1193.4330910258284,1018.0,60.01032609251821
1194.4515395690094,N/A,60.48351901234567
