2022-12-15 15:34:44.081466, 1.46627
2022-12-15 15:34:44.082459, 1.47116
2022-12-15 15:34:44.082459, 1.49071
2022-12-15 15:34:44.115373, 1.48582
2022-12-15 15:34:44.115373, 1.45161
2022-12-15 15:34:44.116374, 1.45161
2022-12-15 15:34:44.148938, 1.45650
2022-12-15 15:34:44.149932, 1.46138
2022-12-15 15:34:44.182479, 1.44672
2022-12-15 15:34:44.182479, 1.45161
2022-12-15 15:34:44.183519, 1.45650
2022-12-15 15:34:44.215956, 1.45650
2022-12-15 15:34:44.215956, 1.46627
2022-12-15 15:34:44.216865, 1.47116
2022-12-15 15:34:44.249229, 1.45650
2022-12-15 15:34:44.250236, 1.45650
2022-12-15 15:34:44.283042, 1.44672
2022-12-15 15:34:44.283042, 1.44672
2022-12-15 15:34:44.284067, 1.46138
2022-12-15 15:34:44.317257, 1.45161
2022-12-15 15:34:44.317559, 1.43695
2022-12-15 15:34:44.318028, 1.43695
2022-12-15 15:34:44.350919, 1.45650
2022-12-15 15:34:44.351275, 1.43695
2022-12-15 15:34:44.384207, 1.42228
2022-12-15 15:34:44.384207, 1.42717
2022-12-15 15:34:44.385209, 1.46138
2022-12-15 15:34:44.417095, 1.49560
2022-12-15 15:34:44.418105, 1.54936
2022-12-15 15:34:44.418328, 1.64222
2022-12-15 15:34:44.451365, 1.74975
2022-12-15 15:34:44.451752, 1.87194
2022-12-15 15:34:44.484973, 1.94037
2022-12-15 15:34:44.485217, 2.00879
2022-12-15 15:34:44.485217, 2.06256
2022-12-15 15:34:44.518530, 2.09677
2022-12-15 15:34:44.518828, 2.08211
2022-12-15 15:34:44.518828, 2.06256
2022-12-15 15:34:44.551797, 2.03812
2022-12-15 15:34:44.551797, 2.00879
2022-12-15 15:34:44.585454, 1.95992
2022-12-15 15:34:44.585701, 1.92082
2022-12-15 15:34:44.585701, 1.88660
2022-12-15 15:34:44.618830, 1.87194
2022-12-15 15:34:44.619557, 1.82306
2022-12-15 15:34:44.619557, 1.78885
2022-12-15 15:34:44.652511, 1.76930
2022-12-15 15:34:44.653086, 1.74975
2022-12-15 15:34:44.686038, 1.71554
2022-12-15 15:34:44.686596, 1.70087
2022-12-15 15:34:44.686596, 1.68132
2022-12-15 15:34:44.718924, 1.67644
2022-12-15 15:34:44.719926, 1.66666
2022-12-15 15:34:44.720243, 1.68132
2022-12-15 15:34:44.752947, 1.67155
2022-12-15 15:34:44.753405, 1.68621
2022-12-15 15:34:44.786609, 1.68621
2022-12-15 15:34:44.786962, 1.68621
2022-12-15 15:34:44.787520, 1.69599
2022-12-15 15:34:44.820002, 1.70087
2022-12-15 15:34:44.820356, 1.70087
2022-12-15 15:34:44.820356, 1.70087
2022-12-15 15:34:44.853741, 1.67644
2022-12-15 15:34:44.854174, 1.66666
2022-12-15 15:34:44.887286, 1.65689
2022-12-15 15:34:44.887594, 1.66177
2022-12-15 15:34:44.887594, 1.61779
2022-12-15 15:34:44.920585, 1.60801
2022-12-15 15:34:44.920585, 1.58846
2022-12-15 15:34:44.921587, 1.56402
2022-12-15 15:34:44.954399, 1.56402
2022-12-15 15:34:44.954818, 1.57380
2022-12-15 15:34:44.988037, 1.52981
2022-12-15 15:34:44.988283, 1.51026
2022-12-15 15:34:44.988751, 1.50048
2022-12-15 15:34:45.021498, 1.50048
2022-12-15 15:34:45.022462, 1.49560
2022-12-15 15:34:45.022462, 1.48093
2022-12-15 15:34:45.054449, 1.47605
2022-12-15 15:34:45.054651, 1.47605
2022-12-15 15:34:45.088094, 1.48582
2022-12-15 15:34:45.088426, 1.49071
2022-12-15 15:34:45.088935, 1.47605
2022-12-15 15:34:45.121833, 1.48093
2022-12-15 15:34:45.122166, 1.48582
2022-12-15 15:34:45.122785, 1.47605
2022-12-15 15:34:45.155413, 1.48582
2022-12-15 15:34:45.155806, 1.48582
2022-12-15 15:34:45.189032, 1.48093
2022-12-15 15:34:45.189307, 1.47605
2022-12-15 15:34:45.189307, 1.47605
2022-12-15 15:34:45.222519, 1.48582
2022-12-15 15:34:45.222819, 1.50537
2022-12-15 15:34:45.223286, 1.47116
2022-12-15 15:34:45.255988, 1.47116
2022-12-15 15:34:45.257019, 1.47605
2022-12-15 15:34:45.289587, 1.49560
2022-12-15 15:34:45.289831, 1.50048
2022-12-15 15:34:45.290306, 1.53958
2022-12-15 15:34:45.323027, 1.61779
2022-12-15 15:34:45.323719, 1.73020
2022-12-15 15:34:45.323719, 1.80351
2022-12-15 15:34:45.356300, 1.89638
2022-12-15 15:34:45.356633, 1.98924
2022-12-15 15:34:45.390120, 2.05278
2022-12-15 15:34:45.390395, 2.08699
2022-12-15 15:34:45.390990, 2.09677
2022-12-15 15:34:45.423721, 2.09188
2022-12-15 15:34:45.424019, 2.08211
2022-12-15 15:34:45.424594, 2.04301
2022-12-15 15:34:45.457212, 2.00391
2022-12-15 15:34:45.457559, 1.96480
2022-12-15 15:34:45.490877, 1.95503
2022-12-15 15:34:45.491117, 1.89638
2022-12-15 15:34:45.491643, 1.86217
2022-12-15 15:34:45.524450, 1.83284
2022-12-15 15:34:45.524750, 1.81329
2022-12-15 15:34:45.525223, 1.81329
2022-12-15 15:34:45.557936, 1.77908
2022-12-15 15:34:45.558285, 1.73509
2022-12-15 15:34:45.591422, 1.72043
2022-12-15 15:34:45.591662, 1.70576
2022-12-15 15:34:45.592132, 1.68621
2022-12-15 15:34:45.624766, 1.68621
2022-12-15 15:34:45.624766, 1.69599
2022-12-15 15:34:45.625806, 1.69599
2022-12-15 15:34:45.657583, 1.69110
2022-12-15 15:34:45.658592, 1.71065
2022-12-15 15:34:45.691976, 1.71065
2022-12-15 15:34:45.692219, 1.70576
2022-12-15 15:34:45.692752, 1.69599
2022-12-15 15:34:45.725597, 1.69599
2022-12-15 15:34:45.725897, 1.71554
2022-12-15 15:34:45.726434, 1.69110
2022-12-15 15:34:45.759151, 1.65689
2022-12-15 15:34:45.759504, 1.64711
2022-12-15 15:34:45.792693, 1.64222
2022-12-15 15:34:45.792941, 1.65200
2022-12-15 15:34:45.793410, 1.59335
2022-12-15 15:34:45.826245, 1.57869
2022-12-15 15:34:45.826545, 1.56891
2022-12-15 15:34:45.827078, 1.56402
2022-12-15 15:34:45.859760, 1.53958
2022-12-15 15:34:45.860114, 1.54936
2022-12-15 15:34:45.893330, 1.51515
2022-12-15 15:34:45.894361, 1.51026
2022-12-15 15:34:45.894361, 1.49071
2022-12-15 15:34:45.926511, 1.48582
2022-12-15 15:34:45.926511, 1.49071
2022-12-15 15:34:45.927078, 1.48582
2022-12-15 15:34:45.959993, 1.47605
2022-12-15 15:34:45.960937, 1.47116
2022-12-15 15:34:45.993765, 1.47116
2022-12-15 15:34:45.994012, 1.48093
2022-12-15 15:34:45.994531, 1.50048
2022-12-15 15:34:46.027466, 1.47116
2022-12-15 15:34:46.027768, 1.47605
2022-12-15 15:34:46.028309, 1.48582
2022-12-15 15:34:46.060885, 1.47605
2022-12-15 15:34:46.060885, 1.48093
2022-12-15 15:34:46.094293, 1.50537
2022-12-15 15:34:46.094293, 1.48582
2022-12-15 15:34:46.095103, 1.47605
2022-12-15 15:34:46.127848, 1.47116
2022-12-15 15:34:46.128145, 1.46627
2022-12-15 15:34:46.128145, 1.47605
2022-12-15 15:34:46.161579, 1.48582
2022-12-15 15:34:46.161964, 1.45650
2022-12-15 15:34:46.194813, 1.46138
2022-12-15 15:34:46.194813, 1.47605
2022-12-15 15:34:46.195944, 1.52003
2022-12-15 15:34:46.228447, 1.55425
2022-12-15 15:34:46.228746, 1.63734
2022-12-15 15:34:46.228746, 1.75464
2022-12-15 15:34:46.262094, 1.86217
2022-12-15 15:34:46.262450, 1.94525
2022-12-15 15:34:46.295712, 2.03323
2022-12-15 15:34:46.295960, 2.09677
2022-12-15 15:34:46.296496, 2.12609
2022-12-15 15:34:46.329505, 2.12609
2022-12-15 15:34:46.329806, 2.11632
2022-12-15 15:34:46.330278, 2.10166
2022-12-15 15:34:46.362798, 2.07722
2022-12-15 15:34:46.363150, 2.01857
2022-12-15 15:34:46.396548, 1.98435
2022-12-15 15:34:46.396792, 1.95992
2022-12-15 15:34:46.397265, 1.92570
2022-12-15 15:34:46.429880, 1.89149
2022-12-15 15:34:46.430180, 1.87194
2022-12-15 15:34:46.430180, 1.85728
2022-12-15 15:34:46.463448, 1.83284
2022-12-15 15:34:46.463448, 1.79863
2022-12-15 15:34:46.496803, 1.77419
2022-12-15 15:34:46.497833, 1.77419
2022-12-15 15:34:46.497955, 1.74486
2022-12-15 15:34:46.529867, 1.72043
2022-12-15 15:34:46.529996, 1.72043
2022-12-15 15:34:46.529996, 1.73998
2022-12-15 15:34:46.563664, 1.72043
2022-12-15 15:34:46.564016, 1.71065
2022-12-15 15:34:46.597345, 1.71554
2022-12-15 15:34:46.597591, 1.72043
2022-12-15 15:34:46.598136, 1.72531
2022-12-15 15:34:46.630901, 1.73998
2022-12-15 15:34:46.631202, 1.70087
2022-12-15 15:34:46.631733, 1.70087
2022-12-15 15:34:46.664364, 1.69599
2022-12-15 15:34:46.664716, 1.68621
2022-12-15 15:34:46.698036, 1.65689
2022-12-15 15:34:46.698282, 1.64711
2022-12-15 15:34:46.698823, 1.63245
2022-12-15 15:34:46.731658, 1.61290
2022-12-15 15:34:46.731958, 1.60801
2022-12-15 15:34:46.732424, 1.57869
2022-12-15 15:34:46.765274, 1.56891
2022-12-15 15:34:46.765671, 1.54447
2022-12-15 15:34:46.798695, 1.53958
2022-12-15 15:34:46.798695, 1.52981
2022-12-15 15:34:46.799696, 1.52003
2022-12-15 15:34:46.831912, 1.50537
2022-12-15 15:34:46.832917, 1.49560
2022-12-15 15:34:46.833099, 1.49560
2022-12-15 15:34:46.864459, 1.51026
2022-12-15 15:34:46.865467, 1.48582
2022-12-15 15:34:46.899316, 1.48093
2022-12-15 15:34:46.899560, 1.48093
2022-12-15 15:34:46.899560, 1.48582
2022-12-15 15:34:46.932287, 1.49071
2022-12-15 15:34:46.932287, 1.47605
2022-12-15 15:34:46.932287, 1.47605
2022-12-15 15:34:46.966426, 1.48582
2022-12-15 15:34:46.966778, 1.48582
2022-12-15 15:34:46.999828, 1.48093
2022-12-15 15:34:47.000073, 1.50537
2022-12-15 15:34:47.000606, 1.48093
2022-12-15 15:34:47.033541, 1.48093
2022-12-15 15:34:47.033840, 1.47116
2022-12-15 15:34:47.034379, 1.46627
2022-12-15 15:34:47.066722, 1.48093
2022-12-15 15:34:47.067072, 1.47605
2022-12-15 15:34:47.100331, 1.45650
2022-12-15 15:34:47.100607, 1.45161
2022-12-15 15:34:47.100607, 1.45650
2022-12-15 15:34:47.133949, 1.46627
2022-12-15 15:34:47.134275, 1.46138
2022-12-15 15:34:47.134791, 1.50048
2022-12-15 15:34:47.167430, 1.56891
2022-12-15 15:34:47.168113, 1.65200
2022-12-15 15:34:47.199952, 1.77419
2022-12-15 15:34:47.200960, 1.85728
2022-12-15 15:34:47.200960, 1.95992
2022-12-15 15:34:47.234380, 2.04789
2022-12-15 15:34:47.234677, 2.08699
2022-12-15 15:34:47.235210, 2.11632
2022-12-15 15:34:47.268062, 2.13098
2022-12-15 15:34:47.268448, 2.12121
2022-12-15 15:34:47.301497, 2.07722
2022-12-15 15:34:47.301870, 2.07233
2022-12-15 15:34:47.301870, 2.00879
2022-12-15 15:34:47.335110, 1.97947
2022-12-15 15:34:47.335110, 1.93548
2022-12-15 15:34:47.335925, 1.90615
2022-12-15 15:34:47.368787, 1.88660
2022-12-15 15:34:47.369137, 1.88660
2022-12-15 15:34:47.402516, 1.84261
2022-12-15 15:34:47.402516, 1.81329
2022-12-15 15:34:47.403517, 1.79374
2022-12-15 15:34:47.435825, 1.77419
2022-12-15 15:34:47.436122, 1.76441
2022-12-15 15:34:47.436122, 1.72531
2022-12-15 15:34:47.470221, 1.72043
2022-12-15 15:34:47.470221, 1.71554
2022-12-15 15:34:47.501965, 1.70576
2022-12-15 15:34:47.502973, 1.71065
2022-12-15 15:34:47.502973, 1.70087
2022-12-15 15:34:47.535750, 1.70576
2022-12-15 15:34:47.535750, 1.70087
2022-12-15 15:34:47.536751, 1.70087
2022-12-15 15:34:47.569824, 1.69599
2022-12-15 15:34:47.569824, 1.69599
2022-12-15 15:34:47.602003, 1.68132
2022-12-15 15:34:47.602957, 1.66666
2022-12-15 15:34:47.602957, 1.67155
2022-12-15 15:34:47.636655, 1.64711
2022-12-15 15:34:47.637462, 1.62756
2022-12-15 15:34:47.637462, 1.60312
2022-12-15 15:34:47.670148, 1.59824
2022-12-15 15:34:47.670923, 1.59824
2022-12-15 15:34:47.703889, 1.56402
2022-12-15 15:34:47.704482, 1.53958
2022-12-15 15:34:47.704482, 1.53470
2022-12-15 15:34:47.737438, 1.52492
2022-12-15 15:34:47.737438, 1.51515
2022-12-15 15:34:47.738449, 1.50048
2022-12-15 15:34:47.771023, 1.48582
2022-12-15 15:34:47.771445, 1.48582
2022-12-15 15:34:47.804316, 1.48093
2022-12-15 15:34:47.804603, 1.47116
2022-12-15 15:34:47.804603, 1.47116
2022-12-15 15:34:47.837559, 1.47605
2022-12-15 15:34:47.837559, 1.50048
2022-12-15 15:34:47.838566, 1.46138
2022-12-15 15:34:47.870925, 1.46138
2022-12-15 15:34:47.871951, 1.46627
2022-12-15 15:34:47.904491, 1.48582
2022-12-15 15:34:47.904491, 1.46138
2022-12-15 15:34:47.905093, 1.46138
2022-12-15 15:34:47.938011, 1.46627
2022-12-15 15:34:47.938362, 1.47116
2022-12-15 15:34:47.938362, 1.47116
2022-12-15 15:34:47.971981, 1.45650
2022-12-15 15:34:47.972376, 1.46138
2022-12-15 15:34:48.005830, 1.46138
2022-12-15 15:34:48.006078, 1.44672
2022-12-15 15:34:48.006664, 1.45161
2022-12-15 15:34:48.039317, 1.44183
2022-12-15 15:34:48.039615, 1.44183
2022-12-15 15:34:48.039615, 1.43206
2022-12-15 15:34:48.072128, 1.43695
2022-12-15 15:34:48.072531, 1.44183
2022-12-15 15:34:48.106084, 1.46627
2022-12-15 15:34:48.106084, 1.50048
2022-12-15 15:34:48.107084, 1.57380
2022-12-15 15:34:48.139687, 1.66666
2022-12-15 15:34:48.139989, 1.78396
2022-12-15 15:34:48.139989, 1.87683
2022-12-15 15:34:48.173112, 1.96480
2022-12-15 15:34:48.173464, 2.03812
2022-12-15 15:34:48.206834, 2.08211
2022-12-15 15:34:48.207080, 2.09188
2022-12-15 15:34:48.207660, 2.10166
2022-12-15 15:34:48.240364, 2.05767
2022-12-15 15:34:48.240660, 2.03812
2022-12-15 15:34:48.241133, 1.99413
2022-12-15 15:34:48.273818, 1.96480
2022-12-15 15:34:48.273818, 1.91593
2022-12-15 15:34:48.307029, 1.90615
2022-12-15 15:34:48.307029, 1.85728
2022-12-15 15:34:48.308055, 1.82306
2022-12-15 15:34:48.340849, 1.80351
2022-12-15 15:34:48.340849, 1.79374
2022-12-15 15:34:48.341850, 1.76441
2022-12-15 15:34:48.374277, 1.74486
2022-12-15 15:34:48.374277, 1.71065
2022-12-15 15:34:48.407595, 1.70087
2022-12-15 15:34:48.407595, 1.70576
2022-12-15 15:34:48.408462, 1.67644
2022-12-15 15:34:48.441286, 1.67644
2022-12-15 15:34:48.441286, 1.69110
2022-12-15 15:34:48.442220, 1.69110
2022-12-15 15:34:48.474560, 1.70087
2022-12-15 15:34:48.474916, 1.68621
2022-12-15 15:34:48.508785, 1.69599
2022-12-15 15:34:48.508785, 1.70087
2022-12-15 15:34:48.509786, 1.69599
2022-12-15 15:34:48.542048, 1.67155
2022-12-15 15:34:48.542349, 1.66666
2022-12-15 15:34:48.542869, 1.66177
2022-12-15 15:34:48.575839, 1.63245
2022-12-15 15:34:48.576187, 1.62267
2022-12-15 15:34:48.609318, 1.60312
2022-12-15 15:34:48.609560, 1.58846
2022-12-15 15:34:48.609560, 1.56402
2022-12-15 15:34:48.642567, 1.54936
2022-12-15 15:34:48.642911, 1.54447
2022-12-15 15:34:48.643419, 1.55425
2022-12-15 15:34:48.676208, 1.51026
2022-12-15 15:34:48.676588, 1.50048
2022-12-15 15:34:48.709649, 1.49560
2022-12-15 15:34:48.709894, 1.49071
2022-12-15 15:34:48.709894, 1.48582
2022-12-15 15:34:48.743097, 1.47605
2022-12-15 15:34:48.743863, 1.47605
2022-12-15 15:34:48.743863, 1.48582
2022-12-15 15:34:48.776374, 1.47605
2022-12-15 15:34:48.776732, 1.47116
2022-12-15 15:34:48.810419, 1.47605
2022-12-15 15:34:48.810664, 1.48093
2022-12-15 15:34:48.811201, 1.47116
2022-12-15 15:34:48.843968, 1.47116
2022-12-15 15:34:48.844268, 1.48093
2022-12-15 15:34:48.844805, 1.51515
2022-12-15 15:34:48.877407, 1.48093
2022-12-15 15:34:48.877759, 1.47116
2022-12-15 15:34:48.911291, 1.48093
2022-12-15 15:34:48.911538, 1.49071
2022-12-15 15:34:48.912060, 1.47116
2022-12-15 15:34:48.944441, 1.46138
2022-12-15 15:34:48.944740, 1.46138
2022-12-15 15:34:48.945217, 1.47116
2022-12-15 15:34:48.978349, 1.49560
2022-12-15 15:34:48.978708, 1.49560
2022-12-15 15:34:49.011660, 1.54936
2022-12-15 15:34:49.011906, 1.63245
2022-12-15 15:34:49.012375, 1.73020
2022-12-15 15:34:49.045558, 1.82306
2022-12-15 15:34:49.045558, 1.92082
2022-12-15 15:34:49.046561, 2.00879
2022-12-15 15:34:49.077417, 2.06256
2022-12-15 15:34:49.078425, 2.08211
2022-12-15 15:34:49.111366, 2.09188
2022-12-15 15:34:49.111366, 2.08699
2022-12-15 15:34:49.112321, 2.06256
2022-12-15 15:34:49.145737, 2.01368
2022-12-15 15:34:49.146036, 1.99902
2022-12-15 15:34:49.146552, 1.95014
2022-12-15 15:34:49.179449, 1.92082
2022-12-15 15:34:49.179801, 1.87683
2022-12-15 15:34:49.211834, 1.85239
2022-12-15 15:34:49.211834, 1.83773
2022-12-15 15:34:49.212866, 1.81329
2022-12-15 15:34:49.245316, 1.77419
2022-12-15 15:34:49.246318, 1.75464
2022-12-15 15:34:49.246318, 1.73509
2022-12-15 15:34:49.279838, 1.72043
2022-12-15 15:34:49.279838, 1.72043
2022-12-15 15:34:49.313534, 1.68621
2022-12-15 15:34:49.313782, 1.69110
2022-12-15 15:34:49.314322, 1.69599
2022-12-15 15:34:49.347102, 1.69110
2022-12-15 15:34:49.347102, 1.70087
2022-12-15 15:34:49.348062, 1.69599
2022-12-15 15:34:49.380092, 1.70576
2022-12-15 15:34:49.380092, 1.69110
2022-12-15 15:34:49.413922, 1.70087
2022-12-15 15:34:49.414167, 1.68621
2022-12-15 15:34:49.414708, 1.68132
2022-12-15 15:34:49.447324, 1.66177
2022-12-15 15:34:49.447665, 1.64711
2022-12-15 15:34:49.448181, 1.66177
2022-12-15 15:34:49.481329, 1.62267
2022-12-15 15:34:49.481681, 1.59824
2022-12-15 15:34:49.514526, 1.58357
2022-12-15 15:34:49.514774, 1.57380
2022-12-15 15:34:49.515313, 1.55913
2022-12-15 15:34:49.548474, 1.53470
2022-12-15 15:34:49.548776, 1.52003
2022-12-15 15:34:49.549250, 1.51515
2022-12-15 15:34:49.581783, 1.51026
2022-12-15 15:34:49.582135, 1.49560
2022-12-15 15:34:49.615533, 1.49560
2022-12-15 15:34:49.615777, 1.48093
2022-12-15 15:34:49.615777, 1.48093
2022-12-15 15:34:49.648838, 1.47605
2022-12-15 15:34:49.648838, 1.47116
2022-12-15 15:34:49.649839, 1.47116
2022-12-15 15:34:49.682441, 1.49071
2022-12-15 15:34:49.682896, 1.47605
2022-12-15 15:34:49.715700, 1.47116
2022-12-15 15:34:49.715700, 1.47116
2022-12-15 15:34:49.716735, 1.48582
2022-12-15 15:34:49.748972, 1.51026
2022-12-15 15:34:49.748972, 1.47605
2022-12-15 15:34:49.749688, 1.47605
2022-12-15 15:34:49.782628, 1.48582
2022-12-15 15:34:49.782982, 1.48582
2022-12-15 15:34:49.816276, 1.46627
2022-12-15 15:34:49.816520, 1.46627
2022-12-15 15:34:49.816520, 1.46627
2022-12-15 15:34:49.849972, 1.46627
2022-12-15 15:34:49.850271, 1.46627
2022-12-15 15:34:49.850805, 1.48093
2022-12-15 15:34:49.883524, 1.52492
2022-12-15 15:34:49.883883, 1.59824
2022-12-15 15:34:49.916998, 1.67155
2022-12-15 15:34:49.917245, 1.80840
2022-12-15 15:34:49.917714, 1.88660
2022-12-15 15:34:49.950581, 1.98435
2022-12-15 15:34:49.950879, 2.03812
2022-12-15 15:34:49.951406, 2.11143
2022-12-15 15:34:49.984418, 2.11143
2022-12-15 15:34:49.984770, 2.11632
2022-12-15 15:34:50.017463, 2.08211
2022-12-15 15:34:50.018198, 2.08211
2022-12-15 15:34:50.018198, 2.02346
2022-12-15 15:34:50.050987, 1.99413
2022-12-15 15:34:50.051996, 1.95503
2022-12-15 15:34:50.051996, 1.92082
2022-12-15 15:34:50.084416, 1.90127
2022-12-15 15:34:50.084416, 1.89149
2022-12-15 15:34:50.118324, 1.85728
2022-12-15 15:34:50.118571, 1.83284
2022-12-15 15:34:50.118571, 1.81818
2022-12-15 15:34:50.151661, 1.82795
2022-12-15 15:34:50.151960, 1.76441
2022-12-15 15:34:50.151960, 1.73509
2022-12-15 15:34:50.185050, 1.73998
2022-12-15 15:34:50.185401, 1.72531
2022-12-15 15:34:50.218674, 1.70576
2022-12-15 15:34:50.219046, 1.70087
2022-12-15 15:34:50.219580, 1.71065
2022-12-15 15:34:50.252034, 1.70576
2022-12-15 15:34:50.252520, 1.70087
2022-12-15 15:34:50.253107, 1.70087
2022-12-15 15:34:50.285406, 1.70087
2022-12-15 15:34:50.285406, 1.70087
2022-12-15 15:34:50.318915, 1.68621
2022-12-15 15:34:50.319167, 1.67155
2022-12-15 15:34:50.319702, 1.66666
2022-12-15 15:34:50.352120, 1.65689
2022-12-15 15:34:50.352120, 1.63734
2022-12-15 15:34:50.353151, 1.61290
2022-12-15 15:34:50.385836, 1.60801
2022-12-15 15:34:50.386159, 1.59335
2022-12-15 15:34:50.419826, 1.57380
2022-12-15 15:34:50.420071, 1.54936
2022-12-15 15:34:50.420600, 1.53958
2022-12-15 15:34:50.453303, 1.53470
2022-12-15 15:34:50.453303, 1.52003
2022-12-15 15:34:50.454304, 1.50048
2022-12-15 15:34:50.487251, 1.49071
2022-12-15 15:34:50.487251, 1.50048
2022-12-15 15:34:50.520441, 1.51515
2022-12-15 15:34:50.520441, 1.47605
2022-12-15 15:34:50.521442, 1.47605
2022-12-15 15:34:50.554216, 1.48093
2022-12-15 15:34:50.554660, 1.47605
2022-12-15 15:34:50.555162, 1.47116
2022-12-15 15:34:50.587407, 1.49560
2022-12-15 15:34:50.587407, 1.47605
2022-12-15 15:34:50.621231, 1.47605
2022-12-15 15:34:50.621670, 1.46627
2022-12-15 15:34:50.622147, 1.47116
2022-12-15 15:34:50.654670, 1.47116
2022-12-15 15:34:50.654670, 1.47605
2022-12-15 15:34:50.655678, 1.46627
2022-12-15 15:34:50.688444, 1.48582
2022-12-15 15:34:50.688444, 1.46138
2022-12-15 15:34:50.721744, 1.46627
2022-12-15 15:34:50.722044, 1.45161
2022-12-15 15:34:50.722044, 1.44672
2022-12-15 15:34:50.754933, 1.47605
2022-12-15 15:34:50.754933, 1.44672
2022-12-15 15:34:50.755943, 1.43695
2022-12-15 15:34:50.788066, 1.43695
2022-12-15 15:34:50.789077, 1.47605
2022-12-15 15:34:50.822085, 1.51515
2022-12-15 15:34:50.822330, 1.57380
2022-12-15 15:34:50.822330, 1.66177
2022-12-15 15:34:50.855187, 1.77419
2022-12-15 15:34:50.855187, 1.88172
2022-12-15 15:34:50.856195, 1.95992
2022-12-15 15:34:50.889057, 2.02346
2022-12-15 15:34:50.889457, 2.07233
2022-12-15 15:34:50.922357, 2.09188
2022-12-15 15:34:50.922601, 2.08211
2022-12-15 15:34:50.923126, 2.05278
2022-12-15 15:34:50.956316, 2.02834
2022-12-15 15:34:50.956617, 2.00391
2022-12-15 15:34:50.957131, 1.96480
2022-12-15 15:34:50.989446, 1.92082
2022-12-15 15:34:50.989446, 1.92082
2022-12-15 15:34:51.023311, 1.88660
2022-12-15 15:34:51.023555, 1.86217
2022-12-15 15:34:51.023555, 1.82795
2022-12-15 15:34:51.057149, 1.81818
2022-12-15 15:34:51.057443, 1.80351
2022-12-15 15:34:51.057910, 1.76930
2022-12-15 15:34:51.090314, 1.73998
2022-12-15 15:34:51.090665, 1.71065
2022-12-15 15:34:51.124236, 1.70087
2022-12-15 15:34:51.124236, 1.68621
2022-12-15 15:34:51.125238, 1.66666
2022-12-15 15:34:51.157431, 1.66666
2022-12-15 15:34:51.157431, 1.67155
2022-12-15 15:34:51.158432, 1.66666
2022-12-15 15:34:51.191204, 1.67644
2022-12-15 15:34:51.192235, 1.65689
2022-12-15 15:34:51.224801, 1.65689
2022-12-15 15:34:51.225041, 1.65689
2022-12-15 15:34:51.225041, 1.64222
2022-12-15 15:34:51.257981, 1.66177
2022-12-15 15:34:51.258317, 1.62267
2022-12-15 15:34:51.258317, 1.60801
2022-12-15 15:34:51.291655, 1.59335
2022-12-15 15:34:51.292049, 1.56891
2022-12-15 15:34:51.325139, 1.56402
2022-12-15 15:34:51.325384, 1.54936
2022-12-15 15:34:51.325924, 1.54936
2022-12-15 15:34:51.358795, 1.51026
2022-12-15 15:34:51.359094, 1.49560
2022-12-15 15:34:51.359616, 1.49560
2022-12-15 15:34:51.392248, 1.47605
2022-12-15 15:34:51.392629, 1.45650
2022-12-15 15:34:51.425715, 1.45161
2022-12-15 15:34:51.425987, 1.44672
2022-12-15 15:34:51.426591, 1.43695
2022-12-15 15:34:51.459243, 1.44672
2022-12-15 15:34:51.459539, 1.42717
2022-12-15 15:34:51.459539, 1.43206
2022-12-15 15:34:51.492818, 1.41739
2022-12-15 15:34:51.493372, 1.44183
2022-12-15 15:34:51.525428, 1.41739
2022-12-15 15:34:51.526435, 1.42228
2022-12-15 15:34:51.526682, 1.41739
2022-12-15 15:34:51.560084, 1.44183
2022-12-15 15:34:51.560386, 1.41251
2022-12-15 15:34:51.560921, 1.41739
2022-12-15 15:34:51.593400, 1.40762
2022-12-15 15:34:51.593753, 1.41251
2022-12-15 15:34:51.627294, 1.40762
2022-12-15 15:34:51.627536, 1.41251
2022-12-15 15:34:51.628073, 1.40273
2022-12-15 15:34:51.660476, 1.39296
2022-12-15 15:34:51.660774, 1.39784
2022-12-15 15:34:51.661310, 1.41251
2022-12-15 15:34:51.694373, 1.38807
2022-12-15 15:34:51.694724, 1.38318
2022-12-15 15:34:51.727670, 1.37829
2022-12-15 15:34:51.727915, 1.39784
2022-12-15 15:34:51.728453, 1.38318
2022-12-15 15:34:51.761073, 1.39296
2022-12-15 15:34:51.761370, 1.42228
2022-12-15 15:34:51.761837, 1.49071
2022-12-15 15:34:51.794661, 1.57869
2022-12-15 15:34:51.794661, 1.65200
2022-12-15 15:34:51.828044, 1.75464
2022-12-15 15:34:51.829052, 1.84750
2022-12-15 15:34:51.829052, 1.92082
2022-12-15 15:34:51.861596, 1.95014
2022-12-15 15:34:51.861896, 1.97458
2022-12-15 15:34:51.861896, 1.98435
2022-12-15 15:34:51.895126, 1.96969
2022-12-15 15:34:51.895477, 1.94525
2022-12-15 15:34:51.928845, 1.90615
2022-12-15 15:34:51.929090, 1.87683
2022-12-15 15:34:51.929621, 1.85239
2022-12-15 15:34:51.962484, 1.80840
2022-12-15 15:34:51.962783, 1.80840
2022-12-15 15:34:51.963319, 1.76930
2022-12-15 15:34:51.995849, 1.75464
2022-12-15 15:34:51.996201, 1.72043
2022-12-15 15:34:52.029508, 1.72531
2022-12-15 15:34:52.029755, 1.70576
2022-12-15 15:34:52.030222, 1.68621
2022-12-15 15:34:52.062915, 1.63734
2022-12-15 15:34:52.062915, 1.62756
2022-12-15 15:34:52.063931, 1.62267
2022-12-15 15:34:52.096510, 1.62756
2022-12-15 15:34:52.096863, 1.61779
2022-12-15 15:34:52.129931, 1.62756
2022-12-15 15:34:52.130176, 1.62267
2022-12-15 15:34:52.130176, 1.63734
2022-12-15 15:34:52.163409, 1.62267
2022-12-15 15:34:52.163409, 1.62756
2022-12-15 15:34:52.164411, 1.62756
2022-12-15 15:34:52.197282, 1.62756
2022-12-15 15:34:52.198317, 1.61290
2022-12-15 15:34:52.230407, 1.60801
2022-12-15 15:34:52.231440, 1.58846
2022-12-15 15:34:52.231581, 1.58357
2022-12-15 15:34:52.262715, 1.55913
2022-12-15 15:34:52.263805, 1.54936
2022-12-15 15:34:52.264310, 1.52981
2022-12-15 15:34:52.297557, 1.52003
2022-12-15 15:34:52.297937, 1.50048
2022-12-15 15:34:52.331196, 1.48582
2022-12-15 15:34:52.331444, 1.51026
2022-12-15 15:34:52.331444, 1.47605
2022-12-15 15:34:52.364796, 1.46138
2022-12-15 15:34:52.365095, 1.45161
2022-12-15 15:34:52.365635, 1.44183
2022-12-15 15:34:52.398281, 1.44672
2022-12-15 15:34:52.398633, 1.43695
2022-12-15 15:34:52.431911, 1.43206
2022-12-15 15:34:52.432154, 1.42717
2022-12-15 15:34:52.432629, 1.44672
2022-12-15 15:34:52.465301, 1.43695
2022-12-15 15:34:52.465600, 1.43206
2022-12-15 15:34:52.466136, 1.43695
2022-12-15 15:34:52.498984, 1.44672
2022-12-15 15:34:52.499335, 1.45161
2022-12-15 15:34:52.532147, 1.43206
2022-12-15 15:34:52.532147, 1.43695
2022-12-15 15:34:52.533149, 1.43695
2022-12-15 15:34:52.565415, 1.43695
2022-12-15 15:34:52.566443, 1.42228
2022-12-15 15:34:52.566443, 1.42717
2022-12-15 15:34:52.599553, 1.45161
2022-12-15 15:34:52.599906, 1.42717
2022-12-15 15:34:52.632845, 1.41739
2022-12-15 15:34:52.633087, 1.43206
2022-12-15 15:34:52.633622, 1.45650
2022-12-15 15:34:52.666412, 1.50537
2022-12-15 15:34:52.666412, 1.56402
2022-12-15 15:34:52.667414, 1.64711
2022-12-15 15:34:52.700343, 1.73509
2022-12-15 15:34:52.700694, 1.82306
2022-12-15 15:34:52.733484, 1.88172
2022-12-15 15:34:52.733728, 1.92570
2022-12-15 15:34:52.734194, 1.96480
2022-12-15 15:34:52.767084, 1.97458
2022-12-15 15:34:52.767411, 1.95503
2022-12-15 15:34:52.767411, 1.93548
2022-12-15 15:34:52.800691, 1.91104
2022-12-15 15:34:52.801075, 1.91104
2022-12-15 15:34:52.834113, 1.85728
2022-12-15 15:34:52.834423, 1.82306
2022-12-15 15:34:52.835426, 1.80840
2022-12-15 15:34:52.866240, 1.79863
2022-12-15 15:34:52.867284, 1.76930
2022-12-15 15:34:52.867284, 1.74486
2022-12-15 15:34:52.901175, 1.72531
2022-12-15 15:34:52.901524, 1.73020
2022-12-15 15:34:52.934775, 1.69110
2022-12-15 15:34:52.935018, 1.66666
2022-12-15 15:34:52.935538, 1.65200
2022-12-15 15:34:52.968262, 1.65200
2022-12-15 15:34:52.968560, 1.63734
2022-12-15 15:34:52.968560, 1.63245
2022-12-15 15:34:53.001898, 1.63734
2022-12-15 15:34:53.002247, 1.64222
2022-12-15 15:34:53.035500, 1.63734
2022-12-15 15:34:53.035748, 1.63245
2022-12-15 15:34:53.036220, 1.65200
2022-12-15 15:34:53.068802, 1.63734
2022-12-15 15:34:53.069099, 1.63245
2022-12-15 15:34:53.069099, 1.62267
2022-12-15 15:34:53.102529, 1.60801
2022-12-15 15:34:53.102529, 1.60312
2022-12-15 15:34:53.135897, 1.58357
2022-12-15 15:34:53.135897, 1.56402
2022-12-15 15:34:53.136910, 1.58357
2022-12-15 15:34:53.169479, 1.54936
2022-12-15 15:34:53.169987, 1.53470
2022-12-15 15:34:53.169987, 1.51515
2022-12-15 15:34:53.201718, 1.50048
2022-12-15 15:34:53.202728, 1.50048
2022-12-15 15:34:53.236056, 1.48582
2022-12-15 15:34:53.236347, 1.47116
2022-12-15 15:34:53.236893, 1.46627
2022-12-15 15:34:53.270123, 1.46138
2022-12-15 15:34:53.270495, 1.46138
2022-12-15 15:34:53.271032, 1.44672
2022-12-15 15:34:53.303177, 1.45161
2022-12-15 15:34:53.303177, 1.44672
2022-12-15 15:34:53.336611, 1.45161
2022-12-15 15:34:53.336611, 1.44183
2022-12-15 15:34:53.337565, 1.44672
2022-12-15 15:34:53.370539, 1.44672
2022-12-15 15:34:53.370839, 1.45161
2022-12-15 15:34:53.370839, 1.44183
2022-12-15 15:34:53.404115, 1.44672
2022-12-15 15:34:53.404115, 1.47116
2022-12-15 15:34:53.437613, 1.45161
2022-12-15 15:34:53.437857, 1.44183
2022-12-15 15:34:53.437857, 1.44183
2022-12-15 15:34:53.469855, 1.45650
2022-12-15 15:34:53.470855, 1.44672
2022-12-15 15:34:53.470855, 1.43206
2022-12-15 15:34:53.503669, 1.43206
2022-12-15 15:34:53.504671, 1.43206
2022-12-15 15:34:53.537862, 1.46138
2022-12-15 15:34:53.538869, 1.42228
2022-12-15 15:34:53.538869, 1.41739
2022-12-15 15:34:53.571842, 1.43695
2022-12-15 15:34:53.572311, 1.43695
2022-12-15 15:34:53.572311, 1.45161
2022-12-15 15:34:53.605295, 1.49560
2022-12-15 15:34:53.605789, 1.56402
2022-12-15 15:34:53.638612, 1.65689
2022-12-15 15:34:53.638966, 1.74486
2022-12-15 15:34:53.639538, 1.82306
2022-12-15 15:34:53.672187, 1.89638
2022-12-15 15:34:53.672649, 1.96480
2022-12-15 15:34:53.673173, 2.00391
2022-12-15 15:34:53.705696, 1.99413
2022-12-15 15:34:53.706096, 1.99413
2022-12-15 15:34:53.739301, 1.99413
2022-12-15 15:34:53.739609, 1.95992
2022-12-15 15:34:53.740202, 1.93059
2022-12-15 15:34:53.772353, 1.90127
2022-12-15 15:34:53.772700, 1.89638
2022-12-15 15:34:53.772700, 1.86217
2022-12-15 15:34:53.805957, 1.85728
2022-12-15 15:34:53.806307, 1.82795
2022-12-15 15:34:53.839217, 1.81329
2022-12-15 15:34:53.839217, 1.79374
2022-12-15 15:34:53.840229, 1.76930
2022-12-15 15:34:53.872759, 1.74486
2022-12-15 15:34:53.873769, 1.73020
2022-12-15 15:34:53.873974, 1.71554
2022-12-15 15:34:53.907068, 1.70087
2022-12-15 15:34:53.907416, 1.68132
2022-12-15 15:34:53.939967, 1.68621
2022-12-15 15:34:53.940288, 1.69110
2022-12-15 15:34:53.940873, 1.66666
2022-12-15 15:34:53.974087, 1.66666
2022-12-15 15:34:53.974384, 1.67644
2022-12-15 15:34:53.974384, 1.69110
2022-12-15 15:34:54.007522, 1.66177
2022-12-15 15:34:54.007871, 1.66177
2022-12-15 15:34:54.041086, 1.66177
2022-12-15 15:34:54.041328, 1.65689
2022-12-15 15:34:54.041800, 1.65689
2022-12-15 15:34:54.074677, 1.62267
2022-12-15 15:34:54.074974, 1.60801
2022-12-15 15:34:54.075512, 1.60312
2022-12-15 15:34:54.107668, 1.60312
2022-12-15 15:34:54.107668, 1.56402
2022-12-15 15:34:54.141268, 1.55913
2022-12-15 15:34:54.141883, 1.54936
2022-12-15 15:34:54.142413, 1.53470
2022-12-15 15:34:54.175140, 1.53470
2022-12-15 15:34:54.175438, 1.51026
2022-12-15 15:34:54.175951, 1.51026
2022-12-15 15:34:54.208787, 1.49071
2022-12-15 15:34:54.209139, 1.49071
2022-12-15 15:34:54.242389, 1.48093
2022-12-15 15:34:54.242631, 1.48093
2022-12-15 15:34:54.243158, 1.47116
2022-12-15 15:34:54.276238, 1.46627
2022-12-15 15:34:54.276238, 1.47116
2022-12-15 15:34:54.277239, 1.47116
2022-12-15 15:34:54.309345, 1.46627
2022-12-15 15:34:54.309697, 1.46138
2022-12-15 15:34:54.342960, 1.46138
2022-12-15 15:34:54.343238, 1.47116
2022-12-15 15:34:54.343778, 1.46138
2022-12-15 15:34:54.376487, 1.45650
2022-12-15 15:34:54.376787, 1.45650
2022-12-15 15:34:54.377324, 1.46627
2022-12-15 15:34:54.410160, 1.47116
2022-12-15 15:34:54.410160, 1.45161
2022-12-15 15:34:54.443544, 1.45161
2022-12-15 15:34:54.443544, 1.46138
2022-12-15 15:34:54.444497, 1.47116
2022-12-15 15:34:54.477043, 1.44183
2022-12-15 15:34:54.478050, 1.44672
2022-12-15 15:34:54.478239, 1.44672
2022-12-15 15:34:54.510249, 1.43695
2022-12-15 15:34:54.511275, 1.42717
2022-12-15 15:34:54.544358, 1.44183
2022-12-15 15:34:54.544604, 1.45161
2022-12-15 15:34:54.545127, 1.46627
2022-12-15 15:34:54.577744, 1.49560
2022-12-15 15:34:54.578043, 1.55913
2022-12-15 15:34:54.578043, 1.66666
2022-12-15 15:34:54.611471, 1.73020
2022-12-15 15:34:54.611826, 1.81329
2022-12-15 15:34:54.644819, 1.89638
2022-12-15 15:34:54.645066, 1.96480
2022-12-15 15:34:54.645605, 2.00391
2022-12-15 15:34:54.678467, 2.02346
2022-12-15 15:34:54.678766, 2.00879
2022-12-15 15:34:54.679240, 2.01368
2022-12-15 15:34:54.711794, 1.98435
2022-12-15 15:34:54.712146, 1.96969
2022-12-15 15:34:54.745465, 1.91593
2022-12-15 15:34:54.745710, 1.89149
2022-12-15 15:34:54.746179, 1.87683
2022-12-15 15:34:54.778912, 1.84261
2022-12-15 15:34:54.779214, 1.82795
2022-12-15 15:34:54.779214, 1.81329
2022-12-15 15:34:54.812367, 1.79863
2022-12-15 15:34:54.812367, 1.76930
2022-12-15 15:34:54.845184, 1.74975
2022-12-15 15:34:54.846194, 1.73020
2022-12-15 15:34:54.846599, 1.72043
2022-12-15 15:34:54.879484, 1.69599
2022-12-15 15:34:54.879838, 1.71554
2022-12-15 15:34:54.879838, 1.68132
2022-12-15 15:34:54.913014, 1.68621
2022-12-15 15:34:54.913365, 1.69110
2022-12-15 15:34:54.946650, 1.67155
2022-12-15 15:34:54.946895, 1.67155
2022-12-15 15:34:54.947439, 1.70576
2022-12-15 15:34:54.980201, 1.67155
2022-12-15 15:34:54.980503, 1.65689
2022-12-15 15:34:54.981026, 1.65689
2022-12-15 15:34:55.013752, 1.68132
2022-12-15 15:34:55.014108, 1.63734
2022-12-15 15:34:55.046536, 1.62267
2022-12-15 15:34:55.046536, 1.60801
2022-12-15 15:34:55.047532, 1.61290
2022-12-15 15:34:55.080848, 1.58846
2022-12-15 15:34:55.081146, 1.55913
2022-12-15 15:34:55.081146, 1.55425
2022-12-15 15:34:55.114516, 1.54936
2022-12-15 15:34:55.114869, 1.55425
2022-12-15 15:34:55.147739, 1.51026
2022-12-15 15:34:55.147739, 1.50048
2022-12-15 15:34:55.148741, 1.50537
2022-12-15 15:34:55.181412, 1.49560
2022-12-15 15:34:55.181412, 1.50537
2022-12-15 15:34:55.182592, 1.47116
2022-12-15 15:34:55.213822, 1.47605
2022-12-15 15:34:55.214851, 1.47116
2022-12-15 15:34:55.247809, 1.46627
2022-12-15 15:34:55.248034, 1.46138
2022-12-15 15:34:55.248034, 1.46627
2022-12-15 15:34:55.281709, 1.46627
2022-12-15 15:34:55.282005, 1.46138
2022-12-15 15:34:55.282542, 1.45650
2022-12-15 15:34:55.314280, 1.46138
2022-12-15 15:34:55.315280, 1.46138
2022-12-15 15:34:55.348284, 1.45650
2022-12-15 15:34:55.348284, 1.45161
2022-12-15 15:34:55.349282, 1.45650
2022-12-15 15:34:55.382549, 1.45650
2022-12-15 15:34:55.382549, 1.45161
2022-12-15 15:34:55.383590, 1.44672
2022-12-15 15:34:55.416053, 1.44672
2022-12-15 15:34:55.416053, 1.44672
2022-12-15 15:34:55.449675, 1.43695
2022-12-15 15:34:55.449923, 1.46138
2022-12-15 15:34:55.450457, 1.43206
2022-12-15 15:34:55.482886, 1.43206
2022-12-15 15:34:55.482886, 1.41739
2022-12-15 15:34:55.483888, 1.45161
2022-12-15 15:34:55.516524, 1.42228
2022-12-15 15:34:55.517557, 1.44183
2022-12-15 15:34:55.549159, 1.46138
2022-12-15 15:34:55.550168, 1.50537
2022-12-15 15:34:55.550168, 1.57380
2022-12-15 15:34:55.583227, 1.66666
2022-12-15 15:34:55.583331, 1.77419
2022-12-15 15:34:55.583331, 1.82795
2022-12-15 15:34:55.617232, 1.90127
2022-12-15 15:34:55.618234, 1.95992
2022-12-15 15:34:55.650662, 2.00879
2022-12-15 15:34:55.650907, 1.98435
2022-12-15 15:34:55.651422, 1.97947
2022-12-15 15:34:55.684415, 1.96969
2022-12-15 15:34:55.684708, 1.93548
2022-12-15 15:34:55.684708, 1.91104
2022-12-15 15:34:55.717777, 1.87194
2022-12-15 15:34:55.718127, 1.85239
2022-12-15 15:34:55.751437, 1.82306
2022-12-15 15:34:55.751683, 1.79374
2022-12-15 15:34:55.752216, 1.77908
2022-12-15 15:34:55.784823, 1.78885
2022-12-15 15:34:55.785119, 1.74486
2022-12-15 15:34:55.786121, 1.71065
2022-12-15 15:34:55.818479, 1.69599
2022-12-15 15:34:55.818831, 1.69110
2022-12-15 15:34:55.851650, 1.67644
2022-12-15 15:34:55.851910, 1.66666
2022-12-15 15:34:55.851910, 1.69599
2022-12-15 15:34:55.884951, 1.67644
2022-12-15 15:34:55.885257, 1.67644
2022-12-15 15:34:55.885720, 1.67644
2022-12-15 15:34:55.918255, 1.67644
2022-12-15 15:34:55.918714, 1.68621
2022-12-15 15:34:55.952386, 1.69110
2022-12-15 15:34:55.952386, 1.67644
2022-12-15 15:34:55.953388, 1.66666
2022-12-15 15:34:55.984704, 1.67644
2022-12-15 15:34:55.985765, 1.68621
2022-12-15 15:34:55.985765, 1.63734
2022-12-15 15:34:56.019475, 1.62756
2022-12-15 15:34:56.019826, 1.62267
2022-12-15 15:34:56.052966, 1.61290
2022-12-15 15:34:56.053212, 1.58357
2022-12-15 15:34:56.053212, 1.56891
2022-12-15 15:34:56.086578, 1.57380
2022-12-15 15:34:56.086902, 1.55425
2022-12-15 15:34:56.086902, 1.52981
2022-12-15 15:34:56.120371, 1.52003
2022-12-15 15:34:56.120722, 1.52003
2022-12-15 15:34:56.153768, 1.51515
2022-12-15 15:34:56.154010, 1.49560
2022-12-15 15:34:56.154528, 1.49071
2022-12-15 15:34:56.187483, 1.49071
2022-12-15 15:34:56.187780, 1.50048
2022-12-15 15:34:56.187780, 1.48582
2022-12-15 15:34:56.220882, 1.48093
2022-12-15 15:34:56.221229, 1.48582
2022-12-15 15:34:56.254567, 1.49071
2022-12-15 15:34:56.254567, 1.49071
2022-12-15 15:34:56.255568, 1.47605
2022-12-15 15:34:56.287948, 1.48093
2022-12-15 15:34:56.288246, 1.49071
2022-12-15 15:34:56.288714, 1.48582
2022-12-15 15:34:56.321483, 1.47605
2022-12-15 15:34:56.321483, 1.48093
2022-12-15 15:34:56.354300, 1.48582
2022-12-15 15:34:56.355363, 1.48582
2022-12-15 15:34:56.355363, 1.47116
2022-12-15 15:34:56.388230, 1.46627
2022-12-15 15:34:56.388527, 1.47116
2022-12-15 15:34:56.388527, 1.48093
2022-12-15 15:34:56.421953, 1.45650
2022-12-15 15:34:56.422303, 1.45650
2022-12-15 15:34:56.455439, 1.47605
2022-12-15 15:34:56.455439, 1.50537
2022-12-15 15:34:56.456302, 1.53470
2022-12-15 15:34:56.489026, 1.60312
2022-12-15 15:34:56.489026, 1.71554
2022-12-15 15:34:56.489869, 1.77419
2022-12-15 15:34:56.522581, 1.84750
2022-12-15 15:34:56.523386, 1.92082
2022-12-15 15:34:56.556137, 1.97947
2022-12-15 15:34:56.556443, 2.00879
2022-12-15 15:34:56.556443, 2.01857
2022-12-15 15:34:56.589674, 2.00391
2022-12-15 15:34:56.589674, 2.01368
2022-12-15 15:34:56.590705, 1.96969
2022-12-15 15:34:56.623405, 1.95503
2022-12-15 15:34:56.624438, 1.89638
2022-12-15 15:34:56.655471, 1.90615
2022-12-15 15:34:56.656478, 1.85239
2022-12-15 15:34:56.656478, 1.83284
2022-12-15 15:34:56.690238, 1.82795
2022-12-15 15:34:56.690600, 1.78396
2022-12-15 15:34:56.690600, 1.76441
2022-12-15 15:34:56.723531, 1.73020
2022-12-15 15:34:56.723925, 1.71554
2022-12-15 15:34:56.756614, 1.70576
2022-12-15 15:34:56.756916, 1.73020
2022-12-15 15:34:56.757502, 1.68132
2022-12-15 15:34:56.790392, 1.68132
2022-12-15 15:34:56.790731, 1.70576
2022-12-15 15:34:56.790731, 1.69110
2022-12-15 15:34:56.823616, 1.68621
2022-12-15 15:34:56.824032, 1.68621
2022-12-15 15:34:56.857719, 1.70087
2022-12-15 15:34:56.858054, 1.70087
2022-12-15 15:34:56.858591, 1.68621
2022-12-15 15:34:56.891060, 1.68132
2022-12-15 15:34:56.891492, 1.70087
2022-12-15 15:34:56.892091, 1.67155
2022-12-15 15:34:56.924707, 1.65200
2022-12-15 15:34:56.925231, 1.64222
2022-12-15 15:34:56.958246, 1.65689
2022-12-15 15:34:56.958488, 1.61779
2022-12-15 15:34:56.959025, 1.59335
2022-12-15 15:34:56.991737, 1.57869
2022-12-15 15:34:56.992441, 1.57869
2022-12-15 15:34:56.992441, 1.56402
2022-12-15 15:34:57.025463, 1.54447
2022-12-15 15:34:57.025817, 1.52981
2022-12-15 15:34:57.059193, 1.53470
2022-12-15 15:34:57.059438, 1.52003
2022-12-15 15:34:57.059962, 1.51026
2022-12-15 15:34:57.092272, 1.49560
2022-12-15 15:34:57.092272, 1.50048
2022-12-15 15:34:57.093272, 1.52003
2022-12-15 15:34:57.125921, 1.49071
2022-12-15 15:34:57.126303, 1.48093
2022-12-15 15:34:57.159524, 1.48582
2022-12-15 15:34:57.159797, 1.50048
2022-12-15 15:34:57.160357, 1.49071
2022-12-15 15:34:57.193397, 1.48093
2022-12-15 15:34:57.193731, 1.48582
2022-12-15 15:34:57.193731, 1.48582
2022-12-15 15:34:57.226679, 1.49560
2022-12-15 15:34:57.227027, 1.48093
2022-12-15 15:34:57.260373, 1.48093
2022-12-15 15:34:57.260373, 1.49071
2022-12-15 15:34:57.261390, 1.49071
2022-12-15 15:34:57.293644, 1.50048
2022-12-15 15:34:57.293644, 1.47605
2022-12-15 15:34:57.294510, 1.47605
2022-12-15 15:34:57.326267, 1.47116
2022-12-15 15:34:57.327307, 1.47605
2022-12-15 15:34:57.360789, 1.47116
2022-12-15 15:34:57.361032, 1.49560
2022-12-15 15:34:57.361567, 1.52981
2022-12-15 15:34:57.394256, 1.58357
2022-12-15 15:34:57.394551, 1.69110
2022-12-15 15:34:57.395086, 1.75464
2022-12-15 15:34:57.427971, 1.84750
2022-12-15 15:34:57.428376, 1.92082
2022-12-15 15:34:57.461415, 1.97947
2022-12-15 15:34:57.461660, 2.02346
2022-12-15 15:34:57.462127, 2.05278
2022-12-15 15:34:57.494917, 2.03812
2022-12-15 15:34:57.494917, 2.04301
2022-12-15 15:34:57.495802, 2.00879
2022-12-15 15:34:57.528397, 2.00879
2022-12-15 15:34:57.528397, 1.95014
2022-12-15 15:34:57.561542, 1.92082
2022-12-15 15:34:57.562567, 1.90615
2022-12-15 15:34:57.562567, 1.88660
2022-12-15 15:34:57.595455, 1.87194
2022-12-15 15:34:57.595755, 1.83773
2022-12-15 15:34:57.595755, 1.81818
2022-12-15 15:34:57.629334, 1.80840
2022-12-15 15:34:57.629684, 1.77908
2022-12-15 15:34:57.662529, 1.75464
2022-12-15 15:34:57.662771, 1.73998
2022-12-15 15:34:57.663303, 1.73509
2022-12-15 15:34:57.696406, 1.73020
2022-12-15 15:34:57.696704, 1.71065
2022-12-15 15:34:57.696704, 1.71554
2022-12-15 15:34:57.729729, 1.73998
2022-12-15 15:34:57.730081, 1.71065
2022-12-15 15:34:57.763427, 1.71065
2022-12-15 15:34:57.763427, 1.73998
2022-12-15 15:34:57.764256, 1.71554
2022-12-15 15:34:57.796804, 1.70576
2022-12-15 15:34:57.797102, 1.70087
2022-12-15 15:34:57.797569, 1.68621
2022-12-15 15:34:57.830492, 1.68132
2022-12-15 15:34:57.830844, 1.67155
2022-12-15 15:34:57.863857, 1.64711
2022-12-15 15:34:57.864101, 1.63245
2022-12-15 15:34:57.864570, 1.62756
2022-12-15 15:34:57.897230, 1.62267
2022-12-15 15:34:57.897530, 1.58846
2022-12-15 15:34:57.897530, 1.57869
2022-12-15 15:34:57.930840, 1.56891
2022-12-15 15:34:57.931263, 1.56402
2022-12-15 15:34:57.963343, 1.54447
2022-12-15 15:34:57.964355, 1.55425
2022-12-15 15:34:57.964722, 1.52981
2022-12-15 15:34:57.997733, 1.52492
2022-12-15 15:34:57.998031, 1.51026
2022-12-15 15:34:57.998031, 1.50537
2022-12-15 15:34:58.031464, 1.51515
2022-12-15 15:34:58.031884, 1.50537
2022-12-15 15:34:58.064980, 1.50048
2022-12-15 15:34:58.064980, 1.49560
2022-12-15 15:34:58.065982, 1.50537
2022-12-15 15:34:58.097567, 1.51026
2022-12-15 15:34:58.098565, 1.49071
2022-12-15 15:34:58.098565, 1.49560
2022-12-15 15:34:58.132236, 1.49071
2022-12-15 15:34:58.132236, 1.50048
2022-12-15 15:34:58.165395, 1.52003
2022-12-15 15:34:58.165395, 1.48582
2022-12-15 15:34:58.166397, 1.49071
2022-12-15 15:34:58.198665, 1.49560
2022-12-15 15:34:58.198665, 1.49071
2022-12-15 15:34:58.199705, 1.47605
2022-12-15 15:34:58.232009, 1.48093
2022-12-15 15:34:58.232009, 1.48582
2022-12-15 15:34:58.265287, 1.47605
2022-12-15 15:34:58.266322, 1.46138
2022-12-15 15:34:58.266572, 1.46627
2022-12-15 15:34:58.299841, 1.47116
2022-12-15 15:34:58.299841, 1.48582
2022-12-15 15:34:58.300842, 1.54447
2022-12-15 15:34:58.333315, 1.57380
2022-12-15 15:34:58.333664, 1.65689
2022-12-15 15:34:58.366885, 1.74486
2022-12-15 15:34:58.367129, 1.82795
2022-12-15 15:34:58.367665, 1.91593
2022-12-15 15:34:58.400085, 1.99413
2022-12-15 15:34:58.400417, 2.02834
2022-12-15 15:34:58.401021, 2.04301
2022-12-15 15:34:58.433700, 2.05278
2022-12-15 15:34:58.434084, 2.05278
2022-12-15 15:34:58.467165, 2.01368
2022-12-15 15:34:58.467411, 1.97947
2022-12-15 15:34:58.467877, 1.95503
2022-12-15 15:34:58.500824, 1.93548
2022-12-15 15:34:58.501121, 1.90127
2022-12-15 15:34:58.501121, 1.87194
2022-12-15 15:34:58.534232, 1.85728
2022-12-15 15:34:58.535239, 1.85239
2022-12-15 15:34:58.567148, 1.82795
2022-12-15 15:34:58.567148, 1.80840
2022-12-15 15:34:58.568144, 1.78396
2022-12-15 15:34:58.601427, 1.76441
2022-12-15 15:34:58.601728, 1.74975
2022-12-15 15:34:58.602262, 1.72531
2022-12-15 15:34:58.635003, 1.71554
2022-12-15 15:34:58.635350, 1.71554
2022-12-15 15:34:58.668301, 1.73998
2022-12-15 15:34:58.668638, 1.69599
2022-12-15 15:34:58.669199, 1.70576
2022-12-15 15:34:58.702332, 1.70576
2022-12-15 15:34:58.702332, 1.70576
2022-12-15 15:34:58.703333, 1.69110
2022-12-15 15:34:58.735517, 1.70087
2022-12-15 15:34:58.735870, 1.68621
2022-12-15 15:34:58.769363, 1.68132
2022-12-15 15:34:58.769606, 1.66177
2022-12-15 15:34:58.769606, 1.64711
2022-12-15 15:34:58.802684, 1.63734
2022-12-15 15:34:58.802980, 1.63245
2022-12-15 15:34:58.803448, 1.60801
2022-12-15 15:34:58.836456, 1.61290
2022-12-15 15:34:58.836805, 1.57869
2022-12-15 15:34:58.869805, 1.57380
2022-12-15 15:34:58.869805, 1.54936
2022-12-15 15:34:58.870809, 1.53958
2022-12-15 15:34:58.902502, 1.52981
2022-12-15 15:34:58.902502, 1.52492
2022-12-15 15:34:58.903511, 1.50537
2022-12-15 15:34:58.936728, 1.50537
2022-12-15 15:34:58.937082, 1.51026
2022-12-15 15:34:58.970121, 1.50048
2022-12-15 15:34:58.970365, 1.48582
2022-12-15 15:34:58.970884, 1.50048
2022-12-15 15:34:59.003853, 1.48582
2022-12-15 15:34:59.004150, 1.49071
2022-12-15 15:34:59.004678, 1.48093
2022-12-15 15:34:59.037296, 1.48093
2022-12-15 15:34:59.037646, 1.47605
2022-12-15 15:34:59.070946, 1.48093
2022-12-15 15:34:59.071193, 1.47116
2022-12-15 15:34:59.071193, 1.47116
2022-12-15 15:34:59.103301, 1.47116
2022-12-15 15:34:59.104297, 1.47605
2022-12-15 15:34:59.104297, 1.46627
2022-12-15 15:34:59.137924, 1.46627
2022-12-15 15:34:59.138273, 1.46627
2022-12-15 15:34:59.171497, 1.46138
2022-12-15 15:34:59.171745, 1.45650
2022-12-15 15:34:59.171745, 1.45161
2022-12-15 15:34:59.205205, 1.47116
2022-12-15 15:34:59.205752, 1.44672
2022-12-15 15:34:59.205752, 1.44183
2022-12-15 15:34:59.238185, 1.43206
2022-12-15 15:34:59.239215, 1.43695
2022-12-15 15:34:59.271160, 1.45650
2022-12-15 15:34:59.272166, 1.45161
2022-12-15 15:34:59.272166, 1.47116
2022-12-15 15:34:59.305253, 1.53958
2022-12-15 15:34:59.305847, 1.60312
2022-12-15 15:34:59.305847, 1.69110
2022-12-15 15:34:59.339414, 1.76930
2022-12-15 15:34:59.339414, 1.86217
2022-12-15 15:34:59.372120, 1.93059
2022-12-15 15:34:59.372120, 1.97947
2022-12-15 15:34:59.373123, 1.99413
2022-12-15 15:34:59.405912, 1.99902
2022-12-15 15:34:59.406716, 1.99413
2022-12-15 15:34:59.406716, 1.97458
2022-12-15 15:34:59.439597, 1.95503
2022-12-15 15:34:59.439597, 1.90127
2022-12-15 15:34:59.473054, 1.87683
2022-12-15 15:34:59.473054, 1.86705
2022-12-15 15:34:59.474054, 1.82306
2022-12-15 15:34:59.506666, 1.80840
2022-12-15 15:34:59.506666, 1.79374
2022-12-15 15:34:59.507691, 1.77419
2022-12-15 15:34:59.540133, 1.73998
2022-12-15 15:34:59.540133, 1.72043
2022-12-15 15:34:59.573619, 1.70576
2022-12-15 15:34:59.574627, 1.70087
2022-12-15 15:34:59.574831, 1.69599
2022-12-15 15:34:59.606955, 1.67155
2022-12-15 15:34:59.607554, 1.67644
2022-12-15 15:34:59.607554, 1.68132
2022-12-15 15:34:59.640670, 1.67155
2022-12-15 15:34:59.641082, 1.67644
2022-12-15 15:34:59.674213, 1.68621
2022-12-15 15:34:59.674529, 1.68621
2022-12-15 15:34:59.675121, 1.68132
2022-12-15 15:34:59.707221, 1.68621
2022-12-15 15:34:59.707636, 1.66177
2022-12-15 15:34:59.708199, 1.66177
2022-12-15 15:34:59.741371, 1.64711
2022-12-15 15:34:59.741790, 1.65689
2022-12-15 15:34:59.774712, 1.61779
2022-12-15 15:34:59.775001, 1.61290
2022-12-15 15:34:59.775001, 1.59335
2022-12-15 15:34:59.808444, 1.58357
2022-12-15 15:34:59.808739, 1.56402
2022-12-15 15:34:59.809207, 1.55425
2022-12-15 15:34:59.841536, 1.53958
2022-12-15 15:34:59.841886, 1.52981
2022-12-15 15:34:59.874482, 1.52981
2022-12-15 15:34:59.875480, 1.51515
2022-12-15 15:34:59.875480, 1.50537
2022-12-15 15:34:59.909215, 1.49560
2022-12-15 15:34:59.909584, 1.52003
2022-12-15 15:34:59.909584, 1.49560
2022-12-15 15:34:59.942447, 1.49071
2022-12-15 15:34:59.943104, 1.48582
2022-12-15 15:34:59.976070, 1.49560
2022-12-15 15:34:59.976313, 1.49071
2022-12-15 15:34:59.976830, 1.48582
2022-12-15 15:35:00.009028, 1.48093
2022-12-15 15:35:00.011028, 1.48582
2022-12-15 15:35:00.012019, 1.48582
2022-12-15 15:35:00.043178, 1.49071
2022-12-15 15:35:00.043556, 1.47605
2022-12-15 15:35:00.076838, 1.49071
2022-12-15 15:35:00.077111, 1.48093
2022-12-15 15:35:00.077111, 1.48582
2022-12-15 15:35:00.110166, 1.46138
2022-12-15 15:35:00.110464, 1.47116
2022-12-15 15:35:00.110932, 1.49560
2022-12-15 15:35:00.143870, 1.47116
2022-12-15 15:35:00.144216, 1.46627
2022-12-15 15:35:00.177402, 1.47605
2022-12-15 15:35:00.177646, 1.50048
2022-12-15 15:35:00.177646, 1.54936
2022-12-15 15:35:00.210993, 1.60312
2022-12-15 15:35:00.210993, 1.70576
2022-12-15 15:35:00.212005, 1.76441
2022-12-15 15:35:00.244104, 1.85239
2022-12-15 15:35:00.245135, 1.92570
2022-12-15 15:35:00.278140, 1.95992
2022-12-15 15:35:00.278383, 1.97947
2022-12-15 15:35:00.278916, 1.99413
2022-12-15 15:35:00.311301, 1.97947
2022-12-15 15:35:00.311597, 1.95503
2022-12-15 15:35:00.312132, 1.93059
2022-12-15 15:35:00.345338, 1.91593
2022-12-15 15:35:00.345689, 1.87194
2022-12-15 15:35:00.378517, 1.86705
2022-12-15 15:35:00.378762, 1.82306
2022-12-15 15:35:00.379298, 1.81329
2022-12-15 15:35:00.412331, 1.78885
2022-12-15 15:35:00.412625, 1.77908
2022-12-15 15:35:00.413162, 1.74975
2022-12-15 15:35:00.445537, 1.73509
2022-12-15 15:35:00.445887, 1.71065
2022-12-15 15:35:00.479179, 1.68621
2022-12-15 15:35:00.479470, 1.68132
2022-12-15 15:35:00.479470, 1.68132
2022-12-15 15:35:00.512690, 1.67155
2022-12-15 15:35:00.512992, 1.66666
2022-12-15 15:35:00.513453, 1.67155
2022-12-15 15:35:00.546113, 1.67644
2022-12-15 15:35:00.546113, 1.67644
2022-12-15 15:35:00.578967, 1.70087
2022-12-15 15:35:00.579973, 1.66666
2022-12-15 15:35:00.580153, 1.66666
2022-12-15 15:35:00.613256, 1.66666
2022-12-15 15:35:00.613256, 1.64222
2022-12-15 15:35:00.614191, 1.63245
2022-12-15 15:35:00.646794, 1.63245
2022-12-15 15:35:00.647143, 1.61779
2022-12-15 15:35:00.680456, 1.58846
2022-12-15 15:35:00.680700, 1.58357
2022-12-15 15:35:00.681215, 1.57380
2022-12-15 15:35:00.713708, 1.56402
2022-12-15 15:35:00.714005, 1.53958
2022-12-15 15:35:00.714518, 1.55913
2022-12-15 15:35:00.747482, 1.52003
2022-12-15 15:35:00.747898, 1.51515
2022-12-15 15:35:00.781276, 1.50048
2022-12-15 15:35:00.781521, 1.49071
2022-12-15 15:35:00.782052, 1.49071
2022-12-15 15:35:00.814384, 1.48582
2022-12-15 15:35:00.814683, 1.48093
2022-12-15 15:35:00.815196, 1.47605
2022-12-15 15:35:00.848337, 1.47605
2022-12-15 15:35:00.849339, 1.48093
2022-12-15 15:35:00.880240, 1.47116
2022-12-15 15:35:00.881247, 1.48582
2022-12-15 15:35:00.881651, 1.47116
2022-12-15 15:35:00.915287, 1.47605
2022-12-15 15:35:00.915584, 1.46138
2022-12-15 15:35:00.915584, 1.45650
2022-12-15 15:35:00.948423, 1.47605
2022-12-15 15:35:00.948773, 1.47116
2022-12-15 15:35:00.982218, 1.46138
2022-12-15 15:35:00.982464, 1.45650
2022-12-15 15:35:00.982464, 1.48093
2022-12-15 15:35:01.014948, 1.46627
2022-12-15 15:35:01.015473, 1.45650
2022-12-15 15:35:01.015473, 1.45161
2022-12-15 15:35:01.049284, 1.44672
2022-12-15 15:35:01.049632, 1.45161
2022-12-15 15:35:01.082864, 1.44183
2022-12-15 15:35:01.083110, 1.44183
2022-12-15 15:35:01.083110, 1.43206
2022-12-15 15:35:01.116076, 1.44672
2022-12-15 15:35:01.117080, 1.46138
2022-12-15 15:35:01.117080, 1.48582
2022-12-15 15:35:01.149698, 1.57380
2022-12-15 15:35:01.150046, 1.62756
2022-12-15 15:35:01.183187, 1.70576
2022-12-15 15:35:01.183430, 1.78885
2022-12-15 15:35:01.183430, 1.86217
2022-12-15 15:35:01.216305, 1.93059
2022-12-15 15:35:01.216592, 1.96969
2022-12-15 15:35:01.217129, 1.97947
2022-12-15 15:35:01.250493, 1.98435
2022-12-15 15:35:01.250842, 1.97947
2022-12-15 15:35:01.283966, 1.95992
2022-12-15 15:35:01.284211, 1.92082
2022-12-15 15:35:01.284688, 1.91104
2022-12-15 15:35:01.317400, 1.88172
2022-12-15 15:35:01.317697, 1.86217
2022-12-15 15:35:01.318225, 1.83773
2022-12-15 15:35:01.351377, 1.82306
2022-12-15 15:35:01.351725, 1.82306
2022-12-15 15:35:01.384555, 1.80840
2022-12-15 15:35:01.384798, 1.77419
2022-12-15 15:35:01.384798, 1.75464
2022-12-15 15:35:01.417671, 1.73998
2022-12-15 15:35:01.417671, 1.72531
2022-12-15 15:35:01.417671, 1.69599
2022-12-15 15:35:01.450639, 1.69110
2022-12-15 15:35:01.451635, 1.68621
2022-12-15 15:35:01.485160, 1.68621
2022-12-15 15:35:01.485450, 1.67644
2022-12-15 15:35:01.486071, 1.67644
2022-12-15 15:35:01.518615, 1.68132
2022-12-15 15:35:01.518912, 1.69110
2022-12-15 15:35:01.519444, 1.66666
2022-12-15 15:35:01.552254, 1.66666
2022-12-15 15:35:01.552603, 1.66666
2022-12-15 15:35:01.585862, 1.66177
2022-12-15 15:35:01.586105, 1.63734
2022-12-15 15:35:01.586567, 1.62267
2022-12-15 15:35:01.619182, 1.63245
2022-12-15 15:35:01.619481, 1.61290
2022-12-15 15:35:01.620010, 1.58357
2022-12-15 15:35:01.652808, 1.57380
2022-12-15 15:35:01.652808, 1.56402
2022-12-15 15:35:01.685992, 1.56402
2022-12-15 15:35:01.687002, 1.55425
2022-12-15 15:35:01.687002, 1.52981
2022-12-15 15:35:01.719668, 1.52003
2022-12-15 15:35:01.719963, 1.51515
2022-12-15 15:35:01.720499, 1.51515
2022-12-15 15:35:01.753370, 1.49560
2022-12-15 15:35:01.753721, 1.49071
2022-12-15 15:35:01.786706, 1.50048
2022-12-15 15:35:01.786706, 1.48582
2022-12-15 15:35:01.787519, 1.48093
2022-12-15 15:35:01.820444, 1.47605
2022-12-15 15:35:01.820743, 1.49071
2022-12-15 15:35:01.821287, 1.51026
2022-12-15 15:35:01.853911, 1.47605
2022-12-15 15:35:01.854260, 1.47605
2022-12-15 15:35:01.887497, 1.50048
2022-12-15 15:35:01.887742, 1.47605
2022-12-15 15:35:01.887742, 1.47116
2022-12-15 15:35:01.921276, 1.47116
2022-12-15 15:35:01.921572, 1.48093
2022-12-15 15:35:01.921572, 1.47116
2022-12-15 15:35:01.954436, 1.46138
2022-12-15 15:35:01.954786, 1.46627
2022-12-15 15:35:01.988031, 1.46627
2022-12-15 15:35:01.988277, 1.46138
2022-12-15 15:35:01.988741, 1.44672
2022-12-15 15:35:02.021566, 1.48093
2022-12-15 15:35:02.022029, 1.45161
2022-12-15 15:35:02.023033, 1.44672
2022-12-15 15:35:02.054708, 1.43695
2022-12-15 15:35:02.054708, 1.43206
2022-12-15 15:35:02.088673, 1.43695
2022-12-15 15:35:02.088921, 1.44183
2022-12-15 15:35:02.088921, 1.45161
2022-12-15 15:35:02.122093, 1.47116
2022-12-15 15:35:02.122405, 1.52492
2022-12-15 15:35:02.122933, 1.60801
2022-12-15 15:35:02.155610, 1.66666
2022-12-15 15:35:02.155961, 1.75464
2022-12-15 15:35:02.189360, 1.83773
2022-12-15 15:35:02.189632, 1.91104
2022-12-15 15:35:02.189632, 1.96969
2022-12-15 15:35:02.222700, 1.96969
2022-12-15 15:35:02.223328, 1.98435
2022-12-15 15:35:02.223328, 1.98435
2022-12-15 15:35:02.256841, 1.95014
2022-12-15 15:35:02.256841, 1.95992
2022-12-15 15:35:02.289728, 1.91104
2022-12-15 15:35:02.290765, 1.89149
2022-12-15 15:35:02.290765, 1.86217
2022-12-15 15:35:02.323249, 1.83773
2022-12-15 15:35:02.323249, 1.84750
2022-12-15 15:35:02.324249, 1.82306
2022-12-15 15:35:02.356805, 1.79374
2022-12-15 15:35:02.357147, 1.77419
2022-12-15 15:35:02.390274, 1.78885
2022-12-15 15:35:02.390274, 1.75464
2022-12-15 15:35:02.391279, 1.72531
2022-12-15 15:35:02.424086, 1.71065
2022-12-15 15:35:02.424774, 1.71065
2022-12-15 15:35:02.425049, 1.70087
2022-12-15 15:35:02.457448, 1.69110
2022-12-15 15:35:02.457448, 1.71065
2022-12-15 15:35:02.489815, 1.68621
2022-12-15 15:35:02.490820, 1.69110
2022-12-15 15:35:02.490820, 1.71065
2022-12-15 15:35:02.524430, 1.67644
2022-12-15 15:35:02.524813, 1.67644
2022-12-15 15:35:02.524813, 1.68132
2022-12-15 15:35:02.558175, 1.66666
2022-12-15 15:35:02.559183, 1.64711
2022-12-15 15:35:02.591448, 1.64711
2022-12-15 15:35:02.592457, 1.63245
2022-12-15 15:35:02.592457, 1.61779
2022-12-15 15:35:02.624545, 1.59824
2022-12-15 15:35:02.624884, 1.58357
2022-12-15 15:35:02.625481, 1.57869
2022-12-15 15:35:02.658314, 1.56402
2022-12-15 15:35:02.658708, 1.55913
2022-12-15 15:35:02.692064, 1.53470
2022-12-15 15:35:02.692354, 1.53470
2022-12-15 15:35:02.692920, 1.52003
2022-12-15 15:35:02.725312, 1.50537
2022-12-15 15:35:02.725672, 1.52003
2022-12-15 15:35:02.726241, 1.50048
2022-12-15 15:35:02.758990, 1.50048
2022-12-15 15:35:02.759994, 1.48582
2022-12-15 15:35:02.792701, 1.50537
2022-12-15 15:35:02.792973, 1.48582
2022-12-15 15:35:02.793484, 1.49071
2022-12-15 15:35:02.826170, 1.47605
2022-12-15 15:35:02.826494, 1.48093
2022-12-15 15:35:02.827076, 1.48582
2022-12-15 15:35:02.860028, 1.48093
2022-12-15 15:35:02.860381, 1.47116
2022-12-15 15:35:02.893452, 1.47605
2022-12-15 15:35:02.894284, 1.49071
2022-12-15 15:35:02.894284, 1.47605
2022-12-15 15:35:02.926420, 1.46138
2022-12-15 15:35:02.926717, 1.46627
2022-12-15 15:35:02.927286, 1.46138
2022-12-15 15:35:02.960398, 1.46627
2022-12-15 15:35:02.960795, 1.45650
2022-12-15 15:35:02.993821, 1.44672
2022-12-15 15:35:02.993821, 1.46138
2022-12-15 15:35:02.994801, 1.45650
2022-12-15 15:35:03.027376, 1.44672
2022-12-15 15:35:03.027376, 1.44183
2022-12-15 15:35:03.028307, 1.43695
2022-12-15 15:35:03.060849, 1.44183
2022-12-15 15:35:03.060849, 1.43206
2022-12-15 15:35:03.094037, 1.43695
2022-12-15 15:35:03.094037, 1.43695
2022-12-15 15:35:03.094901, 1.45161
2022-12-15 15:35:03.127772, 1.48093
2022-12-15 15:35:03.128091, 1.54936
2022-12-15 15:35:03.128608, 1.59824
2022-12-15 15:35:03.161027, 1.69110
2022-12-15 15:35:03.161027, 1.76930
2022-12-15 15:35:03.194296, 1.83284
2022-12-15 15:35:03.194296, 1.89638
2022-12-15 15:35:03.195313, 1.94525
2022-12-15 15:35:03.228655, 1.96969
2022-12-15 15:35:03.228950, 1.95503
2022-12-15 15:35:03.229464, 1.97947
2022-12-15 15:35:03.262065, 1.94037
2022-12-15 15:35:03.262443, 1.91104
2022-12-15 15:35:03.295632, 1.88660
2022-12-15 15:35:03.295904, 1.85239
2022-12-15 15:35:03.296508, 1.83773
2022-12-15 15:35:03.329368, 1.84750
2022-12-15 15:35:03.329690, 1.79374
2022-12-15 15:35:03.329690, 1.78885
2022-12-15 15:35:03.362365, 1.76930
2022-12-15 15:35:03.362365, 1.74975
2022-12-15 15:35:03.396249, 1.72043
2022-12-15 15:35:03.396494, 1.70576
2022-12-15 15:35:03.397025, 1.69599
2022-12-15 15:35:03.429673, 1.69110
2022-12-15 15:35:03.429673, 1.67644
2022-12-15 15:35:03.430675, 1.67644
2022-12-15 15:35:03.462367, 1.67644
2022-12-15 15:35:03.463437, 1.68621
2022-12-15 15:35:03.496902, 1.67644
2022-12-15 15:35:03.497147, 1.68132
2022-12-15 15:35:03.497147, 1.69110
2022-12-15 15:35:03.530584, 1.69110
2022-12-15 15:35:03.530994, 1.67644
2022-12-15 15:35:03.531508, 1.67155
2022-12-15 15:35:03.564073, 1.66666
2022-12-15 15:35:03.564426, 1.65689
2022-12-15 15:35:03.597569, 1.64711
2022-12-15 15:35:03.597817, 1.62267
2022-12-15 15:35:03.598286, 1.61779
2022-12-15 15:35:03.631124, 1.61290
2022-12-15 15:35:03.631425, 1.59335
2022-12-15 15:35:03.631941, 1.56891
2022-12-15 15:35:03.664661, 1.56402
2022-12-15 15:35:03.664661, 1.58846
2022-12-15 15:35:03.698103, 1.53470
2022-12-15 15:35:03.698603, 1.52492
2022-12-15 15:35:03.698603, 1.54447
2022-12-15 15:35:03.730308, 1.51515
2022-12-15 15:35:03.731377, 1.50048
2022-12-15 15:35:03.731377, 1.49071
2022-12-15 15:35:03.765376, 1.50537
2022-12-15 15:35:03.765725, 1.50048
2022-12-15 15:35:03.798805, 1.49071
2022-12-15 15:35:03.799049, 1.48582
2022-12-15 15:35:03.799559, 1.49560
2022-12-15 15:35:03.832475, 1.49071
2022-12-15 15:35:03.832771, 1.48582
2022-12-15 15:35:03.833281, 1.48582
2022-12-15 15:35:03.865819, 1.49071
2022-12-15 15:35:03.866167, 1.49071
2022-12-15 15:35:03.899475, 1.48582
2022-12-15 15:35:03.899720, 1.48093
2022-12-15 15:35:03.900193, 1.48093
2022-12-15 15:35:03.932810, 1.48582
2022-12-15 15:35:03.933110, 1.48093
2022-12-15 15:35:03.933644, 1.46627
2022-12-15 15:35:03.966473, 1.48093
2022-12-15 15:35:03.966822, 1.47605
2022-12-15 15:35:03.999908, 1.46138
2022-12-15 15:35:04.000183, 1.45161
2022-12-15 15:35:04.000183, 1.48093
2022-12-15 15:35:04.032795, 1.46627
2022-12-15 15:35:04.032795, 1.47605
2022-12-15 15:35:04.032795, 1.50048
2022-12-15 15:35:04.066673, 1.54936
2022-12-15 15:35:04.066673, 1.62267
2022-12-15 15:35:04.100466, 1.70087
2022-12-15 15:35:04.100710, 1.79374
2022-12-15 15:35:04.100710, 1.84750
2022-12-15 15:35:04.134099, 1.91593
2022-12-15 15:35:04.134397, 1.95503
2022-12-15 15:35:04.134397, 1.95992
2022-12-15 15:35:04.167509, 1.97458
2022-12-15 15:35:04.167862, 1.96480
2022-12-15 15:35:04.201460, 1.95014
2022-12-15 15:35:04.201703, 1.91593
2022-12-15 15:35:04.202165, 1.89149
2022-12-15 15:35:04.234767, 1.87194
2022-12-15 15:35:04.235065, 1.85728
2022-12-15 15:35:04.235598, 1.82306
2022-12-15 15:35:04.268507, 1.80840
2022-12-15 15:35:04.268858, 1.78885
2022-12-15 15:35:04.301865, 1.79374
2022-12-15 15:35:04.302110, 1.74486
2022-12-15 15:35:04.302639, 1.73020
2022-12-15 15:35:04.335524, 1.71554
2022-12-15 15:35:04.335524, 1.71065
2022-12-15 15:35:04.336525, 1.69599
2022-12-15 15:35:04.368778, 1.69110
2022-12-15 15:35:04.368778, 1.69599
2022-12-15 15:35:04.402231, 1.72531
2022-12-15 15:35:04.402231, 1.70087
2022-12-15 15:35:04.403237, 1.70576
2022-12-15 15:35:04.434751, 1.71065
2022-12-15 15:35:04.435753, 1.71554
2022-12-15 15:35:04.436145, 1.71065
2022-12-15 15:35:04.469280, 1.69599
2022-12-15 15:35:04.469639, 1.69110
2022-12-15 15:35:04.502858, 1.69110
2022-12-15 15:35:04.503143, 1.66666
2022-12-15 15:35:04.503666, 1.65689
2022-12-15 15:35:04.536490, 1.64222
2022-12-15 15:35:04.536786, 1.63734
2022-12-15 15:35:04.536786, 1.62267
2022-12-15 15:35:04.570094, 1.62756
2022-12-15 15:35:04.570472, 1.58846
2022-12-15 15:35:04.603619, 1.58846
2022-12-15 15:35:04.603867, 1.56891
2022-12-15 15:35:04.604337, 1.57380
2022-12-15 15:35:04.637143, 1.54447
2022-12-15 15:35:04.637443, 1.53958
2022-12-15 15:35:04.637983, 1.53470
2022-12-15 15:35:04.670709, 1.55425
2022-12-15 15:35:04.671059, 1.54936
2022-12-15 15:35:04.704156, 1.52492
2022-12-15 15:35:04.704667, 1.52003
2022-12-15 15:35:04.704667, 1.50537
2022-12-15 15:35:04.736470, 1.50537
2022-12-15 15:35:04.737558, 1.51515
2022-12-15 15:35:04.737949, 1.51026
2022-12-15 15:35:04.770741, 1.50537
2022-12-15 15:35:04.771093, 1.52981
2022-12-15 15:35:04.804835, 1.51026
2022-12-15 15:35:04.805082, 1.51515
2022-12-15 15:35:04.805601, 1.49560
2022-12-15 15:35:04.838363, 1.50048
2022-12-15 15:35:04.838662, 1.51515
2022-12-15 15:35:04.839177, 1.50048
2022-12-15 15:35:04.871745, 1.49071
2022-12-15 15:35:04.872092, 1.48582
2022-12-15 15:35:04.905414, 1.49560
2022-12-15 15:35:04.905666, 1.48093
2022-12-15 15:35:04.905666, 1.47116
2022-12-15 15:35:04.938794, 1.46627
2022-12-15 15:35:04.939089, 1.50537
2022-12-15 15:35:04.939607, 1.50048
2022-12-15 15:35:04.972453, 1.52003
2022-12-15 15:35:04.972800, 1.57869
2022-12-15 15:35:05.005850, 1.68621
2022-12-15 15:35:05.006217, 1.74486
2022-12-15 15:35:05.006217, 1.81818
2022-12-15 15:35:05.039424, 1.89149
2022-12-15 15:35:05.039752, 1.96480
2022-12-15 15:35:05.040324, 2.00391
2022-12-15 15:35:05.072834, 2.01368
2022-12-15 15:35:05.072834, 2.01368
2022-12-15 15:35:05.106366, 2.00879
2022-12-15 15:35:05.106610, 2.00391
2022-12-15 15:35:05.107121, 1.96480
2022-12-15 15:35:05.139634, 1.93548
2022-12-15 15:35:05.139634, 1.91593
2022-12-15 15:35:05.140638, 1.90615
2022-12-15 15:35:05.172604, 1.88172
2022-12-15 15:35:05.173600, 1.86217
2022-12-15 15:35:05.207040, 1.84750
2022-12-15 15:35:05.207288, 1.84261
2022-12-15 15:35:05.207288, 1.81818
2022-12-15 15:35:05.240519, 1.80840
2022-12-15 15:35:05.240519, 1.77419
2022-12-15 15:35:05.241520, 1.76930
2022-12-15 15:35:05.274380, 1.75953
2022-12-15 15:35:05.274380, 1.73020
2022-12-15 15:35:05.307361, 1.73020
2022-12-15 15:35:05.307361, 1.73509
2022-12-15 15:35:05.308391, 1.73020
2022-12-15 15:35:05.341454, 1.73509
2022-12-15 15:35:05.341454, 1.72043
2022-12-15 15:35:05.342456, 1.72531
2022-12-15 15:35:05.374786, 1.73020
2022-12-15 15:35:05.374786, 1.71065
2022-12-15 15:35:05.408457, 1.70576
2022-12-15 15:35:05.408457, 1.70576
2022-12-15 15:35:05.409340, 1.69599
2022-12-15 15:35:05.441771, 1.67155
2022-12-15 15:35:05.441771, 1.65689
2022-12-15 15:35:05.442778, 1.65200
2022-12-15 15:35:05.475483, 1.64222
2022-12-15 15:35:05.476490, 1.61779
2022-12-15 15:35:05.508421, 1.60312
2022-12-15 15:35:05.509429, 1.59824
2022-12-15 15:35:05.509429, 1.58846
2022-12-15 15:35:05.541496, 1.56402
2022-12-15 15:35:05.542504, 1.55425
2022-12-15 15:35:05.542504, 1.55913
2022-12-15 15:35:05.575762, 1.54936
2022-12-15 15:35:05.575762, 1.52981
2022-12-15 15:35:05.609235, 1.52981
2022-12-15 15:35:05.609522, 1.53470
2022-12-15 15:35:05.609522, 1.53470
2022-12-15 15:35:05.642764, 1.52003
2022-12-15 15:35:05.642764, 1.51515
2022-12-15 15:35:05.643715, 1.52492
2022-12-15 15:35:05.676320, 1.53958
2022-12-15 15:35:05.676728, 1.51515
2022-12-15 15:35:05.709502, 1.51515
2022-12-15 15:35:05.709748, 1.51515
2022-12-15 15:35:05.710210, 1.52492
2022-12-15 15:35:05.742994, 1.51026
2022-12-15 15:35:05.743289, 1.50537
2022-12-15 15:35:05.743808, 1.50537
2022-12-15 15:35:05.776493, 1.51515
2022-12-15 15:35:05.776909, 1.51026
2022-12-15 15:35:05.809737, 1.49560
2022-12-15 15:35:05.810743, 1.49560
2022-12-15 15:35:05.811010, 1.49560
2022-12-15 15:35:05.844295, 1.49560
2022-12-15 15:35:05.844590, 1.48093
2022-12-15 15:35:05.845098, 1.48093
2022-12-15 15:35:05.877650, 1.48093
2022-12-15 15:35:05.877998, 1.47605
2022-12-15 15:35:05.911344, 1.46627
2022-12-15 15:35:05.911589, 1.46138
2022-12-15 15:35:05.912120, 1.47605
2022-12-15 15:35:05.944648, 1.49560
2022-12-15 15:35:05.944938, 1.55913
2022-12-15 15:35:05.945456, 1.59335
2022-12-15 15:35:05.978348, 1.68132
2022-12-15 15:35:05.978689, 1.79374
2022-12-15 15:35:06.011710, 1.84261
2022-12-15 15:35:06.011952, 1.93059
2022-12-15 15:35:06.012417, 1.99413
2022-12-15 15:35:06.045246, 2.03323
2022-12-15 15:35:06.045578, 2.05278
2022-12-15 15:35:06.046093, 2.03812
2022-12-15 15:35:06.078748, 2.05278
2022-12-15 15:35:06.079154, 2.01368
2022-12-15 15:35:06.112302, 1.97458
2022-12-15 15:35:06.112547, 1.95503
2022-12-15 15:35:06.112547, 1.93059
2022-12-15 15:35:06.145908, 1.91593
2022-12-15 15:35:06.146201, 1.88172
2022-12-15 15:35:06.146738, 1.87194
2022-12-15 15:35:06.179475, 1.86217
2022-12-15 15:35:06.179830, 1.84750
2022-12-15 15:35:06.212886, 1.82306
2022-12-15 15:35:06.212886, 1.79863
2022-12-15 15:35:06.213869, 1.78396
2022-12-15 15:35:06.246534, 1.76930
2022-12-15 15:35:06.246828, 1.74486
2022-12-15 15:35:06.246828, 1.73020
2022-12-15 15:35:06.280323, 1.73509
2022-12-15 15:35:06.280711, 1.73509
2022-12-15 15:35:06.313438, 1.72043
2022-12-15 15:35:06.313438, 1.74486
2022-12-15 15:35:06.314439, 1.72043
2022-12-15 15:35:06.347253, 1.72531
2022-12-15 15:35:06.347652, 1.72043
2022-12-15 15:35:06.348654, 1.70576
2022-12-15 15:35:06.380340, 1.69599
2022-12-15 15:35:06.380340, 1.70087
2022-12-15 15:35:06.414366, 1.67644
2022-12-15 15:35:06.414609, 1.66177
2022-12-15 15:35:06.415134, 1.65200
2022-12-15 15:35:06.447663, 1.67155
2022-12-15 15:35:06.447960, 1.62267
2022-12-15 15:35:06.448492, 1.60312
2022-12-15 15:35:06.481413, 1.59335
2022-12-15 15:35:06.481759, 1.58846
2022-12-15 15:35:06.514803, 1.56891
2022-12-15 15:35:06.515046, 1.55913
2022-12-15 15:35:06.515046, 1.54447
2022-12-15 15:35:06.548269, 1.54447
2022-12-15 15:35:06.548591, 1.52981
2022-12-15 15:35:06.549213, 1.52492
2022-12-15 15:35:06.581827, 1.54936
2022-12-15 15:35:06.582267, 1.52003
2022-12-15 15:35:06.615290, 1.51026
2022-12-15 15:35:06.615637, 1.50537
2022-12-15 15:35:06.616103, 1.53470
2022-12-15 15:35:06.649030, 1.51026
2022-12-15 15:35:06.649361, 1.50537
2022-12-15 15:35:06.649361, 1.49560
2022-12-15 15:35:06.681903, 1.51026
2022-12-15 15:35:06.682932, 1.50048
2022-12-15 15:35:06.714807, 1.49560
2022-12-15 15:35:06.715805, 1.48582
2022-12-15 15:35:06.715805, 1.49071
2022-12-15 15:35:06.749358, 1.51515
2022-12-15 15:35:06.749650, 1.49071
2022-12-15 15:35:06.750178, 1.47605
2022-12-15 15:35:06.783068, 1.49071
2022-12-15 15:35:06.783414, 1.48093
2022-12-15 15:35:06.816486, 1.47605
2022-12-15 15:35:06.816728, 1.46138
2022-12-15 15:35:06.817240, 1.46627
2022-12-15 15:35:06.850394, 1.49071
2022-12-15 15:35:06.850690, 1.45650
2022-12-15 15:35:06.851221, 1.44183
2022-12-15 15:35:06.883576, 1.43695
2022-12-15 15:35:06.883923, 1.46138
2022-12-15 15:35:06.916979, 1.45650
2022-12-15 15:35:06.917223, 1.47116
2022-12-15 15:35:06.917752, 1.51515
2022-12-15 15:35:06.950788, 1.58357
2022-12-15 15:35:06.950788, 1.66666
2022-12-15 15:35:06.951789, 1.74486
2022-12-15 15:35:06.984390, 1.83773
2022-12-15 15:35:06.984390, 1.91104
2022-12-15 15:35:07.017617, 1.97458
2022-12-15 15:35:07.018624, 2.01368
2022-12-15 15:35:07.018624, 2.00879
2022-12-15 15:35:07.050185, 2.00879
2022-12-15 15:35:07.051191, 1.99902
2022-12-15 15:35:07.051191, 1.95992
2022-12-15 15:35:07.084734, 1.93548
2022-12-15 15:35:07.085084, 1.90127
2022-12-15 15:35:07.118226, 1.88660
2022-12-15 15:35:07.118472, 1.84750
2022-12-15 15:35:07.119002, 1.82795
2022-12-15 15:35:07.151790, 1.81818
2022-12-15 15:35:07.152111, 1.80351
2022-12-15 15:35:07.152696, 1.78885
2022-12-15 15:35:07.185399, 1.75953
2022-12-15 15:35:07.185771, 1.73998
2022-12-15 15:35:07.218864, 1.73509
2022-12-15 15:35:07.219109, 1.73509
2022-12-15 15:35:07.219570, 1.69599
2022-12-15 15:35:07.252579, 1.70087
2022-12-15 15:35:07.252874, 1.70576
2022-12-15 15:35:07.252874, 1.70087
2022-12-15 15:35:07.286221, 1.69599
2022-12-15 15:35:07.286221, 1.73020
2022-12-15 15:35:07.319092, 1.71065
2022-12-15 15:35:07.319092, 1.71065
2022-12-15 15:35:07.320101, 1.71554
2022-12-15 15:35:07.352493, 1.69110
2022-12-15 15:35:07.352766, 1.69110
2022-12-15 15:35:07.353174, 1.68621
2022-12-15 15:35:07.386361, 1.65689
2022-12-15 15:35:07.386711, 1.64222
2022-12-15 15:35:07.420358, 1.65689
2022-12-15 15:35:07.420602, 1.62267
2022-12-15 15:35:07.421128, 1.59824
2022-12-15 15:35:07.453664, 1.61290
2022-12-15 15:35:07.453962, 1.57869
2022-12-15 15:35:07.454476, 1.56891
2022-12-15 15:35:07.486148, 1.54447
2022-12-15 15:35:07.487148, 1.56891
2022-12-15 15:35:07.519883, 1.53470
2022-12-15 15:35:07.519883, 1.52981
2022-12-15 15:35:07.520879, 1.51515
2022-12-15 15:35:07.553559, 1.51026
2022-12-15 15:35:07.554003, 1.51515
2022-12-15 15:35:07.554003, 1.51026
2022-12-15 15:35:07.587673, 1.50537
2022-12-15 15:35:07.588021, 1.50048
2022-12-15 15:35:07.621152, 1.51026
2022-12-15 15:35:07.621152, 1.51515
2022-12-15 15:35:07.622155, 1.51026
2022-12-15 15:35:07.654374, 1.50048
2022-12-15 15:35:07.655386, 1.50537
2022-12-15 15:35:07.655386, 1.51026
2022-12-15 15:35:07.688223, 1.50048
2022-12-15 15:35:07.688569, 1.52003
2022-12-15 15:35:07.721960, 1.50048
2022-12-15 15:35:07.722201, 1.50048
2022-12-15 15:35:07.722201, 1.49560
2022-12-15 15:35:07.755352, 1.48582
2022-12-15 15:35:07.755646, 1.48093
2022-12-15 15:35:07.756215, 1.48582
2022-12-15 15:35:07.789003, 1.48093
2022-12-15 15:35:07.789402, 1.47116
2022-12-15 15:35:07.822518, 1.47116
2022-12-15 15:35:07.822809, 1.48093
2022-12-15 15:35:07.823269, 1.51026
2022-12-15 15:35:07.856246, 1.50537
2022-12-15 15:35:07.856246, 1.56402
2022-12-15 15:35:07.857248, 1.64222
2022-12-15 15:35:07.889437, 1.71554
2022-12-15 15:35:07.889848, 1.80351
2022-12-15 15:35:07.923338, 1.88660
2022-12-15 15:35:07.923338, 1.95992
2022-12-15 15:35:07.924340, 2.01857
2022-12-15 15:35:07.956412, 2.01368
2022-12-15 15:35:07.956412, 2.02346
2022-12-15 15:35:07.957414, 2.02346
2022-12-15 15:35:07.989833, 1.99413
2022-12-15 15:35:07.990641, 1.95992
2022-12-15 15:35:08.023267, 1.93548
2022-12-15 15:35:08.023267, 1.91104
2022-12-15 15:35:08.024298, 1.90127
2022-12-15 15:35:08.056981, 1.85728
2022-12-15 15:35:08.057275, 1.84261
2022-12-15 15:35:08.057785, 1.83284
2022-12-15 15:35:08.090486, 1.83284
2022-12-15 15:35:08.090832, 1.78396
2022-12-15 15:35:08.124094, 1.75953
2022-12-15 15:35:08.124337, 1.74975
2022-12-15 15:35:08.124337, 1.73509
2022-12-15 15:35:08.157677, 1.71065
2022-12-15 15:35:08.157971, 1.70576
2022-12-15 15:35:08.157971, 1.71554
2022-12-15 15:35:08.191075, 1.71554
2022-12-15 15:35:08.191420, 1.70576
2022-12-15 15:35:08.224782, 1.71065
2022-12-15 15:35:08.225028, 1.71554
2022-12-15 15:35:08.225028, 1.71554
2022-12-15 15:35:08.258319, 1.70087
2022-12-15 15:35:08.258616, 1.71554
2022-12-15 15:35:08.258616, 1.69599
2022-12-15 15:35:08.291660, 1.69110
2022-12-15 15:35:08.291660, 1.68132
2022-12-15 15:35:08.325267, 1.65689
2022-12-15 15:35:08.325879, 1.64711
2022-12-15 15:35:08.325879, 1.63734
2022-12-15 15:35:08.358380, 1.62267
2022-12-15 15:35:08.358380, 1.59335
2022-12-15 15:35:08.359375, 1.58357
2022-12-15 15:35:08.392253, 1.57380
2022-12-15 15:35:08.392939, 1.56891
2022-12-15 15:35:08.426152, 1.54447
2022-12-15 15:35:08.426382, 1.53958
2022-12-15 15:35:08.427054, 1.53958
2022-12-15 15:35:08.459310, 1.53470
2022-12-15 15:35:08.459650, 1.51515
2022-12-15 15:35:08.459650, 1.51515
2022-12-15 15:35:08.493241, 1.51515
2022-12-15 15:35:08.493667, 1.52003
2022-12-15 15:35:08.526319, 1.50537
2022-12-15 15:35:08.526637, 1.50048
2022-12-15 15:35:08.526637, 1.51515
2022-12-15 15:35:08.560309, 1.51026
2022-12-15 15:35:08.560684, 1.50048
2022-12-15 15:35:08.561244, 1.50048
2022-12-15 15:35:08.593232, 1.51026
2022-12-15 15:35:08.593232, 1.52981
2022-12-15 15:35:08.627177, 1.49560
2022-12-15 15:35:08.627450, 1.49560
2022-12-15 15:35:08.628048, 1.51026
2022-12-15 15:35:08.660739, 1.50048
2022-12-15 15:35:08.661736, 1.49071
2022-12-15 15:35:08.661736, 1.49071
2022-12-15 15:35:08.694117, 1.50048
2022-12-15 15:35:08.694465, 1.51026
2022-12-15 15:35:08.727738, 1.47605
2022-12-15 15:35:08.727981, 1.47605
2022-12-15 15:35:08.728508, 1.47605
2022-12-15 15:35:08.761137, 1.47116
2022-12-15 15:35:08.761433, 1.45650
2022-12-15 15:35:08.761962, 1.49071
2022-12-15 15:35:08.794810, 1.47605
2022-12-15 15:35:08.795157, 1.49071
2022-12-15 15:35:08.828320, 1.53470
2022-12-15 15:35:08.828567, 1.59824
2022-12-15 15:35:08.829030, 1.69110
2022-12-15 15:35:08.861758, 1.78885
2022-12-15 15:35:08.862054, 1.86705
2022-12-15 15:35:08.862580, 1.95014
2022-12-15 15:35:08.895354, 2.02346
2022-12-15 15:35:08.895698, 2.06256
2022-12-15 15:35:08.929066, 2.06744
2022-12-15 15:35:08.929066, 2.05767
2022-12-15 15:35:08.930068, 2.05278
2022-12-15 15:35:08.962276, 2.02834
2022-12-15 15:35:08.963306, 1.99902
2022-12-15 15:35:08.963306, 1.95992
2022-12-15 15:35:08.996243, 1.93548
2022-12-15 15:35:08.996590, 1.92570
2022-12-15 15:35:09.029380, 1.89149
2022-12-15 15:35:09.029620, 1.90127
2022-12-15 15:35:09.030153, 1.87194
2022-12-15 15:35:09.063203, 1.85728
2022-12-15 15:35:09.063203, 1.82306
2022-12-15 15:35:09.064269, 1.80351
2022-12-15 15:35:09.096698, 1.78396
2022-12-15 15:35:09.097091, 1.77419
2022-12-15 15:35:09.130245, 1.74975
2022-12-15 15:35:09.130517, 1.73998
2022-12-15 15:35:09.131183, 1.73509
2022-12-15 15:35:09.163713, 1.73998
2022-12-15 15:35:09.164008, 1.73020
2022-12-15 15:35:09.164541, 1.75464
2022-12-15 15:35:09.197195, 1.73020
2022-12-15 15:35:09.197543, 1.73509
2022-12-15 15:35:09.229497, 1.73509
2022-12-15 15:35:09.230490, 1.71554
2022-12-15 15:35:09.230490, 1.71065
2022-12-15 15:35:09.264091, 1.71065
2022-12-15 15:35:09.264468, 1.69599
2022-12-15 15:35:09.265473, 1.66666
2022-12-15 15:35:09.296592, 1.65689
2022-12-15 15:35:09.297599, 1.65200
2022-12-15 15:35:09.331314, 1.65200
2022-12-15 15:35:09.331559, 1.61290
2022-12-15 15:35:09.332084, 1.59824
2022-12-15 15:35:09.364727, 1.59824
2022-12-15 15:35:09.365024, 1.57869
2022-12-15 15:35:09.365024, 1.56402
2022-12-15 15:35:09.398438, 1.55425
2022-12-15 15:35:09.398795, 1.55913
2022-12-15 15:35:09.432251, 1.53958
2022-12-15 15:35:09.432494, 1.52981
2022-12-15 15:35:09.433025, 1.52981
2022-12-15 15:35:09.465451, 1.52981
2022-12-15 15:35:09.465744, 1.52981
2022-12-15 15:35:09.466275, 1.52003
2022-12-15 15:35:09.499311, 1.52003
2022-12-15 15:35:09.499661, 1.52492
2022-12-15 15:35:09.532478, 1.52003
2022-12-15 15:35:09.532722, 1.51515
2022-12-15 15:35:09.533251, 1.53958
2022-12-15 15:35:09.566386, 1.51515
2022-12-15 15:35:09.566682, 1.52003
2022-12-15 15:35:09.567142, 1.51026
2022-12-15 15:35:09.599416, 1.51026
2022-12-15 15:35:09.599416, 1.52492
2022-12-15 15:35:09.633101, 1.51515
2022-12-15 15:35:09.633101, 1.50537
2022-12-15 15:35:09.634205, 1.50048
2022-12-15 15:35:09.666547, 1.52981
2022-12-15 15:35:09.666883, 1.49560
2022-12-15 15:35:09.667419, 1.48093
2022-12-15 15:35:09.700109, 1.47605
2022-12-15 15:35:09.700458, 1.50048
2022-12-15 15:35:09.733680, 1.48582
2022-12-15 15:35:09.733923, 1.47116
2022-12-15 15:35:09.734449, 1.48093
2022-12-15 15:35:09.767229, 1.53958
2022-12-15 15:35:09.767525, 1.56402
2022-12-15 15:35:09.768037, 1.62267
2022-12-15 15:35:09.800868, 1.71065
2022-12-15 15:35:09.801219, 1.81818
2022-12-15 15:35:09.834491, 1.90127
2022-12-15 15:35:09.834735, 1.96480
2022-12-15 15:35:09.835191, 2.01857
2022-12-15 15:35:09.867848, 2.05278
2022-12-15 15:35:09.868144, 2.07722
2022-12-15 15:35:09.868655, 2.04789
2022-12-15 15:35:09.901512, 2.04789
2022-12-15 15:35:09.901863, 1.99413
2022-12-15 15:35:09.933816, 1.97458
2022-12-15 15:35:09.934816, 1.94037
2022-12-15 15:35:09.934816, 1.91104
2022-12-15 15:35:09.967391, 1.89149
2022-12-15 15:35:09.968412, 1.88172
2022-12-15 15:35:09.968412, 1.86705
2022-12-15 15:35:10.001797, 1.83773
2022-12-15 15:35:10.002146, 1.82306
2022-12-15 15:35:10.035377, 1.80840
2022-12-15 15:35:10.035621, 1.78396
2022-12-15 15:35:10.036129, 1.78396
2022-12-15 15:35:10.069328, 1.73998
2022-12-15 15:35:10.069625, 1.73020
2022-12-15 15:35:10.070155, 1.73998
2022-12-15 15:35:10.102349, 1.70087
2022-12-15 15:35:10.102700, 1.70087
2022-12-15 15:35:10.135873, 1.73509
2022-12-15 15:35:10.136118, 1.70576
2022-12-15 15:35:10.136584, 1.69599
2022-12-15 15:35:10.169617, 1.70576
2022-12-15 15:35:10.169953, 1.69599
2022-12-15 15:35:10.169953, 1.69110
2022-12-15 15:35:10.203015, 1.67644
2022-12-15 15:35:10.203015, 1.66177
2022-12-15 15:35:10.235724, 1.65689
2022-12-15 15:35:10.236727, 1.64222
2022-12-15 15:35:10.236727, 1.62267
2022-12-15 15:35:10.270202, 1.60312
2022-12-15 15:35:10.270528, 1.59824
2022-12-15 15:35:10.271100, 1.58357
2022-12-15 15:35:10.303795, 1.58846
2022-12-15 15:35:10.304137, 1.54936
2022-12-15 15:35:10.337230, 1.54447
2022-12-15 15:35:10.337473, 1.53470
2022-12-15 15:35:10.338012, 1.51515
2022-12-15 15:35:10.370774, 1.51026
2022-12-15 15:35:10.370774, 1.51515
2022-12-15 15:35:10.371645, 1.50537
2022-12-15 15:35:10.404505, 1.49560
2022-12-15 15:35:10.404854, 1.49071
2022-12-15 15:35:10.437832, 1.49560
2022-12-15 15:35:10.437832, 1.49560
2022-12-15 15:35:10.438676, 1.48582
2022-12-15 15:35:10.471545, 1.48582
2022-12-15 15:35:10.471836, 1.49560
2022-12-15 15:35:10.472345, 1.49071
2022-12-15 15:35:10.504703, 1.48093
2022-12-15 15:35:10.505742, 1.47605
2022-12-15 15:35:10.537865, 1.49560
2022-12-15 15:35:10.538874, 1.48582
2022-12-15 15:35:10.538874, 1.48093
2022-12-15 15:35:10.572138, 1.47116
2022-12-15 15:35:10.572430, 1.48093
2022-12-15 15:35:10.572950, 1.47605
2022-12-15 15:35:10.605474, 1.46627
2022-12-15 15:35:10.605817, 1.45650
2022-12-15 15:35:10.638889, 1.45650
2022-12-15 15:35:10.639130, 1.45650
2022-12-15 15:35:10.639663, 1.44672
2022-12-15 15:35:10.672634, 1.44183
2022-12-15 15:35:10.672927, 1.47605
2022-12-15 15:35:10.673437, 1.47116
2022-12-15 15:35:10.706182, 1.50048
2022-12-15 15:35:10.706530, 1.54936
2022-12-15 15:35:10.739752, 1.63734
2022-12-15 15:35:10.740002, 1.71554
2022-12-15 15:35:10.740511, 1.80351
2022-12-15 15:35:10.773254, 1.88172
2022-12-15 15:35:10.773551, 1.94037
2022-12-15 15:35:10.774082, 1.98924
2022-12-15 15:35:10.806790, 2.00391
2022-12-15 15:35:10.807142, 1.99902
2022-12-15 15:35:10.840512, 1.97947
2022-12-15 15:35:10.840756, 1.95992
2022-12-15 15:35:10.840756, 1.95014
2022-12-15 15:35:10.873905, 1.89149
2022-12-15 15:35:10.874203, 1.86217
2022-12-15 15:35:10.874668, 1.85239
2022-12-15 15:35:10.907560, 1.82795
2022-12-15 15:35:10.907904, 1.80351
2022-12-15 15:35:10.940909, 1.77908
2022-12-15 15:35:10.941154, 1.76930
2022-12-15 15:35:10.941622, 1.74975
2022-12-15 15:35:10.974580, 1.71554
2022-12-15 15:35:10.974872, 1.69599
2022-12-15 15:35:10.974872, 1.69110
2022-12-15 15:35:11.007931, 1.68132
2022-12-15 15:35:11.007931, 1.66666
2022-12-15 15:35:11.041197, 1.68621
2022-12-15 15:35:11.042223, 1.67155
2022-12-15 15:35:11.042360, 1.68132
2022-12-15 15:35:11.074425, 1.67155
2022-12-15 15:35:11.074698, 1.67155
2022-12-15 15:35:11.075102, 1.67644
2022-12-15 15:35:11.108461, 1.67644
2022-12-15 15:35:11.108810, 1.65689
2022-12-15 15:35:11.141937, 1.65689
2022-12-15 15:35:11.142181, 1.67155
2022-12-15 15:35:11.142181, 1.64222
2022-12-15 15:35:11.175631, 1.61779
2022-12-15 15:35:11.175924, 1.60801
2022-12-15 15:35:11.175924, 1.58846
2022-12-15 15:35:11.209085, 1.58357
2022-12-15 15:35:11.209799, 1.56402
2022-12-15 15:35:11.242639, 1.53958
2022-12-15 15:35:11.243320, 1.52981
2022-12-15 15:35:11.243511, 1.52492
2022-12-15 15:35:11.276148, 1.52003
2022-12-15 15:35:11.276619, 1.50048
2022-12-15 15:35:11.276619, 1.49560
2022-12-15 15:35:11.309715, 1.49071
2022-12-15 15:35:11.309715, 1.48582
2022-12-15 15:35:11.343486, 1.47116
2022-12-15 15:35:11.343486, 1.47605
2022-12-15 15:35:11.344518, 1.48093
2022-12-15 15:35:11.376838, 1.47605
2022-12-15 15:35:11.377870, 1.47116
2022-12-15 15:35:11.377870, 1.47116
2022-12-15 15:35:11.409191, 1.48093
2022-12-15 15:35:11.410216, 1.48093
2022-12-15 15:35:11.444018, 1.46138
2022-12-15 15:35:11.444018, 1.46627
2022-12-15 15:35:11.444768, 1.47605
2022-12-15 15:35:11.476624, 1.47605
2022-12-15 15:35:11.476624, 1.45161
2022-12-15 15:35:11.477643, 1.45161
2022-12-15 15:35:11.510565, 1.45650
2022-12-15 15:35:11.510993, 1.44672
2022-12-15 15:35:11.544380, 1.43206
2022-12-15 15:35:11.544723, 1.43695
2022-12-15 15:35:11.544723, 1.43206
2022-12-15 15:35:11.577730, 1.43206
2022-12-15 15:35:11.578070, 1.43206
2022-12-15 15:35:11.578070, 1.47116
2022-12-15 15:35:11.610746, 1.52003
2022-12-15 15:35:11.610746, 1.58846
2022-12-15 15:35:11.644905, 1.65689
2022-12-15 15:35:11.645148, 1.73509
2022-12-15 15:35:11.645614, 1.81329
2022-12-15 15:35:11.678020, 1.87683
2022-12-15 15:35:11.678346, 1.89638
2022-12-15 15:35:11.678346, 1.92082
2022-12-15 15:35:11.711847, 1.92570
2022-12-15 15:35:11.712648, 1.91593
2022-12-15 15:35:11.745502, 1.90127
2022-12-15 15:35:11.745746, 1.86217
2022-12-15 15:35:11.746284, 1.84261
2022-12-15 15:35:11.779026, 1.82795
2022-12-15 15:35:11.779319, 1.79374
2022-12-15 15:35:11.779827, 1.79374
2022-12-15 15:35:11.812586, 1.76441
2022-12-15 15:35:11.812934, 1.76930
2022-12-15 15:35:11.845953, 1.73020
2022-12-15 15:35:11.846197, 1.70576
2022-12-15 15:35:11.846714, 1.69110
2022-12-15 15:35:11.879553, 1.67644
2022-12-15 15:35:11.879874, 1.65200
2022-12-15 15:35:11.880432, 1.63734
2022-12-15 15:35:11.913418, 1.62756
2022-12-15 15:35:11.913809, 1.63734
2022-12-15 15:35:11.946717, 1.64711
2022-12-15 15:35:11.946959, 1.61779
2022-12-15 15:35:11.947491, 1.62267
2022-12-15 15:35:11.980387, 1.64222
2022-12-15 15:35:11.980689, 1.62267
2022-12-15 15:35:11.981153, 1.60801
2022-12-15 15:35:12.013608, 1.62756
2022-12-15 15:35:12.013608, 1.60801
2022-12-15 15:35:12.046294, 1.58846
2022-12-15 15:35:12.047184, 1.57869
2022-12-15 15:35:12.047594, 1.55913
2022-12-15 15:35:12.080145, 1.56402
2022-12-15 15:35:12.080145, 1.54447
2022-12-15 15:35:12.081143, 1.52003
2022-12-15 15:35:12.114368, 1.51026
2022-12-15 15:35:12.114712, 1.50537
2022-12-15 15:35:12.147595, 1.52003
2022-12-15 15:35:12.148111, 1.47116
2022-12-15 15:35:12.148627, 1.46627
2022-12-15 15:35:12.181394, 1.46627
2022-12-15 15:35:12.181716, 1.45161
2022-12-15 15:35:12.182305, 1.43206
2022-12-15 15:35:12.215113, 1.43206
2022-12-15 15:35:12.215506, 1.43206
2022-12-15 15:35:12.248576, 1.42717
2022-12-15 15:35:12.248821, 1.41739
2022-12-15 15:35:12.249285, 1.42228
2022-12-15 15:35:12.282137, 1.43695
2022-12-15 15:35:12.282431, 1.42228
2022-12-15 15:35:12.282969, 1.41251
2022-12-15 15:35:12.315668, 1.41251
2022-12-15 15:35:12.316013, 1.41251
2022-12-15 15:35:12.349066, 1.41251
2022-12-15 15:35:12.349417, 1.41739
2022-12-15 15:35:12.350432, 1.40273
2022-12-15 15:35:12.382649, 1.40762
2022-12-15 15:35:12.382944, 1.40273
2022-12-15 15:35:12.383453, 1.38807
2022-12-15 15:35:12.416405, 1.39296
2022-12-15 15:35:12.416750, 1.41251
2022-12-15 15:35:12.449812, 1.39296
2022-12-15 15:35:12.450056, 1.37829
2022-12-15 15:35:12.450563, 1.37829
2022-12-15 15:35:12.483495, 1.37341
2022-12-15 15:35:12.483816, 1.37341
2022-12-15 15:35:12.484394, 1.36363
2022-12-15 15:35:12.516799, 1.35386
2022-12-15 15:35:12.517152, 1.35386
2022-12-15 15:35:12.550464, 1.35874
2022-12-15 15:35:12.550708, 1.35874
2022-12-15 15:35:12.551172, 1.36852
2022-12-15 15:35:12.583821, 1.40762
2022-12-15 15:35:12.584116, 1.47605
2022-12-15 15:35:12.584644, 1.52492
2022-12-15 15:35:12.617366, 1.59824
2022-12-15 15:35:12.617786, 1.67155
2022-12-15 15:35:12.650857, 1.74486
2022-12-15 15:35:12.651102, 1.79374
2022-12-15 15:35:12.651102, 1.80840
2022-12-15 15:35:12.684791, 1.82795
2022-12-15 15:35:12.684791, 1.84261
2022-12-15 15:35:12.685794, 1.82795
2022-12-15 15:35:12.717450, 1.80840
2022-12-15 15:35:12.717773, 1.79863
2022-12-15 15:35:12.751396, 1.79374
2022-12-15 15:35:12.751396, 1.77419
2022-12-15 15:35:12.752263, 1.75953
2022-12-15 15:35:12.784986, 1.75953
2022-12-15 15:35:12.784986, 1.75464
2022-12-15 15:35:12.785906, 1.74975
2022-12-15 15:35:12.818554, 1.73020
2022-12-15 15:35:12.818554, 1.72043
2022-12-15 15:35:12.851923, 1.72043
2022-12-15 15:35:12.851923, 1.70087
2022-12-15 15:35:12.852925, 1.68621
2022-12-15 15:35:12.885391, 1.66666
2022-12-15 15:35:12.885391, 1.66666
2022-12-15 15:35:12.886313, 1.66177
2022-12-15 15:35:12.918636, 1.64711
2022-12-15 15:35:12.918999, 1.64711
2022-12-15 15:35:12.952854, 1.65200
2022-12-15 15:35:12.953099, 1.65200
2022-12-15 15:35:12.953633, 1.63734
2022-12-15 15:35:12.985361, 1.63734
2022-12-15 15:35:12.986363, 1.64222
2022-12-15 15:35:12.986363, 1.64222
2022-12-15 15:35:13.018387, 1.61290
2022-12-15 15:35:13.019499, 1.61779
2022-12-15 15:35:13.053376, 1.59824
2022-12-15 15:35:13.053620, 1.61290
2022-12-15 15:35:13.053620, 1.56891
2022-12-15 15:35:13.086662, 1.56402
2022-12-15 15:35:13.086958, 1.56891
2022-12-15 15:35:13.087492, 1.54447
2022-12-15 15:35:13.120351, 1.52981
2022-12-15 15:35:13.120704, 1.54936
2022-12-15 15:35:13.153704, 1.51026
2022-12-15 15:35:13.153949, 1.51026
2022-12-15 15:35:13.153949, 1.49560
2022-12-15 15:35:13.187329, 1.48582
2022-12-15 15:35:13.187625, 1.49560
2022-12-15 15:35:13.188084, 1.48582
2022-12-15 15:35:13.220808, 1.47116
2022-12-15 15:35:13.221181, 1.49071
2022-12-15 15:35:13.254179, 1.46627
2022-12-15 15:35:13.255229, 1.47116
2022-12-15 15:35:13.255229, 1.45650
2022-12-15 15:35:13.286581, 1.45650
2022-12-15 15:35:13.287577, 1.45650
2022-12-15 15:35:13.287577, 1.46138
2022-12-15 15:35:13.321567, 1.47605
2022-12-15 15:35:13.321915, 1.44183
2022-12-15 15:35:13.355094, 1.44672
2022-12-15 15:35:13.355333, 1.44672
2022-12-15 15:35:13.355864, 1.44183
2022-12-15 15:35:13.388639, 1.43206
2022-12-15 15:35:13.388936, 1.43206
2022-12-15 15:35:13.389467, 1.43695
2022-12-15 15:35:13.422380, 1.43695
2022-12-15 15:35:13.422729, 1.42228
2022-12-15 15:35:13.455722, 1.42228
2022-12-15 15:35:13.455963, 1.43206
2022-12-15 15:35:13.456485, 1.41739
2022-12-15 15:35:13.489334, 1.40762
2022-12-15 15:35:13.489334, 1.41251
2022-12-15 15:35:13.490337, 1.41251
2022-12-15 15:35:13.522407, 1.44183
2022-12-15 15:35:13.523423, 1.40273
2022-12-15 15:35:13.555104, 1.41739
2022-12-15 15:35:13.556112, 1.40273
2022-12-15 15:35:13.556112, 1.40762
2022-12-15 15:35:13.588733, 1.43206
2022-12-15 15:35:13.589732, 1.41739
2022-12-15 15:35:13.589732, 1.45650
2022-12-15 15:35:13.622536, 1.50048
2022-12-15 15:35:13.622536, 1.55425
2022-12-15 15:35:13.656884, 1.63245
2022-12-15 15:35:13.657127, 1.69599
2022-12-15 15:35:13.657634, 1.75953
2022-12-15 15:35:13.690279, 1.79863
2022-12-15 15:35:13.690575, 1.82795
2022-12-15 15:35:13.691098, 1.87194
2022-12-15 15:35:13.724005, 1.85728
2022-12-15 15:35:13.724349, 1.84261
2022-12-15 15:35:13.757535, 1.82795
2022-12-15 15:35:13.757778, 1.85239
2022-12-15 15:35:13.757778, 1.81329
2022-12-15 15:35:13.791057, 1.78885
2022-12-15 15:35:13.791446, 1.77908
2022-12-15 15:35:13.791906, 1.78396
2022-12-15 15:35:13.824597, 1.77419
2022-12-15 15:35:13.824950, 1.75464
2022-12-15 15:35:13.858139, 1.74975
2022-12-15 15:35:13.858383, 1.73998
2022-12-15 15:35:13.858846, 1.73509
2022-12-15 15:35:13.891588, 1.71065
2022-12-15 15:35:13.891588, 1.70576
2022-12-15 15:35:13.892592, 1.69599
2022-12-15 15:35:13.925319, 1.69599
2022-12-15 15:35:13.925692, 1.68132
2022-12-15 15:35:13.958388, 1.67644
2022-12-15 15:35:13.958388, 1.67644
2022-12-15 15:35:13.959421, 1.68132
2022-12-15 15:35:13.990819, 1.67155
2022-12-15 15:35:13.991939, 1.66177
2022-12-15 15:35:13.991939, 1.66177
2022-12-15 15:35:14.025635, 1.66666
2022-12-15 15:35:14.025979, 1.65689
2022-12-15 15:35:14.059415, 1.64222
2022-12-15 15:35:14.059659, 1.63245
2022-12-15 15:35:14.059659, 1.63245
2022-12-15 15:35:14.091803, 1.61290
2022-12-15 15:35:14.092757, 1.62267
2022-12-15 15:35:14.092757, 1.58846
2022-12-15 15:35:14.126462, 1.58846
2022-12-15 15:35:14.126462, 1.58846
2022-12-15 15:35:14.159137, 1.55425
2022-12-15 15:35:14.159469, 1.54936
2022-12-15 15:35:14.159469, 1.54447
2022-12-15 15:35:14.193231, 1.53470
2022-12-15 15:35:14.193231, 1.52492
2022-12-15 15:35:14.194232, 1.51515
2022-12-15 15:35:14.226849, 1.51515
2022-12-15 15:35:14.226849, 1.51026
2022-12-15 15:35:14.260117, 1.49560
2022-12-15 15:35:14.260635, 1.49071
2022-12-15 15:35:14.260635, 1.51515
2022-12-15 15:35:14.293716, 1.49071
2022-12-15 15:35:14.294034, 1.48093
2022-12-15 15:35:14.294034, 1.48093
2022-12-15 15:35:14.327166, 1.48093
2022-12-15 15:35:14.328174, 1.48093
2022-12-15 15:35:14.360808, 1.46627
2022-12-15 15:35:14.361445, 1.49071
2022-12-15 15:35:14.361445, 1.47116
2022-12-15 15:35:14.394269, 1.46627
2022-12-15 15:35:14.394605, 1.48093
2022-12-15 15:35:14.395168, 1.45650
2022-12-15 15:35:14.428221, 1.46138
2022-12-15 15:35:14.428635, 1.48093
2022-12-15 15:35:14.461377, 1.45161
2022-12-15 15:35:14.461690, 1.45650
2022-12-15 15:35:14.461690, 1.45161
2022-12-15 15:35:14.494749, 1.44672
2022-12-15 15:35:14.494749, 1.46627
2022-12-15 15:35:14.495746, 1.43695
2022-12-15 15:35:14.528386, 1.43695
2022-12-15 15:35:14.528839, 1.46138
2022-12-15 15:35:14.561587, 1.42717
2022-12-15 15:35:14.561933, 1.42717
2022-12-15 15:35:14.562553, 1.43206
2022-12-15 15:35:14.595579, 1.44672
2022-12-15 15:35:14.595907, 1.46627
2022-12-15 15:35:14.596410, 1.49560
2022-12-15 15:35:14.628939, 1.54936
2022-12-15 15:35:14.628939, 1.61290
2022-12-15 15:35:14.662383, 1.65689
2022-12-15 15:35:14.662383, 1.71065
2022-12-15 15:35:14.663060, 1.75464
2022-12-15 15:35:14.696105, 1.79374
2022-12-15 15:35:14.696401, 1.80351
2022-12-15 15:35:14.696918, 1.80351
2022-12-15 15:35:14.729762, 1.79863
2022-12-15 15:35:14.730105, 1.79374
2022-12-15 15:35:14.763147, 1.80351
2022-12-15 15:35:14.763147, 1.75953
2022-12-15 15:35:14.764148, 1.74486
2022-12-15 15:35:14.796869, 1.74486
2022-12-15 15:35:14.797166, 1.73509
2022-12-15 15:35:14.797166, 1.71554
2022-12-15 15:35:14.830251, 1.73509
2022-12-15 15:35:14.830600, 1.70576
2022-12-15 15:35:14.864139, 1.69599
2022-12-15 15:35:14.864139, 1.68132
2022-12-15 15:35:14.865140, 1.67644
2022-12-15 15:35:14.897339, 1.67644
2022-12-15 15:35:14.897635, 1.67155
2022-12-15 15:35:14.897635, 1.66177
2022-12-15 15:35:14.931176, 1.69110
2022-12-15 15:35:14.931940, 1.68132
2022-12-15 15:35:14.964064, 1.68132
2022-12-15 15:35:14.964409, 1.66666
2022-12-15 15:35:14.965117, 1.67155
2022-12-15 15:35:14.998227, 1.67644
2022-12-15 15:35:14.998521, 1.67644
2022-12-15 15:35:14.998521, 1.66666
2022-12-15 15:35:15.031638, 1.66177
2022-12-15 15:35:15.031985, 1.66177
2022-12-15 15:35:15.065287, 1.65689
2022-12-15 15:35:15.065531, 1.63734
2022-12-15 15:35:15.065531, 1.63734
2022-12-15 15:35:15.098697, 1.65200
2022-12-15 15:35:15.098996, 1.62267
2022-12-15 15:35:15.099509, 1.61779
2022-12-15 15:35:15.132434, 1.62267
2022-12-15 15:35:15.132779, 1.58846
2022-12-15 15:35:15.165793, 1.58357
2022-12-15 15:35:15.166036, 1.56402
2022-12-15 15:35:15.166503, 1.55913
2022-12-15 15:35:15.199185, 1.55913
2022-12-15 15:35:15.199530, 1.59335
2022-12-15 15:35:15.200063, 1.54936
2022-12-15 15:35:15.232893, 1.54447
2022-12-15 15:35:15.232893, 1.54447
2022-12-15 15:35:15.265851, 1.54936
2022-12-15 15:35:15.266075, 1.54447
2022-12-15 15:35:15.266488, 1.53470
2022-12-15 15:35:15.299070, 1.53470
2022-12-15 15:35:15.299070, 1.54447
2022-12-15 15:35:15.300099, 1.52981
2022-12-15 15:35:15.333439, 1.53470
2022-12-15 15:35:15.333786, 1.52981
2022-12-15 15:35:15.366967, 1.53958
2022-12-15 15:35:15.367210, 1.54447
2022-12-15 15:35:15.367210, 1.52003
2022-12-15 15:35:15.400545, 1.52492
2022-12-15 15:35:15.400838, 1.52981
2022-12-15 15:35:15.400838, 1.52003
2022-12-15 15:35:15.434280, 1.52003
2022-12-15 15:35:15.434626, 1.51515
2022-12-15 15:35:15.467466, 1.52003
2022-12-15 15:35:15.467713, 1.51026
2022-12-15 15:35:15.468223, 1.50537
2022-12-15 15:35:15.501335, 1.52492
2022-12-15 15:35:15.501633, 1.55913
2022-12-15 15:35:15.502096, 1.60801
2022-12-15 15:35:15.534410, 1.63734
2022-12-15 15:35:15.534410, 1.69110
2022-12-15 15:35:15.567707, 1.74975
2022-12-15 15:35:15.568713, 1.79863
2022-12-15 15:35:15.568713, 1.83284
2022-12-15 15:35:15.601564, 1.84750
2022-12-15 15:35:15.601860, 1.86705
2022-12-15 15:35:15.602370, 1.87194
2022-12-15 15:35:15.635406, 1.85239
2022-12-15 15:35:15.635751, 1.84261
2022-12-15 15:35:15.668716, 1.84261
2022-12-15 15:35:15.668716, 1.82795
2022-12-15 15:35:15.669717, 1.80351
2022-12-15 15:35:15.702143, 1.79863
2022-12-15 15:35:15.702440, 1.79374
2022-12-15 15:35:15.702440, 1.79863
2022-12-15 15:35:15.735779, 1.76930
2022-12-15 15:35:15.736161, 1.75953
2022-12-15 15:35:15.769170, 1.75953
2022-12-15 15:35:15.769442, 1.74486
2022-12-15 15:35:15.769442, 1.73020
2022-12-15 15:35:15.802853, 1.72531
2022-12-15 15:35:15.802853, 1.72531
2022-12-15 15:35:15.803854, 1.74486
2022-12-15 15:35:15.836217, 1.72043
2022-12-15 15:35:15.836903, 1.72043
2022-12-15 15:35:15.868503, 1.72531
2022-12-15 15:35:15.869500, 1.73020
2022-12-15 15:35:15.869500, 1.71554
2022-12-15 15:35:15.903387, 1.71065
2022-12-15 15:35:15.903681, 1.71065
2022-12-15 15:35:15.903681, 1.74486
2022-12-15 15:35:15.936841, 1.70576
2022-12-15 15:35:15.937188, 1.69110
2022-12-15 15:35:15.970501, 1.68132
2022-12-15 15:35:15.970776, 1.68132
2022-12-15 15:35:15.970776, 1.66177
2022-12-15 15:35:16.004334, 1.66177
2022-12-15 15:35:16.004626, 1.63734
2022-12-15 15:35:16.005093, 1.63245
2022-12-15 15:35:16.036945, 1.61779
2022-12-15 15:35:16.038936, 1.60801
2022-12-15 15:35:16.071383, 1.59824
2022-12-15 15:35:16.071622, 1.59824
2022-12-15 15:35:16.071622, 1.60312
2022-12-15 15:35:16.104655, 1.57380
2022-12-15 15:35:16.104655, 1.57380
2022-12-15 15:35:16.105666, 1.60312
2022-12-15 15:35:16.138326, 1.55913
2022-12-15 15:35:16.139356, 1.55425
2022-12-15 15:35:16.170426, 1.54936
2022-12-15 15:35:16.171432, 1.55425
2022-12-15 15:35:16.171432, 1.54936
2022-12-15 15:35:16.205070, 1.53958
2022-12-15 15:35:16.205391, 1.53958
2022-12-15 15:35:16.205972, 1.54936
2022-12-15 15:35:16.238629, 1.53958
2022-12-15 15:35:16.238975, 1.52981
2022-12-15 15:35:16.272254, 1.55425
2022-12-15 15:35:16.272497, 1.53470
2022-12-15 15:35:16.273032, 1.53470
2022-12-15 15:35:16.305890, 1.52492
2022-12-15 15:35:16.306188, 1.52003
2022-12-15 15:35:16.306188, 1.52981
2022-12-15 15:35:16.339251, 1.52492
2022-12-15 15:35:16.339601, 1.54447
2022-12-15 15:35:16.373008, 1.51515
2022-12-15 15:35:16.373008, 1.52003
2022-12-15 15:35:16.374008, 1.51026
2022-12-15 15:35:16.406547, 1.50048
2022-12-15 15:35:16.406843, 1.50537
2022-12-15 15:35:16.407311, 1.50048
2022-12-15 15:35:16.439970, 1.49560
2022-12-15 15:35:16.440410, 1.52003
2022-12-15 15:35:16.472256, 1.50537
2022-12-15 15:35:16.473276, 1.53470
2022-12-15 15:35:16.473609, 1.57869
2022-12-15 15:35:16.507160, 1.61290
2022-12-15 15:35:16.507516, 1.67644
2022-12-15 15:35:16.508050, 1.75464
2022-12-15 15:35:16.540430, 1.79863
2022-12-15 15:35:16.540777, 1.83284
2022-12-15 15:35:16.574325, 1.86705
2022-12-15 15:35:16.574325, 1.89638
2022-12-15 15:35:16.575326, 1.94037
2022-12-15 15:35:16.607412, 1.89638
2022-12-15 15:35:16.608076, 1.89149
2022-12-15 15:35:16.608076, 1.91104
2022-12-15 15:35:16.641411, 1.87683
2022-12-15 15:35:16.641758, 1.85728
2022-12-15 15:35:16.674744, 1.85239
2022-12-15 15:35:16.674987, 1.84261
2022-12-15 15:35:16.675988, 1.83773
2022-12-15 15:35:16.708069, 1.84750
2022-12-15 15:35:16.708367, 1.80840
2022-12-15 15:35:16.708884, 1.80351
2022-12-15 15:35:16.741619, 1.79863
2022-12-15 15:35:16.741967, 1.78396
2022-12-15 15:35:16.775041, 1.76930
2022-12-15 15:35:16.776072, 1.76930
2022-12-15 15:35:16.776072, 1.77419
2022-12-15 15:35:16.808725, 1.78396
2022-12-15 15:35:16.809048, 1.75953
2022-12-15 15:35:16.809048, 1.75953
2022-12-15 15:35:16.842219, 1.76441
2022-12-15 15:35:16.842565, 1.75953
2022-12-15 15:35:16.875734, 1.75464
2022-12-15 15:35:16.875734, 1.75464
2022-12-15 15:35:16.876734, 1.78396
2022-12-15 15:35:16.909326, 1.75464
2022-12-15 15:35:16.909620, 1.73509
2022-12-15 15:35:16.910148, 1.73020
2022-12-15 15:35:16.942551, 1.72531
2022-12-15 15:35:16.942551, 1.71065
2022-12-15 15:35:16.976574, 1.69599
2022-12-15 15:35:16.976857, 1.68621
2022-12-15 15:35:16.976857, 1.68132
2022-12-15 15:35:17.009915, 1.67155
2022-12-15 15:35:17.009915, 1.65200
2022-12-15 15:35:17.010798, 1.64222
2022-12-15 15:35:17.043210, 1.64222
2022-12-15 15:35:17.044239, 1.63245
2022-12-15 15:35:17.075550, 1.61779
2022-12-15 15:35:17.076632, 1.60801
2022-12-15 15:35:17.076632, 1.60801
2022-12-15 15:35:17.110688, 1.60312
2022-12-15 15:35:17.110688, 1.58357
2022-12-15 15:35:17.111690, 1.57869
2022-12-15 15:35:17.144189, 1.58357
2022-12-15 15:35:17.144746, 1.60801
2022-12-15 15:35:17.177534, 1.56891
2022-12-15 15:35:17.177534, 1.56402
2022-12-15 15:35:17.178534, 1.57380
2022-12-15 15:35:17.210954, 1.56891
2022-12-15 15:35:17.211399, 1.55425
2022-12-15 15:35:17.212033, 1.55913
2022-12-15 15:35:17.244589, 1.55425
2022-12-15 15:35:17.245603, 1.55913
2022-12-15 15:35:17.278168, 1.54447
2022-12-15 15:35:17.278502, 1.53958
2022-12-15 15:35:17.278502, 1.54447
2022-12-15 15:35:17.311397, 1.54447
2022-12-15 15:35:17.311942, 1.55425
2022-12-15 15:35:17.312503, 1.52492
2022-12-15 15:35:17.344956, 1.52492
2022-12-15 15:35:17.345432, 1.54936
2022-12-15 15:35:17.378859, 1.51515
2022-12-15 15:35:17.378859, 1.51026
2022-12-15 15:35:17.379890, 1.52003
2022-12-15 15:35:17.412249, 1.51515
2022-12-15 15:35:17.412249, 1.50537
2022-12-15 15:35:17.413297, 1.52492
2022-12-15 15:35:17.444973, 1.50048
2022-12-15 15:35:17.445982, 1.51026
2022-12-15 15:35:17.478383, 1.52981
2022-12-15 15:35:17.479392, 1.52981
2022-12-15 15:35:17.479392, 1.56891
2022-12-15 15:35:17.512597, 1.64222
2022-12-15 15:35:17.512597, 1.68621
2022-12-15 15:35:17.513605, 1.74486
2022-12-15 15:35:17.545774, 1.80840
2022-12-15 15:35:17.546187, 1.87194
2022-12-15 15:35:17.580096, 1.90615
2022-12-15 15:35:17.580096, 1.93059
2022-12-15 15:35:17.581096, 1.94037
2022-12-15 15:35:17.613315, 1.95014
2022-12-15 15:35:17.613663, 1.94525
2022-12-15 15:35:17.614184, 1.92570
2022-12-15 15:35:17.646501, 1.91104
2022-12-15 15:35:17.646501, 1.90615
2022-12-15 15:35:17.680577, 1.89149
2022-12-15 15:35:17.680577, 1.88660
2022-12-15 15:35:17.681467, 1.86217
2022-12-15 15:35:17.714165, 1.85728
2022-12-15 15:35:17.714165, 1.85239
2022-12-15 15:35:17.715168, 1.82795
2022-12-15 15:35:17.747191, 1.81818
2022-12-15 15:35:17.747191, 1.81329
2022-12-15 15:35:17.780561, 1.80351
2022-12-15 15:35:17.780561, 1.78396
2022-12-15 15:35:17.781566, 1.77419
2022-12-15 15:35:17.813872, 1.77908
2022-12-15 15:35:17.813872, 1.80840
2022-12-15 15:35:17.814906, 1.78396
2022-12-15 15:35:17.847879, 1.77908
2022-12-15 15:35:17.848080, 1.77908
2022-12-15 15:35:17.881688, 1.76930
2022-12-15 15:35:17.881933, 1.75953
2022-12-15 15:35:17.881933, 1.75464
2022-12-15 15:35:17.915097, 1.75464
2022-12-15 15:35:17.915394, 1.74975
2022-12-15 15:35:17.915922, 1.73020
2022-12-15 15:35:17.948759, 1.72043
2022-12-15 15:35:17.949106, 1.71065
2022-12-15 15:35:17.982338, 1.71554
2022-12-15 15:35:17.982581, 1.67644
2022-12-15 15:35:17.983108, 1.67155
2022-12-15 15:35:18.015725, 1.65689
2022-12-15 15:35:18.016026, 1.65200
2022-12-15 15:35:18.016493, 1.64711
2022-12-15 15:35:18.049381, 1.62267
2022-12-15 15:35:18.049726, 1.61779
2022-12-15 15:35:18.082818, 1.61779
2022-12-15 15:35:18.083061, 1.59335
2022-12-15 15:35:18.083523, 1.58357
2022-12-15 15:35:18.116391, 1.57869
2022-12-15 15:35:18.116391, 1.57869
2022-12-15 15:35:18.117392, 1.56402
2022-12-15 15:35:18.149810, 1.55913
2022-12-15 15:35:18.150494, 1.55425
2022-12-15 15:35:18.183361, 1.55913
2022-12-15 15:35:18.184364, 1.54447
2022-12-15 15:35:18.184364, 1.56402
2022-12-15 15:35:18.217237, 1.53958
2022-12-15 15:35:18.217531, 1.54447
2022-12-15 15:35:18.218061, 1.53958
2022-12-15 15:35:18.250653, 1.52003
2022-12-15 15:35:18.251001, 1.52003
2022-12-15 15:35:18.284186, 1.52981
2022-12-15 15:35:18.284186, 1.53958
2022-12-15 15:35:18.285174, 1.51026
2022-12-15 15:35:18.317701, 1.51026
2022-12-15 15:35:18.317996, 1.53958
2022-12-15 15:35:18.318505, 1.50537
2022-12-15 15:35:18.351115, 1.49560
2022-12-15 15:35:18.351707, 1.50048
2022-12-15 15:35:18.384650, 1.52492
2022-12-15 15:35:18.384999, 1.49071
2022-12-15 15:35:18.384999, 1.48582
2022-12-15 15:35:18.418293, 1.48582
2022-12-15 15:35:18.418631, 1.48582
2022-12-15 15:35:18.418631, 1.48093
2022-12-15 15:35:18.451708, 1.47116
2022-12-15 15:35:18.451708, 1.47116
2022-12-15 15:35:18.484268, 1.48582
2022-12-15 15:35:18.485291, 1.51515
2022-12-15 15:35:18.485291, 1.53958
2022-12-15 15:35:18.518305, 1.59824
2022-12-15 15:35:18.518585, 1.67644
2022-12-15 15:35:18.518989, 1.73509
2022-12-15 15:35:18.552409, 1.78396
2022-12-15 15:35:18.552761, 1.84750
2022-12-15 15:35:18.585592, 1.89149
2022-12-15 15:35:18.585592, 1.91104
2022-12-15 15:35:18.586598, 1.91104
2022-12-15 15:35:18.619480, 1.90615
2022-12-15 15:35:18.619775, 1.90127
2022-12-15 15:35:18.620283, 1.91104
2022-12-15 15:35:18.652901, 1.86705
2022-12-15 15:35:18.653249, 1.84750
2022-12-15 15:35:18.685951, 1.83284
2022-12-15 15:35:18.686337, 1.82306
2022-12-15 15:35:18.686337, 1.79374
2022-12-15 15:35:18.720371, 1.79374
2022-12-15 15:35:18.720666, 1.77419
2022-12-15 15:35:18.721201, 1.76441
2022-12-15 15:35:18.753483, 1.74486
2022-12-15 15:35:18.753829, 1.74486
2022-12-15 15:35:18.786610, 1.72531
2022-12-15 15:35:18.786610, 1.72531
2022-12-15 15:35:18.787611, 1.71065
2022-12-15 15:35:18.820583, 1.70576
2022-12-15 15:35:18.821589, 1.71065
2022-12-15 15:35:18.821589, 1.72531
2022-12-15 15:35:18.854121, 1.72043
2022-12-15 15:35:18.854463, 1.73998
2022-12-15 15:35:18.886981, 1.71554
2022-12-15 15:35:18.887323, 1.72043
2022-12-15 15:35:18.887887, 1.71065
2022-12-15 15:35:18.921204, 1.70087
2022-12-15 15:35:18.921496, 1.69599
2022-12-15 15:35:18.922022, 1.69110
2022-12-15 15:35:18.954758, 1.67644
2022-12-15 15:35:18.954758, 1.67644
2022-12-15 15:35:18.987794, 1.65200
2022-12-15 15:35:18.988034, 1.66666
2022-12-15 15:35:18.988495, 1.62756
2022-12-15 15:35:19.021801, 1.62267
2022-12-15 15:35:19.022095, 1.60312
2022-12-15 15:35:19.022602, 1.59335
2022-12-15 15:35:19.055511, 1.58357
2022-12-15 15:35:19.055856, 1.56891
2022-12-15 15:35:19.088722, 1.56402
2022-12-15 15:35:19.088967, 1.57380
2022-12-15 15:35:19.089497, 1.55425
2022-12-15 15:35:19.122534, 1.54447
2022-12-15 15:35:19.122534, 1.56891
2022-12-15 15:35:19.123535, 1.53958
2022-12-15 15:35:19.155863, 1.53470
2022-12-15 15:35:19.155863, 1.53958
2022-12-15 15:35:19.189496, 1.52492
2022-12-15 15:35:19.190315, 1.52492
2022-12-15 15:35:19.190315, 1.55425
2022-12-15 15:35:19.221710, 1.52003
2022-12-15 15:35:19.222717, 1.52003
2022-12-15 15:35:19.223213, 1.52003
2022-12-15 15:35:19.255926, 1.52492
2022-12-15 15:35:19.255926, 1.51515
2022-12-15 15:35:19.289578, 1.51515
2022-12-15 15:35:19.289940, 1.51515
2022-12-15 15:35:19.289940, 1.52003
2022-12-15 15:35:19.323609, 1.50048
2022-12-15 15:35:19.323905, 1.50048
2022-12-15 15:35:19.324418, 1.52003
2022-12-15 15:35:19.356044, 1.50048
2022-12-15 15:35:19.357045, 1.49071
2022-12-15 15:35:19.389939, 1.49560
2022-12-15 15:35:19.390291, 1.50048
2022-12-15 15:35:19.390291, 1.52003
2022-12-15 15:35:19.424306, 1.54447
2022-12-15 15:35:19.424600, 1.59335
2022-12-15 15:35:19.425064, 1.65689
2022-12-15 15:35:19.457857, 1.73020
2022-12-15 15:35:19.458206, 1.78396
2022-12-15 15:35:19.491143, 1.84261
2022-12-15 15:35:19.491389, 1.89638
2022-12-15 15:35:19.491852, 1.95014
2022-12-15 15:35:19.524803, 1.94037
2022-12-15 15:35:19.524803, 1.94037
2022-12-15 15:35:19.525805, 1.93548
2022-12-15 15:35:19.558454, 1.93548
2022-12-15 15:35:19.559417, 1.90615
2022-12-15 15:35:19.590760, 1.88172
2022-12-15 15:35:19.591768, 1.89149
2022-12-15 15:35:19.592036, 1.85239
2022-12-15 15:35:19.625334, 1.82795
2022-12-15 15:35:19.625626, 1.82795
2022-12-15 15:35:19.626155, 1.79863
2022-12-15 15:35:19.658439, 1.78885
2022-12-15 15:35:19.658439, 1.76930
2022-12-15 15:35:19.691938, 1.75464
2022-12-15 15:35:19.691938, 1.73998
2022-12-15 15:35:19.691938, 1.73998
2022-12-15 15:35:19.724850, 1.72531
2022-12-15 15:35:19.725848, 1.71065
2022-12-15 15:35:19.725848, 1.74486
2022-12-15 15:35:19.759281, 1.72531
2022-12-15 15:35:19.759630, 1.72043
2022-12-15 15:35:19.792934, 1.71554
2022-12-15 15:35:19.792934, 1.73509
2022-12-15 15:35:19.793760, 1.72043
2022-12-15 15:35:19.826418, 1.72043
2022-12-15 15:35:19.826716, 1.70087
2022-12-15 15:35:19.827248, 1.70087
2022-12-15 15:35:19.860142, 1.69599
2022-12-15 15:35:19.860521, 1.68132
2022-12-15 15:35:19.893492, 1.66177
2022-12-15 15:35:19.894523, 1.65200
2022-12-15 15:35:19.894677, 1.64222
2022-12-15 15:35:19.927033, 1.62756
2022-12-15 15:35:19.927327, 1.60312
2022-12-15 15:35:19.927857, 1.59335
2022-12-15 15:35:19.960679, 1.59335
2022-12-15 15:35:19.961025, 1.58357
2022-12-15 15:35:19.994161, 1.55913
2022-12-15 15:35:19.994404, 1.55425
2022-12-15 15:35:19.994404, 1.55425
2022-12-15 15:35:20.027538, 1.56891
2022-12-15 15:35:20.027839, 1.52981
2022-12-15 15:35:20.027839, 1.52981
2022-12-15 15:35:20.061228, 1.52492
2022-12-15 15:35:20.061228, 1.52492
2022-12-15 15:35:20.094937, 1.51026
2022-12-15 15:35:20.094937, 1.52003
2022-12-15 15:35:20.095938, 1.51515
2022-12-15 15:35:20.128414, 1.52003
2022-12-15 15:35:20.128414, 1.50537
2022-12-15 15:35:20.129207, 1.52981
2022-12-15 15:35:20.161847, 1.50537
2022-12-15 15:35:20.161847, 1.51026
2022-12-15 15:35:20.195285, 1.50048
2022-12-15 15:35:20.195863, 1.49560
2022-12-15 15:35:20.196223, 1.50048
2022-12-15 15:35:20.228339, 1.50537
2022-12-15 15:35:20.229066, 1.51026
2022-12-15 15:35:20.229066, 1.49071
2022-12-15 15:35:20.261294, 1.48582
2022-12-15 15:35:20.262321, 1.49560
2022-12-15 15:35:20.295298, 1.47605
2022-12-15 15:35:20.295857, 1.47116
2022-12-15 15:35:20.295857, 1.47605
2022-12-15 15:35:20.329469, 1.47605
2022-12-15 15:35:20.329469, 1.46627
2022-12-15 15:35:20.330519, 1.47116
2022-12-15 15:35:20.363016, 1.49560
2022-12-15 15:35:20.363016, 1.54447
2022-12-15 15:35:20.396484, 1.58846
2022-12-15 15:35:20.396789, 1.67155
2022-12-15 15:35:20.396789, 1.73998
2022-12-15 15:35:20.429423, 1.82795
2022-12-15 15:35:20.429793, 1.90615
2022-12-15 15:35:20.429793, 1.95014
2022-12-15 15:35:20.463415, 1.95992
2022-12-15 15:35:20.463820, 1.98435
2022-12-15 15:35:20.496503, 1.99413
2022-12-15 15:35:20.496813, 1.96969
2022-12-15 15:35:20.496813, 1.95014
2022-12-15 15:35:20.530751, 1.95014
2022-12-15 15:35:20.530751, 1.92082
2022-12-15 15:35:20.531701, 1.89149
2022-12-15 15:35:20.563859, 1.88172
2022-12-15 15:35:20.563986, 1.87194
2022-12-15 15:35:20.597588, 1.85728
2022-12-15 15:35:20.597588, 1.83773
2022-12-15 15:35:20.598622, 1.83284
2022-12-15 15:35:20.631331, 1.81329
2022-12-15 15:35:20.631627, 1.79863
2022-12-15 15:35:20.632139, 1.77419
2022-12-15 15:35:20.664974, 1.75953
2022-12-15 15:35:20.665318, 1.75953
2022-12-15 15:35:20.698360, 1.75464
2022-12-15 15:35:20.698604, 1.73998
2022-12-15 15:35:20.699117, 1.73998
2022-12-15 15:35:20.731714, 1.73998
2022-12-15 15:35:20.732016, 1.74486
2022-12-15 15:35:20.732480, 1.73509
2022-12-15 15:35:20.765336, 1.73020
2022-12-15 15:35:20.765683, 1.74486
2022-12-15 15:35:20.798783, 1.73020
2022-12-15 15:35:20.799028, 1.71554
2022-12-15 15:35:20.799498, 1.70087
2022-12-15 15:35:20.832318, 1.69110
2022-12-15 15:35:20.832318, 1.71554
2022-12-15 15:35:20.833320, 1.66177
2022-12-15 15:35:20.865922, 1.65689
2022-12-15 15:35:20.865922, 1.64222
2022-12-15 15:35:20.898678, 1.63734
2022-12-15 15:35:20.898678, 1.61779
2022-12-15 15:35:20.899671, 1.59824
2022-12-15 15:35:20.933069, 1.59335
2022-12-15 15:35:20.933363, 1.59335
2022-12-15 15:35:20.933898, 1.56891
2022-12-15 15:35:20.966607, 1.56402
2022-12-15 15:35:20.966956, 1.55913
2022-12-15 15:35:21.000142, 1.55913
2022-12-15 15:35:21.000387, 1.54447
2022-12-15 15:35:21.000920, 1.53470
2022-12-15 15:35:21.033691, 1.53958
2022-12-15 15:35:21.033989, 1.57380
2022-12-15 15:35:21.034454, 1.53470
2022-12-15 15:35:21.067401, 1.52981
2022-12-15 15:35:21.067751, 1.54447
2022-12-15 15:35:21.100724, 1.52981
2022-12-15 15:35:21.100972, 1.52003
2022-12-15 15:35:21.101433, 1.52003
2022-12-15 15:35:21.134323, 1.52003
2022-12-15 15:35:21.134732, 1.52003
2022-12-15 15:35:21.135311, 1.51515
2022-12-15 15:35:21.167792, 1.50537
2022-12-15 15:35:21.168139, 1.51026
2022-12-15 15:35:21.201450, 1.52492
2022-12-15 15:35:21.202454, 1.51026
2022-12-15 15:35:21.202454, 1.50048
2022-12-15 15:35:21.234736, 1.50537
2022-12-15 15:35:21.235032, 1.50537
2022-12-15 15:35:21.235032, 1.50048
2022-12-15 15:35:21.268329, 1.49071
2022-12-15 15:35:21.268675, 1.48582
2022-12-15 15:35:21.301919, 1.49071
2022-12-15 15:35:21.302165, 1.49071
2022-12-15 15:35:21.302698, 1.47605
2022-12-15 15:35:21.335552, 1.48093
2022-12-15 15:35:21.335898, 1.49560
2022-12-15 15:35:21.336412, 1.54447
2022-12-15 15:35:21.369108, 1.55913
2022-12-15 15:35:21.369484, 1.61779
2022-12-15 15:35:21.402441, 1.70576
2022-12-15 15:35:21.402689, 1.78885
2022-12-15 15:35:21.403155, 1.85239
2022-12-15 15:35:21.436022, 1.92570
2022-12-15 15:35:21.436350, 1.97947
2022-12-15 15:35:21.436931, 2.01368
2022-12-15 15:35:21.469561, 2.00879
2022-12-15 15:35:21.469561, 2.00879
2022-12-15 15:35:21.503053, 1.99902
2022-12-15 15:35:21.503053, 2.00879
2022-12-15 15:35:21.504060, 1.94525
2022-12-15 15:35:21.536154, 1.92082
2022-12-15 15:35:21.537180, 1.91104
2022-12-15 15:35:21.537180, 1.89149
2022-12-15 15:35:21.569745, 1.86217
2022-12-15 15:35:21.570094, 1.85239
2022-12-15 15:35:21.603663, 1.84750
2022-12-15 15:35:21.603906, 1.83284
2022-12-15 15:35:21.603906, 1.80351
2022-12-15 15:35:21.637438, 1.78396
2022-12-15 15:35:21.637733, 1.77419
2022-12-15 15:35:21.638266, 1.76441
2022-12-15 15:35:21.670833, 1.74486
2022-12-15 15:35:21.671176, 1.73998
2022-12-15 15:35:21.704496, 1.73509
2022-12-15 15:35:21.704738, 1.73998
2022-12-15 15:35:21.705264, 1.73020
2022-12-15 15:35:21.737849, 1.73020
2022-12-15 15:35:21.738141, 1.73509
2022-12-15 15:35:21.738605, 1.73509
2022-12-15 15:35:21.771508, 1.72531
2022-12-15 15:35:21.771856, 1.71065
2022-12-15 15:35:21.804846, 1.70576
2022-12-15 15:35:21.805086, 1.71554
2022-12-15 15:35:21.805086, 1.68621
2022-12-15 15:35:21.838266, 1.66666
2022-12-15 15:35:21.838942, 1.68621
2022-12-15 15:35:21.838942, 1.64711
2022-12-15 15:35:21.870827, 1.63245
2022-12-15 15:35:21.871875, 1.62267
2022-12-15 15:35:21.904764, 1.59824
2022-12-15 15:35:21.904764, 1.59824
2022-12-15 15:35:21.905611, 1.58846
2022-12-15 15:35:21.938953, 1.55913
2022-12-15 15:35:21.939279, 1.55425
2022-12-15 15:35:21.939860, 1.56402
2022-12-15 15:35:21.972671, 1.54447
2022-12-15 15:35:21.973056, 1.52981
2022-12-15 15:35:22.006145, 1.52492
2022-12-15 15:35:22.006392, 1.53958
2022-12-15 15:35:22.006923, 1.52981
2022-12-15 15:35:22.039665, 1.52003
2022-12-15 15:35:22.039962, 1.52003
2022-12-15 15:35:22.040421, 1.52003
2022-12-15 15:35:22.073478, 1.52003
2022-12-15 15:35:22.073826, 1.51515
2022-12-15 15:35:22.106753, 1.53470
2022-12-15 15:35:22.106996, 1.51026
2022-12-15 15:35:22.107455, 1.51026
2022-12-15 15:35:22.140530, 1.50048
2022-12-15 15:35:22.140530, 1.50048
2022-12-15 15:35:22.141531, 1.50537
2022-12-15 15:35:22.173583, 1.51026
2022-12-15 15:35:22.173583, 1.49071
2022-12-15 15:35:22.206078, 1.49071
2022-12-15 15:35:22.207088, 1.50048
2022-12-15 15:35:22.207088, 1.49560
2022-12-15 15:35:22.240747, 1.48582
2022-12-15 15:35:22.241072, 1.49560
2022-12-15 15:35:22.241663, 1.48093
2022-12-15 15:35:22.273446, 1.48093
2022-12-15 15:35:22.274408, 1.46627
2022-12-15 15:35:22.307792, 1.49560
2022-12-15 15:35:22.308035, 1.46627
2022-12-15 15:35:22.308552, 1.47116
2022-12-15 15:35:22.341348, 1.48093
2022-12-15 15:35:22.341737, 1.50048
2022-12-15 15:35:22.342317, 1.55425
2022-12-15 15:35:22.374947, 1.63245
2022-12-15 15:35:22.375335, 1.70087
2022-12-15 15:35:22.408419, 1.77908
2022-12-15 15:35:22.408419, 1.88172
2022-12-15 15:35:22.409421, 1.93059
2022-12-15 15:35:22.442111, 1.96480
2022-12-15 15:35:22.442419, 2.00879
2022-12-15 15:35:22.442965, 1.98924
2022-12-15 15:35:22.475329, 1.98924
2022-12-15 15:35:22.475329, 1.96969
2022-12-15 15:35:22.509025, 1.93548
2022-12-15 15:35:22.509025, 1.91104
2022-12-15 15:35:22.509880, 1.89638
2022-12-15 15:35:22.542540, 1.86705
2022-12-15 15:35:22.543547, 1.86217
2022-12-15 15:35:22.543547, 1.81818
2022-12-15 15:35:22.575711, 1.81818
2022-12-15 15:35:22.575711, 1.78885
2022-12-15 15:35:22.609331, 1.76441
2022-12-15 15:35:22.609331, 1.74486
2022-12-15 15:35:22.610169, 1.73998
2022-12-15 15:35:22.642583, 1.72531
2022-12-15 15:35:22.642583, 1.71065
2022-12-15 15:35:22.643587, 1.71065
2022-12-15 15:35:22.676298, 1.72043
2022-12-15 15:35:22.676298, 1.73020
2022-12-15 15:35:22.710095, 1.71554
2022-12-15 15:35:22.710340, 1.72531
2022-12-15 15:35:22.710876, 1.73509
2022-12-15 15:35:22.743776, 1.73020
2022-12-15 15:35:22.743776, 1.71554
2022-12-15 15:35:22.744778, 1.72043
2022-12-15 15:35:22.777118, 1.72531
2022-12-15 15:35:22.777467, 1.70576
2022-12-15 15:35:22.810935, 1.68132
2022-12-15 15:35:22.811181, 1.68621
2022-12-15 15:35:22.811712, 1.66666
2022-12-15 15:35:22.844196, 1.65689
2022-12-15 15:35:22.844522, 1.64711
2022-12-15 15:35:22.845124, 1.62267
2022-12-15 15:35:22.877819, 1.61779
2022-12-15 15:35:22.878167, 1.61290
2022-12-15 15:35:22.911171, 1.58846
2022-12-15 15:35:22.911412, 1.57869
2022-12-15 15:35:22.911412, 1.57380
2022-12-15 15:35:22.944814, 1.58846
2022-12-15 15:35:22.944814, 1.54936
2022-12-15 15:35:22.945785, 1.54447
2022-12-15 15:35:22.977107, 1.54936
2022-12-15 15:35:22.978246, 1.54936
2022-12-15 15:35:23.011978, 1.53470
2022-12-15 15:35:23.011978, 1.53958
2022-12-15 15:35:23.012979, 1.56402
2022-12-15 15:35:23.045526, 1.53958
2022-12-15 15:35:23.045831, 1.53470
2022-12-15 15:35:23.045831, 1.52981
2022-12-15 15:35:23.079196, 1.52981
2022-12-15 15:35:23.079707, 1.53958
2022-12-15 15:35:23.112388, 1.55913
2022-12-15 15:35:23.112388, 1.52492
2022-12-15 15:35:23.113389, 1.52492
2022-12-15 15:35:23.146274, 1.53958
2022-12-15 15:35:23.146274, 1.52003
2022-12-15 15:35:23.147233, 1.51515
2022-12-15 15:35:23.179566, 1.52003
2022-12-15 15:35:23.179566, 1.51515
2022-12-15 15:35:23.212284, 1.50048
2022-12-15 15:35:23.213250, 1.52003
2022-12-15 15:35:23.213250, 1.49560
2022-12-15 15:35:23.246858, 1.50537
2022-12-15 15:35:23.246858, 1.53470
2022-12-15 15:35:23.247579, 1.51515
2022-12-15 15:35:23.280396, 1.55425
2022-12-15 15:35:23.280396, 1.65200
2022-12-15 15:35:23.313304, 1.69110
2022-12-15 15:35:23.313304, 1.76441
2022-12-15 15:35:23.314423, 1.85239
2022-12-15 15:35:23.346524, 1.93059
2022-12-15 15:35:23.346524, 1.98435
2022-12-15 15:35:23.347521, 2.00879
2022-12-15 15:35:23.380529, 2.05278
2022-12-15 15:35:23.380980, 2.03323
2022-12-15 15:35:23.413859, 2.01368
2022-12-15 15:35:23.413859, 1.98435
2022-12-15 15:35:23.414857, 1.95992
2022-12-15 15:35:23.447651, 1.96480
2022-12-15 15:35:23.447989, 1.91593
2022-12-15 15:35:23.447989, 1.88172
2022-12-15 15:35:23.480926, 1.86217
2022-12-15 15:35:23.481274, 1.85728
2022-12-15 15:35:23.514866, 1.83773
2022-12-15 15:35:23.515111, 1.80840
2022-12-15 15:35:23.515572, 1.79374
2022-12-15 15:35:23.548323, 1.77908
2022-12-15 15:35:23.548620, 1.79374
2022-12-15 15:35:23.549154, 1.73998
2022-12-15 15:35:23.582162, 1.73020
2022-12-15 15:35:23.582162, 1.72531
2022-12-15 15:35:23.615383, 1.72531
2022-12-15 15:35:23.615383, 1.71554
2022-12-15 15:35:23.616386, 1.71554
2022-12-15 15:35:23.648754, 1.72043
2022-12-15 15:35:23.649459, 1.74486
2022-12-15 15:35:23.650051, 1.70576
2022-12-15 15:35:23.682791, 1.70087
2022-12-15 15:35:23.683139, 1.72531
2022-12-15 15:35:23.716333, 1.69599
2022-12-15 15:35:23.716575, 1.68132
2022-12-15 15:35:23.717104, 1.68621
2022-12-15 15:35:23.749623, 1.65689
2022-12-15 15:35:23.749919, 1.65200
2022-12-15 15:35:23.749919, 1.62756
2022-12-15 15:35:23.783423, 1.61290
2022-12-15 15:35:23.783769, 1.60312
2022-12-15 15:35:23.816885, 1.61290
2022-12-15 15:35:23.817130, 1.57380
2022-12-15 15:35:23.817595, 1.56402
2022-12-15 15:35:23.850134, 1.56402
2022-12-15 15:35:23.850432, 1.55425
2022-12-15 15:35:23.850432, 1.53470
2022-12-15 15:35:23.883832, 1.52981
2022-12-15 15:35:23.884181, 1.52492
2022-12-15 15:35:23.917258, 1.52492
2022-12-15 15:35:23.917504, 1.52003
2022-12-15 15:35:23.917504, 1.53470
2022-12-15 15:35:23.950943, 1.51026
2022-12-15 15:35:23.950943, 1.51515
2022-12-15 15:35:23.952001, 1.51515
2022-12-15 15:35:23.984260, 1.50537
2022-12-15 15:35:23.984606, 1.51026
2022-12-15 15:35:24.017918, 1.51026
2022-12-15 15:35:24.018160, 1.52492
2022-12-15 15:35:24.018673, 1.50048
2022-12-15 15:35:24.051408, 1.50048
2022-12-15 15:35:24.051708, 1.50537
2022-12-15 15:35:24.052236, 1.50048
2022-12-15 15:35:24.085237, 1.49071
2022-12-15 15:35:24.085584, 1.49071
2022-12-15 15:35:24.118414, 1.49560
2022-12-15 15:35:24.118658, 1.48582
2022-12-15 15:35:24.119122, 1.48093
2022-12-15 15:35:24.151980, 1.47605
2022-12-15 15:35:24.152304, 1.48093
2022-12-15 15:35:24.152902, 1.49560
2022-12-15 15:35:24.185545, 1.46627
2022-12-15 15:35:24.185892, 1.46627
2022-12-15 15:35:24.219276, 1.49071
2022-12-15 15:35:24.219633, 1.46138
2022-12-15 15:35:24.220162, 1.45161
2022-12-15 15:35:24.252594, 1.45650
2022-12-15 15:35:24.252594, 1.46627
2022-12-15 15:35:24.253597, 1.48093
2022-12-15 15:35:24.285513, 1.51026
2022-12-15 15:35:24.286521, 1.56402
2022-12-15 15:35:24.319640, 1.64711
2022-12-15 15:35:24.319884, 1.74975
2022-12-15 15:35:24.320402, 1.82795
2022-12-15 15:35:24.353218, 1.90615
2022-12-15 15:35:24.353517, 1.97947
2022-12-15 15:35:24.354044, 2.02346
2022-12-15 15:35:24.386755, 2.02834
2022-12-15 15:35:24.387099, 2.03323
2022-12-15 15:35:24.420264, 2.02834
2022-12-15 15:35:24.420502, 2.01368
2022-12-15 15:35:24.421032, 1.96969
2022-12-15 15:35:24.453926, 1.96969
2022-12-15 15:35:24.454218, 1.92082
2022-12-15 15:35:24.454680, 1.90127
2022-12-15 15:35:24.487319, 1.87683
2022-12-15 15:35:24.487665, 1.85728
2022-12-15 15:35:24.520847, 1.84750
2022-12-15 15:35:24.520847, 1.84261
2022-12-15 15:35:24.521849, 1.81329
2022-12-15 15:35:24.554333, 1.78885
2022-12-15 15:35:24.554333, 1.77419
2022-12-15 15:35:24.555364, 1.76441
2022-12-15 15:35:24.587680, 1.74486
2022-12-15 15:35:24.587680, 1.73509
2022-12-15 15:35:24.621343, 1.72531
2022-12-15 15:35:24.621584, 1.73020
2022-12-15 15:35:24.622117, 1.72043
2022-12-15 15:35:24.655228, 1.71554
2022-12-15 15:35:24.655522, 1.72043
2022-12-15 15:35:24.655522, 1.72531
2022-12-15 15:35:24.688462, 1.71554
2022-12-15 15:35:24.688811, 1.70087
2022-12-15 15:35:24.722370, 1.69599
2022-12-15 15:35:24.722612, 1.70087
2022-12-15 15:35:24.723148, 1.68132
2022-12-15 15:35:24.755603, 1.66666
2022-12-15 15:35:24.755902, 1.65689
2022-12-15 15:35:24.756365, 1.64711
2022-12-15 15:35:24.789450, 1.63245
2022-12-15 15:35:24.789799, 1.61290
2022-12-15 15:35:24.822780, 1.62756
2022-12-15 15:35:24.823025, 1.59335
2022-12-15 15:35:24.823491, 1.57869
