66.59626586918772
65.40142042317834
64.20657497716894
64.82036544600939
66.33525877934272
66.62186022078416
64.87614447174447
64.87614447174447
64.58954303030302
64.58954303030302
62.2589379020979
62.839992879266845
63.97191815946609
64.78762995433789
63.65570467413864
64.26949514297908
64.26949514297908
63.74651700719082
61.22613989451476
61.5127413359562
63.16764475194371
63.94230611558008
62.839992879266845
62.54553934353934
62.81735034832403
63.35400284495021
63.35400284495021
64.51674992097361
64.24493891618891
61.914144061092856
59.95660784449651
61.7023235935362
62.93080521231902
62.67912198447092
60.15874487179486
61.261058108108095
62.586589774774765
62.83827300262287
61.477823122362864
62.05887809953181
61.807194871683706
60.83684989684765
58.68479442585154
61.2051715385276
65.0935829231967
66.11371311399358
63.10838539156142
61.84522239771587
61.0705610340795
60.16832734151002
57.314932364341075
58.36140473276213
60.258408906882586
60.95974841305542
61.81986268846998
61.81986268846998
61.118523182297146
58.49327479147358
59.02992728809976
59.491785011676996
59.725496148908846
57.50943701578191
59.31991929220467
60.31468977375565
60.5374682051282
58.2651282051282
59.080839999999995
60.5374682051282
61.735959766309634
59.691766352655016
59.95660784449651
60.21474448844328
60.44845562567513
58.95513251505081
60.351899287091555
61.61151126048402
62.581856235320075
62.581856235320075
63.71378151551932
62.97714767791512
61.0705610340795
61.0705610340795
62.33017300747197
62.33017300747197
62.6328058080808
64.69856944444444
66.31070255255256
64.61130297990297
63.67746462373859
61.34666976864253
58.82621197549934
55.972816998330394
58.30361185342645
61.639781441441436
62.34112094761427
60.48351901234567
60.77012045378711
61.525409152742476
61.28592737014687
59.67379426203876
61.37319383468834
64.06736388888888
64.84202525252525
61.685997474747474
61.088911138411135
60.56593300262287
61.267272508795706
59.4096705735271
60.77012045378711
61.267272508795706
61.764424563804305
62.05887809953181
63.41932797979182
64.49317641861037
64.19872288288288
64.49317641861037
64.21411712036476
63.11180388405153
63.414436684660366
63.98009742434742
64.79580921921922
62.83827300262287
61.735959766309634
62.93080521231902
64.88834142891537
66.2851082009561
65.09026275494672
65.40142042317834
67.00359407346036
66.18788227858857
62.72069683257918
58.72698592870543
82.51857994579944
105.4413080159749
106.70091998936735
82.15403727331797
60.95277890011223
63.34786717415702
65.20546910942562
63.94585713603316
60.05744575136405
59.77084430992261
60.01032609251821
60.24403722975006
60.82509220691901
61.84522239771587
62.33017300747197
60.67526959148446
61.807194871683706
62.31701474347858
62.31701474347858
60.16495927248247
61.56172604452321
62.63557448334178
63.390863182297146
61.735959766309634
62.619647544087414
63.156300040713596
62.419666203109394
59.96497793150445
60.530638671191504
64.18533891862876
66.04294085389736
65.20546910942562
64.24493891618891
64.53939245191643
64.01641431612816
61.56172604452321
61.56172604452321
62.084704180311476
62.084704180311476
60.429800764323964
61.56172604452321
62.85366724010476
62.85366724010476
60.947080596269146
61.807194871683706
62.60198401225666
63.37664537589303
61.721741959905515
63.19564670416052
64.32757198435976
65.68802186461977
64.77977786005182
66.04294085389736
67.27123274578926
67.27123274578926
65.14795547652915
64.82790758920521
65.42499392554154
65.15318292075686
63.14262567987568
63.14262567987568
64.27455096007492
64.27455096007492
62.839992879266845
63.77383123543123
64.58954303030302
64.06656489451476
61.735959766309634
62.619647544087414
64.27455096007492
64.53939245191643
62.581856235320075
62.88448903592891
64.31904711673698
65.67949699699699
64.51674992097361
65.47728011421032
67.37390730021984
67.65296659846547
64.48321696078429
62.88104331050227
62.60198401225666
62.11703340250056
60.21044675866494
61.0705610340795
61.31004281667511
60.59138106968716
60.59138106968716
62.16238156351432
63.132726538350376
60.980671067354265
61.267272508795706
61.267272508795706
60.79407958896825
58.69699587110404
60.65453208770039
61.88301370648321
61.64930256925136
60.76561479147358
61.030456283315075
61.264167420546926
59.45368514412416
60.585610424323406
62.11703340250056
63.648456380677715
62.51653110047847
64.63980836973857
65.80255544576197
66.35342574879226
63.183676111111104
62.02092903508771
61.205217240215916
61.205217240215916
61.77087797990297
62.873191216216206
63.38301108801108
62.81735034832403
63.725594352891974
63.99043584473347
63.45378334810729
61.979878603852285
64.04564224021593
64.5822947368421
63.78750559626915
61.721741959905515
63.51569459148446
64.58954303030302
64.58954303030302
63.07464969696969
64.26949514297908
66.33525877934272
66.05619948109711
63.05087175866495
62.11703340250056
62.11703340250056
62.356515185096164
60.95974841305542
62.433653157310424
64.58570862830653
63.830419929351166
61.064573989514614
60.77012045378711
62.06206164936866
60.92034617420357
59.55989629394357
59.55989629394357
64.11683023395031
67.37390730021984
68.23402157563442
65.8389333015896
64.53939245191643
64.53939245191643
64.53939245191643
62.581856235320075
62.88448903592891
63.43535933895921
63.43535933895921
61.735959766309634
62.31701474347858
63.390863182297146
63.390863182297146
61.994096410256404
62.280697851697845
62.54553934353934
62.035719471744464
60.17811753647586
61.61267561728394
62.38733698092031
63.40746717171717
61.7080675990676
63.45378334810729
64.58570862830653
65.68802186461977
64.77977786005182
66.04294085389736
67.27123274578926
67.56568628151676
65.72146831050227
66.38980360461991
67.3236419607843
66.50793016591251
63.77383123543123
62.2589379020979
62.79559039872408
62.530748906882586
63.11180388405153
65.92322218727227
67.31998895931301
64.9284517057213
61.32224426192761
61.62487706253644
62.88448903592891
62.38733698092031
59.69316692671976
60.530638671191504
61.0277907262001
62.022561207751075
62.022561207751075
64.61130297990297
64.61130297990297
63.25085309964297
62.619647544087414
62.10982767229254
61.13948269745649
60.255794919678706
61.030456283315075
61.030456283315075
59.21997400689231
60.05744575136405
62.10163916501867
62.83827300262287
62.00080125815113
63.19564670416052
63.99043584473347
63.99043584473347
63.99043584473347
64.55609658442052
64.55609658442052
63.08219184016552
63.37664537589303
63.37664537589303
63.10483437110834
63.40746717171717
63.95833747474747
63.43535933895921
61.22613989451476
62.10982767229254
62.36796431623931
62.122495489078815
61.81986268846998
62.356515185096164
62.356515185096164
60.70161176910865
61.267272508795706
62.022561207751075
62.022561207751075
61.45690046806402
61.19876382411725
60.000272262935816
58.95379989451476
60.911336111111105
61.61267561728394
62.122495489078815
62.122495489078815
64.88834142891537
64.6302047849686
63.74651700719082
64.06656489451476
64.86135403508771
63.05087175866495
59.96497793150445
60.82509220691901
62.084704180311476
63.65570467413864
64.58954303030302
66.02410111111111
64.69856944444444
62.10982767229254
62.10982767229254
63.156300040713596
63.156300040713596
61.19876382411725
61.764424563804305
62.28740269959257
62.54553934353934
61.18508946327933
62.31701474347858
62.581856235320075
61.61151126048402
60.75139698506946
59.97673562143309
59.0956177707199
59.0956177707199
58.850148943559404
59.50312020792722
57.50983950617283
58.80178070175438
60.79506140350877
61.7418697368421
60.947080596269146
62.10982767229254
63.156300040713596
62.659147985705
60.70161176910865
61.864358845132045
62.10982767229254
61.61267561728394
59.913276044634365
62.433653157310424
64.29125509257904
64.55609658442052
62.54553934353934
63.14262567987568
63.98009742434742
64.24493891618891
63.647852579852575
64.87614447174447
67.27123274578926
67.27123274578926
65.20546910942562
64.55609658442052
64.85055012014803
63.830419929351166
61.31004281667511
61.31004281667511
63.46209828767122
63.46209828767122
60.83684989684765
60.83684989684765
61.08853312469576
61.32224426192761
60.74118928475866
62.10163916501867
63.09640964656964
62.022561207751075
61.45690046806402
61.9935529646902
61.7418697368421
59.97673562143309
59.97673562143309
60.2284188492812
60.46212998651305
59.1701887909315
59.96497793150445
60.95974841305542
60.95974841305542
62.122495489078815
62.93820728395061
63.43535933895921
63.132726538350376
64.01641431612816
64.01641431612816
62.10982767229254
62.42098534052415
64.07588875651166
64.58570862830653
62.839992879266845
63.45378334810729
64.85055012014803
64.85055012014803
63.65570467413864
64.58954303030302
64.86135403508771
63.05087175866495
61.256919127086
63.38019639634611
65.77173364993781
65.23508115331163
62.31701474347858
62.93080521231902
63.74651700719082
62.776172032354765
60.76561479147358
61.34666976864253
61.58038090587438
60.123752700746174
58.991827420546926
60.52325039872408
63.08219184016552
65.14795547652915
68.31908386568387
69.8767003952569
66.55132478550081
61.38691569459172
59.82929916501867
59.14466301006888
58.28392816158403
56.671795053475925
55.63216237373736
55.2304861111111
54.51182436412315
58.04657547523426
59.53713317269076
58.04657547523426
57.49570517220396
58.21436691919191
59.036402061310774
57.09215393296853
57.86681529660489
59.25399959893047
59.938635753880256
58.91850556308339
60.82509220691901
61.56172604452321
61.08853312469576
58.46328473387219
58.46328473387219
59.95660784449651
61.18508946327933
63.45378334810729
64.00465365113759
64.26949514297908
62.79559039872408
63.99043584473347
63.467457708945204
62.175516513363654
61.56172604452321
61.31004281667511
61.31004281667511
61.0155892809476
61.267272508795706
60.79407958896825
60.2284188492812
59.491785011676996
59.725496148908846
58.19407317073169
60.2911568885959
61.0277907262001
60.56593300262287
58.708331067354266
60.36323448334178
62.084704180311476
62.33017300747197
60.17811753647586
61.31004281667511
61.81986268846998
62.31701474347858
60.410428099642964
61.5127413359562
62.586589774774765
62.83827300262287
62.272612262935816
63.156300040713596
63.67927817650186
62.88448903592891
61.721741959905515
60.70161176910865
59.96497793150445
60.530638671191504
61.0277907262001
61.5127413359562
61.807194871683706
61.0705610340795
71.19962376992856
100.7209653518994
112.51192135381237
114.96188361796331
90.16161372549018
77.90879999999999
67.53899444444444
61.95780847953216
63.156300040713596
61.9935529646902
63.467457708945204
64.82790758920521
64.03311844863225
62.55921370437726
64.11683023395031
65.19067867276887
63.19739797101448
59.080839999999995
59.367441441441436
59.14466301006888
58.28392816158403
56.671795053475925
57.8413818181818
59.90060822784809
61.807194871683706
65.6650855433255
68.2538273154774
66.10177184448128
62.243881172839494
61.31004281667511
60.16832734151002
57.76489080304849
55.61283533205238
54.40658811263883
54.40658811263883
54.40658811263883
56.28135788739001
57.966132678863595
59.53713317269076
59.53713317269076
59.08620815497282
58.27049636010103
58.74368927992848
58.966467711301036
57.97169722975006
59.263638425331614
59.725496148908846
59.725496148908846
60.2911568885959
61.0277907262001
61.267272508795706
61.56172604452321
62.356515185096164
62.85366724010476
60.46212998651305
61.32224426192761
62.39609270074617
63.132726538350376
60.980671067354265
61.267272508795706
61.79025064458397
61.79025064458397
62.084704180311476
62.92217592478322
64.49317641861037
62.10163916501867
61.81503772357723
62.39609270074617
63.390863182297146
62.065331515630476
59.67379426203876
60.776107498352
62.38824060646011
61.70360445151033
60.09147134340221
60.68855767973855
62.6328058080808
61.914144061092856
59.704924616648405
60.255794919678706
60.974456666666654
60.72898783950616
59.40345617283949
61.61267561728394
64.3785215571205
64.88834142891537
63.18894185626579
61.994096410256404
60.5374682051282
58.640464031007745
57.82475223613595
58.05289882248133
58.05289882248133
57.79476217853456
60.12555703363062
61.764424563804305
61.267272508795706
61.864358845132045
62.93820728395061
63.95833747474747
63.07464969696969
62.79559039872408
62.02092903508771
62.30753047652915
61.261058108108095
60.09147134340222
60.09147134340221
60.09147134340221
61.77087797990297
60.668564743589734
62.57515138742535
62.57515138742535
60.6781472133049
59.023243797317384
61.35384892552251
63.51569459148446
63.26401136363636
62.035719471744464
62.873191216216206
62.62772238905571
60.06878094761427
59.50312020792722
59.263638425331614
58.823262456339364
56.60720332321243
57.86681529660489
58.53533785194252
58.98626286966046
59.53713317269076
60.76561479147358
60.5374682051282
58.2651282051282
59.080839999999995
60.802309696969694
61.50364920314253
59.932648709315366
60.77012045378711
61.79025064458397
62.035719471744464
60.67526959148446
61.807194871683706
62.31701474347858
61.118523182297146
58.72698592870543
60.123752700746174
61.58038090587438
61.58038090587438
59.925477489886866
61.32224426192761
61.56172604452321
60.36323448334178
57.50983950617283
59.080839999999995
60.5374682051282
60.76561479147358
60.48655549322797
59.258073874445145
57.96609770008478
59.128844776108174
62.05672596754057
64.06736388888888
60.68855767973855
59.52581060371516
58.35622383900929
57.51517268236685
57.243361677582165
57.02576413996246
58.089593727977444
57.82475223613595
60.258408906882586
60.95974841305542
59.280341776554664
59.280341776554664
59.04085999395907
59.263638425331614
58.72698592870543
58.72698592870543
58.95513251505081
57.96036203349984
60.05744575136405
61.55076886198837
62.28740269959257
61.18508946327933
62.619647544087414
63.69349598290598
63.43535933895921
60.056553129808876
60.940240907586656
62.595144323574175
64.53939245191643
63.65570467413864
62.00080125815113
60.50747814752681
58.23513814752681
58.758116283315076
58.30719126559714
57.86681529660489
57.86681529660489
58.089593727977444
58.089593727977444
57.56661559218918
58.02847331576641
58.246070853386115
56.82480086083213
57.56143469843633
58.01235971615426
57.17130855951183
56.67415650450323
55.183598807046735
54.985017283950604
55.2304861111111
56.05252125322996
56.45419751585622
57.50066988427728
59.13953741445096
60.000272262935816
60.000272262935816
59.50312020792722
59.280341776554664
57.988400580973114
60.140456051969224
62.084704180311476
62.581856235320075
62.28740269959257
62.022561207751075
61.28592737014687
59.925477489886866
62.58540725577315
64.39588953219592
64.14420630434782
62.299988333333324
62.299988333333324
62.55167156118143
61.735959766309634
62.619647544087414
61.42115598290598
58.90069818976279
57.7379511137394
58.439290619912235
59.96497793150445
60.530638671191504
63.945857136033155
66.33739438962488
64.47979245435627
61.81986268846998
62.433653157310424
63.18894185626579
61.96046023748297
58.95513251505081
60.05744575136405
60.05744575136405
59.59558802778682
57.49850430992261
60.123752700746174
62.39609270074617
63.65570467413864
62.00080125815113
62.581856235320075
62.31701474347858
61.118523182297146
58.49327479147358
58.758116283315076
59.704924616648405
59.938635753880256
59.16397439024389
58.91850556308339
58.91850556308339
58.199843816095445
58.69699587110404
59.433629708708246
60.152291455696194
60.152291455696194
62.10982767229254
62.619647544087414
62.122495489078815
61.525409152742476
61.79025064458397
62.54553934353934
61.18508946327933
62.93080521231902
62.42098534052415
60.99971534797017
59.25399959893047
59.25399959893047
59.704924616648405
59.704924616648405
57.89738143483022
56.60540526046986
56.082427124681594
56.5027860041742
56.70588074370433
56.70588074370433
57.14625671269658
57.784213129808876
58.30719126559715
58.30719126559714
57.66923484848484
56.89457348484847
56.03383863636362
56.03383863636362
55.31517688937567
58.734853179301965
60.29692753395965
60.530638671191504
58.433554953327295
59.725496148908846
59.725496148908846
58.823262456339364
58.02847331576641
58.51342392552251
58.51342392552251
56.05252125322996
57.37805291989663
59.53989858585858
61.74911803030302
59.036402061310774
59.036402061310774
58.317740314322826
58.758116283315076
57.03664658634538
59.367441441441436
62.523469219219216
64.79580921921922
64.50920777777777
62.05451950617283
58.51976839506172
56.02464996368917
57.04478015448603
58.30719126559714
57.66923484848484
56.89457348484847
59.45351492628991
60.54239636112015
60.05744575136405
59.77084430992261
60.99932592870543
60.76561479147358
58.95513251505081
59.491785011676996
59.263638425331614
58.80178070175438
59.080839999999995
60.5374682051282
60.76561479147358
58.72142137781896
59.8237346141322
60.05744575136405
59.60652073364612
57.994387625538
59.52581060371516
59.97673562143309
59.491785011676996
60.65453208770039
62.147855198324706
61.914144061092856
62.225301729324464
64.62039000336925
65.59073497820532
62.351696118541305
61.08853312469576
60.118188149859705
59.23707029914651
58.942616763419004
58.71447017707362
58.50670659295658
57.66923484848484
57.89738143483022
59.21997400689231
59.491785011676996
60.21044675866494
60.44992854126055
60.44992854126055
63.61967817894171
65.19067867276887
64.39588953219592
63.132726538350376
61.56172604452321
61.064573989514614
60.204459714100054
60.44992854126055
59.52581060371516
59.25399959893047
59.008530771769976
59.932648709315366
59.157987345679
60.72898783950616
60.974456666666654
60.48950605691056
60.21044675866494
59.96497793150445
59.96497793150445
59.1701887909315
60.74118928475866
61.477823122362864
60.50747814752681
60.50747814752681
60.255794919678706
60.974456666666654
59.648924999999984
60.42358636363635
59.476778030303024
58.529969696969694
59.367441441441436
61.088911138411135
61.79025064458397
59.69316692671976
61.12772500752784
62.69872550135501
63.183676111111104
61.48427653846153
62.36796431623931
63.14262567987568
62.147855198324706
59.45368514412416
60.585610424323406
60.585610424323406
59.683376731753924
58.823262456339364
58.36140473276213
58.80178070175438
57.755308333333325
60.60870331050227
60.83684989684765
60.83684989684765
59.97673562143309
60.44992854126055
60.44992854126055
61.0155892809476
61.5127413359562
61.267272508795706
59.655139400687595
61.0155892809476
60.776107498352
60.05744575136405
59.77084430992261
60.01032609251821
60.01032609251821
59.45945578948791
59.95660784449651
59.72846125815113
57.784213129808876
58.579002270381835
59.28034177655467
59.7312667942726
58.43932559869105
60.01032609251821
60.48351901234567
60.01032609251821
58.68479442585154
60.83684989684765
61.31004281667511
60.59138106968716
60.01032609251821
60.01032609251821
60.01032609251821
58.68479442585154
60.54239636112015
61.261058108108095
60.314249774774765
60.027648333333325
61.639781441441436
62.586589774774765
61.0155892809476
61.0155892809476
60.530638671191504
60.05744575136405
59.77084430992261
60.255794919678706
59.587272364341075
58.01627187051391
59.34180353718058
60.48351901234567
60.48351901234567
60.204459714100054
60.95974841305542
60.72026663045982
59.67379426203876
60.21044675866494
60.69539736842104
60.69539736842104
60.69539736842104
60.947080596269146
60.2284188492812
58.46328473387219
59.258073874445145
59.02992728809976
58.36140473276213
57.82475223613595
58.05289882248133
58.72142137781896
59.53713317269076
60.76561479147358
61.48427653846153
59.913276044634365
61.61267561728394
62.93820728395061
64.50920777777777
62.8098082051282
63.390863182297146
64.27455096007492
64.27455096007492
62.122495489078815
61.238807711301035
61.50364920314253
61.50364920314253
59.69316692671976
60.530638671191504
60.530638671191504
60.06878094761427
59.23130920314253
59.23130920314253
59.69316692671976
57.74891879837752
59.04085999395906
59.77749383156327
60.70161176910865
58.93647765369965
60.29692753395965
62.15452946922826
63.12487444406431
61.5127413359562
61.22613989451476
60.255794919678706
59.08620815497282
58.53533785194252
58.30719126559714
58.758116283315076
57.73798609251821
60.59138106968716
60.82509220691901
59.26301785226132
56.871480598669606
59.565650652870154
61.62487706253644
61.62487706253644
59.667340845940096
61.32224426192761
60.860386538350376
59.89004156351432
59.59558802778682
61.588868729541204
61.822579866773054
60.98510812230131
62.77906075388026
62.77906075388026
59.41096786850476
57.080362740299634
54.425896244792575
53.879910661268546
52.651429042485724
52.82955199881271
53.0076749551397
53.48086787496715
54.63461884208514
56.426326226315425
55.95313330648798
59.66726313214177
61.61151126048402
62.084704180311476
60.429800764323964
61.267272508795706
61.0277907262001
59.176327900650854
55.75665161072456
56.75142209227553
57.18161492527079
57.18161492527079
57.1816149252708
57.63253994298873
58.05289882248133
57.54307895068646
59.587272364341075
60.974456666666654
59.587272364341075
59.30821306609546
59.06274423893497
58.439290619912235
56.90786764173508
58.765469577003685
59.82929916501867
58.927065472449186
57.56661559218918
56.70588074370433
56.285521864211724
56.285521864211724
57.14625671269658
57.14625671269658
57.40439335664335
58.10573286281618
58.966467711301036
57.50983950617283
58.80178070175438
59.50312020792722
59.7312667942726
58.199843816095445
60.05744575136405
60.05744575136405
59.8237346141322
57.49293975903614
60.118188149859705
61.61151126048402
61.16058624276609
58.30719126559714
58.85806156862745
59.30898658634538
58.86861061735313
56.59627061735313
90.45322403100775
107.30494444444443
108.00628395061727
73.48080798162502
58.79093323415028
58.317740314322826
58.317740314322826
56.37349218598058
58.41768559963519
60.31468977375565
60.5374682051282
58.49327479147358
59.02992728809976
59.7312667942726
60.204459714100054
60.77012045378711
61.0155892809476
60.314249774774765
57.98345491967871
59.02992728809976
59.97673562143309
59.52581060371516
58.989158107088976
60.03563047551003
60.95974841305542
59.7312667942726
59.7312667942726
60.48655549322797
60.72026663045982
58.95513251505081
59.77084430992261
59.08620815497282
59.08620815497283
57.51520766114566
61.525219425851546
63.01854253647586
62.31720303030303
60.52325039872408
60.258408906882586
59.81803293789034
58.05289882248133
58.86861061735313
60.01032609251821
60.48351901234567
