2022-12-15 15:34:44.081466
2022-12-15 15:34:44.082459
2022-12-15 15:34:44.082459
2022-12-15 15:34:44.115373
2022-12-15 15:34:44.115373
2022-12-15 15:34:44.116374
2022-12-15 15:34:44.148938
2022-12-15 15:34:44.149932
2022-12-15 15:34:44.182479
2022-12-15 15:34:44.182479
2022-12-15 15:34:44.183519
2022-12-15 15:34:44.215956
2022-12-15 15:34:44.215956
2022-12-15 15:34:44.216865
2022-12-15 15:34:44.249229
2022-12-15 15:34:44.250236
2022-12-15 15:34:44.283042
2022-12-15 15:34:44.283042
2022-12-15 15:34:44.284067
2022-12-15 15:34:44.317257
2022-12-15 15:34:44.317559
2022-12-15 15:34:44.318028
2022-12-15 15:34:44.350919
2022-12-15 15:34:44.351275
2022-12-15 15:34:44.384207
2022-12-15 15:34:44.384207
2022-12-15 15:34:44.385209
2022-12-15 15:34:44.417095
2022-12-15 15:34:44.418105
2022-12-15 15:34:44.418328
2022-12-15 15:34:44.451365
2022-12-15 15:34:44.451752
2022-12-15 15:34:44.484973
2022-12-15 15:34:44.485217
2022-12-15 15:34:44.485217
2022-12-15 15:34:44.518530
2022-12-15 15:34:44.518828
2022-12-15 15:34:44.518828
2022-12-15 15:34:44.551797
2022-12-15 15:34:44.551797
2022-12-15 15:34:44.585454
2022-12-15 15:34:44.585701
2022-12-15 15:34:44.585701
2022-12-15 15:34:44.618830
2022-12-15 15:34:44.619557
2022-12-15 15:34:44.619557
2022-12-15 15:34:44.652511
2022-12-15 15:34:44.653086
2022-12-15 15:34:44.686038
2022-12-15 15:34:44.686596
2022-12-15 15:34:44.686596
2022-12-15 15:34:44.718924
2022-12-15 15:34:44.719926
2022-12-15 15:34:44.720243
2022-12-15 15:34:44.752947
2022-12-15 15:34:44.753405
2022-12-15 15:34:44.786609
2022-12-15 15:34:44.786962
2022-12-15 15:34:44.787520
2022-12-15 15:34:44.820002
2022-12-15 15:34:44.820356
2022-12-15 15:34:44.820356
2022-12-15 15:34:44.853741
2022-12-15 15:34:44.854174
2022-12-15 15:34:44.887286
2022-12-15 15:34:44.887594
2022-12-15 15:34:44.887594
2022-12-15 15:34:44.920585
2022-12-15 15:34:44.920585
2022-12-15 15:34:44.921587
2022-12-15 15:34:44.954399
2022-12-15 15:34:44.954818
2022-12-15 15:34:44.988037
2022-12-15 15:34:44.988283
2022-12-15 15:34:44.988751
2022-12-15 15:34:45.021498
2022-12-15 15:34:45.022462
2022-12-15 15:34:45.022462
2022-12-15 15:34:45.054449
2022-12-15 15:34:45.054651
2022-12-15 15:34:45.088094
2022-12-15 15:34:45.088426
2022-12-15 15:34:45.088935
2022-12-15 15:34:45.121833
2022-12-15 15:34:45.122166
2022-12-15 15:34:45.122785
2022-12-15 15:34:45.155413
2022-12-15 15:34:45.155806
2022-12-15 15:34:45.189032
2022-12-15 15:34:45.189307
2022-12-15 15:34:45.189307
2022-12-15 15:34:45.222519
2022-12-15 15:34:45.222819
2022-12-15 15:34:45.223286
2022-12-15 15:34:45.255988
2022-12-15 15:34:45.257019
2022-12-15 15:34:45.289587
2022-12-15 15:34:45.289831
2022-12-15 15:34:45.290306
2022-12-15 15:34:45.323027
2022-12-15 15:34:45.323719
2022-12-15 15:34:45.323719
2022-12-15 15:34:45.356300
2022-12-15 15:34:45.356633
2022-12-15 15:34:45.390120
2022-12-15 15:34:45.390395
2022-12-15 15:34:45.390990
2022-12-15 15:34:45.423721
2022-12-15 15:34:45.424019
2022-12-15 15:34:45.424594
2022-12-15 15:34:45.457212
2022-12-15 15:34:45.457559
2022-12-15 15:34:45.490877
2022-12-15 15:34:45.491117
2022-12-15 15:34:45.491643
2022-12-15 15:34:45.524450
2022-12-15 15:34:45.524750
2022-12-15 15:34:45.525223
2022-12-15 15:34:45.557936
2022-12-15 15:34:45.558285
2022-12-15 15:34:45.591422
2022-12-15 15:34:45.591662
2022-12-15 15:34:45.592132
2022-12-15 15:34:45.624766
2022-12-15 15:34:45.624766
2022-12-15 15:34:45.625806
2022-12-15 15:34:45.657583
2022-12-15 15:34:45.658592
2022-12-15 15:34:45.691976
2022-12-15 15:34:45.692219
2022-12-15 15:34:45.692752
2022-12-15 15:34:45.725597
2022-12-15 15:34:45.725897
2022-12-15 15:34:45.726434
2022-12-15 15:34:45.759151
2022-12-15 15:34:45.759504
2022-12-15 15:34:45.792693
2022-12-15 15:34:45.792941
2022-12-15 15:34:45.793410
2022-12-15 15:34:45.826245
2022-12-15 15:34:45.826545
2022-12-15 15:34:45.827078
2022-12-15 15:34:45.859760
2022-12-15 15:34:45.860114
2022-12-15 15:34:45.893330
2022-12-15 15:34:45.894361
2022-12-15 15:34:45.894361
2022-12-15 15:34:45.926511
2022-12-15 15:34:45.926511
2022-12-15 15:34:45.927078
2022-12-15 15:34:45.959993
2022-12-15 15:34:45.960937
2022-12-15 15:34:45.993765
2022-12-15 15:34:45.994012
2022-12-15 15:34:45.994531
2022-12-15 15:34:46.027466
2022-12-15 15:34:46.027768
2022-12-15 15:34:46.028309
2022-12-15 15:34:46.060885
2022-12-15 15:34:46.060885
2022-12-15 15:34:46.094293
2022-12-15 15:34:46.094293
2022-12-15 15:34:46.095103
2022-12-15 15:34:46.127848
2022-12-15 15:34:46.128145
2022-12-15 15:34:46.128145
2022-12-15 15:34:46.161579
2022-12-15 15:34:46.161964
2022-12-15 15:34:46.194813
2022-12-15 15:34:46.194813
2022-12-15 15:34:46.195944
2022-12-15 15:34:46.228447
2022-12-15 15:34:46.228746
2022-12-15 15:34:46.228746
2022-12-15 15:34:46.262094
2022-12-15 15:34:46.262450
2022-12-15 15:34:46.295712
2022-12-15 15:34:46.295960
2022-12-15 15:34:46.296496
2022-12-15 15:34:46.329505
2022-12-15 15:34:46.329806
2022-12-15 15:34:46.330278
2022-12-15 15:34:46.362798
2022-12-15 15:34:46.363150
2022-12-15 15:34:46.396548
2022-12-15 15:34:46.396792
2022-12-15 15:34:46.397265
2022-12-15 15:34:46.429880
2022-12-15 15:34:46.430180
2022-12-15 15:34:46.430180
2022-12-15 15:34:46.463448
2022-12-15 15:34:46.463448
2022-12-15 15:34:46.496803
2022-12-15 15:34:46.497833
2022-12-15 15:34:46.497955
2022-12-15 15:34:46.529867
2022-12-15 15:34:46.529996
2022-12-15 15:34:46.529996
2022-12-15 15:34:46.563664
2022-12-15 15:34:46.564016
2022-12-15 15:34:46.597345
2022-12-15 15:34:46.597591
2022-12-15 15:34:46.598136
2022-12-15 15:34:46.630901
2022-12-15 15:34:46.631202
2022-12-15 15:34:46.631733
2022-12-15 15:34:46.664364
2022-12-15 15:34:46.664716
2022-12-15 15:34:46.698036
2022-12-15 15:34:46.698282
2022-12-15 15:34:46.698823
2022-12-15 15:34:46.731658
2022-12-15 15:34:46.731958
2022-12-15 15:34:46.732424
2022-12-15 15:34:46.765274
2022-12-15 15:34:46.765671
2022-12-15 15:34:46.798695
2022-12-15 15:34:46.798695
2022-12-15 15:34:46.799696
2022-12-15 15:34:46.831912
2022-12-15 15:34:46.832917
2022-12-15 15:34:46.833099
2022-12-15 15:34:46.864459
2022-12-15 15:34:46.865467
2022-12-15 15:34:46.899316
2022-12-15 15:34:46.899560
2022-12-15 15:34:46.899560
2022-12-15 15:34:46.932287
2022-12-15 15:34:46.932287
2022-12-15 15:34:46.932287
2022-12-15 15:34:46.966426
2022-12-15 15:34:46.966778
2022-12-15 15:34:46.999828
2022-12-15 15:34:47.000073
2022-12-15 15:34:47.000606
2022-12-15 15:34:47.033541
2022-12-15 15:34:47.033840
2022-12-15 15:34:47.034379
2022-12-15 15:34:47.066722
2022-12-15 15:34:47.067072
2022-12-15 15:34:47.100331
2022-12-15 15:34:47.100607
2022-12-15 15:34:47.100607
2022-12-15 15:34:47.133949
2022-12-15 15:34:47.134275
2022-12-15 15:34:47.134791
2022-12-15 15:34:47.167430
2022-12-15 15:34:47.168113
2022-12-15 15:34:47.199952
2022-12-15 15:34:47.200960
2022-12-15 15:34:47.200960
2022-12-15 15:34:47.234380
2022-12-15 15:34:47.234677
2022-12-15 15:34:47.235210
2022-12-15 15:34:47.268062
2022-12-15 15:34:47.268448
2022-12-15 15:34:47.301497
2022-12-15 15:34:47.301870
2022-12-15 15:34:47.301870
2022-12-15 15:34:47.335110
2022-12-15 15:34:47.335110
2022-12-15 15:34:47.335925
2022-12-15 15:34:47.368787
2022-12-15 15:34:47.369137
2022-12-15 15:34:47.402516
2022-12-15 15:34:47.402516
2022-12-15 15:34:47.403517
2022-12-15 15:34:47.435825
2022-12-15 15:34:47.436122
2022-12-15 15:34:47.436122
2022-12-15 15:34:47.470221
2022-12-15 15:34:47.470221
2022-12-15 15:34:47.501965
2022-12-15 15:34:47.502973
2022-12-15 15:34:47.502973
2022-12-15 15:34:47.535750
2022-12-15 15:34:47.535750
2022-12-15 15:34:47.536751
2022-12-15 15:34:47.569824
2022-12-15 15:34:47.569824
2022-12-15 15:34:47.602003
2022-12-15 15:34:47.602957
2022-12-15 15:34:47.602957
2022-12-15 15:34:47.636655
2022-12-15 15:34:47.637462
2022-12-15 15:34:47.637462
2022-12-15 15:34:47.670148
2022-12-15 15:34:47.670923
2022-12-15 15:34:47.703889
2022-12-15 15:34:47.704482
2022-12-15 15:34:47.704482
2022-12-15 15:34:47.737438
2022-12-15 15:34:47.737438
2022-12-15 15:34:47.738449
2022-12-15 15:34:47.771023
2022-12-15 15:34:47.771445
2022-12-15 15:34:47.804316
2022-12-15 15:34:47.804603
2022-12-15 15:34:47.804603
2022-12-15 15:34:47.837559
2022-12-15 15:34:47.837559
2022-12-15 15:34:47.838566
2022-12-15 15:34:47.870925
2022-12-15 15:34:47.871951
2022-12-15 15:34:47.904491
2022-12-15 15:34:47.904491
2022-12-15 15:34:47.905093
2022-12-15 15:34:47.938011
2022-12-15 15:34:47.938362
2022-12-15 15:34:47.938362
2022-12-15 15:34:47.971981
2022-12-15 15:34:47.972376
2022-12-15 15:34:48.005830
2022-12-15 15:34:48.006078
2022-12-15 15:34:48.006664
2022-12-15 15:34:48.039317
2022-12-15 15:34:48.039615
2022-12-15 15:34:48.039615
2022-12-15 15:34:48.072128
2022-12-15 15:34:48.072531
2022-12-15 15:34:48.106084
2022-12-15 15:34:48.106084
2022-12-15 15:34:48.107084
2022-12-15 15:34:48.139687
2022-12-15 15:34:48.139989
2022-12-15 15:34:48.139989
2022-12-15 15:34:48.173112
2022-12-15 15:34:48.173464
2022-12-15 15:34:48.206834
2022-12-15 15:34:48.207080
2022-12-15 15:34:48.207660
2022-12-15 15:34:48.240364
2022-12-15 15:34:48.240660
2022-12-15 15:34:48.241133
2022-12-15 15:34:48.273818
2022-12-15 15:34:48.273818
2022-12-15 15:34:48.307029
2022-12-15 15:34:48.307029
2022-12-15 15:34:48.308055
2022-12-15 15:34:48.340849
2022-12-15 15:34:48.340849
2022-12-15 15:34:48.341850
2022-12-15 15:34:48.374277
2022-12-15 15:34:48.374277
2022-12-15 15:34:48.407595
2022-12-15 15:34:48.407595
2022-12-15 15:34:48.408462
2022-12-15 15:34:48.441286
2022-12-15 15:34:48.441286
2022-12-15 15:34:48.442220
2022-12-15 15:34:48.474560
2022-12-15 15:34:48.474916
2022-12-15 15:34:48.508785
2022-12-15 15:34:48.508785
2022-12-15 15:34:48.509786
2022-12-15 15:34:48.542048
2022-12-15 15:34:48.542349
2022-12-15 15:34:48.542869
2022-12-15 15:34:48.575839
2022-12-15 15:34:48.576187
2022-12-15 15:34:48.609318
2022-12-15 15:34:48.609560
2022-12-15 15:34:48.609560
2022-12-15 15:34:48.642567
2022-12-15 15:34:48.642911
2022-12-15 15:34:48.643419
2022-12-15 15:34:48.676208
2022-12-15 15:34:48.676588
2022-12-15 15:34:48.709649
2022-12-15 15:34:48.709894
2022-12-15 15:34:48.709894
2022-12-15 15:34:48.743097
2022-12-15 15:34:48.743863
2022-12-15 15:34:48.743863
2022-12-15 15:34:48.776374
2022-12-15 15:34:48.776732
2022-12-15 15:34:48.810419
2022-12-15 15:34:48.810664
2022-12-15 15:34:48.811201
2022-12-15 15:34:48.843968
2022-12-15 15:34:48.844268
2022-12-15 15:34:48.844805
2022-12-15 15:34:48.877407
2022-12-15 15:34:48.877759
2022-12-15 15:34:48.911291
2022-12-15 15:34:48.911538
2022-12-15 15:34:48.912060
2022-12-15 15:34:48.944441
2022-12-15 15:34:48.944740
2022-12-15 15:34:48.945217
2022-12-15 15:34:48.978349
2022-12-15 15:34:48.978708
2022-12-15 15:34:49.011660
2022-12-15 15:34:49.011906
2022-12-15 15:34:49.012375
2022-12-15 15:34:49.045558
2022-12-15 15:34:49.045558
2022-12-15 15:34:49.046561
2022-12-15 15:34:49.077417
2022-12-15 15:34:49.078425
2022-12-15 15:34:49.111366
2022-12-15 15:34:49.111366
2022-12-15 15:34:49.112321
2022-12-15 15:34:49.145737
2022-12-15 15:34:49.146036
2022-12-15 15:34:49.146552
2022-12-15 15:34:49.179449
2022-12-15 15:34:49.179801
2022-12-15 15:34:49.211834
2022-12-15 15:34:49.211834
2022-12-15 15:34:49.212866
2022-12-15 15:34:49.245316
2022-12-15 15:34:49.246318
2022-12-15 15:34:49.246318
2022-12-15 15:34:49.279838
2022-12-15 15:34:49.279838
2022-12-15 15:34:49.313534
2022-12-15 15:34:49.313782
2022-12-15 15:34:49.314322
2022-12-15 15:34:49.347102
2022-12-15 15:34:49.347102
2022-12-15 15:34:49.348062
2022-12-15 15:34:49.380092
2022-12-15 15:34:49.380092
2022-12-15 15:34:49.413922
2022-12-15 15:34:49.414167
2022-12-15 15:34:49.414708
2022-12-15 15:34:49.447324
2022-12-15 15:34:49.447665
2022-12-15 15:34:49.448181
2022-12-15 15:34:49.481329
2022-12-15 15:34:49.481681
2022-12-15 15:34:49.514526
2022-12-15 15:34:49.514774
2022-12-15 15:34:49.515313
2022-12-15 15:34:49.548474
2022-12-15 15:34:49.548776
2022-12-15 15:34:49.549250
2022-12-15 15:34:49.581783
2022-12-15 15:34:49.582135
2022-12-15 15:34:49.615533
2022-12-15 15:34:49.615777
2022-12-15 15:34:49.615777
2022-12-15 15:34:49.648838
2022-12-15 15:34:49.648838
2022-12-15 15:34:49.649839
2022-12-15 15:34:49.682441
2022-12-15 15:34:49.682896
2022-12-15 15:34:49.715700
2022-12-15 15:34:49.715700
2022-12-15 15:34:49.716735
2022-12-15 15:34:49.748972
2022-12-15 15:34:49.748972
2022-12-15 15:34:49.749688
2022-12-15 15:34:49.782628
2022-12-15 15:34:49.782982
2022-12-15 15:34:49.816276
2022-12-15 15:34:49.816520
2022-12-15 15:34:49.816520
2022-12-15 15:34:49.849972
2022-12-15 15:34:49.850271
2022-12-15 15:34:49.850805
2022-12-15 15:34:49.883524
2022-12-15 15:34:49.883883
2022-12-15 15:34:49.916998
2022-12-15 15:34:49.917245
2022-12-15 15:34:49.917714
2022-12-15 15:34:49.950581
2022-12-15 15:34:49.950879
2022-12-15 15:34:49.951406
2022-12-15 15:34:49.984418
2022-12-15 15:34:49.984770
2022-12-15 15:34:50.017463
2022-12-15 15:34:50.018198
2022-12-15 15:34:50.018198
2022-12-15 15:34:50.050987
2022-12-15 15:34:50.051996
2022-12-15 15:34:50.051996
2022-12-15 15:34:50.084416
2022-12-15 15:34:50.084416
2022-12-15 15:34:50.118324
2022-12-15 15:34:50.118571
2022-12-15 15:34:50.118571
2022-12-15 15:34:50.151661
2022-12-15 15:34:50.151960
2022-12-15 15:34:50.151960
2022-12-15 15:34:50.185050
2022-12-15 15:34:50.185401
2022-12-15 15:34:50.218674
2022-12-15 15:34:50.219046
2022-12-15 15:34:50.219580
2022-12-15 15:34:50.252034
2022-12-15 15:34:50.252520
2022-12-15 15:34:50.253107
2022-12-15 15:34:50.285406
2022-12-15 15:34:50.285406
2022-12-15 15:34:50.318915
2022-12-15 15:34:50.319167
2022-12-15 15:34:50.319702
2022-12-15 15:34:50.352120
2022-12-15 15:34:50.352120
2022-12-15 15:34:50.353151
2022-12-15 15:34:50.385836
2022-12-15 15:34:50.386159
2022-12-15 15:34:50.419826
2022-12-15 15:34:50.420071
2022-12-15 15:34:50.420600
2022-12-15 15:34:50.453303
2022-12-15 15:34:50.453303
2022-12-15 15:34:50.454304
2022-12-15 15:34:50.487251
2022-12-15 15:34:50.487251
2022-12-15 15:34:50.520441
2022-12-15 15:34:50.520441
2022-12-15 15:34:50.521442
2022-12-15 15:34:50.554216
2022-12-15 15:34:50.554660
2022-12-15 15:34:50.555162
2022-12-15 15:34:50.587407
2022-12-15 15:34:50.587407
2022-12-15 15:34:50.621231
2022-12-15 15:34:50.621670
2022-12-15 15:34:50.622147
2022-12-15 15:34:50.654670
2022-12-15 15:34:50.654670
2022-12-15 15:34:50.655678
2022-12-15 15:34:50.688444
2022-12-15 15:34:50.688444
2022-12-15 15:34:50.721744
2022-12-15 15:34:50.722044
2022-12-15 15:34:50.722044
2022-12-15 15:34:50.754933
2022-12-15 15:34:50.754933
2022-12-15 15:34:50.755943
2022-12-15 15:34:50.788066
2022-12-15 15:34:50.789077
2022-12-15 15:34:50.822085
2022-12-15 15:34:50.822330
2022-12-15 15:34:50.822330
2022-12-15 15:34:50.855187
2022-12-15 15:34:50.855187
2022-12-15 15:34:50.856195
2022-12-15 15:34:50.889057
2022-12-15 15:34:50.889457
2022-12-15 15:34:50.922357
2022-12-15 15:34:50.922601
2022-12-15 15:34:50.923126
2022-12-15 15:34:50.956316
2022-12-15 15:34:50.956617
2022-12-15 15:34:50.957131
2022-12-15 15:34:50.989446
2022-12-15 15:34:50.989446
2022-12-15 15:34:51.023311
2022-12-15 15:34:51.023555
2022-12-15 15:34:51.023555
2022-12-15 15:34:51.057149
2022-12-15 15:34:51.057443
2022-12-15 15:34:51.057910
2022-12-15 15:34:51.090314
2022-12-15 15:34:51.090665
2022-12-15 15:34:51.124236
2022-12-15 15:34:51.124236
2022-12-15 15:34:51.125238
2022-12-15 15:34:51.157431
2022-12-15 15:34:51.157431
2022-12-15 15:34:51.158432
2022-12-15 15:34:51.191204
2022-12-15 15:34:51.192235
2022-12-15 15:34:51.224801
2022-12-15 15:34:51.225041
2022-12-15 15:34:51.225041
2022-12-15 15:34:51.257981
2022-12-15 15:34:51.258317
2022-12-15 15:34:51.258317
2022-12-15 15:34:51.291655
2022-12-15 15:34:51.292049
2022-12-15 15:34:51.325139
2022-12-15 15:34:51.325384
2022-12-15 15:34:51.325924
2022-12-15 15:34:51.358795
2022-12-15 15:34:51.359094
2022-12-15 15:34:51.359616
2022-12-15 15:34:51.392248
2022-12-15 15:34:51.392629
2022-12-15 15:34:51.425715
2022-12-15 15:34:51.425987
2022-12-15 15:34:51.426591
2022-12-15 15:34:51.459243
2022-12-15 15:34:51.459539
2022-12-15 15:34:51.459539
2022-12-15 15:34:51.492818
2022-12-15 15:34:51.493372
2022-12-15 15:34:51.525428
2022-12-15 15:34:51.526435
2022-12-15 15:34:51.526682
2022-12-15 15:34:51.560084
2022-12-15 15:34:51.560386
2022-12-15 15:34:51.560921
2022-12-15 15:34:51.593400
2022-12-15 15:34:51.593753
2022-12-15 15:34:51.627294
2022-12-15 15:34:51.627536
2022-12-15 15:34:51.628073
2022-12-15 15:34:51.660476
2022-12-15 15:34:51.660774
2022-12-15 15:34:51.661310
2022-12-15 15:34:51.694373
2022-12-15 15:34:51.694724
2022-12-15 15:34:51.727670
2022-12-15 15:34:51.727915
2022-12-15 15:34:51.728453
2022-12-15 15:34:51.761073
2022-12-15 15:34:51.761370
2022-12-15 15:34:51.761837
2022-12-15 15:34:51.794661
2022-12-15 15:34:51.794661
2022-12-15 15:34:51.828044
2022-12-15 15:34:51.829052
2022-12-15 15:34:51.829052
2022-12-15 15:34:51.861596
2022-12-15 15:34:51.861896
2022-12-15 15:34:51.861896
2022-12-15 15:34:51.895126
2022-12-15 15:34:51.895477
2022-12-15 15:34:51.928845
2022-12-15 15:34:51.929090
2022-12-15 15:34:51.929621
2022-12-15 15:34:51.962484
2022-12-15 15:34:51.962783
2022-12-15 15:34:51.963319
2022-12-15 15:34:51.995849
2022-12-15 15:34:51.996201
2022-12-15 15:34:52.029508
2022-12-15 15:34:52.029755
2022-12-15 15:34:52.030222
2022-12-15 15:34:52.062915
2022-12-15 15:34:52.062915
2022-12-15 15:34:52.063931
2022-12-15 15:34:52.096510
2022-12-15 15:34:52.096863
2022-12-15 15:34:52.129931
2022-12-15 15:34:52.130176
2022-12-15 15:34:52.130176
2022-12-15 15:34:52.163409
2022-12-15 15:34:52.163409
2022-12-15 15:34:52.164411
2022-12-15 15:34:52.197282
2022-12-15 15:34:52.198317
2022-12-15 15:34:52.230407
2022-12-15 15:34:52.231440
2022-12-15 15:34:52.231581
2022-12-15 15:34:52.262715
2022-12-15 15:34:52.263805
2022-12-15 15:34:52.264310
2022-12-15 15:34:52.297557
2022-12-15 15:34:52.297937
2022-12-15 15:34:52.331196
2022-12-15 15:34:52.331444
2022-12-15 15:34:52.331444
2022-12-15 15:34:52.364796
2022-12-15 15:34:52.365095
2022-12-15 15:34:52.365635
2022-12-15 15:34:52.398281
2022-12-15 15:34:52.398633
2022-12-15 15:34:52.431911
2022-12-15 15:34:52.432154
2022-12-15 15:34:52.432629
2022-12-15 15:34:52.465301
2022-12-15 15:34:52.465600
2022-12-15 15:34:52.466136
2022-12-15 15:34:52.498984
2022-12-15 15:34:52.499335
2022-12-15 15:34:52.532147
2022-12-15 15:34:52.532147
2022-12-15 15:34:52.533149
2022-12-15 15:34:52.565415
2022-12-15 15:34:52.566443
2022-12-15 15:34:52.566443
2022-12-15 15:34:52.599553
2022-12-15 15:34:52.599906
2022-12-15 15:34:52.632845
2022-12-15 15:34:52.633087
2022-12-15 15:34:52.633622
2022-12-15 15:34:52.666412
2022-12-15 15:34:52.666412
2022-12-15 15:34:52.667414
2022-12-15 15:34:52.700343
2022-12-15 15:34:52.700694
2022-12-15 15:34:52.733484
2022-12-15 15:34:52.733728
2022-12-15 15:34:52.734194
2022-12-15 15:34:52.767084
2022-12-15 15:34:52.767411
2022-12-15 15:34:52.767411
2022-12-15 15:34:52.800691
2022-12-15 15:34:52.801075
2022-12-15 15:34:52.834113
2022-12-15 15:34:52.834423
2022-12-15 15:34:52.835426
2022-12-15 15:34:52.866240
2022-12-15 15:34:52.867284
2022-12-15 15:34:52.867284
2022-12-15 15:34:52.901175
2022-12-15 15:34:52.901524
2022-12-15 15:34:52.934775
2022-12-15 15:34:52.935018
2022-12-15 15:34:52.935538
2022-12-15 15:34:52.968262
2022-12-15 15:34:52.968560
2022-12-15 15:34:52.968560
2022-12-15 15:34:53.001898
2022-12-15 15:34:53.002247
2022-12-15 15:34:53.035500
2022-12-15 15:34:53.035748
2022-12-15 15:34:53.036220
2022-12-15 15:34:53.068802
2022-12-15 15:34:53.069099
2022-12-15 15:34:53.069099
2022-12-15 15:34:53.102529
2022-12-15 15:34:53.102529
2022-12-15 15:34:53.135897
2022-12-15 15:34:53.135897
2022-12-15 15:34:53.136910
2022-12-15 15:34:53.169479
2022-12-15 15:34:53.169987
2022-12-15 15:34:53.169987
2022-12-15 15:34:53.201718
2022-12-15 15:34:53.202728
2022-12-15 15:34:53.236056
2022-12-15 15:34:53.236347
2022-12-15 15:34:53.236893
2022-12-15 15:34:53.270123
2022-12-15 15:34:53.270495
2022-12-15 15:34:53.271032
2022-12-15 15:34:53.303177
2022-12-15 15:34:53.303177
2022-12-15 15:34:53.336611
2022-12-15 15:34:53.336611
2022-12-15 15:34:53.337565
2022-12-15 15:34:53.370539
2022-12-15 15:34:53.370839
2022-12-15 15:34:53.370839
2022-12-15 15:34:53.404115
2022-12-15 15:34:53.404115
2022-12-15 15:34:53.437613
2022-12-15 15:34:53.437857
2022-12-15 15:34:53.437857
2022-12-15 15:34:53.469855
2022-12-15 15:34:53.470855
2022-12-15 15:34:53.470855
2022-12-15 15:34:53.503669
2022-12-15 15:34:53.504671
2022-12-15 15:34:53.537862
2022-12-15 15:34:53.538869
2022-12-15 15:34:53.538869
2022-12-15 15:34:53.571842
2022-12-15 15:34:53.572311
2022-12-15 15:34:53.572311
2022-12-15 15:34:53.605295
2022-12-15 15:34:53.605789
2022-12-15 15:34:53.638612
2022-12-15 15:34:53.638966
2022-12-15 15:34:53.639538
2022-12-15 15:34:53.672187
2022-12-15 15:34:53.672649
2022-12-15 15:34:53.673173
2022-12-15 15:34:53.705696
2022-12-15 15:34:53.706096
2022-12-15 15:34:53.739301
2022-12-15 15:34:53.739609
2022-12-15 15:34:53.740202
2022-12-15 15:34:53.772353
2022-12-15 15:34:53.772700
2022-12-15 15:34:53.772700
2022-12-15 15:34:53.805957
2022-12-15 15:34:53.806307
2022-12-15 15:34:53.839217
2022-12-15 15:34:53.839217
2022-12-15 15:34:53.840229
2022-12-15 15:34:53.872759
2022-12-15 15:34:53.873769
2022-12-15 15:34:53.873974
2022-12-15 15:34:53.907068
2022-12-15 15:34:53.907416
2022-12-15 15:34:53.939967
2022-12-15 15:34:53.940288
2022-12-15 15:34:53.940873
2022-12-15 15:34:53.974087
2022-12-15 15:34:53.974384
2022-12-15 15:34:53.974384
2022-12-15 15:34:54.007522
2022-12-15 15:34:54.007871
2022-12-15 15:34:54.041086
2022-12-15 15:34:54.041328
2022-12-15 15:34:54.041800
2022-12-15 15:34:54.074677
2022-12-15 15:34:54.074974
2022-12-15 15:34:54.075512
2022-12-15 15:34:54.107668
2022-12-15 15:34:54.107668
2022-12-15 15:34:54.141268
2022-12-15 15:34:54.141883
2022-12-15 15:34:54.142413
2022-12-15 15:34:54.175140
2022-12-15 15:34:54.175438
2022-12-15 15:34:54.175951
2022-12-15 15:34:54.208787
2022-12-15 15:34:54.209139
2022-12-15 15:34:54.242389
2022-12-15 15:34:54.242631
2022-12-15 15:34:54.243158
2022-12-15 15:34:54.276238
2022-12-15 15:34:54.276238
2022-12-15 15:34:54.277239
2022-12-15 15:34:54.309345
2022-12-15 15:34:54.309697
2022-12-15 15:34:54.342960
2022-12-15 15:34:54.343238
2022-12-15 15:34:54.343778
2022-12-15 15:34:54.376487
2022-12-15 15:34:54.376787
2022-12-15 15:34:54.377324
2022-12-15 15:34:54.410160
2022-12-15 15:34:54.410160
2022-12-15 15:34:54.443544
2022-12-15 15:34:54.443544
2022-12-15 15:34:54.444497
2022-12-15 15:34:54.477043
2022-12-15 15:34:54.478050
2022-12-15 15:34:54.478239
2022-12-15 15:34:54.510249
2022-12-15 15:34:54.511275
2022-12-15 15:34:54.544358
2022-12-15 15:34:54.544604
2022-12-15 15:34:54.545127
2022-12-15 15:34:54.577744
2022-12-15 15:34:54.578043
2022-12-15 15:34:54.578043
2022-12-15 15:34:54.611471
2022-12-15 15:34:54.611826
2022-12-15 15:34:54.644819
2022-12-15 15:34:54.645066
2022-12-15 15:34:54.645605
2022-12-15 15:34:54.678467
2022-12-15 15:34:54.678766
2022-12-15 15:34:54.679240
2022-12-15 15:34:54.711794
2022-12-15 15:34:54.712146
2022-12-15 15:34:54.745465
2022-12-15 15:34:54.745710
2022-12-15 15:34:54.746179
2022-12-15 15:34:54.778912
2022-12-15 15:34:54.779214
2022-12-15 15:34:54.779214
2022-12-15 15:34:54.812367
2022-12-15 15:34:54.812367
2022-12-15 15:34:54.845184
2022-12-15 15:34:54.846194
2022-12-15 15:34:54.846599
2022-12-15 15:34:54.879484
2022-12-15 15:34:54.879838
2022-12-15 15:34:54.879838
2022-12-15 15:34:54.913014
2022-12-15 15:34:54.913365
2022-12-15 15:34:54.946650
2022-12-15 15:34:54.946895
2022-12-15 15:34:54.947439
2022-12-15 15:34:54.980201
2022-12-15 15:34:54.980503
2022-12-15 15:34:54.981026
2022-12-15 15:34:55.013752
2022-12-15 15:34:55.014108
2022-12-15 15:34:55.046536
2022-12-15 15:34:55.046536
2022-12-15 15:34:55.047532
2022-12-15 15:34:55.080848
2022-12-15 15:34:55.081146
2022-12-15 15:34:55.081146
2022-12-15 15:34:55.114516
2022-12-15 15:34:55.114869
2022-12-15 15:34:55.147739
2022-12-15 15:34:55.147739
2022-12-15 15:34:55.148741
2022-12-15 15:34:55.181412
2022-12-15 15:34:55.181412
2022-12-15 15:34:55.182592
2022-12-15 15:34:55.213822
2022-12-15 15:34:55.214851
2022-12-15 15:34:55.247809
2022-12-15 15:34:55.248034
2022-12-15 15:34:55.248034
2022-12-15 15:34:55.281709
2022-12-15 15:34:55.282005
2022-12-15 15:34:55.282542
2022-12-15 15:34:55.314280
2022-12-15 15:34:55.315280
2022-12-15 15:34:55.348284
2022-12-15 15:34:55.348284
2022-12-15 15:34:55.349282
2022-12-15 15:34:55.382549
2022-12-15 15:34:55.382549
2022-12-15 15:34:55.383590
2022-12-15 15:34:55.416053
2022-12-15 15:34:55.416053
2022-12-15 15:34:55.449675
2022-12-15 15:34:55.449923
2022-12-15 15:34:55.450457
2022-12-15 15:34:55.482886
2022-12-15 15:34:55.482886
2022-12-15 15:34:55.483888
2022-12-15 15:34:55.516524
2022-12-15 15:34:55.517557
2022-12-15 15:34:55.549159
2022-12-15 15:34:55.550168
2022-12-15 15:34:55.550168
2022-12-15 15:34:55.583227
2022-12-15 15:34:55.583331
2022-12-15 15:34:55.583331
2022-12-15 15:34:55.617232
2022-12-15 15:34:55.618234
2022-12-15 15:34:55.650662
2022-12-15 15:34:55.650907
2022-12-15 15:34:55.651422
2022-12-15 15:34:55.684415
2022-12-15 15:34:55.684708
2022-12-15 15:34:55.684708
2022-12-15 15:34:55.717777
2022-12-15 15:34:55.718127
2022-12-15 15:34:55.751437
2022-12-15 15:34:55.751683
2022-12-15 15:34:55.752216
2022-12-15 15:34:55.784823
2022-12-15 15:34:55.785119
2022-12-15 15:34:55.786121
2022-12-15 15:34:55.818479
2022-12-15 15:34:55.818831
2022-12-15 15:34:55.851650
2022-12-15 15:34:55.851910
2022-12-15 15:34:55.851910
2022-12-15 15:34:55.884951
2022-12-15 15:34:55.885257
2022-12-15 15:34:55.885720
2022-12-15 15:34:55.918255
2022-12-15 15:34:55.918714
2022-12-15 15:34:55.952386
2022-12-15 15:34:55.952386
2022-12-15 15:34:55.953388
2022-12-15 15:34:55.984704
2022-12-15 15:34:55.985765
2022-12-15 15:34:55.985765
2022-12-15 15:34:56.019475
2022-12-15 15:34:56.019826
2022-12-15 15:34:56.052966
2022-12-15 15:34:56.053212
2022-12-15 15:34:56.053212
2022-12-15 15:34:56.086578
2022-12-15 15:34:56.086902
2022-12-15 15:34:56.086902
2022-12-15 15:34:56.120371
2022-12-15 15:34:56.120722
2022-12-15 15:34:56.153768
2022-12-15 15:34:56.154010
2022-12-15 15:34:56.154528
2022-12-15 15:34:56.187483
2022-12-15 15:34:56.187780
2022-12-15 15:34:56.187780
2022-12-15 15:34:56.220882
2022-12-15 15:34:56.221229
2022-12-15 15:34:56.254567
2022-12-15 15:34:56.254567
2022-12-15 15:34:56.255568
2022-12-15 15:34:56.287948
2022-12-15 15:34:56.288246
2022-12-15 15:34:56.288714
2022-12-15 15:34:56.321483
2022-12-15 15:34:56.321483
2022-12-15 15:34:56.354300
2022-12-15 15:34:56.355363
2022-12-15 15:34:56.355363
2022-12-15 15:34:56.388230
2022-12-15 15:34:56.388527
2022-12-15 15:34:56.388527
2022-12-15 15:34:56.421953
2022-12-15 15:34:56.422303
2022-12-15 15:34:56.455439
2022-12-15 15:34:56.455439
2022-12-15 15:34:56.456302
2022-12-15 15:34:56.489026
2022-12-15 15:34:56.489026
2022-12-15 15:34:56.489869
2022-12-15 15:34:56.522581
2022-12-15 15:34:56.523386
2022-12-15 15:34:56.556137
2022-12-15 15:34:56.556443
2022-12-15 15:34:56.556443
2022-12-15 15:34:56.589674
2022-12-15 15:34:56.589674
2022-12-15 15:34:56.590705
2022-12-15 15:34:56.623405
2022-12-15 15:34:56.624438
2022-12-15 15:34:56.655471
2022-12-15 15:34:56.656478
2022-12-15 15:34:56.656478
2022-12-15 15:34:56.690238
2022-12-15 15:34:56.690600
2022-12-15 15:34:56.690600
2022-12-15 15:34:56.723531
2022-12-15 15:34:56.723925
2022-12-15 15:34:56.756614
2022-12-15 15:34:56.756916
2022-12-15 15:34:56.757502
2022-12-15 15:34:56.790392
2022-12-15 15:34:56.790731
2022-12-15 15:34:56.790731
2022-12-15 15:34:56.823616
2022-12-15 15:34:56.824032
2022-12-15 15:34:56.857719
2022-12-15 15:34:56.858054
2022-12-15 15:34:56.858591
2022-12-15 15:34:56.891060
2022-12-15 15:34:56.891492
2022-12-15 15:34:56.892091
2022-12-15 15:34:56.924707
2022-12-15 15:34:56.925231
2022-12-15 15:34:56.958246
2022-12-15 15:34:56.958488
2022-12-15 15:34:56.959025
2022-12-15 15:34:56.991737
2022-12-15 15:34:56.992441
2022-12-15 15:34:56.992441
2022-12-15 15:34:57.025463
2022-12-15 15:34:57.025817
2022-12-15 15:34:57.059193
2022-12-15 15:34:57.059438
2022-12-15 15:34:57.059962
2022-12-15 15:34:57.092272
2022-12-15 15:34:57.092272
2022-12-15 15:34:57.093272
2022-12-15 15:34:57.125921
2022-12-15 15:34:57.126303
2022-12-15 15:34:57.159524
2022-12-15 15:34:57.159797
2022-12-15 15:34:57.160357
2022-12-15 15:34:57.193397
2022-12-15 15:34:57.193731
2022-12-15 15:34:57.193731
2022-12-15 15:34:57.226679
2022-12-15 15:34:57.227027
2022-12-15 15:34:57.260373
2022-12-15 15:34:57.260373
2022-12-15 15:34:57.261390
2022-12-15 15:34:57.293644
2022-12-15 15:34:57.293644
2022-12-15 15:34:57.294510
2022-12-15 15:34:57.326267
2022-12-15 15:34:57.327307
2022-12-15 15:34:57.360789
2022-12-15 15:34:57.361032
2022-12-15 15:34:57.361567
2022-12-15 15:34:57.394256
2022-12-15 15:34:57.394551
2022-12-15 15:34:57.395086
2022-12-15 15:34:57.427971
2022-12-15 15:34:57.428376
2022-12-15 15:34:57.461415
2022-12-15 15:34:57.461660
2022-12-15 15:34:57.462127
2022-12-15 15:34:57.494917
2022-12-15 15:34:57.494917
2022-12-15 15:34:57.495802
2022-12-15 15:34:57.528397
2022-12-15 15:34:57.528397
2022-12-15 15:34:57.561542
2022-12-15 15:34:57.562567
2022-12-15 15:34:57.562567
2022-12-15 15:34:57.595455
2022-12-15 15:34:57.595755
2022-12-15 15:34:57.595755
2022-12-15 15:34:57.629334
2022-12-15 15:34:57.629684
2022-12-15 15:34:57.662529
2022-12-15 15:34:57.662771
2022-12-15 15:34:57.663303
2022-12-15 15:34:57.696406
2022-12-15 15:34:57.696704
2022-12-15 15:34:57.696704
2022-12-15 15:34:57.729729
2022-12-15 15:34:57.730081
2022-12-15 15:34:57.763427
2022-12-15 15:34:57.763427
2022-12-15 15:34:57.764256
2022-12-15 15:34:57.796804
2022-12-15 15:34:57.797102
2022-12-15 15:34:57.797569
2022-12-15 15:34:57.830492
2022-12-15 15:34:57.830844
2022-12-15 15:34:57.863857
2022-12-15 15:34:57.864101
2022-12-15 15:34:57.864570
2022-12-15 15:34:57.897230
2022-12-15 15:34:57.897530
2022-12-15 15:34:57.897530
2022-12-15 15:34:57.930840
2022-12-15 15:34:57.931263
2022-12-15 15:34:57.963343
2022-12-15 15:34:57.964355
2022-12-15 15:34:57.964722
2022-12-15 15:34:57.997733
2022-12-15 15:34:57.998031
2022-12-15 15:34:57.998031
2022-12-15 15:34:58.031464
2022-12-15 15:34:58.031884
2022-12-15 15:34:58.064980
2022-12-15 15:34:58.064980
2022-12-15 15:34:58.065982
2022-12-15 15:34:58.097567
2022-12-15 15:34:58.098565
2022-12-15 15:34:58.098565
2022-12-15 15:34:58.132236
2022-12-15 15:34:58.132236
2022-12-15 15:34:58.165395
2022-12-15 15:34:58.165395
2022-12-15 15:34:58.166397
2022-12-15 15:34:58.198665
2022-12-15 15:34:58.198665
2022-12-15 15:34:58.199705
2022-12-15 15:34:58.232009
2022-12-15 15:34:58.232009
2022-12-15 15:34:58.265287
2022-12-15 15:34:58.266322
2022-12-15 15:34:58.266572
2022-12-15 15:34:58.299841
2022-12-15 15:34:58.299841
2022-12-15 15:34:58.300842
2022-12-15 15:34:58.333315
2022-12-15 15:34:58.333664
2022-12-15 15:34:58.366885
2022-12-15 15:34:58.367129
2022-12-15 15:34:58.367665
2022-12-15 15:34:58.400085
2022-12-15 15:34:58.400417
2022-12-15 15:34:58.401021
2022-12-15 15:34:58.433700
2022-12-15 15:34:58.434084
2022-12-15 15:34:58.467165
2022-12-15 15:34:58.467411
2022-12-15 15:34:58.467877
2022-12-15 15:34:58.500824
2022-12-15 15:34:58.501121
2022-12-15 15:34:58.501121
2022-12-15 15:34:58.534232
2022-12-15 15:34:58.535239
2022-12-15 15:34:58.567148
2022-12-15 15:34:58.567148
2022-12-15 15:34:58.568144
2022-12-15 15:34:58.601427
2022-12-15 15:34:58.601728
2022-12-15 15:34:58.602262
2022-12-15 15:34:58.635003
2022-12-15 15:34:58.635350
2022-12-15 15:34:58.668301
2022-12-15 15:34:58.668638
2022-12-15 15:34:58.669199
2022-12-15 15:34:58.702332
2022-12-15 15:34:58.702332
2022-12-15 15:34:58.703333
2022-12-15 15:34:58.735517
2022-12-15 15:34:58.735870
2022-12-15 15:34:58.769363
2022-12-15 15:34:58.769606
2022-12-15 15:34:58.769606
2022-12-15 15:34:58.802684
2022-12-15 15:34:58.802980
2022-12-15 15:34:58.803448
2022-12-15 15:34:58.836456
2022-12-15 15:34:58.836805
2022-12-15 15:34:58.869805
2022-12-15 15:34:58.869805
2022-12-15 15:34:58.870809
2022-12-15 15:34:58.902502
2022-12-15 15:34:58.902502
2022-12-15 15:34:58.903511
2022-12-15 15:34:58.936728
2022-12-15 15:34:58.937082
2022-12-15 15:34:58.970121
2022-12-15 15:34:58.970365
2022-12-15 15:34:58.970884
2022-12-15 15:34:59.003853
2022-12-15 15:34:59.004150
2022-12-15 15:34:59.004678
2022-12-15 15:34:59.037296
2022-12-15 15:34:59.037646
2022-12-15 15:34:59.070946
2022-12-15 15:34:59.071193
2022-12-15 15:34:59.071193
2022-12-15 15:34:59.103301
2022-12-15 15:34:59.104297
2022-12-15 15:34:59.104297
2022-12-15 15:34:59.137924
2022-12-15 15:34:59.138273
2022-12-15 15:34:59.171497
2022-12-15 15:34:59.171745
2022-12-15 15:34:59.171745
2022-12-15 15:34:59.205205
2022-12-15 15:34:59.205752
2022-12-15 15:34:59.205752
2022-12-15 15:34:59.238185
2022-12-15 15:34:59.239215
2022-12-15 15:34:59.271160
2022-12-15 15:34:59.272166
2022-12-15 15:34:59.272166
2022-12-15 15:34:59.305253
2022-12-15 15:34:59.305847
2022-12-15 15:34:59.305847
2022-12-15 15:34:59.339414
2022-12-15 15:34:59.339414
2022-12-15 15:34:59.372120
2022-12-15 15:34:59.372120
2022-12-15 15:34:59.373123
2022-12-15 15:34:59.405912
2022-12-15 15:34:59.406716
2022-12-15 15:34:59.406716
2022-12-15 15:34:59.439597
2022-12-15 15:34:59.439597
2022-12-15 15:34:59.473054
2022-12-15 15:34:59.473054
2022-12-15 15:34:59.474054
2022-12-15 15:34:59.506666
2022-12-15 15:34:59.506666
2022-12-15 15:34:59.507691
2022-12-15 15:34:59.540133
2022-12-15 15:34:59.540133
2022-12-15 15:34:59.573619
2022-12-15 15:34:59.574627
2022-12-15 15:34:59.574831
2022-12-15 15:34:59.606955
2022-12-15 15:34:59.607554
2022-12-15 15:34:59.607554
2022-12-15 15:34:59.640670
2022-12-15 15:34:59.641082
2022-12-15 15:34:59.674213
2022-12-15 15:34:59.674529
2022-12-15 15:34:59.675121
2022-12-15 15:34:59.707221
2022-12-15 15:34:59.707636
2022-12-15 15:34:59.708199
2022-12-15 15:34:59.741371
2022-12-15 15:34:59.741790
2022-12-15 15:34:59.774712
2022-12-15 15:34:59.775001
2022-12-15 15:34:59.775001
2022-12-15 15:34:59.808444
2022-12-15 15:34:59.808739
2022-12-15 15:34:59.809207
2022-12-15 15:34:59.841536
2022-12-15 15:34:59.841886
2022-12-15 15:34:59.874482
2022-12-15 15:34:59.875480
2022-12-15 15:34:59.875480
2022-12-15 15:34:59.909215
2022-12-15 15:34:59.909584
2022-12-15 15:34:59.909584
2022-12-15 15:34:59.942447
2022-12-15 15:34:59.943104
2022-12-15 15:34:59.976070
2022-12-15 15:34:59.976313
2022-12-15 15:34:59.976830
2022-12-15 15:35:00.009028
2022-12-15 15:35:00.011028
2022-12-15 15:35:00.012019
2022-12-15 15:35:00.043178
2022-12-15 15:35:00.043556
2022-12-15 15:35:00.076838
2022-12-15 15:35:00.077111
2022-12-15 15:35:00.077111
2022-12-15 15:35:00.110166
2022-12-15 15:35:00.110464
2022-12-15 15:35:00.110932
2022-12-15 15:35:00.143870
2022-12-15 15:35:00.144216
2022-12-15 15:35:00.177402
2022-12-15 15:35:00.177646
2022-12-15 15:35:00.177646
2022-12-15 15:35:00.210993
2022-12-15 15:35:00.210993
2022-12-15 15:35:00.212005
2022-12-15 15:35:00.244104
2022-12-15 15:35:00.245135
2022-12-15 15:35:00.278140
2022-12-15 15:35:00.278383
2022-12-15 15:35:00.278916
2022-12-15 15:35:00.311301
2022-12-15 15:35:00.311597
2022-12-15 15:35:00.312132
2022-12-15 15:35:00.345338
2022-12-15 15:35:00.345689
2022-12-15 15:35:00.378517
2022-12-15 15:35:00.378762
2022-12-15 15:35:00.379298
2022-12-15 15:35:00.412331
2022-12-15 15:35:00.412625
2022-12-15 15:35:00.413162
2022-12-15 15:35:00.445537
2022-12-15 15:35:00.445887
2022-12-15 15:35:00.479179
2022-12-15 15:35:00.479470
2022-12-15 15:35:00.479470
2022-12-15 15:35:00.512690
2022-12-15 15:35:00.512992
2022-12-15 15:35:00.513453
2022-12-15 15:35:00.546113
2022-12-15 15:35:00.546113
2022-12-15 15:35:00.578967
2022-12-15 15:35:00.579973
2022-12-15 15:35:00.580153
2022-12-15 15:35:00.613256
2022-12-15 15:35:00.613256
2022-12-15 15:35:00.614191
2022-12-15 15:35:00.646794
2022-12-15 15:35:00.647143
2022-12-15 15:35:00.680456
2022-12-15 15:35:00.680700
2022-12-15 15:35:00.681215
2022-12-15 15:35:00.713708
2022-12-15 15:35:00.714005
2022-12-15 15:35:00.714518
2022-12-15 15:35:00.747482
2022-12-15 15:35:00.747898
2022-12-15 15:35:00.781276
2022-12-15 15:35:00.781521
2022-12-15 15:35:00.782052
2022-12-15 15:35:00.814384
2022-12-15 15:35:00.814683
2022-12-15 15:35:00.815196
2022-12-15 15:35:00.848337
2022-12-15 15:35:00.849339
2022-12-15 15:35:00.880240
2022-12-15 15:35:00.881247
2022-12-15 15:35:00.881651
2022-12-15 15:35:00.915287
2022-12-15 15:35:00.915584
2022-12-15 15:35:00.915584
2022-12-15 15:35:00.948423
2022-12-15 15:35:00.948773
2022-12-15 15:35:00.982218
2022-12-15 15:35:00.982464
2022-12-15 15:35:00.982464
2022-12-15 15:35:01.014948
2022-12-15 15:35:01.015473
2022-12-15 15:35:01.015473
2022-12-15 15:35:01.049284
2022-12-15 15:35:01.049632
2022-12-15 15:35:01.082864
2022-12-15 15:35:01.083110
2022-12-15 15:35:01.083110
2022-12-15 15:35:01.116076
2022-12-15 15:35:01.117080
2022-12-15 15:35:01.117080
2022-12-15 15:35:01.149698
2022-12-15 15:35:01.150046
2022-12-15 15:35:01.183187
2022-12-15 15:35:01.183430
2022-12-15 15:35:01.183430
2022-12-15 15:35:01.216305
2022-12-15 15:35:01.216592
2022-12-15 15:35:01.217129
2022-12-15 15:35:01.250493
2022-12-15 15:35:01.250842
2022-12-15 15:35:01.283966
2022-12-15 15:35:01.284211
2022-12-15 15:35:01.284688
2022-12-15 15:35:01.317400
2022-12-15 15:35:01.317697
2022-12-15 15:35:01.318225
2022-12-15 15:35:01.351377
2022-12-15 15:35:01.351725
2022-12-15 15:35:01.384555
2022-12-15 15:35:01.384798
2022-12-15 15:35:01.384798
2022-12-15 15:35:01.417671
2022-12-15 15:35:01.417671
2022-12-15 15:35:01.417671
2022-12-15 15:35:01.450639
2022-12-15 15:35:01.451635
2022-12-15 15:35:01.485160
2022-12-15 15:35:01.485450
2022-12-15 15:35:01.486071
2022-12-15 15:35:01.518615
2022-12-15 15:35:01.518912
2022-12-15 15:35:01.519444
2022-12-15 15:35:01.552254
2022-12-15 15:35:01.552603
2022-12-15 15:35:01.585862
2022-12-15 15:35:01.586105
2022-12-15 15:35:01.586567
2022-12-15 15:35:01.619182
2022-12-15 15:35:01.619481
2022-12-15 15:35:01.620010
2022-12-15 15:35:01.652808
2022-12-15 15:35:01.652808
2022-12-15 15:35:01.685992
2022-12-15 15:35:01.687002
2022-12-15 15:35:01.687002
2022-12-15 15:35:01.719668
2022-12-15 15:35:01.719963
2022-12-15 15:35:01.720499
2022-12-15 15:35:01.753370
2022-12-15 15:35:01.753721
2022-12-15 15:35:01.786706
2022-12-15 15:35:01.786706
2022-12-15 15:35:01.787519
2022-12-15 15:35:01.820444
2022-12-15 15:35:01.820743
2022-12-15 15:35:01.821287
2022-12-15 15:35:01.853911
2022-12-15 15:35:01.854260
2022-12-15 15:35:01.887497
2022-12-15 15:35:01.887742
2022-12-15 15:35:01.887742
2022-12-15 15:35:01.921276
2022-12-15 15:35:01.921572
2022-12-15 15:35:01.921572
2022-12-15 15:35:01.954436
2022-12-15 15:35:01.954786
2022-12-15 15:35:01.988031
2022-12-15 15:35:01.988277
2022-12-15 15:35:01.988741
2022-12-15 15:35:02.021566
2022-12-15 15:35:02.022029
2022-12-15 15:35:02.023033
2022-12-15 15:35:02.054708
2022-12-15 15:35:02.054708
2022-12-15 15:35:02.088673
2022-12-15 15:35:02.088921
2022-12-15 15:35:02.088921
2022-12-15 15:35:02.122093
2022-12-15 15:35:02.122405
2022-12-15 15:35:02.122933
2022-12-15 15:35:02.155610
2022-12-15 15:35:02.155961
2022-12-15 15:35:02.189360
2022-12-15 15:35:02.189632
2022-12-15 15:35:02.189632
2022-12-15 15:35:02.222700
2022-12-15 15:35:02.223328
2022-12-15 15:35:02.223328
2022-12-15 15:35:02.256841
2022-12-15 15:35:02.256841
2022-12-15 15:35:02.289728
2022-12-15 15:35:02.290765
2022-12-15 15:35:02.290765
2022-12-15 15:35:02.323249
2022-12-15 15:35:02.323249
2022-12-15 15:35:02.324249
2022-12-15 15:35:02.356805
2022-12-15 15:35:02.357147
2022-12-15 15:35:02.390274
2022-12-15 15:35:02.390274
2022-12-15 15:35:02.391279
2022-12-15 15:35:02.424086
2022-12-15 15:35:02.424774
2022-12-15 15:35:02.425049
2022-12-15 15:35:02.457448
2022-12-15 15:35:02.457448
2022-12-15 15:35:02.489815
2022-12-15 15:35:02.490820
2022-12-15 15:35:02.490820
2022-12-15 15:35:02.524430
2022-12-15 15:35:02.524813
2022-12-15 15:35:02.524813
2022-12-15 15:35:02.558175
2022-12-15 15:35:02.559183
2022-12-15 15:35:02.591448
2022-12-15 15:35:02.592457
2022-12-15 15:35:02.592457
2022-12-15 15:35:02.624545
2022-12-15 15:35:02.624884
2022-12-15 15:35:02.625481
2022-12-15 15:35:02.658314
2022-12-15 15:35:02.658708
2022-12-15 15:35:02.692064
2022-12-15 15:35:02.692354
2022-12-15 15:35:02.692920
2022-12-15 15:35:02.725312
2022-12-15 15:35:02.725672
2022-12-15 15:35:02.726241
2022-12-15 15:35:02.758990
2022-12-15 15:35:02.759994
2022-12-15 15:35:02.792701
2022-12-15 15:35:02.792973
2022-12-15 15:35:02.793484
2022-12-15 15:35:02.826170
2022-12-15 15:35:02.826494
2022-12-15 15:35:02.827076
2022-12-15 15:35:02.860028
2022-12-15 15:35:02.860381
2022-12-15 15:35:02.893452
2022-12-15 15:35:02.894284
2022-12-15 15:35:02.894284
2022-12-15 15:35:02.926420
2022-12-15 15:35:02.926717
2022-12-15 15:35:02.927286
2022-12-15 15:35:02.960398
2022-12-15 15:35:02.960795
2022-12-15 15:35:02.993821
2022-12-15 15:35:02.993821
2022-12-15 15:35:02.994801
2022-12-15 15:35:03.027376
2022-12-15 15:35:03.027376
2022-12-15 15:35:03.028307
2022-12-15 15:35:03.060849
2022-12-15 15:35:03.060849
2022-12-15 15:35:03.094037
2022-12-15 15:35:03.094037
2022-12-15 15:35:03.094901
2022-12-15 15:35:03.127772
2022-12-15 15:35:03.128091
2022-12-15 15:35:03.128608
2022-12-15 15:35:03.161027
2022-12-15 15:35:03.161027
2022-12-15 15:35:03.194296
2022-12-15 15:35:03.194296
2022-12-15 15:35:03.195313
2022-12-15 15:35:03.228655
2022-12-15 15:35:03.228950
2022-12-15 15:35:03.229464
2022-12-15 15:35:03.262065
2022-12-15 15:35:03.262443
2022-12-15 15:35:03.295632
2022-12-15 15:35:03.295904
2022-12-15 15:35:03.296508
2022-12-15 15:35:03.329368
2022-12-15 15:35:03.329690
2022-12-15 15:35:03.329690
2022-12-15 15:35:03.362365
2022-12-15 15:35:03.362365
2022-12-15 15:35:03.396249
2022-12-15 15:35:03.396494
2022-12-15 15:35:03.397025
2022-12-15 15:35:03.429673
2022-12-15 15:35:03.429673
2022-12-15 15:35:03.430675
2022-12-15 15:35:03.462367
2022-12-15 15:35:03.463437
2022-12-15 15:35:03.496902
2022-12-15 15:35:03.497147
2022-12-15 15:35:03.497147
2022-12-15 15:35:03.530584
2022-12-15 15:35:03.530994
2022-12-15 15:35:03.531508
2022-12-15 15:35:03.564073
2022-12-15 15:35:03.564426
2022-12-15 15:35:03.597569
2022-12-15 15:35:03.597817
2022-12-15 15:35:03.598286
2022-12-15 15:35:03.631124
2022-12-15 15:35:03.631425
2022-12-15 15:35:03.631941
2022-12-15 15:35:03.664661
2022-12-15 15:35:03.664661
2022-12-15 15:35:03.698103
2022-12-15 15:35:03.698603
2022-12-15 15:35:03.698603
2022-12-15 15:35:03.730308
2022-12-15 15:35:03.731377
2022-12-15 15:35:03.731377
2022-12-15 15:35:03.765376
2022-12-15 15:35:03.765725
2022-12-15 15:35:03.798805
2022-12-15 15:35:03.799049
2022-12-15 15:35:03.799559
2022-12-15 15:35:03.832475
2022-12-15 15:35:03.832771
2022-12-15 15:35:03.833281
2022-12-15 15:35:03.865819
2022-12-15 15:35:03.866167
2022-12-15 15:35:03.899475
2022-12-15 15:35:03.899720
2022-12-15 15:35:03.900193
2022-12-15 15:35:03.932810
2022-12-15 15:35:03.933110
2022-12-15 15:35:03.933644
2022-12-15 15:35:03.966473
2022-12-15 15:35:03.966822
2022-12-15 15:35:03.999908
2022-12-15 15:35:04.000183
2022-12-15 15:35:04.000183
2022-12-15 15:35:04.032795
2022-12-15 15:35:04.032795
2022-12-15 15:35:04.032795
2022-12-15 15:35:04.066673
2022-12-15 15:35:04.066673
2022-12-15 15:35:04.100466
2022-12-15 15:35:04.100710
2022-12-15 15:35:04.100710
2022-12-15 15:35:04.134099
2022-12-15 15:35:04.134397
2022-12-15 15:35:04.134397
2022-12-15 15:35:04.167509
2022-12-15 15:35:04.167862
2022-12-15 15:35:04.201460
2022-12-15 15:35:04.201703
2022-12-15 15:35:04.202165
2022-12-15 15:35:04.234767
2022-12-15 15:35:04.235065
2022-12-15 15:35:04.235598
2022-12-15 15:35:04.268507
2022-12-15 15:35:04.268858
2022-12-15 15:35:04.301865
2022-12-15 15:35:04.302110
2022-12-15 15:35:04.302639
2022-12-15 15:35:04.335524
2022-12-15 15:35:04.335524
2022-12-15 15:35:04.336525
2022-12-15 15:35:04.368778
2022-12-15 15:35:04.368778
2022-12-15 15:35:04.402231
2022-12-15 15:35:04.402231
2022-12-15 15:35:04.403237
2022-12-15 15:35:04.434751
2022-12-15 15:35:04.435753
2022-12-15 15:35:04.436145
2022-12-15 15:35:04.469280
2022-12-15 15:35:04.469639
2022-12-15 15:35:04.502858
2022-12-15 15:35:04.503143
2022-12-15 15:35:04.503666
2022-12-15 15:35:04.536490
2022-12-15 15:35:04.536786
2022-12-15 15:35:04.536786
2022-12-15 15:35:04.570094
2022-12-15 15:35:04.570472
2022-12-15 15:35:04.603619
2022-12-15 15:35:04.603867
2022-12-15 15:35:04.604337
2022-12-15 15:35:04.637143
2022-12-15 15:35:04.637443
2022-12-15 15:35:04.637983
2022-12-15 15:35:04.670709
2022-12-15 15:35:04.671059
2022-12-15 15:35:04.704156
2022-12-15 15:35:04.704667
2022-12-15 15:35:04.704667
2022-12-15 15:35:04.736470
2022-12-15 15:35:04.737558
2022-12-15 15:35:04.737949
2022-12-15 15:35:04.770741
2022-12-15 15:35:04.771093
2022-12-15 15:35:04.804835
2022-12-15 15:35:04.805082
2022-12-15 15:35:04.805601
2022-12-15 15:35:04.838363
2022-12-15 15:35:04.838662
2022-12-15 15:35:04.839177
2022-12-15 15:35:04.871745
2022-12-15 15:35:04.872092
2022-12-15 15:35:04.905414
2022-12-15 15:35:04.905666
2022-12-15 15:35:04.905666
2022-12-15 15:35:04.938794
2022-12-15 15:35:04.939089
2022-12-15 15:35:04.939607
2022-12-15 15:35:04.972453
2022-12-15 15:35:04.972800
2022-12-15 15:35:05.005850
2022-12-15 15:35:05.006217
2022-12-15 15:35:05.006217
2022-12-15 15:35:05.039424
2022-12-15 15:35:05.039752
2022-12-15 15:35:05.040324
2022-12-15 15:35:05.072834
2022-12-15 15:35:05.072834
2022-12-15 15:35:05.106366
2022-12-15 15:35:05.106610
2022-12-15 15:35:05.107121
2022-12-15 15:35:05.139634
2022-12-15 15:35:05.139634
2022-12-15 15:35:05.140638
2022-12-15 15:35:05.172604
2022-12-15 15:35:05.173600
2022-12-15 15:35:05.207040
2022-12-15 15:35:05.207288
2022-12-15 15:35:05.207288
2022-12-15 15:35:05.240519
2022-12-15 15:35:05.240519
2022-12-15 15:35:05.241520
2022-12-15 15:35:05.274380
2022-12-15 15:35:05.274380
2022-12-15 15:35:05.307361
2022-12-15 15:35:05.307361
2022-12-15 15:35:05.308391
2022-12-15 15:35:05.341454
2022-12-15 15:35:05.341454
2022-12-15 15:35:05.342456
2022-12-15 15:35:05.374786
2022-12-15 15:35:05.374786
2022-12-15 15:35:05.408457
2022-12-15 15:35:05.408457
2022-12-15 15:35:05.409340
2022-12-15 15:35:05.441771
2022-12-15 15:35:05.441771
2022-12-15 15:35:05.442778
2022-12-15 15:35:05.475483
2022-12-15 15:35:05.476490
2022-12-15 15:35:05.508421
2022-12-15 15:35:05.509429
2022-12-15 15:35:05.509429
2022-12-15 15:35:05.541496
2022-12-15 15:35:05.542504
2022-12-15 15:35:05.542504
2022-12-15 15:35:05.575762
2022-12-15 15:35:05.575762
2022-12-15 15:35:05.609235
2022-12-15 15:35:05.609522
2022-12-15 15:35:05.609522
2022-12-15 15:35:05.642764
2022-12-15 15:35:05.642764
2022-12-15 15:35:05.643715
2022-12-15 15:35:05.676320
2022-12-15 15:35:05.676728
2022-12-15 15:35:05.709502
2022-12-15 15:35:05.709748
2022-12-15 15:35:05.710210
2022-12-15 15:35:05.742994
2022-12-15 15:35:05.743289
2022-12-15 15:35:05.743808
2022-12-15 15:35:05.776493
2022-12-15 15:35:05.776909
2022-12-15 15:35:05.809737
2022-12-15 15:35:05.810743
2022-12-15 15:35:05.811010
2022-12-15 15:35:05.844295
2022-12-15 15:35:05.844590
2022-12-15 15:35:05.845098
2022-12-15 15:35:05.877650
2022-12-15 15:35:05.877998
2022-12-15 15:35:05.911344
2022-12-15 15:35:05.911589
2022-12-15 15:35:05.912120
2022-12-15 15:35:05.944648
2022-12-15 15:35:05.944938
2022-12-15 15:35:05.945456
2022-12-15 15:35:05.978348
2022-12-15 15:35:05.978689
2022-12-15 15:35:06.011710
2022-12-15 15:35:06.011952
2022-12-15 15:35:06.012417
2022-12-15 15:35:06.045246
2022-12-15 15:35:06.045578
2022-12-15 15:35:06.046093
2022-12-15 15:35:06.078748
2022-12-15 15:35:06.079154
2022-12-15 15:35:06.112302
2022-12-15 15:35:06.112547
2022-12-15 15:35:06.112547
2022-12-15 15:35:06.145908
2022-12-15 15:35:06.146201
2022-12-15 15:35:06.146738
2022-12-15 15:35:06.179475
2022-12-15 15:35:06.179830
2022-12-15 15:35:06.212886
2022-12-15 15:35:06.212886
2022-12-15 15:35:06.213869
2022-12-15 15:35:06.246534
2022-12-15 15:35:06.246828
2022-12-15 15:35:06.246828
2022-12-15 15:35:06.280323
2022-12-15 15:35:06.280711
2022-12-15 15:35:06.313438
2022-12-15 15:35:06.313438
2022-12-15 15:35:06.314439
2022-12-15 15:35:06.347253
2022-12-15 15:35:06.347652
2022-12-15 15:35:06.348654
2022-12-15 15:35:06.380340
2022-12-15 15:35:06.380340
2022-12-15 15:35:06.414366
2022-12-15 15:35:06.414609
2022-12-15 15:35:06.415134
2022-12-15 15:35:06.447663
2022-12-15 15:35:06.447960
2022-12-15 15:35:06.448492
2022-12-15 15:35:06.481413
2022-12-15 15:35:06.481759
2022-12-15 15:35:06.514803
2022-12-15 15:35:06.515046
2022-12-15 15:35:06.515046
2022-12-15 15:35:06.548269
2022-12-15 15:35:06.548591
2022-12-15 15:35:06.549213
2022-12-15 15:35:06.581827
2022-12-15 15:35:06.582267
2022-12-15 15:35:06.615290
2022-12-15 15:35:06.615637
2022-12-15 15:35:06.616103
2022-12-15 15:35:06.649030
2022-12-15 15:35:06.649361
2022-12-15 15:35:06.649361
2022-12-15 15:35:06.681903
2022-12-15 15:35:06.682932
2022-12-15 15:35:06.714807
2022-12-15 15:35:06.715805
2022-12-15 15:35:06.715805
2022-12-15 15:35:06.749358
2022-12-15 15:35:06.749650
2022-12-15 15:35:06.750178
2022-12-15 15:35:06.783068
2022-12-15 15:35:06.783414
2022-12-15 15:35:06.816486
2022-12-15 15:35:06.816728
2022-12-15 15:35:06.817240
2022-12-15 15:35:06.850394
2022-12-15 15:35:06.850690
2022-12-15 15:35:06.851221
2022-12-15 15:35:06.883576
2022-12-15 15:35:06.883923
2022-12-15 15:35:06.916979
2022-12-15 15:35:06.917223
2022-12-15 15:35:06.917752
2022-12-15 15:35:06.950788
2022-12-15 15:35:06.950788
2022-12-15 15:35:06.951789
2022-12-15 15:35:06.984390
2022-12-15 15:35:06.984390
2022-12-15 15:35:07.017617
2022-12-15 15:35:07.018624
2022-12-15 15:35:07.018624
2022-12-15 15:35:07.050185
2022-12-15 15:35:07.051191
2022-12-15 15:35:07.051191
2022-12-15 15:35:07.084734
2022-12-15 15:35:07.085084
2022-12-15 15:35:07.118226
2022-12-15 15:35:07.118472
2022-12-15 15:35:07.119002
2022-12-15 15:35:07.151790
2022-12-15 15:35:07.152111
2022-12-15 15:35:07.152696
2022-12-15 15:35:07.185399
2022-12-15 15:35:07.185771
2022-12-15 15:35:07.218864
2022-12-15 15:35:07.219109
2022-12-15 15:35:07.219570
2022-12-15 15:35:07.252579
2022-12-15 15:35:07.252874
2022-12-15 15:35:07.252874
2022-12-15 15:35:07.286221
2022-12-15 15:35:07.286221
2022-12-15 15:35:07.319092
2022-12-15 15:35:07.319092
2022-12-15 15:35:07.320101
2022-12-15 15:35:07.352493
2022-12-15 15:35:07.352766
2022-12-15 15:35:07.353174
2022-12-15 15:35:07.386361
2022-12-15 15:35:07.386711
2022-12-15 15:35:07.420358
2022-12-15 15:35:07.420602
2022-12-15 15:35:07.421128
2022-12-15 15:35:07.453664
2022-12-15 15:35:07.453962
2022-12-15 15:35:07.454476
2022-12-15 15:35:07.486148
2022-12-15 15:35:07.487148
2022-12-15 15:35:07.519883
2022-12-15 15:35:07.519883
2022-12-15 15:35:07.520879
2022-12-15 15:35:07.553559
2022-12-15 15:35:07.554003
2022-12-15 15:35:07.554003
2022-12-15 15:35:07.587673
2022-12-15 15:35:07.588021
2022-12-15 15:35:07.621152
2022-12-15 15:35:07.621152
2022-12-15 15:35:07.622155
2022-12-15 15:35:07.654374
2022-12-15 15:35:07.655386
2022-12-15 15:35:07.655386
2022-12-15 15:35:07.688223
2022-12-15 15:35:07.688569
2022-12-15 15:35:07.721960
2022-12-15 15:35:07.722201
2022-12-15 15:35:07.722201
2022-12-15 15:35:07.755352
2022-12-15 15:35:07.755646
2022-12-15 15:35:07.756215
2022-12-15 15:35:07.789003
2022-12-15 15:35:07.789402
2022-12-15 15:35:07.822518
2022-12-15 15:35:07.822809
2022-12-15 15:35:07.823269
2022-12-15 15:35:07.856246
2022-12-15 15:35:07.856246
2022-12-15 15:35:07.857248
2022-12-15 15:35:07.889437
2022-12-15 15:35:07.889848
2022-12-15 15:35:07.923338
2022-12-15 15:35:07.923338
2022-12-15 15:35:07.924340
2022-12-15 15:35:07.956412
2022-12-15 15:35:07.956412
2022-12-15 15:35:07.957414
2022-12-15 15:35:07.989833
2022-12-15 15:35:07.990641
2022-12-15 15:35:08.023267
2022-12-15 15:35:08.023267
2022-12-15 15:35:08.024298
2022-12-15 15:35:08.056981
2022-12-15 15:35:08.057275
2022-12-15 15:35:08.057785
2022-12-15 15:35:08.090486
2022-12-15 15:35:08.090832
2022-12-15 15:35:08.124094
2022-12-15 15:35:08.124337
2022-12-15 15:35:08.124337
2022-12-15 15:35:08.157677
2022-12-15 15:35:08.157971
2022-12-15 15:35:08.157971
2022-12-15 15:35:08.191075
2022-12-15 15:35:08.191420
2022-12-15 15:35:08.224782
2022-12-15 15:35:08.225028
2022-12-15 15:35:08.225028
2022-12-15 15:35:08.258319
2022-12-15 15:35:08.258616
2022-12-15 15:35:08.258616
2022-12-15 15:35:08.291660
2022-12-15 15:35:08.291660
2022-12-15 15:35:08.325267
2022-12-15 15:35:08.325879
2022-12-15 15:35:08.325879
2022-12-15 15:35:08.358380
2022-12-15 15:35:08.358380
2022-12-15 15:35:08.359375
2022-12-15 15:35:08.392253
2022-12-15 15:35:08.392939
2022-12-15 15:35:08.426152
2022-12-15 15:35:08.426382
2022-12-15 15:35:08.427054
2022-12-15 15:35:08.459310
2022-12-15 15:35:08.459650
2022-12-15 15:35:08.459650
2022-12-15 15:35:08.493241
2022-12-15 15:35:08.493667
2022-12-15 15:35:08.526319
2022-12-15 15:35:08.526637
2022-12-15 15:35:08.526637
2022-12-15 15:35:08.560309
2022-12-15 15:35:08.560684
2022-12-15 15:35:08.561244
2022-12-15 15:35:08.593232
2022-12-15 15:35:08.593232
2022-12-15 15:35:08.627177
2022-12-15 15:35:08.627450
2022-12-15 15:35:08.628048
2022-12-15 15:35:08.660739
2022-12-15 15:35:08.661736
2022-12-15 15:35:08.661736
2022-12-15 15:35:08.694117
2022-12-15 15:35:08.694465
2022-12-15 15:35:08.727738
2022-12-15 15:35:08.727981
2022-12-15 15:35:08.728508
2022-12-15 15:35:08.761137
2022-12-15 15:35:08.761433
2022-12-15 15:35:08.761962
2022-12-15 15:35:08.794810
2022-12-15 15:35:08.795157
2022-12-15 15:35:08.828320
2022-12-15 15:35:08.828567
2022-12-15 15:35:08.829030
2022-12-15 15:35:08.861758
2022-12-15 15:35:08.862054
2022-12-15 15:35:08.862580
2022-12-15 15:35:08.895354
2022-12-15 15:35:08.895698
2022-12-15 15:35:08.929066
2022-12-15 15:35:08.929066
2022-12-15 15:35:08.930068
2022-12-15 15:35:08.962276
2022-12-15 15:35:08.963306
2022-12-15 15:35:08.963306
2022-12-15 15:35:08.996243
2022-12-15 15:35:08.996590
2022-12-15 15:35:09.029380
2022-12-15 15:35:09.029620
2022-12-15 15:35:09.030153
2022-12-15 15:35:09.063203
2022-12-15 15:35:09.063203
2022-12-15 15:35:09.064269
2022-12-15 15:35:09.096698
2022-12-15 15:35:09.097091
2022-12-15 15:35:09.130245
2022-12-15 15:35:09.130517
2022-12-15 15:35:09.131183
2022-12-15 15:35:09.163713
2022-12-15 15:35:09.164008
2022-12-15 15:35:09.164541
2022-12-15 15:35:09.197195
2022-12-15 15:35:09.197543
2022-12-15 15:35:09.229497
2022-12-15 15:35:09.230490
2022-12-15 15:35:09.230490
2022-12-15 15:35:09.264091
2022-12-15 15:35:09.264468
2022-12-15 15:35:09.265473
2022-12-15 15:35:09.296592
2022-12-15 15:35:09.297599
2022-12-15 15:35:09.331314
2022-12-15 15:35:09.331559
2022-12-15 15:35:09.332084
2022-12-15 15:35:09.364727
2022-12-15 15:35:09.365024
2022-12-15 15:35:09.365024
2022-12-15 15:35:09.398438
2022-12-15 15:35:09.398795
2022-12-15 15:35:09.432251
2022-12-15 15:35:09.432494
2022-12-15 15:35:09.433025
2022-12-15 15:35:09.465451
2022-12-15 15:35:09.465744
2022-12-15 15:35:09.466275
2022-12-15 15:35:09.499311
2022-12-15 15:35:09.499661
2022-12-15 15:35:09.532478
2022-12-15 15:35:09.532722
2022-12-15 15:35:09.533251
2022-12-15 15:35:09.566386
2022-12-15 15:35:09.566682
2022-12-15 15:35:09.567142
2022-12-15 15:35:09.599416
2022-12-15 15:35:09.599416
2022-12-15 15:35:09.633101
2022-12-15 15:35:09.633101
2022-12-15 15:35:09.634205
2022-12-15 15:35:09.666547
2022-12-15 15:35:09.666883
2022-12-15 15:35:09.667419
2022-12-15 15:35:09.700109
2022-12-15 15:35:09.700458
2022-12-15 15:35:09.733680
2022-12-15 15:35:09.733923
2022-12-15 15:35:09.734449
2022-12-15 15:35:09.767229
2022-12-15 15:35:09.767525
2022-12-15 15:35:09.768037
2022-12-15 15:35:09.800868
2022-12-15 15:35:09.801219
2022-12-15 15:35:09.834491
2022-12-15 15:35:09.834735
2022-12-15 15:35:09.835191
2022-12-15 15:35:09.867848
2022-12-15 15:35:09.868144
2022-12-15 15:35:09.868655
2022-12-15 15:35:09.901512
2022-12-15 15:35:09.901863
2022-12-15 15:35:09.933816
2022-12-15 15:35:09.934816
2022-12-15 15:35:09.934816
2022-12-15 15:35:09.967391
2022-12-15 15:35:09.968412
2022-12-15 15:35:09.968412
2022-12-15 15:35:10.001797
2022-12-15 15:35:10.002146
2022-12-15 15:35:10.035377
2022-12-15 15:35:10.035621
2022-12-15 15:35:10.036129
2022-12-15 15:35:10.069328
2022-12-15 15:35:10.069625
2022-12-15 15:35:10.070155
2022-12-15 15:35:10.102349
2022-12-15 15:35:10.102700
2022-12-15 15:35:10.135873
2022-12-15 15:35:10.136118
2022-12-15 15:35:10.136584
2022-12-15 15:35:10.169617
2022-12-15 15:35:10.169953
2022-12-15 15:35:10.169953
2022-12-15 15:35:10.203015
2022-12-15 15:35:10.203015
2022-12-15 15:35:10.235724
2022-12-15 15:35:10.236727
2022-12-15 15:35:10.236727
2022-12-15 15:35:10.270202
2022-12-15 15:35:10.270528
2022-12-15 15:35:10.271100
2022-12-15 15:35:10.303795
2022-12-15 15:35:10.304137
2022-12-15 15:35:10.337230
2022-12-15 15:35:10.337473
2022-12-15 15:35:10.338012
2022-12-15 15:35:10.370774
2022-12-15 15:35:10.370774
2022-12-15 15:35:10.371645
2022-12-15 15:35:10.404505
2022-12-15 15:35:10.404854
2022-12-15 15:35:10.437832
2022-12-15 15:35:10.437832
2022-12-15 15:35:10.438676
2022-12-15 15:35:10.471545
2022-12-15 15:35:10.471836
2022-12-15 15:35:10.472345
2022-12-15 15:35:10.504703
2022-12-15 15:35:10.505742
2022-12-15 15:35:10.537865
2022-12-15 15:35:10.538874
2022-12-15 15:35:10.538874
2022-12-15 15:35:10.572138
2022-12-15 15:35:10.572430
2022-12-15 15:35:10.572950
2022-12-15 15:35:10.605474
2022-12-15 15:35:10.605817
2022-12-15 15:35:10.638889
2022-12-15 15:35:10.639130
2022-12-15 15:35:10.639663
2022-12-15 15:35:10.672634
2022-12-15 15:35:10.672927
2022-12-15 15:35:10.673437
2022-12-15 15:35:10.706182
2022-12-15 15:35:10.706530
2022-12-15 15:35:10.739752
2022-12-15 15:35:10.740002
2022-12-15 15:35:10.740511
2022-12-15 15:35:10.773254
2022-12-15 15:35:10.773551
2022-12-15 15:35:10.774082
2022-12-15 15:35:10.806790
2022-12-15 15:35:10.807142
2022-12-15 15:35:10.840512
2022-12-15 15:35:10.840756
2022-12-15 15:35:10.840756
2022-12-15 15:35:10.873905
2022-12-15 15:35:10.874203
2022-12-15 15:35:10.874668
2022-12-15 15:35:10.907560
2022-12-15 15:35:10.907904
2022-12-15 15:35:10.940909
2022-12-15 15:35:10.941154
2022-12-15 15:35:10.941622
2022-12-15 15:35:10.974580
2022-12-15 15:35:10.974872
2022-12-15 15:35:10.974872
2022-12-15 15:35:11.007931
2022-12-15 15:35:11.007931
2022-12-15 15:35:11.041197
2022-12-15 15:35:11.042223
2022-12-15 15:35:11.042360
2022-12-15 15:35:11.074425
2022-12-15 15:35:11.074698
2022-12-15 15:35:11.075102
2022-12-15 15:35:11.108461
2022-12-15 15:35:11.108810
2022-12-15 15:35:11.141937
2022-12-15 15:35:11.142181
2022-12-15 15:35:11.142181
2022-12-15 15:35:11.175631
2022-12-15 15:35:11.175924
2022-12-15 15:35:11.175924
2022-12-15 15:35:11.209085
2022-12-15 15:35:11.209799
2022-12-15 15:35:11.242639
2022-12-15 15:35:11.243320
2022-12-15 15:35:11.243511
2022-12-15 15:35:11.276148
2022-12-15 15:35:11.276619
2022-12-15 15:35:11.276619
2022-12-15 15:35:11.309715
2022-12-15 15:35:11.309715
2022-12-15 15:35:11.343486
2022-12-15 15:35:11.343486
2022-12-15 15:35:11.344518
2022-12-15 15:35:11.376838
2022-12-15 15:35:11.377870
2022-12-15 15:35:11.377870
2022-12-15 15:35:11.409191
2022-12-15 15:35:11.410216
2022-12-15 15:35:11.444018
2022-12-15 15:35:11.444018
2022-12-15 15:35:11.444768
2022-12-15 15:35:11.476624
2022-12-15 15:35:11.476624
2022-12-15 15:35:11.477643
2022-12-15 15:35:11.510565
2022-12-15 15:35:11.510993
2022-12-15 15:35:11.544380
2022-12-15 15:35:11.544723
2022-12-15 15:35:11.544723
2022-12-15 15:35:11.577730
2022-12-15 15:35:11.578070
2022-12-15 15:35:11.578070
2022-12-15 15:35:11.610746
2022-12-15 15:35:11.610746
2022-12-15 15:35:11.644905
2022-12-15 15:35:11.645148
2022-12-15 15:35:11.645614
2022-12-15 15:35:11.678020
2022-12-15 15:35:11.678346
2022-12-15 15:35:11.678346
2022-12-15 15:35:11.711847
2022-12-15 15:35:11.712648
2022-12-15 15:35:11.745502
2022-12-15 15:35:11.745746
2022-12-15 15:35:11.746284
2022-12-15 15:35:11.779026
2022-12-15 15:35:11.779319
2022-12-15 15:35:11.779827
2022-12-15 15:35:11.812586
2022-12-15 15:35:11.812934
2022-12-15 15:35:11.845953
2022-12-15 15:35:11.846197
2022-12-15 15:35:11.846714
2022-12-15 15:35:11.879553
2022-12-15 15:35:11.879874
2022-12-15 15:35:11.880432
2022-12-15 15:35:11.913418
2022-12-15 15:35:11.913809
2022-12-15 15:35:11.946717
2022-12-15 15:35:11.946959
2022-12-15 15:35:11.947491
2022-12-15 15:35:11.980387
2022-12-15 15:35:11.980689
2022-12-15 15:35:11.981153
2022-12-15 15:35:12.013608
2022-12-15 15:35:12.013608
2022-12-15 15:35:12.046294
2022-12-15 15:35:12.047184
2022-12-15 15:35:12.047594
2022-12-15 15:35:12.080145
2022-12-15 15:35:12.080145
2022-12-15 15:35:12.081143
2022-12-15 15:35:12.114368
2022-12-15 15:35:12.114712
2022-12-15 15:35:12.147595
2022-12-15 15:35:12.148111
2022-12-15 15:35:12.148627
2022-12-15 15:35:12.181394
2022-12-15 15:35:12.181716
2022-12-15 15:35:12.182305
2022-12-15 15:35:12.215113
2022-12-15 15:35:12.215506
2022-12-15 15:35:12.248576
2022-12-15 15:35:12.248821
2022-12-15 15:35:12.249285
2022-12-15 15:35:12.282137
2022-12-15 15:35:12.282431
2022-12-15 15:35:12.282969
2022-12-15 15:35:12.315668
2022-12-15 15:35:12.316013
2022-12-15 15:35:12.349066
2022-12-15 15:35:12.349417
2022-12-15 15:35:12.350432
2022-12-15 15:35:12.382649
2022-12-15 15:35:12.382944
2022-12-15 15:35:12.383453
2022-12-15 15:35:12.416405
2022-12-15 15:35:12.416750
2022-12-15 15:35:12.449812
2022-12-15 15:35:12.450056
2022-12-15 15:35:12.450563
2022-12-15 15:35:12.483495
2022-12-15 15:35:12.483816
2022-12-15 15:35:12.484394
2022-12-15 15:35:12.516799
2022-12-15 15:35:12.517152
2022-12-15 15:35:12.550464
2022-12-15 15:35:12.550708
2022-12-15 15:35:12.551172
2022-12-15 15:35:12.583821
2022-12-15 15:35:12.584116
2022-12-15 15:35:12.584644
2022-12-15 15:35:12.617366
2022-12-15 15:35:12.617786
2022-12-15 15:35:12.650857
2022-12-15 15:35:12.651102
2022-12-15 15:35:12.651102
2022-12-15 15:35:12.684791
2022-12-15 15:35:12.684791
2022-12-15 15:35:12.685794
2022-12-15 15:35:12.717450
2022-12-15 15:35:12.717773
2022-12-15 15:35:12.751396
2022-12-15 15:35:12.751396
2022-12-15 15:35:12.752263
2022-12-15 15:35:12.784986
2022-12-15 15:35:12.784986
2022-12-15 15:35:12.785906
2022-12-15 15:35:12.818554
2022-12-15 15:35:12.818554
2022-12-15 15:35:12.851923
2022-12-15 15:35:12.851923
2022-12-15 15:35:12.852925
2022-12-15 15:35:12.885391
2022-12-15 15:35:12.885391
2022-12-15 15:35:12.886313
2022-12-15 15:35:12.918636
2022-12-15 15:35:12.918999
2022-12-15 15:35:12.952854
2022-12-15 15:35:12.953099
2022-12-15 15:35:12.953633
2022-12-15 15:35:12.985361
2022-12-15 15:35:12.986363
2022-12-15 15:35:12.986363
2022-12-15 15:35:13.018387
2022-12-15 15:35:13.019499
2022-12-15 15:35:13.053376
2022-12-15 15:35:13.053620
2022-12-15 15:35:13.053620
2022-12-15 15:35:13.086662
2022-12-15 15:35:13.086958
2022-12-15 15:35:13.087492
2022-12-15 15:35:13.120351
2022-12-15 15:35:13.120704
2022-12-15 15:35:13.153704
2022-12-15 15:35:13.153949
2022-12-15 15:35:13.153949
2022-12-15 15:35:13.187329
2022-12-15 15:35:13.187625
2022-12-15 15:35:13.188084
2022-12-15 15:35:13.220808
2022-12-15 15:35:13.221181
2022-12-15 15:35:13.254179
2022-12-15 15:35:13.255229
2022-12-15 15:35:13.255229
2022-12-15 15:35:13.286581
2022-12-15 15:35:13.287577
2022-12-15 15:35:13.287577
2022-12-15 15:35:13.321567
2022-12-15 15:35:13.321915
2022-12-15 15:35:13.355094
2022-12-15 15:35:13.355333
2022-12-15 15:35:13.355864
2022-12-15 15:35:13.388639
2022-12-15 15:35:13.388936
2022-12-15 15:35:13.389467
2022-12-15 15:35:13.422380
2022-12-15 15:35:13.422729
2022-12-15 15:35:13.455722
2022-12-15 15:35:13.455963
2022-12-15 15:35:13.456485
2022-12-15 15:35:13.489334
2022-12-15 15:35:13.489334
2022-12-15 15:35:13.490337
2022-12-15 15:35:13.522407
2022-12-15 15:35:13.523423
2022-12-15 15:35:13.555104
2022-12-15 15:35:13.556112
2022-12-15 15:35:13.556112
2022-12-15 15:35:13.588733
2022-12-15 15:35:13.589732
2022-12-15 15:35:13.589732
2022-12-15 15:35:13.622536
2022-12-15 15:35:13.622536
2022-12-15 15:35:13.656884
2022-12-15 15:35:13.657127
2022-12-15 15:35:13.657634
2022-12-15 15:35:13.690279
2022-12-15 15:35:13.690575
2022-12-15 15:35:13.691098
2022-12-15 15:35:13.724005
2022-12-15 15:35:13.724349
2022-12-15 15:35:13.757535
2022-12-15 15:35:13.757778
2022-12-15 15:35:13.757778
2022-12-15 15:35:13.791057
2022-12-15 15:35:13.791446
2022-12-15 15:35:13.791906
2022-12-15 15:35:13.824597
2022-12-15 15:35:13.824950
2022-12-15 15:35:13.858139
2022-12-15 15:35:13.858383
2022-12-15 15:35:13.858846
2022-12-15 15:35:13.891588
2022-12-15 15:35:13.891588
2022-12-15 15:35:13.892592
2022-12-15 15:35:13.925319
2022-12-15 15:35:13.925692
2022-12-15 15:35:13.958388
2022-12-15 15:35:13.958388
2022-12-15 15:35:13.959421
2022-12-15 15:35:13.990819
2022-12-15 15:35:13.991939
2022-12-15 15:35:13.991939
2022-12-15 15:35:14.025635
2022-12-15 15:35:14.025979
2022-12-15 15:35:14.059415
2022-12-15 15:35:14.059659
2022-12-15 15:35:14.059659
2022-12-15 15:35:14.091803
2022-12-15 15:35:14.092757
2022-12-15 15:35:14.092757
2022-12-15 15:35:14.126462
2022-12-15 15:35:14.126462
2022-12-15 15:35:14.159137
2022-12-15 15:35:14.159469
2022-12-15 15:35:14.159469
2022-12-15 15:35:14.193231
2022-12-15 15:35:14.193231
2022-12-15 15:35:14.194232
2022-12-15 15:35:14.226849
2022-12-15 15:35:14.226849
2022-12-15 15:35:14.260117
2022-12-15 15:35:14.260635
2022-12-15 15:35:14.260635
2022-12-15 15:35:14.293716
2022-12-15 15:35:14.294034
2022-12-15 15:35:14.294034
2022-12-15 15:35:14.327166
2022-12-15 15:35:14.328174
2022-12-15 15:35:14.360808
2022-12-15 15:35:14.361445
2022-12-15 15:35:14.361445
2022-12-15 15:35:14.394269
2022-12-15 15:35:14.394605
2022-12-15 15:35:14.395168
2022-12-15 15:35:14.428221
2022-12-15 15:35:14.428635
2022-12-15 15:35:14.461377
2022-12-15 15:35:14.461690
2022-12-15 15:35:14.461690
2022-12-15 15:35:14.494749
2022-12-15 15:35:14.494749
2022-12-15 15:35:14.495746
2022-12-15 15:35:14.528386
2022-12-15 15:35:14.528839
2022-12-15 15:35:14.561587
2022-12-15 15:35:14.561933
2022-12-15 15:35:14.562553
2022-12-15 15:35:14.595579
2022-12-15 15:35:14.595907
2022-12-15 15:35:14.596410
2022-12-15 15:35:14.628939
2022-12-15 15:35:14.628939
2022-12-15 15:35:14.662383
2022-12-15 15:35:14.662383
2022-12-15 15:35:14.663060
2022-12-15 15:35:14.696105
2022-12-15 15:35:14.696401
2022-12-15 15:35:14.696918
2022-12-15 15:35:14.729762
2022-12-15 15:35:14.730105
2022-12-15 15:35:14.763147
2022-12-15 15:35:14.763147
2022-12-15 15:35:14.764148
2022-12-15 15:35:14.796869
2022-12-15 15:35:14.797166
2022-12-15 15:35:14.797166
2022-12-15 15:35:14.830251
2022-12-15 15:35:14.830600
2022-12-15 15:35:14.864139
2022-12-15 15:35:14.864139
2022-12-15 15:35:14.865140
2022-12-15 15:35:14.897339
2022-12-15 15:35:14.897635
2022-12-15 15:35:14.897635
2022-12-15 15:35:14.931176
2022-12-15 15:35:14.931940
2022-12-15 15:35:14.964064
2022-12-15 15:35:14.964409
2022-12-15 15:35:14.965117
2022-12-15 15:35:14.998227
2022-12-15 15:35:14.998521
2022-12-15 15:35:14.998521
2022-12-15 15:35:15.031638
2022-12-15 15:35:15.031985
2022-12-15 15:35:15.065287
2022-12-15 15:35:15.065531
2022-12-15 15:35:15.065531
2022-12-15 15:35:15.098697
2022-12-15 15:35:15.098996
2022-12-15 15:35:15.099509
2022-12-15 15:35:15.132434
2022-12-15 15:35:15.132779
2022-12-15 15:35:15.165793
2022-12-15 15:35:15.166036
2022-12-15 15:35:15.166503
2022-12-15 15:35:15.199185
2022-12-15 15:35:15.199530
2022-12-15 15:35:15.200063
2022-12-15 15:35:15.232893
2022-12-15 15:35:15.232893
2022-12-15 15:35:15.265851
2022-12-15 15:35:15.266075
2022-12-15 15:35:15.266488
2022-12-15 15:35:15.299070
2022-12-15 15:35:15.299070
2022-12-15 15:35:15.300099
2022-12-15 15:35:15.333439
2022-12-15 15:35:15.333786
2022-12-15 15:35:15.366967
2022-12-15 15:35:15.367210
2022-12-15 15:35:15.367210
2022-12-15 15:35:15.400545
2022-12-15 15:35:15.400838
2022-12-15 15:35:15.400838
2022-12-15 15:35:15.434280
2022-12-15 15:35:15.434626
2022-12-15 15:35:15.467466
2022-12-15 15:35:15.467713
2022-12-15 15:35:15.468223
2022-12-15 15:35:15.501335
2022-12-15 15:35:15.501633
2022-12-15 15:35:15.502096
2022-12-15 15:35:15.534410
2022-12-15 15:35:15.534410
2022-12-15 15:35:15.567707
2022-12-15 15:35:15.568713
2022-12-15 15:35:15.568713
2022-12-15 15:35:15.601564
2022-12-15 15:35:15.601860
2022-12-15 15:35:15.602370
2022-12-15 15:35:15.635406
2022-12-15 15:35:15.635751
2022-12-15 15:35:15.668716
2022-12-15 15:35:15.668716
2022-12-15 15:35:15.669717
2022-12-15 15:35:15.702143
2022-12-15 15:35:15.702440
2022-12-15 15:35:15.702440
2022-12-15 15:35:15.735779
2022-12-15 15:35:15.736161
2022-12-15 15:35:15.769170
2022-12-15 15:35:15.769442
2022-12-15 15:35:15.769442
2022-12-15 15:35:15.802853
2022-12-15 15:35:15.802853
2022-12-15 15:35:15.803854
2022-12-15 15:35:15.836217
2022-12-15 15:35:15.836903
2022-12-15 15:35:15.868503
2022-12-15 15:35:15.869500
2022-12-15 15:35:15.869500
2022-12-15 15:35:15.903387
2022-12-15 15:35:15.903681
2022-12-15 15:35:15.903681
2022-12-15 15:35:15.936841
2022-12-15 15:35:15.937188
2022-12-15 15:35:15.970501
2022-12-15 15:35:15.970776
2022-12-15 15:35:15.970776
2022-12-15 15:35:16.004334
2022-12-15 15:35:16.004626
2022-12-15 15:35:16.005093
2022-12-15 15:35:16.036945
2022-12-15 15:35:16.038936
2022-12-15 15:35:16.071383
2022-12-15 15:35:16.071622
2022-12-15 15:35:16.071622
2022-12-15 15:35:16.104655
2022-12-15 15:35:16.104655
2022-12-15 15:35:16.105666
2022-12-15 15:35:16.138326
2022-12-15 15:35:16.139356
2022-12-15 15:35:16.170426
2022-12-15 15:35:16.171432
2022-12-15 15:35:16.171432
2022-12-15 15:35:16.205070
2022-12-15 15:35:16.205391
2022-12-15 15:35:16.205972
2022-12-15 15:35:16.238629
2022-12-15 15:35:16.238975
2022-12-15 15:35:16.272254
2022-12-15 15:35:16.272497
2022-12-15 15:35:16.273032
2022-12-15 15:35:16.305890
2022-12-15 15:35:16.306188
2022-12-15 15:35:16.306188
2022-12-15 15:35:16.339251
2022-12-15 15:35:16.339601
2022-12-15 15:35:16.373008
2022-12-15 15:35:16.373008
2022-12-15 15:35:16.374008
2022-12-15 15:35:16.406547
2022-12-15 15:35:16.406843
2022-12-15 15:35:16.407311
2022-12-15 15:35:16.439970
2022-12-15 15:35:16.440410
2022-12-15 15:35:16.472256
2022-12-15 15:35:16.473276
2022-12-15 15:35:16.473609
2022-12-15 15:35:16.507160
2022-12-15 15:35:16.507516
2022-12-15 15:35:16.508050
2022-12-15 15:35:16.540430
2022-12-15 15:35:16.540777
2022-12-15 15:35:16.574325
2022-12-15 15:35:16.574325
2022-12-15 15:35:16.575326
2022-12-15 15:35:16.607412
2022-12-15 15:35:16.608076
2022-12-15 15:35:16.608076
2022-12-15 15:35:16.641411
2022-12-15 15:35:16.641758
2022-12-15 15:35:16.674744
2022-12-15 15:35:16.674987
2022-12-15 15:35:16.675988
2022-12-15 15:35:16.708069
2022-12-15 15:35:16.708367
2022-12-15 15:35:16.708884
2022-12-15 15:35:16.741619
2022-12-15 15:35:16.741967
2022-12-15 15:35:16.775041
2022-12-15 15:35:16.776072
2022-12-15 15:35:16.776072
2022-12-15 15:35:16.808725
2022-12-15 15:35:16.809048
2022-12-15 15:35:16.809048
2022-12-15 15:35:16.842219
2022-12-15 15:35:16.842565
2022-12-15 15:35:16.875734
2022-12-15 15:35:16.875734
2022-12-15 15:35:16.876734
2022-12-15 15:35:16.909326
2022-12-15 15:35:16.909620
2022-12-15 15:35:16.910148
2022-12-15 15:35:16.942551
2022-12-15 15:35:16.942551
2022-12-15 15:35:16.976574
2022-12-15 15:35:16.976857
2022-12-15 15:35:16.976857
2022-12-15 15:35:17.009915
2022-12-15 15:35:17.009915
2022-12-15 15:35:17.010798
2022-12-15 15:35:17.043210
2022-12-15 15:35:17.044239
2022-12-15 15:35:17.075550
2022-12-15 15:35:17.076632
2022-12-15 15:35:17.076632
2022-12-15 15:35:17.110688
2022-12-15 15:35:17.110688
2022-12-15 15:35:17.111690
2022-12-15 15:35:17.144189
2022-12-15 15:35:17.144746
2022-12-15 15:35:17.177534
2022-12-15 15:35:17.177534
2022-12-15 15:35:17.178534
2022-12-15 15:35:17.210954
2022-12-15 15:35:17.211399
2022-12-15 15:35:17.212033
2022-12-15 15:35:17.244589
2022-12-15 15:35:17.245603
2022-12-15 15:35:17.278168
2022-12-15 15:35:17.278502
2022-12-15 15:35:17.278502
2022-12-15 15:35:17.311397
2022-12-15 15:35:17.311942
2022-12-15 15:35:17.312503
2022-12-15 15:35:17.344956
2022-12-15 15:35:17.345432
2022-12-15 15:35:17.378859
2022-12-15 15:35:17.378859
2022-12-15 15:35:17.379890
2022-12-15 15:35:17.412249
2022-12-15 15:35:17.412249
2022-12-15 15:35:17.413297
2022-12-15 15:35:17.444973
2022-12-15 15:35:17.445982
2022-12-15 15:35:17.478383
2022-12-15 15:35:17.479392
2022-12-15 15:35:17.479392
2022-12-15 15:35:17.512597
2022-12-15 15:35:17.512597
2022-12-15 15:35:17.513605
2022-12-15 15:35:17.545774
2022-12-15 15:35:17.546187
2022-12-15 15:35:17.580096
2022-12-15 15:35:17.580096
2022-12-15 15:35:17.581096
2022-12-15 15:35:17.613315
2022-12-15 15:35:17.613663
2022-12-15 15:35:17.614184
2022-12-15 15:35:17.646501
2022-12-15 15:35:17.646501
2022-12-15 15:35:17.680577
2022-12-15 15:35:17.680577
2022-12-15 15:35:17.681467
2022-12-15 15:35:17.714165
2022-12-15 15:35:17.714165
2022-12-15 15:35:17.715168
2022-12-15 15:35:17.747191
2022-12-15 15:35:17.747191
2022-12-15 15:35:17.780561
2022-12-15 15:35:17.780561
2022-12-15 15:35:17.781566
2022-12-15 15:35:17.813872
2022-12-15 15:35:17.813872
2022-12-15 15:35:17.814906
2022-12-15 15:35:17.847879
2022-12-15 15:35:17.848080
2022-12-15 15:35:17.881688
2022-12-15 15:35:17.881933
2022-12-15 15:35:17.881933
2022-12-15 15:35:17.915097
2022-12-15 15:35:17.915394
2022-12-15 15:35:17.915922
2022-12-15 15:35:17.948759
2022-12-15 15:35:17.949106
2022-12-15 15:35:17.982338
2022-12-15 15:35:17.982581
2022-12-15 15:35:17.983108
2022-12-15 15:35:18.015725
2022-12-15 15:35:18.016026
2022-12-15 15:35:18.016493
2022-12-15 15:35:18.049381
2022-12-15 15:35:18.049726
2022-12-15 15:35:18.082818
2022-12-15 15:35:18.083061
2022-12-15 15:35:18.083523
2022-12-15 15:35:18.116391
2022-12-15 15:35:18.116391
2022-12-15 15:35:18.117392
2022-12-15 15:35:18.149810
2022-12-15 15:35:18.150494
2022-12-15 15:35:18.183361
2022-12-15 15:35:18.184364
2022-12-15 15:35:18.184364
2022-12-15 15:35:18.217237
2022-12-15 15:35:18.217531
2022-12-15 15:35:18.218061
2022-12-15 15:35:18.250653
2022-12-15 15:35:18.251001
2022-12-15 15:35:18.284186
2022-12-15 15:35:18.284186
2022-12-15 15:35:18.285174
2022-12-15 15:35:18.317701
2022-12-15 15:35:18.317996
2022-12-15 15:35:18.318505
2022-12-15 15:35:18.351115
2022-12-15 15:35:18.351707
2022-12-15 15:35:18.384650
2022-12-15 15:35:18.384999
2022-12-15 15:35:18.384999
2022-12-15 15:35:18.418293
2022-12-15 15:35:18.418631
2022-12-15 15:35:18.418631
2022-12-15 15:35:18.451708
2022-12-15 15:35:18.451708
2022-12-15 15:35:18.484268
2022-12-15 15:35:18.485291
2022-12-15 15:35:18.485291
2022-12-15 15:35:18.518305
2022-12-15 15:35:18.518585
2022-12-15 15:35:18.518989
2022-12-15 15:35:18.552409
2022-12-15 15:35:18.552761
2022-12-15 15:35:18.585592
2022-12-15 15:35:18.585592
2022-12-15 15:35:18.586598
2022-12-15 15:35:18.619480
2022-12-15 15:35:18.619775
2022-12-15 15:35:18.620283
2022-12-15 15:35:18.652901
2022-12-15 15:35:18.653249
2022-12-15 15:35:18.685951
2022-12-15 15:35:18.686337
2022-12-15 15:35:18.686337
2022-12-15 15:35:18.720371
2022-12-15 15:35:18.720666
2022-12-15 15:35:18.721201
2022-12-15 15:35:18.753483
2022-12-15 15:35:18.753829
2022-12-15 15:35:18.786610
2022-12-15 15:35:18.786610
2022-12-15 15:35:18.787611
2022-12-15 15:35:18.820583
2022-12-15 15:35:18.821589
2022-12-15 15:35:18.821589
2022-12-15 15:35:18.854121
2022-12-15 15:35:18.854463
2022-12-15 15:35:18.886981
2022-12-15 15:35:18.887323
2022-12-15 15:35:18.887887
2022-12-15 15:35:18.921204
2022-12-15 15:35:18.921496
2022-12-15 15:35:18.922022
2022-12-15 15:35:18.954758
2022-12-15 15:35:18.954758
2022-12-15 15:35:18.987794
2022-12-15 15:35:18.988034
2022-12-15 15:35:18.988495
2022-12-15 15:35:19.021801
2022-12-15 15:35:19.022095
2022-12-15 15:35:19.022602
2022-12-15 15:35:19.055511
2022-12-15 15:35:19.055856
2022-12-15 15:35:19.088722
2022-12-15 15:35:19.088967
2022-12-15 15:35:19.089497
2022-12-15 15:35:19.122534
2022-12-15 15:35:19.122534
2022-12-15 15:35:19.123535
2022-12-15 15:35:19.155863
2022-12-15 15:35:19.155863
2022-12-15 15:35:19.189496
2022-12-15 15:35:19.190315
2022-12-15 15:35:19.190315
2022-12-15 15:35:19.221710
2022-12-15 15:35:19.222717
2022-12-15 15:35:19.223213
2022-12-15 15:35:19.255926
2022-12-15 15:35:19.255926
2022-12-15 15:35:19.289578
2022-12-15 15:35:19.289940
2022-12-15 15:35:19.289940
2022-12-15 15:35:19.323609
2022-12-15 15:35:19.323905
2022-12-15 15:35:19.324418
2022-12-15 15:35:19.356044
2022-12-15 15:35:19.357045
2022-12-15 15:35:19.389939
2022-12-15 15:35:19.390291
2022-12-15 15:35:19.390291
2022-12-15 15:35:19.424306
2022-12-15 15:35:19.424600
2022-12-15 15:35:19.425064
2022-12-15 15:35:19.457857
2022-12-15 15:35:19.458206
2022-12-15 15:35:19.491143
2022-12-15 15:35:19.491389
2022-12-15 15:35:19.491852
2022-12-15 15:35:19.524803
2022-12-15 15:35:19.524803
2022-12-15 15:35:19.525805
2022-12-15 15:35:19.558454
2022-12-15 15:35:19.559417
2022-12-15 15:35:19.590760
2022-12-15 15:35:19.591768
2022-12-15 15:35:19.592036
2022-12-15 15:35:19.625334
2022-12-15 15:35:19.625626
2022-12-15 15:35:19.626155
2022-12-15 15:35:19.658439
2022-12-15 15:35:19.658439
2022-12-15 15:35:19.691938
2022-12-15 15:35:19.691938
2022-12-15 15:35:19.691938
2022-12-15 15:35:19.724850
2022-12-15 15:35:19.725848
2022-12-15 15:35:19.725848
2022-12-15 15:35:19.759281
2022-12-15 15:35:19.759630
2022-12-15 15:35:19.792934
2022-12-15 15:35:19.792934
2022-12-15 15:35:19.793760
2022-12-15 15:35:19.826418
2022-12-15 15:35:19.826716
2022-12-15 15:35:19.827248
2022-12-15 15:35:19.860142
2022-12-15 15:35:19.860521
2022-12-15 15:35:19.893492
2022-12-15 15:35:19.894523
2022-12-15 15:35:19.894677
2022-12-15 15:35:19.927033
2022-12-15 15:35:19.927327
2022-12-15 15:35:19.927857
2022-12-15 15:35:19.960679
2022-12-15 15:35:19.961025
2022-12-15 15:35:19.994161
2022-12-15 15:35:19.994404
2022-12-15 15:35:19.994404
2022-12-15 15:35:20.027538
2022-12-15 15:35:20.027839
2022-12-15 15:35:20.027839
2022-12-15 15:35:20.061228
2022-12-15 15:35:20.061228
2022-12-15 15:35:20.094937
2022-12-15 15:35:20.094937
2022-12-15 15:35:20.095938
2022-12-15 15:35:20.128414
2022-12-15 15:35:20.128414
2022-12-15 15:35:20.129207
2022-12-15 15:35:20.161847
2022-12-15 15:35:20.161847
2022-12-15 15:35:20.195285
2022-12-15 15:35:20.195863
2022-12-15 15:35:20.196223
2022-12-15 15:35:20.228339
2022-12-15 15:35:20.229066
2022-12-15 15:35:20.229066
2022-12-15 15:35:20.261294
2022-12-15 15:35:20.262321
2022-12-15 15:35:20.295298
2022-12-15 15:35:20.295857
2022-12-15 15:35:20.295857
2022-12-15 15:35:20.329469
2022-12-15 15:35:20.329469
2022-12-15 15:35:20.330519
2022-12-15 15:35:20.363016
2022-12-15 15:35:20.363016
2022-12-15 15:35:20.396484
2022-12-15 15:35:20.396789
2022-12-15 15:35:20.396789
2022-12-15 15:35:20.429423
2022-12-15 15:35:20.429793
2022-12-15 15:35:20.429793
2022-12-15 15:35:20.463415
2022-12-15 15:35:20.463820
2022-12-15 15:35:20.496503
2022-12-15 15:35:20.496813
2022-12-15 15:35:20.496813
2022-12-15 15:35:20.530751
2022-12-15 15:35:20.530751
2022-12-15 15:35:20.531701
2022-12-15 15:35:20.563859
2022-12-15 15:35:20.563986
2022-12-15 15:35:20.597588
2022-12-15 15:35:20.597588
2022-12-15 15:35:20.598622
2022-12-15 15:35:20.631331
2022-12-15 15:35:20.631627
2022-12-15 15:35:20.632139
2022-12-15 15:35:20.664974
2022-12-15 15:35:20.665318
2022-12-15 15:35:20.698360
2022-12-15 15:35:20.698604
2022-12-15 15:35:20.699117
2022-12-15 15:35:20.731714
2022-12-15 15:35:20.732016
2022-12-15 15:35:20.732480
2022-12-15 15:35:20.765336
2022-12-15 15:35:20.765683
2022-12-15 15:35:20.798783
2022-12-15 15:35:20.799028
2022-12-15 15:35:20.799498
2022-12-15 15:35:20.832318
2022-12-15 15:35:20.832318
2022-12-15 15:35:20.833320
2022-12-15 15:35:20.865922
2022-12-15 15:35:20.865922
2022-12-15 15:35:20.898678
2022-12-15 15:35:20.898678
2022-12-15 15:35:20.899671
2022-12-15 15:35:20.933069
2022-12-15 15:35:20.933363
2022-12-15 15:35:20.933898
2022-12-15 15:35:20.966607
2022-12-15 15:35:20.966956
2022-12-15 15:35:21.000142
2022-12-15 15:35:21.000387
2022-12-15 15:35:21.000920
2022-12-15 15:35:21.033691
2022-12-15 15:35:21.033989
2022-12-15 15:35:21.034454
2022-12-15 15:35:21.067401
2022-12-15 15:35:21.067751
2022-12-15 15:35:21.100724
2022-12-15 15:35:21.100972
2022-12-15 15:35:21.101433
2022-12-15 15:35:21.134323
2022-12-15 15:35:21.134732
2022-12-15 15:35:21.135311
2022-12-15 15:35:21.167792
2022-12-15 15:35:21.168139
2022-12-15 15:35:21.201450
2022-12-15 15:35:21.202454
2022-12-15 15:35:21.202454
2022-12-15 15:35:21.234736
2022-12-15 15:35:21.235032
2022-12-15 15:35:21.235032
2022-12-15 15:35:21.268329
2022-12-15 15:35:21.268675
2022-12-15 15:35:21.301919
2022-12-15 15:35:21.302165
2022-12-15 15:35:21.302698
2022-12-15 15:35:21.335552
2022-12-15 15:35:21.335898
2022-12-15 15:35:21.336412
2022-12-15 15:35:21.369108
2022-12-15 15:35:21.369484
2022-12-15 15:35:21.402441
2022-12-15 15:35:21.402689
2022-12-15 15:35:21.403155
2022-12-15 15:35:21.436022
2022-12-15 15:35:21.436350
2022-12-15 15:35:21.436931
2022-12-15 15:35:21.469561
2022-12-15 15:35:21.469561
2022-12-15 15:35:21.503053
2022-12-15 15:35:21.503053
2022-12-15 15:35:21.504060
2022-12-15 15:35:21.536154
2022-12-15 15:35:21.537180
2022-12-15 15:35:21.537180
2022-12-15 15:35:21.569745
2022-12-15 15:35:21.570094
2022-12-15 15:35:21.603663
2022-12-15 15:35:21.603906
2022-12-15 15:35:21.603906
2022-12-15 15:35:21.637438
2022-12-15 15:35:21.637733
2022-12-15 15:35:21.638266
2022-12-15 15:35:21.670833
2022-12-15 15:35:21.671176
2022-12-15 15:35:21.704496
2022-12-15 15:35:21.704738
2022-12-15 15:35:21.705264
2022-12-15 15:35:21.737849
2022-12-15 15:35:21.738141
2022-12-15 15:35:21.738605
2022-12-15 15:35:21.771508
2022-12-15 15:35:21.771856
2022-12-15 15:35:21.804846
2022-12-15 15:35:21.805086
2022-12-15 15:35:21.805086
2022-12-15 15:35:21.838266
2022-12-15 15:35:21.838942
2022-12-15 15:35:21.838942
2022-12-15 15:35:21.870827
2022-12-15 15:35:21.871875
2022-12-15 15:35:21.904764
2022-12-15 15:35:21.904764
2022-12-15 15:35:21.905611
2022-12-15 15:35:21.938953
2022-12-15 15:35:21.939279
2022-12-15 15:35:21.939860
2022-12-15 15:35:21.972671
2022-12-15 15:35:21.973056
2022-12-15 15:35:22.006145
2022-12-15 15:35:22.006392
2022-12-15 15:35:22.006923
2022-12-15 15:35:22.039665
2022-12-15 15:35:22.039962
2022-12-15 15:35:22.040421
2022-12-15 15:35:22.073478
2022-12-15 15:35:22.073826
2022-12-15 15:35:22.106753
2022-12-15 15:35:22.106996
2022-12-15 15:35:22.107455
2022-12-15 15:35:22.140530
2022-12-15 15:35:22.140530
2022-12-15 15:35:22.141531
2022-12-15 15:35:22.173583
2022-12-15 15:35:22.173583
2022-12-15 15:35:22.206078
2022-12-15 15:35:22.207088
2022-12-15 15:35:22.207088
2022-12-15 15:35:22.240747
2022-12-15 15:35:22.241072
2022-12-15 15:35:22.241663
2022-12-15 15:35:22.273446
2022-12-15 15:35:22.274408
2022-12-15 15:35:22.307792
2022-12-15 15:35:22.308035
2022-12-15 15:35:22.308552
2022-12-15 15:35:22.341348
2022-12-15 15:35:22.341737
2022-12-15 15:35:22.342317
2022-12-15 15:35:22.374947
2022-12-15 15:35:22.375335
2022-12-15 15:35:22.408419
2022-12-15 15:35:22.408419
2022-12-15 15:35:22.409421
2022-12-15 15:35:22.442111
2022-12-15 15:35:22.442419
2022-12-15 15:35:22.442965
2022-12-15 15:35:22.475329
2022-12-15 15:35:22.475329
2022-12-15 15:35:22.509025
2022-12-15 15:35:22.509025
2022-12-15 15:35:22.509880
2022-12-15 15:35:22.542540
2022-12-15 15:35:22.543547
2022-12-15 15:35:22.543547
2022-12-15 15:35:22.575711
2022-12-15 15:35:22.575711
2022-12-15 15:35:22.609331
2022-12-15 15:35:22.609331
2022-12-15 15:35:22.610169
2022-12-15 15:35:22.642583
2022-12-15 15:35:22.642583
2022-12-15 15:35:22.643587
2022-12-15 15:35:22.676298
2022-12-15 15:35:22.676298
2022-12-15 15:35:22.710095
2022-12-15 15:35:22.710340
2022-12-15 15:35:22.710876
2022-12-15 15:35:22.743776
2022-12-15 15:35:22.743776
2022-12-15 15:35:22.744778
2022-12-15 15:35:22.777118
2022-12-15 15:35:22.777467
2022-12-15 15:35:22.810935
2022-12-15 15:35:22.811181
2022-12-15 15:35:22.811712
2022-12-15 15:35:22.844196
2022-12-15 15:35:22.844522
2022-12-15 15:35:22.845124
2022-12-15 15:35:22.877819
2022-12-15 15:35:22.878167
2022-12-15 15:35:22.911171
2022-12-15 15:35:22.911412
2022-12-15 15:35:22.911412
2022-12-15 15:35:22.944814
2022-12-15 15:35:22.944814
2022-12-15 15:35:22.945785
2022-12-15 15:35:22.977107
2022-12-15 15:35:22.978246
2022-12-15 15:35:23.011978
2022-12-15 15:35:23.011978
2022-12-15 15:35:23.012979
2022-12-15 15:35:23.045526
2022-12-15 15:35:23.045831
2022-12-15 15:35:23.045831
2022-12-15 15:35:23.079196
2022-12-15 15:35:23.079707
2022-12-15 15:35:23.112388
2022-12-15 15:35:23.112388
2022-12-15 15:35:23.113389
2022-12-15 15:35:23.146274
2022-12-15 15:35:23.146274
2022-12-15 15:35:23.147233
2022-12-15 15:35:23.179566
2022-12-15 15:35:23.179566
2022-12-15 15:35:23.212284
2022-12-15 15:35:23.213250
2022-12-15 15:35:23.213250
2022-12-15 15:35:23.246858
2022-12-15 15:35:23.246858
2022-12-15 15:35:23.247579
2022-12-15 15:35:23.280396
2022-12-15 15:35:23.280396
2022-12-15 15:35:23.313304
2022-12-15 15:35:23.313304
2022-12-15 15:35:23.314423
2022-12-15 15:35:23.346524
2022-12-15 15:35:23.346524
2022-12-15 15:35:23.347521
2022-12-15 15:35:23.380529
2022-12-15 15:35:23.380980
2022-12-15 15:35:23.413859
2022-12-15 15:35:23.413859
2022-12-15 15:35:23.414857
2022-12-15 15:35:23.447651
2022-12-15 15:35:23.447989
2022-12-15 15:35:23.447989
2022-12-15 15:35:23.480926
2022-12-15 15:35:23.481274
2022-12-15 15:35:23.514866
2022-12-15 15:35:23.515111
2022-12-15 15:35:23.515572
2022-12-15 15:35:23.548323
2022-12-15 15:35:23.548620
2022-12-15 15:35:23.549154
2022-12-15 15:35:23.582162
2022-12-15 15:35:23.582162
2022-12-15 15:35:23.615383
2022-12-15 15:35:23.615383
2022-12-15 15:35:23.616386
2022-12-15 15:35:23.648754
2022-12-15 15:35:23.649459
2022-12-15 15:35:23.650051
2022-12-15 15:35:23.682791
2022-12-15 15:35:23.683139
2022-12-15 15:35:23.716333
2022-12-15 15:35:23.716575
2022-12-15 15:35:23.717104
2022-12-15 15:35:23.749623
2022-12-15 15:35:23.749919
2022-12-15 15:35:23.749919
2022-12-15 15:35:23.783423
2022-12-15 15:35:23.783769
2022-12-15 15:35:23.816885
2022-12-15 15:35:23.817130
2022-12-15 15:35:23.817595
2022-12-15 15:35:23.850134
2022-12-15 15:35:23.850432
2022-12-15 15:35:23.850432
2022-12-15 15:35:23.883832
2022-12-15 15:35:23.884181
2022-12-15 15:35:23.917258
2022-12-15 15:35:23.917504
2022-12-15 15:35:23.917504
2022-12-15 15:35:23.950943
2022-12-15 15:35:23.950943
2022-12-15 15:35:23.952001
2022-12-15 15:35:23.984260
2022-12-15 15:35:23.984606
2022-12-15 15:35:24.017918
2022-12-15 15:35:24.018160
2022-12-15 15:35:24.018673
2022-12-15 15:35:24.051408
2022-12-15 15:35:24.051708
2022-12-15 15:35:24.052236
2022-12-15 15:35:24.085237
2022-12-15 15:35:24.085584
2022-12-15 15:35:24.118414
2022-12-15 15:35:24.118658
2022-12-15 15:35:24.119122
2022-12-15 15:35:24.151980
2022-12-15 15:35:24.152304
2022-12-15 15:35:24.152902
2022-12-15 15:35:24.185545
2022-12-15 15:35:24.185892
2022-12-15 15:35:24.219276
2022-12-15 15:35:24.219633
2022-12-15 15:35:24.220162
2022-12-15 15:35:24.252594
2022-12-15 15:35:24.252594
2022-12-15 15:35:24.253597
2022-12-15 15:35:24.285513
2022-12-15 15:35:24.286521
2022-12-15 15:35:24.319640
2022-12-15 15:35:24.319884
2022-12-15 15:35:24.320402
2022-12-15 15:35:24.353218
2022-12-15 15:35:24.353517
2022-12-15 15:35:24.354044
2022-12-15 15:35:24.386755
2022-12-15 15:35:24.387099
2022-12-15 15:35:24.420264
2022-12-15 15:35:24.420502
2022-12-15 15:35:24.421032
2022-12-15 15:35:24.453926
2022-12-15 15:35:24.454218
2022-12-15 15:35:24.454680
2022-12-15 15:35:24.487319
2022-12-15 15:35:24.487665
2022-12-15 15:35:24.520847
2022-12-15 15:35:24.520847
2022-12-15 15:35:24.521849
2022-12-15 15:35:24.554333
2022-12-15 15:35:24.554333
2022-12-15 15:35:24.555364
2022-12-15 15:35:24.587680
2022-12-15 15:35:24.587680
2022-12-15 15:35:24.621343
2022-12-15 15:35:24.621584
2022-12-15 15:35:24.622117
2022-12-15 15:35:24.655228
2022-12-15 15:35:24.655522
2022-12-15 15:35:24.655522
2022-12-15 15:35:24.688462
2022-12-15 15:35:24.688811
2022-12-15 15:35:24.722370
2022-12-15 15:35:24.722612
2022-12-15 15:35:24.723148
2022-12-15 15:35:24.755603
2022-12-15 15:35:24.755902
2022-12-15 15:35:24.756365
2022-12-15 15:35:24.789450
2022-12-15 15:35:24.789799
2022-12-15 15:35:24.822780
2022-12-15 15:35:24.823025
2022-12-15 15:35:24.823491
2022-12-15 15:35:24.856399
2022-12-15 15:35:24.856399
2022-12-15 15:35:24.857402
2022-12-15 15:35:24.889435
2022-12-15 15:35:24.889435
2022-12-15 15:35:24.922665
2022-12-15 15:35:24.922665
2022-12-15 15:35:24.922665
2022-12-15 15:35:24.956806
2022-12-15 15:35:24.957136
2022-12-15 15:35:24.957136
2022-12-15 15:35:24.990305
2022-12-15 15:35:24.990652
2022-12-15 15:35:25.023940
2022-12-15 15:35:25.024184
2022-12-15 15:35:25.024184
2022-12-15 15:35:25.057360
2022-12-15 15:35:25.057655
2022-12-15 15:35:25.058122
2022-12-15 15:35:25.091053
2022-12-15 15:35:25.091397
2022-12-15 15:35:25.124542
2022-12-15 15:35:25.124787
2022-12-15 15:35:25.124787
2022-12-15 15:35:25.158352
2022-12-15 15:35:25.158352
2022-12-15 15:35:25.159358
2022-12-15 15:35:25.190205
2022-12-15 15:35:25.191287
2022-12-15 15:35:25.225240
2022-12-15 15:35:25.225486
2022-12-15 15:35:25.225995
2022-12-15 15:35:25.258394
2022-12-15 15:35:25.258689
2022-12-15 15:35:25.259218
2022-12-15 15:35:25.290757
2022-12-15 15:35:25.291710
2022-12-15 15:35:25.325696
2022-12-15 15:35:25.325939
2022-12-15 15:35:25.325939
2022-12-15 15:35:25.359481
2022-12-15 15:35:25.359780
2022-12-15 15:35:25.359780
2022-12-15 15:35:25.392698
2022-12-15 15:35:25.393091
2022-12-15 15:35:25.426169
2022-12-15 15:35:25.426442
2022-12-15 15:35:25.427019
2022-12-15 15:35:25.459710
2022-12-15 15:35:25.460012
2022-12-15 15:35:25.460012
2022-12-15 15:35:25.493025
2022-12-15 15:35:25.494033
2022-12-15 15:35:25.526769
2022-12-15 15:35:25.527039
2022-12-15 15:35:25.527644
2022-12-15 15:35:25.560229
2022-12-15 15:35:25.560526
2022-12-15 15:35:25.560526
2022-12-15 15:35:25.593887
2022-12-15 15:35:25.594233
2022-12-15 15:35:25.627446
2022-12-15 15:35:25.627689
2022-12-15 15:35:25.628223
2022-12-15 15:35:25.660905
2022-12-15 15:35:25.661201
2022-12-15 15:35:25.661730
2022-12-15 15:35:25.694470
2022-12-15 15:35:25.694818
2022-12-15 15:35:25.728310
2022-12-15 15:35:25.728554
2022-12-15 15:35:25.729084
2022-12-15 15:35:25.760210
2022-12-15 15:35:25.761161
2022-12-15 15:35:25.761161
2022-12-15 15:35:25.794608
2022-12-15 15:35:25.794608
2022-12-15 15:35:25.828474
2022-12-15 15:35:25.828721
2022-12-15 15:35:25.829188
2022-12-15 15:35:25.862493
2022-12-15 15:35:25.862792
2022-12-15 15:35:25.863321
2022-12-15 15:35:25.895675
2022-12-15 15:35:25.896025
2022-12-15 15:35:25.929395
2022-12-15 15:35:25.929395
2022-12-15 15:35:25.930399
2022-12-15 15:35:25.961960
2022-12-15 15:35:25.961960
2022-12-15 15:35:25.962954
2022-12-15 15:35:25.996188
2022-12-15 15:35:25.996538
2022-12-15 15:35:26.029586
2022-12-15 15:35:26.030272
2022-12-15 15:35:26.030522
2022-12-15 15:35:26.063081
2022-12-15 15:35:26.063081
2022-12-15 15:35:26.064120
2022-12-15 15:35:26.096843
2022-12-15 15:35:26.096843
2022-12-15 15:35:26.130262
2022-12-15 15:35:26.130262
2022-12-15 15:35:26.131199
2022-12-15 15:35:26.163878
2022-12-15 15:35:26.164249
2022-12-15 15:35:26.164249
2022-12-15 15:35:26.197446
2022-12-15 15:35:26.197866
2022-12-15 15:35:26.230537
2022-12-15 15:35:26.230537
2022-12-15 15:35:26.231220
2022-12-15 15:35:26.264396
2022-12-15 15:35:26.265425
2022-12-15 15:35:26.265425
2022-12-15 15:35:26.297237
2022-12-15 15:35:26.298244
2022-12-15 15:35:26.330847
2022-12-15 15:35:26.330847
2022-12-15 15:35:26.331845
2022-12-15 15:35:26.365155
2022-12-15 15:35:26.365520
2022-12-15 15:35:26.366084
2022-12-15 15:35:26.397997
2022-12-15 15:35:26.398408
2022-12-15 15:35:26.431646
2022-12-15 15:35:26.431953
2022-12-15 15:35:26.432462
2022-12-15 15:35:26.465135
2022-12-15 15:35:26.465434
2022-12-15 15:35:26.465934
2022-12-15 15:35:26.498500
2022-12-15 15:35:26.498500
2022-12-15 15:35:26.532682
2022-12-15 15:35:26.532924
2022-12-15 15:35:26.533385
2022-12-15 15:35:26.566095
2022-12-15 15:35:26.566391
2022-12-15 15:35:26.566391
2022-12-15 15:35:26.599710
2022-12-15 15:35:26.600059
2022-12-15 15:35:26.632932
2022-12-15 15:35:26.633278
2022-12-15 15:35:26.634276
2022-12-15 15:35:26.667036
2022-12-15 15:35:26.667337
2022-12-15 15:35:26.667866
2022-12-15 15:35:26.700364
2022-12-15 15:35:26.700712
2022-12-15 15:35:26.733850
2022-12-15 15:35:26.734093
2022-12-15 15:35:26.734621
2022-12-15 15:35:26.767414
2022-12-15 15:35:26.767708
2022-12-15 15:35:26.768239
2022-12-15 15:35:26.801154
2022-12-15 15:35:26.801508
2022-12-15 15:35:26.834186
2022-12-15 15:35:26.834433
2022-12-15 15:35:26.834961
2022-12-15 15:35:26.867939
2022-12-15 15:35:26.868275
2022-12-15 15:35:26.868275
2022-12-15 15:35:26.901480
2022-12-15 15:35:26.901859
2022-12-15 15:35:26.935105
2022-12-15 15:35:26.935398
2022-12-15 15:35:26.935398
2022-12-15 15:35:26.968733
2022-12-15 15:35:26.968733
2022-12-15 15:35:26.969733
2022-12-15 15:35:27.002226
2022-12-15 15:35:27.003231
2022-12-15 15:35:27.035215
2022-12-15 15:35:27.035461
2022-12-15 15:35:27.035461
2022-12-15 15:35:27.069266
2022-12-15 15:35:27.069608
2022-12-15 15:35:27.070117
2022-12-15 15:35:27.102806
2022-12-15 15:35:27.103152
2022-12-15 15:35:27.136248
2022-12-15 15:35:27.136496
2022-12-15 15:35:27.137025
2022-12-15 15:35:27.169804
2022-12-15 15:35:27.170094
2022-12-15 15:35:27.170616
2022-12-15 15:35:27.203330
2022-12-15 15:35:27.203710
2022-12-15 15:35:27.236743
2022-12-15 15:35:27.237018
2022-12-15 15:35:27.237018
2022-12-15 15:35:27.270456
2022-12-15 15:35:27.270751
2022-12-15 15:35:27.271207
2022-12-15 15:35:27.303810
2022-12-15 15:35:27.304190
2022-12-15 15:35:27.336370
2022-12-15 15:35:27.337376
2022-12-15 15:35:27.337376
2022-12-15 15:35:27.371196
2022-12-15 15:35:27.371536
2022-12-15 15:35:27.372066
2022-12-15 15:35:27.404447
2022-12-15 15:35:27.404849
2022-12-15 15:35:27.438017
2022-12-15 15:35:27.438017
2022-12-15 15:35:27.439092
2022-12-15 15:35:27.471046
2022-12-15 15:35:27.471046
2022-12-15 15:35:27.472046
2022-12-15 15:35:27.505041
2022-12-15 15:35:27.505041
2022-12-15 15:35:27.538212
2022-12-15 15:35:27.538212
2022-12-15 15:35:27.539082
2022-12-15 15:35:27.571646
2022-12-15 15:35:27.571646
2022-12-15 15:35:27.572649
2022-12-15 15:35:27.605280
2022-12-15 15:35:27.605280
2022-12-15 15:35:27.639031
2022-12-15 15:35:27.639031
2022-12-15 15:35:27.640033
2022-12-15 15:35:27.671402
2022-12-15 15:35:27.672509
2022-12-15 15:35:27.672509
2022-12-15 15:35:27.706354
2022-12-15 15:35:27.706703
2022-12-15 15:35:27.740007
2022-12-15 15:35:27.740250
2022-12-15 15:35:27.740757
2022-12-15 15:35:27.773368
2022-12-15 15:35:27.773670
2022-12-15 15:35:27.774199
2022-12-15 15:35:27.806807
2022-12-15 15:35:27.807154
2022-12-15 15:35:27.840369
2022-12-15 15:35:27.840611
2022-12-15 15:35:27.840611
2022-12-15 15:35:27.874189
2022-12-15 15:35:27.874487
2022-12-15 15:35:27.874953
2022-12-15 15:35:27.907399
2022-12-15 15:35:27.907750
2022-12-15 15:35:27.940977
2022-12-15 15:35:27.941221
2022-12-15 15:35:27.941688
2022-12-15 15:35:27.974509
2022-12-15 15:35:27.975517
2022-12-15 15:35:27.975517
2022-12-15 15:35:28.007901
2022-12-15 15:35:28.008144
2022-12-15 15:35:28.041658
2022-12-15 15:35:28.041903
2022-12-15 15:35:28.042413
2022-12-15 15:35:28.075126
2022-12-15 15:35:28.075425
2022-12-15 15:35:28.075950
2022-12-15 15:35:28.108589
2022-12-15 15:35:28.108589
2022-12-15 15:35:28.142451
2022-12-15 15:35:28.142695
2022-12-15 15:35:28.143227
2022-12-15 15:35:28.175807
2022-12-15 15:35:28.176101
2022-12-15 15:35:28.176606
2022-12-15 15:35:28.209209
2022-12-15 15:35:28.209606
2022-12-15 15:35:28.242007
2022-12-15 15:35:28.242007
2022-12-15 15:35:28.242968
2022-12-15 15:35:28.276355
2022-12-15 15:35:28.276355
2022-12-15 15:35:28.277274
2022-12-15 15:35:28.309697
2022-12-15 15:35:28.310704
2022-12-15 15:35:28.343324
2022-12-15 15:35:28.343573
2022-12-15 15:35:28.344100
2022-12-15 15:35:28.376860
2022-12-15 15:35:28.377154
2022-12-15 15:35:28.377686
2022-12-15 15:35:28.410396
2022-12-15 15:35:28.410742
2022-12-15 15:35:28.443500
2022-12-15 15:35:28.443835
2022-12-15 15:35:28.444369
2022-12-15 15:35:28.476974
2022-12-15 15:35:28.477308
2022-12-15 15:35:28.477308
2022-12-15 15:35:28.510986
2022-12-15 15:35:28.511366
2022-12-15 15:35:28.544527
2022-12-15 15:35:28.544527
2022-12-15 15:35:28.545528
2022-12-15 15:35:28.577967
2022-12-15 15:35:28.578972
2022-12-15 15:35:28.578972
2022-12-15 15:35:28.611587
2022-12-15 15:35:28.611934
2022-12-15 15:35:28.645180
2022-12-15 15:35:28.645422
2022-12-15 15:35:28.645944
2022-12-15 15:35:28.678745
2022-12-15 15:35:28.679040
2022-12-15 15:35:28.679573
2022-12-15 15:35:28.712479
2022-12-15 15:35:28.712829
2022-12-15 15:35:28.745860
2022-12-15 15:35:28.746103
2022-12-15 15:35:28.746613
2022-12-15 15:35:28.779535
2022-12-15 15:35:28.779834
2022-12-15 15:35:28.780296
2022-12-15 15:35:28.812871
2022-12-15 15:35:28.813221
2022-12-15 15:35:28.846525
2022-12-15 15:35:28.846767
2022-12-15 15:35:28.847228
2022-12-15 15:35:28.879870
2022-12-15 15:35:28.879870
2022-12-15 15:35:28.880876
2022-12-15 15:35:28.912805
2022-12-15 15:35:28.913798
2022-12-15 15:35:28.946786
2022-12-15 15:35:28.946786
2022-12-15 15:35:28.947689
2022-12-15 15:35:28.980413
2022-12-15 15:35:28.981214
2022-12-15 15:35:28.981524
2022-12-15 15:35:29.014014
2022-12-15 15:35:29.014759
2022-12-15 15:35:29.047584
2022-12-15 15:35:29.048289
2022-12-15 15:35:29.048640
2022-12-15 15:35:29.081095
2022-12-15 15:35:29.081853
2022-12-15 15:35:29.082057
2022-12-15 15:35:29.114674
2022-12-15 15:35:29.115088
2022-12-15 15:35:29.148415
2022-12-15 15:35:29.148415
2022-12-15 15:35:29.149446
2022-12-15 15:35:29.181706
2022-12-15 15:35:29.181706
2022-12-15 15:35:29.182723
2022-12-15 15:35:29.214895
2022-12-15 15:35:29.215903
2022-12-15 15:35:29.248814
2022-12-15 15:35:29.249100
2022-12-15 15:35:29.249664
2022-12-15 15:35:29.281676
2022-12-15 15:35:29.282046
2022-12-15 15:35:29.282046
2022-12-15 15:35:29.315929
2022-12-15 15:35:29.316278
2022-12-15 15:35:29.348742
2022-12-15 15:35:29.348742
2022-12-15 15:35:29.349596
2022-12-15 15:35:29.382208
2022-12-15 15:35:29.382570
2022-12-15 15:35:29.382570
2022-12-15 15:35:29.416569
2022-12-15 15:35:29.416914
2022-12-15 15:35:29.450070
2022-12-15 15:35:29.450313
2022-12-15 15:35:29.450782
2022-12-15 15:35:29.483465
2022-12-15 15:35:29.483793
2022-12-15 15:35:29.484393
2022-12-15 15:35:29.516877
2022-12-15 15:35:29.516877
2022-12-15 15:35:29.550402
2022-12-15 15:35:29.551125
2022-12-15 15:35:29.551125
2022-12-15 15:35:29.583908
2022-12-15 15:35:29.584230
2022-12-15 15:35:29.584810
2022-12-15 15:35:29.617595
2022-12-15 15:35:29.617971
2022-12-15 15:35:29.651118
2022-12-15 15:35:29.651362
2022-12-15 15:35:29.651887
2022-12-15 15:35:29.684638
2022-12-15 15:35:29.684937
2022-12-15 15:35:29.684937
2022-12-15 15:35:29.718401
2022-12-15 15:35:29.718748
2022-12-15 15:35:29.751776
2022-12-15 15:35:29.752051
2022-12-15 15:35:29.752649
2022-12-15 15:35:29.785417
2022-12-15 15:35:29.785714
2022-12-15 15:35:29.786173
2022-12-15 15:35:29.818666
2022-12-15 15:35:29.819699
2022-12-15 15:35:29.852318
2022-12-15 15:35:29.852562
2022-12-15 15:35:29.853098
2022-12-15 15:35:29.885772
2022-12-15 15:35:29.886070
2022-12-15 15:35:29.886581
2022-12-15 15:35:29.919448
2022-12-15 15:35:29.919796
2022-12-15 15:35:29.952883
2022-12-15 15:35:29.953126
2022-12-15 15:35:29.953654
2022-12-15 15:35:29.985909
2022-12-15 15:35:29.986295
2022-12-15 15:35:29.986825
2022-12-15 15:35:30.019263
2022-12-15 15:35:30.019699
2022-12-15 15:35:30.053392
2022-12-15 15:35:30.053635
2022-12-15 15:35:30.054162
2022-12-15 15:35:30.087079
2022-12-15 15:35:30.087373
2022-12-15 15:35:30.087373
2022-12-15 15:35:30.120512
2022-12-15 15:35:30.121297
2022-12-15 15:35:30.153205
2022-12-15 15:35:30.154212
2022-12-15 15:35:30.154378
2022-12-15 15:35:30.187605
2022-12-15 15:35:30.187900
2022-12-15 15:35:30.188432
2022-12-15 15:35:30.221440
2022-12-15 15:35:30.221787
2022-12-15 15:35:30.254708
2022-12-15 15:35:30.254954
2022-12-15 15:35:30.255480
2022-12-15 15:35:30.288476
2022-12-15 15:35:30.288771
2022-12-15 15:35:30.289301
2022-12-15 15:35:30.321656
2022-12-15 15:35:30.322005
2022-12-15 15:35:30.355482
2022-12-15 15:35:30.355728
2022-12-15 15:35:30.356258
2022-12-15 15:35:30.388852
2022-12-15 15:35:30.389149
2022-12-15 15:35:30.389149
2022-12-15 15:35:30.422381
2022-12-15 15:35:30.422381
2022-12-15 15:35:30.455402
2022-12-15 15:35:30.456429
2022-12-15 15:35:30.456609
2022-12-15 15:35:30.489234
2022-12-15 15:35:30.489561
2022-12-15 15:35:30.489561
2022-12-15 15:35:30.522783
2022-12-15 15:35:30.523132
2022-12-15 15:35:30.556507
2022-12-15 15:35:30.556757
2022-12-15 15:35:30.557285
2022-12-15 15:35:30.590098
2022-12-15 15:35:30.590393
2022-12-15 15:35:30.590920
2022-12-15 15:35:30.623605
2022-12-15 15:35:30.623957
2022-12-15 15:35:30.657217
2022-12-15 15:35:30.657490
2022-12-15 15:35:30.657490
2022-12-15 15:35:30.690705
2022-12-15 15:35:30.691000
2022-12-15 15:35:30.691461
2022-12-15 15:35:30.724135
2022-12-15 15:35:30.724936
2022-12-15 15:35:30.757414
2022-12-15 15:35:30.758444
2022-12-15 15:35:30.758444
2022-12-15 15:35:30.790757
2022-12-15 15:35:30.790867
2022-12-15 15:35:30.790867
2022-12-15 15:35:30.824663
2022-12-15 15:35:30.825010
2022-12-15 15:35:30.858423
2022-12-15 15:35:30.858666
2022-12-15 15:35:30.859180
2022-12-15 15:35:30.891807
2022-12-15 15:35:30.892104
2022-12-15 15:35:30.892634
2022-12-15 15:35:30.925488
2022-12-15 15:35:30.925843
2022-12-15 15:35:30.958879
2022-12-15 15:35:30.959125
2022-12-15 15:35:30.959588
2022-12-15 15:35:30.992288
2022-12-15 15:35:30.992592
2022-12-15 15:35:30.993107
2022-12-15 15:35:31.025983
2022-12-15 15:35:31.026371
2022-12-15 15:35:31.059423
2022-12-15 15:35:31.060432
2022-12-15 15:35:31.060789
2022-12-15 15:35:31.092050
2022-12-15 15:35:31.093061
2022-12-15 15:35:31.093505
2022-12-15 15:35:31.126449
2022-12-15 15:35:31.126806
2022-12-15 15:35:31.160025
2022-12-15 15:35:31.160268
2022-12-15 15:35:31.160791
2022-12-15 15:35:31.193480
2022-12-15 15:35:31.193783
2022-12-15 15:35:31.194308
2022-12-15 15:35:31.227381
2022-12-15 15:35:31.227734
2022-12-15 15:35:31.260528
2022-12-15 15:35:31.260771
2022-12-15 15:35:31.260771
2022-12-15 15:35:31.294496
2022-12-15 15:35:31.294793
2022-12-15 15:35:31.295255
2022-12-15 15:35:31.327805
2022-12-15 15:35:31.328152
2022-12-15 15:35:31.361513
2022-12-15 15:35:31.361513
2022-12-15 15:35:31.362514
2022-12-15 15:35:31.394795
2022-12-15 15:35:31.395506
2022-12-15 15:35:31.395506
2022-12-15 15:35:31.428459
2022-12-15 15:35:31.429492
2022-12-15 15:35:31.460374
2022-12-15 15:35:31.461413
2022-12-15 15:35:31.461839
2022-12-15 15:35:31.495174
2022-12-15 15:35:31.495468
2022-12-15 15:35:31.495994
2022-12-15 15:35:31.527569
2022-12-15 15:35:31.528522
2022-12-15 15:35:31.562288
2022-12-15 15:35:31.562530
2022-12-15 15:35:31.563057
2022-12-15 15:35:31.596021
2022-12-15 15:35:31.596321
2022-12-15 15:35:31.596321
2022-12-15 15:35:31.629569
2022-12-15 15:35:31.629913
2022-12-15 15:35:31.663107
2022-12-15 15:35:31.663351
2022-12-15 15:35:31.663882
2022-12-15 15:35:31.696660
2022-12-15 15:35:31.696954
2022-12-15 15:35:31.697418
2022-12-15 15:35:31.730165
2022-12-15 15:35:31.730165
2022-12-15 15:35:31.762860
2022-12-15 15:35:31.763867
2022-12-15 15:35:31.763974
2022-12-15 15:35:31.795895
2022-12-15 15:35:31.796901
2022-12-15 15:35:31.796901
2022-12-15 15:35:31.830449
2022-12-15 15:35:31.830843
2022-12-15 15:35:31.863292
2022-12-15 15:35:31.863292
2022-12-15 15:35:31.864253
2022-12-15 15:35:31.896804
2022-12-15 15:35:31.897757
2022-12-15 15:35:31.897757
2022-12-15 15:35:31.931389
2022-12-15 15:35:31.931389
2022-12-15 15:35:31.964754
2022-12-15 15:35:31.965441
2022-12-15 15:35:31.965613
2022-12-15 15:35:31.998433
2022-12-15 15:35:31.999316
2022-12-15 15:35:31.999316
2022-12-15 15:35:32.031816
2022-12-15 15:35:32.031816
2022-12-15 15:35:32.065316
2022-12-15 15:35:32.065316
2022-12-15 15:35:32.066319
2022-12-15 15:35:32.097972
2022-12-15 15:35:32.098981
2022-12-15 15:35:32.098981
2022-12-15 15:35:32.132306
2022-12-15 15:35:32.132306
2022-12-15 15:35:32.165885
2022-12-15 15:35:32.166190
2022-12-15 15:35:32.166753
2022-12-15 15:35:32.199417
2022-12-15 15:35:32.199640
2022-12-15 15:35:32.200193
2022-12-15 15:35:32.232527
2022-12-15 15:35:32.232989
2022-12-15 15:35:32.266441
2022-12-15 15:35:32.266816
2022-12-15 15:35:32.266816
2022-12-15 15:35:32.299874
2022-12-15 15:35:32.299874
2022-12-15 15:35:32.300915
2022-12-15 15:35:32.333239
2022-12-15 15:35:32.333239
2022-12-15 15:35:32.366574
2022-12-15 15:35:32.366574
2022-12-15 15:35:32.367576
2022-12-15 15:35:32.399869
2022-12-15 15:35:32.400895
2022-12-15 15:35:32.400895
2022-12-15 15:35:32.433956
2022-12-15 15:35:32.434097
2022-12-15 15:35:32.467072
2022-12-15 15:35:32.467384
2022-12-15 15:35:32.467916
2022-12-15 15:35:32.501113
2022-12-15 15:35:32.501408
2022-12-15 15:35:32.501941
2022-12-15 15:35:32.534724
2022-12-15 15:35:32.535069
2022-12-15 15:35:32.568156
2022-12-15 15:35:32.568400
2022-12-15 15:35:32.568931
2022-12-15 15:35:32.601804
2022-12-15 15:35:32.602101
2022-12-15 15:35:32.602101
2022-12-15 15:35:32.635204
2022-12-15 15:35:32.635552
2022-12-15 15:35:32.668914
2022-12-15 15:35:32.669158
2022-12-15 15:35:32.669666
2022-12-15 15:35:32.702440
2022-12-15 15:35:32.702734
2022-12-15 15:35:32.703196
2022-12-15 15:35:32.736192
2022-12-15 15:35:32.736533
2022-12-15 15:35:32.769290
2022-12-15 15:35:32.769290
2022-12-15 15:35:32.770321
2022-12-15 15:35:32.803220
2022-12-15 15:35:32.803513
2022-12-15 15:35:32.804037
2022-12-15 15:35:32.835526
2022-12-15 15:35:32.836520
2022-12-15 15:35:32.869922
2022-12-15 15:35:32.870161
2022-12-15 15:35:32.870884
2022-12-15 15:35:32.903501
2022-12-15 15:35:32.903501
2022-12-15 15:35:32.904511
2022-12-15 15:35:32.937439
2022-12-15 15:35:32.937813
2022-12-15 15:35:32.970743
2022-12-15 15:35:32.970987
2022-12-15 15:35:32.971452
2022-12-15 15:35:33.004466
2022-12-15 15:35:33.004761
2022-12-15 15:35:33.004761
2022-12-15 15:35:33.037664
2022-12-15 15:35:33.038012
2022-12-15 15:35:33.071406
2022-12-15 15:35:33.071406
2022-12-15 15:35:33.072316
2022-12-15 15:35:33.104717
2022-12-15 15:35:33.105019
2022-12-15 15:35:33.105544
2022-12-15 15:35:33.138260
2022-12-15 15:35:33.138610
2022-12-15 15:35:33.171929
2022-12-15 15:35:33.172171
2022-12-15 15:35:33.172674
2022-12-15 15:35:33.205357
2022-12-15 15:35:33.205651
2022-12-15 15:35:33.206182
2022-12-15 15:35:33.239013
2022-12-15 15:35:33.239362
2022-12-15 15:35:33.272425
2022-12-15 15:35:33.272697
2022-12-15 15:35:33.273281
2022-12-15 15:35:33.306305
2022-12-15 15:35:33.306602
2022-12-15 15:35:33.307063
2022-12-15 15:35:33.339379
2022-12-15 15:35:33.340227
2022-12-15 15:35:33.373171
2022-12-15 15:35:33.373171
2022-12-15 15:35:33.374203
2022-12-15 15:35:33.405268
2022-12-15 15:35:33.406277
2022-12-15 15:35:33.406277
2022-12-15 15:35:33.440337
2022-12-15 15:35:33.440684
2022-12-15 15:35:33.473630
2022-12-15 15:35:33.473877
2022-12-15 15:35:33.474408
2022-12-15 15:35:33.507453
2022-12-15 15:35:33.507749
2022-12-15 15:35:33.508283
2022-12-15 15:35:33.539764
2022-12-15 15:35:33.540761
2022-12-15 15:35:33.574159
2022-12-15 15:35:33.574452
2022-12-15 15:35:33.574920
2022-12-15 15:35:33.607587
2022-12-15 15:35:33.607890
2022-12-15 15:35:33.608397
2022-12-15 15:35:33.641294
2022-12-15 15:35:33.641294
2022-12-15 15:35:33.675035
2022-12-15 15:35:33.676040
2022-12-15 15:35:33.676040
2022-12-15 15:35:33.707524
2022-12-15 15:35:33.708532
2022-12-15 15:35:33.708760
2022-12-15 15:35:33.741376
2022-12-15 15:35:33.741700
2022-12-15 15:35:33.775339
2022-12-15 15:35:33.775583
2022-12-15 15:35:33.776093
2022-12-15 15:35:33.808859
2022-12-15 15:35:33.809156
2022-12-15 15:35:33.809156
2022-12-15 15:35:33.842457
2022-12-15 15:35:33.842801
2022-12-15 15:35:33.876331
2022-12-15 15:35:33.876574
2022-12-15 15:35:33.877103
2022-12-15 15:35:33.909534
2022-12-15 15:35:33.909832
2022-12-15 15:35:33.910363
2022-12-15 15:35:33.943325
2022-12-15 15:35:33.944018
2022-12-15 15:35:33.976765
2022-12-15 15:35:33.977007
2022-12-15 15:35:33.977532
2022-12-15 15:35:34.010524
2022-12-15 15:35:34.010818
2022-12-15 15:35:34.011277
2022-12-15 15:35:34.043865
2022-12-15 15:35:34.043865
2022-12-15 15:35:34.076440
2022-12-15 15:35:34.077448
2022-12-15 15:35:34.077855
2022-12-15 15:35:34.110712
2022-12-15 15:35:34.111010
2022-12-15 15:35:34.111537
2022-12-15 15:35:34.144123
2022-12-15 15:35:34.144123
2022-12-15 15:35:34.177851
2022-12-15 15:35:34.178095
2022-12-15 15:35:34.178622
2022-12-15 15:35:34.211345
2022-12-15 15:35:34.211639
2022-12-15 15:35:34.212150
2022-12-15 15:35:34.244488
2022-12-15 15:35:34.244924
2022-12-15 15:35:34.278537
2022-12-15 15:35:34.278779
2022-12-15 15:35:34.279310
2022-12-15 15:35:34.312000
2022-12-15 15:35:34.312298
2022-12-15 15:35:34.312298
2022-12-15 15:35:34.344875
2022-12-15 15:35:34.345318
2022-12-15 15:35:34.379274
2022-12-15 15:35:34.380305
2022-12-15 15:35:34.380413
2022-12-15 15:35:34.411563
2022-12-15 15:35:34.412581
2022-12-15 15:35:34.412952
2022-12-15 15:35:34.444732
2022-12-15 15:35:34.445875
2022-12-15 15:35:34.479292
2022-12-15 15:35:34.479638
2022-12-15 15:35:34.480200
2022-12-15 15:35:34.513358
2022-12-15 15:35:34.513657
2022-12-15 15:35:34.514182
2022-12-15 15:35:34.546247
2022-12-15 15:35:34.546247
2022-12-15 15:35:34.580091
2022-12-15 15:35:34.580367
2022-12-15 15:35:34.580974
2022-12-15 15:35:34.613735
2022-12-15 15:35:34.614057
2022-12-15 15:35:34.614624
2022-12-15 15:35:34.646574
2022-12-15 15:35:34.647024
2022-12-15 15:35:34.680876
2022-12-15 15:35:34.681117
2022-12-15 15:35:34.681647
2022-12-15 15:35:34.714309
2022-12-15 15:35:34.714604
2022-12-15 15:35:34.715072
2022-12-15 15:35:34.747372
2022-12-15 15:35:34.747721
2022-12-15 15:35:34.781378
2022-12-15 15:35:34.781378
2022-12-15 15:35:34.782379
2022-12-15 15:35:34.815014
2022-12-15 15:35:34.815014
2022-12-15 15:35:34.816016
2022-12-15 15:35:34.848225
2022-12-15 15:35:34.848225
2022-12-15 15:35:34.882161
2022-12-15 15:35:34.882161
2022-12-15 15:35:34.883166
2022-12-15 15:35:34.914533
2022-12-15 15:35:34.915539
2022-12-15 15:35:34.915539
2022-12-15 15:35:34.948308
2022-12-15 15:35:34.948878
2022-12-15 15:35:34.982316
2022-12-15 15:35:34.982630
2022-12-15 15:35:34.983231
2022-12-15 15:35:35.015811
2022-12-15 15:35:35.016275
2022-12-15 15:35:35.016848
2022-12-15 15:35:35.050234
2022-12-15 15:35:35.050234
2022-12-15 15:35:35.082994
2022-12-15 15:35:35.083500
2022-12-15 15:35:35.084034
2022-12-15 15:35:35.116800
2022-12-15 15:35:35.116800
2022-12-15 15:35:35.117470
2022-12-15 15:35:35.150144
2022-12-15 15:35:35.150398
2022-12-15 15:35:35.183494
2022-12-15 15:35:35.183494
2022-12-15 15:35:35.184496
2022-12-15 15:35:35.216834
2022-12-15 15:35:35.216834
2022-12-15 15:35:35.217839
2022-12-15 15:35:35.250175
2022-12-15 15:35:35.250511
2022-12-15 15:35:35.283751
2022-12-15 15:35:35.284055
2022-12-15 15:35:35.284055
2022-12-15 15:35:35.318053
2022-12-15 15:35:35.318351
2022-12-15 15:35:35.318863
2022-12-15 15:35:35.351111
2022-12-15 15:35:35.351496
2022-12-15 15:35:35.384240
2022-12-15 15:35:35.384240
2022-12-15 15:35:35.385072
2022-12-15 15:35:35.418604
2022-12-15 15:35:35.418898
2022-12-15 15:35:35.418898
2022-12-15 15:35:35.451481
2022-12-15 15:35:35.451829
2022-12-15 15:35:35.485373
2022-12-15 15:35:35.485614
2022-12-15 15:35:35.485614
2022-12-15 15:35:35.519269
2022-12-15 15:35:35.519561
2022-12-15 15:35:35.520018
2022-12-15 15:35:35.552414
2022-12-15 15:35:35.552765
2022-12-15 15:35:35.585420
2022-12-15 15:35:35.585420
2022-12-15 15:35:35.586458
2022-12-15 15:35:35.619681
2022-12-15 15:35:35.619999
2022-12-15 15:35:35.620567
2022-12-15 15:35:35.653132
2022-12-15 15:35:35.653474
2022-12-15 15:35:35.686738
2022-12-15 15:35:35.686976
2022-12-15 15:35:35.686976
2022-12-15 15:35:35.720193
2022-12-15 15:35:35.720484
2022-12-15 15:35:35.720943
2022-12-15 15:35:35.753723
2022-12-15 15:35:35.754069
2022-12-15 15:35:35.787203
2022-12-15 15:35:35.787447
2022-12-15 15:35:35.787911
2022-12-15 15:35:35.820645
2022-12-15 15:35:35.821654
2022-12-15 15:35:35.821654
2022-12-15 15:35:35.854059
2022-12-15 15:35:35.854059
2022-12-15 15:35:35.887758
2022-12-15 15:35:35.887999
2022-12-15 15:35:35.888525
2022-12-15 15:35:35.921373
2022-12-15 15:35:35.921670
2022-12-15 15:35:35.922172
2022-12-15 15:35:35.954841
2022-12-15 15:35:35.955195
2022-12-15 15:35:35.988475
2022-12-15 15:35:35.988720
2022-12-15 15:35:35.989258
2022-12-15 15:35:36.022290
2022-12-15 15:35:36.022585
2022-12-15 15:35:36.023045
2022-12-15 15:35:36.055412
2022-12-15 15:35:36.055764
2022-12-15 15:35:36.089011
2022-12-15 15:35:36.089257
2022-12-15 15:35:36.089723
2022-12-15 15:35:36.122423
2022-12-15 15:35:36.122423
2022-12-15 15:35:36.123425
2022-12-15 15:35:36.155341
2022-12-15 15:35:36.156349
2022-12-15 15:35:36.189625
2022-12-15 15:35:36.189869
2022-12-15 15:35:36.190379
2022-12-15 15:35:36.223057
2022-12-15 15:35:36.223354
2022-12-15 15:35:36.223354
2022-12-15 15:35:36.256748
2022-12-15 15:35:36.256748
2022-12-15 15:35:36.290268
2022-12-15 15:35:36.290512
2022-12-15 15:35:36.291025
2022-12-15 15:35:36.323881
2022-12-15 15:35:36.324178
2022-12-15 15:35:36.324695
2022-12-15 15:35:36.357445
2022-12-15 15:35:36.357790
2022-12-15 15:35:36.390701
2022-12-15 15:35:36.390944
2022-12-15 15:35:36.391458
2022-12-15 15:35:36.424408
2022-12-15 15:35:36.424408
2022-12-15 15:35:36.425410
2022-12-15 15:35:36.457347
2022-12-15 15:35:36.458373
2022-12-15 15:35:36.490408
2022-12-15 15:35:36.491422
2022-12-15 15:35:36.491676
2022-12-15 15:35:36.525196
2022-12-15 15:35:36.525496
2022-12-15 15:35:36.526001
2022-12-15 15:35:36.558433
2022-12-15 15:35:36.558785
2022-12-15 15:35:36.592092
2022-12-15 15:35:36.592341
2022-12-15 15:35:36.592905
2022-12-15 15:35:36.625490
2022-12-15 15:35:36.625786
2022-12-15 15:35:36.626371
2022-12-15 15:35:36.659111
2022-12-15 15:35:36.659536
2022-12-15 15:35:36.692760
2022-12-15 15:35:36.693010
2022-12-15 15:35:36.693469
2022-12-15 15:35:36.726285
2022-12-15 15:35:36.726584
2022-12-15 15:35:36.726584
2022-12-15 15:35:36.759640
2022-12-15 15:35:36.759640
2022-12-15 15:35:36.791834
2022-12-15 15:35:36.792826
2022-12-15 15:35:36.792826
2022-12-15 15:35:36.826900
2022-12-15 15:35:36.827198
2022-12-15 15:35:36.827198
2022-12-15 15:35:36.860403
2022-12-15 15:35:36.860755
2022-12-15 15:35:36.893795
2022-12-15 15:35:36.894038
2022-12-15 15:35:36.894038
2022-12-15 15:35:36.927471
2022-12-15 15:35:36.927769
2022-12-15 15:35:36.928296
2022-12-15 15:35:36.960825
2022-12-15 15:35:36.961172
2022-12-15 15:35:36.994525
2022-12-15 15:35:36.994769
2022-12-15 15:35:36.994769
2022-12-15 15:35:37.027987
2022-12-15 15:35:37.028282
2022-12-15 15:35:37.028747
2022-12-15 15:35:37.061471
2022-12-15 15:35:37.061471
2022-12-15 15:35:37.095363
2022-12-15 15:35:37.096365
2022-12-15 15:35:37.096365
2022-12-15 15:35:37.127987
2022-12-15 15:35:37.128261
2022-12-15 15:35:37.128675
2022-12-15 15:35:37.161985
2022-12-15 15:35:37.162394
2022-12-15 15:35:37.195561
2022-12-15 15:35:37.195561
2022-12-15 15:35:37.196429
2022-12-15 15:35:37.229013
2022-12-15 15:35:37.229415
2022-12-15 15:35:37.230002
2022-12-15 15:35:37.262506
2022-12-15 15:35:37.262506
2022-12-15 15:35:37.296078
2022-12-15 15:35:37.296078
2022-12-15 15:35:37.297079
2022-12-15 15:35:37.329229
2022-12-15 15:35:37.329614
2022-12-15 15:35:37.330616
2022-12-15 15:35:37.362646
2022-12-15 15:35:37.362646
2022-12-15 15:35:37.396946
2022-12-15 15:35:37.397191
2022-12-15 15:35:37.397719
2022-12-15 15:35:37.430349
2022-12-15 15:35:37.430651
2022-12-15 15:35:37.431181
2022-12-15 15:35:37.463683
2022-12-15 15:35:37.464026
2022-12-15 15:35:37.497355
2022-12-15 15:35:37.497596
2022-12-15 15:35:37.498127
2022-12-15 15:35:37.531106
2022-12-15 15:35:37.531401
2022-12-15 15:35:37.531401
2022-12-15 15:35:37.564377
2022-12-15 15:35:37.564728
2022-12-15 15:35:37.597346
2022-12-15 15:35:37.597346
2022-12-15 15:35:37.598344
2022-12-15 15:35:37.631553
2022-12-15 15:35:37.631877
2022-12-15 15:35:37.632466
2022-12-15 15:35:37.665088
2022-12-15 15:35:37.665464
2022-12-15 15:35:37.698505
2022-12-15 15:35:37.698505
2022-12-15 15:35:37.699510
2022-12-15 15:35:37.732011
2022-12-15 15:35:37.732308
2022-12-15 15:35:37.732308
2022-12-15 15:35:37.765675
2022-12-15 15:35:37.765675
2022-12-15 15:35:37.799200
2022-12-15 15:35:37.799446
2022-12-15 15:35:37.799446
2022-12-15 15:35:37.832597
2022-12-15 15:35:37.833296
2022-12-15 15:35:37.833296
2022-12-15 15:35:37.866343
2022-12-15 15:35:37.866882
2022-12-15 15:35:37.899690
2022-12-15 15:35:37.899690
2022-12-15 15:35:37.900511
2022-12-15 15:35:37.933359
2022-12-15 15:35:37.933721
2022-12-15 15:35:37.933721
2022-12-15 15:35:37.965572
2022-12-15 15:35:37.966567
2022-12-15 15:35:37.999798
2022-12-15 15:35:37.999798
2022-12-15 15:35:37.999798
2022-12-15 15:35:38.033366
2022-12-15 15:35:38.033366
2022-12-15 15:35:38.034348
2022-12-15 15:35:38.067257
2022-12-15 15:35:38.067670
2022-12-15 15:35:38.100753
2022-12-15 15:35:38.100753
2022-12-15 15:35:38.101639
2022-12-15 15:35:38.134283
2022-12-15 15:35:38.134283
2022-12-15 15:35:38.135280
2022-12-15 15:35:38.167335
2022-12-15 15:35:38.167766
2022-12-15 15:35:38.201384
2022-12-15 15:35:38.201671
2022-12-15 15:35:38.202182
2022-12-15 15:35:38.234467
2022-12-15 15:35:38.234811
2022-12-15 15:35:38.234811
2022-12-15 15:35:38.268553
2022-12-15 15:35:38.268897
2022-12-15 15:35:38.301326
2022-12-15 15:35:38.301326
2022-12-15 15:35:38.302336
2022-12-15 15:35:38.334803
2022-12-15 15:35:38.335829
2022-12-15 15:35:38.336809
2022-12-15 15:35:38.368755
2022-12-15 15:35:38.368755
2022-12-15 15:35:38.402863
2022-12-15 15:35:38.403102
2022-12-15 15:35:38.403629
2022-12-15 15:35:38.436101
2022-12-15 15:35:38.436393
2022-12-15 15:35:38.436923
2022-12-15 15:35:38.469740
2022-12-15 15:35:38.470081
2022-12-15 15:35:38.503413
2022-12-15 15:35:38.503654
2022-12-15 15:35:38.503654
2022-12-15 15:35:38.536697
2022-12-15 15:35:38.536992
2022-12-15 15:35:38.536992
2022-12-15 15:35:38.570371
2022-12-15 15:35:38.570716
2022-12-15 15:35:38.603782
2022-12-15 15:35:38.604029
2022-12-15 15:35:38.604029
2022-12-15 15:35:38.637354
2022-12-15 15:35:38.637699
2022-12-15 15:35:38.637699
2022-12-15 15:35:38.670750
2022-12-15 15:35:38.670750
2022-12-15 15:35:38.703483
2022-12-15 15:35:38.704491
2022-12-15 15:35:38.704768
2022-12-15 15:35:38.737913
2022-12-15 15:35:38.738218
2022-12-15 15:35:38.738728
2022-12-15 15:35:38.771571
2022-12-15 15:35:38.771917
2022-12-15 15:35:38.805134
2022-12-15 15:35:38.805379
2022-12-15 15:35:38.805890
2022-12-15 15:35:38.838655
2022-12-15 15:35:38.838951
2022-12-15 15:35:38.839415
2022-12-15 15:35:38.872193
2022-12-15 15:35:38.872540
2022-12-15 15:35:38.905727
2022-12-15 15:35:38.905970
2022-12-15 15:35:38.905970
2022-12-15 15:35:38.939355
2022-12-15 15:35:38.940388
2022-12-15 15:35:38.940538
2022-12-15 15:35:38.971791
2022-12-15 15:35:38.972811
2022-12-15 15:35:39.006401
2022-12-15 15:35:39.006647
2022-12-15 15:35:39.007174
2022-12-15 15:35:39.039804
2022-12-15 15:35:39.040101
2022-12-15 15:35:39.040631
2022-12-15 15:35:39.073483
2022-12-15 15:35:39.073829
2022-12-15 15:35:39.106839
2022-12-15 15:35:39.107084
2022-12-15 15:35:39.107084
2022-12-15 15:35:39.140266
2022-12-15 15:35:39.140561
2022-12-15 15:35:39.141021
2022-12-15 15:35:39.174011
2022-12-15 15:35:39.174385
2022-12-15 15:35:39.207483
2022-12-15 15:35:39.207483
2022-12-15 15:35:39.208484
2022-12-15 15:35:39.240655
2022-12-15 15:35:39.241661
2022-12-15 15:35:39.241661
2022-12-15 15:35:39.274466
2022-12-15 15:35:39.274814
2022-12-15 15:35:39.308106
2022-12-15 15:35:39.308351
2022-12-15 15:35:39.308885
2022-12-15 15:35:39.341695
2022-12-15 15:35:39.341990
2022-12-15 15:35:39.342507
2022-12-15 15:35:39.375413
2022-12-15 15:35:39.375776
2022-12-15 15:35:39.408742
2022-12-15 15:35:39.408986
2022-12-15 15:35:39.409501
2022-12-15 15:35:39.442478
2022-12-15 15:35:39.442773
2022-12-15 15:35:39.443237
2022-12-15 15:35:39.475713
2022-12-15 15:35:39.476330
2022-12-15 15:35:39.509180
2022-12-15 15:35:39.509180
2022-12-15 15:35:39.510211
2022-12-15 15:35:39.541413
2022-12-15 15:35:39.542462
2022-12-15 15:35:39.542462
2022-12-15 15:35:39.576206
2022-12-15 15:35:39.576551
2022-12-15 15:35:39.609403
2022-12-15 15:35:39.609649
2022-12-15 15:35:39.610173
2022-12-15 15:35:39.642622
2022-12-15 15:35:39.642622
2022-12-15 15:35:39.643652
2022-12-15 15:35:39.676902
2022-12-15 15:35:39.677248
2022-12-15 15:35:39.710487
2022-12-15 15:35:39.710757
2022-12-15 15:35:39.711334
2022-12-15 15:35:39.744085
2022-12-15 15:35:39.744380
2022-12-15 15:35:39.744842
2022-12-15 15:35:39.777648
2022-12-15 15:35:39.778022
2022-12-15 15:35:39.811036
2022-12-15 15:35:39.811036
2022-12-15 15:35:39.812038
2022-12-15 15:35:39.843687
2022-12-15 15:35:39.844694
2022-12-15 15:35:39.844919
2022-12-15 15:35:39.877606
2022-12-15 15:35:39.877606
2022-12-15 15:35:39.911454
2022-12-15 15:35:39.911697
2022-12-15 15:35:39.912226
2022-12-15 15:35:39.945238
