2022-12-01 18:13:45.431596, 1.62268
2022-12-01 18:13:45.439905, 1.61779
2022-12-01 18:13:45.451307, 1.61779
2022-12-01 18:13:45.459565, 1.61779
2022-12-01 18:13:45.467770, 1.60802
2022-12-01 18:13:45.480755, 1.62757
2022-12-01 18:13:45.488702, 1.61290
2022-12-01 18:13:45.496799, 1.60802
2022-12-01 18:13:45.504884, 1.60802
2022-12-01 18:13:45.516522, 1.60313
2022-12-01 18:13:45.524779, 1.61290
2022-12-01 18:13:45.532678, 1.59335
2022-12-01 18:13:45.544988, 1.59335
2022-12-01 18:13:45.553457, 1.59335
2022-12-01 18:13:45.561201, 1.58358
2022-12-01 18:13:45.569572, 1.59335
2022-12-01 18:13:45.581403, 1.58358
2022-12-01 18:13:45.590585, 1.59824
2022-12-01 18:13:45.598033, 1.58358
2022-12-01 18:13:45.610609, 1.58358
2022-12-01 18:13:45.618777, 1.58358
2022-12-01 18:13:45.626800, 1.58358
2022-12-01 18:13:45.636169, 1.57869
2022-12-01 18:13:45.648681, 1.58358
2022-12-01 18:13:45.655958, 1.58358
2022-12-01 18:13:45.664488, 1.57869
2022-12-01 18:13:45.677196, 1.57869
2022-12-01 18:13:45.685109, 1.57869
2022-12-01 18:13:45.693281, 1.58847
2022-12-01 18:13:45.701678, 1.58358
2022-12-01 18:13:45.713732, 1.58358
2022-12-01 18:13:45.721723, 1.60802
2022-12-01 18:13:45.729961, 1.59335
2022-12-01 18:13:45.742998, 1.61290
2022-12-01 18:13:45.750429, 1.61290
2022-12-01 18:13:45.758604, 1.62268
2022-12-01 18:13:45.766840, 1.62757
2022-12-01 18:13:45.779164, 1.63734
2022-12-01 18:13:45.788112, 1.64712
2022-12-01 18:13:45.796143, 1.65689
2022-12-01 18:13:45.808456, 1.69110
2022-12-01 18:13:45.815523, 1.67155
2022-12-01 18:13:45.824034, 1.68133
2022-12-01 18:13:45.832152, 1.67644
2022-12-01 18:13:45.845109, 1.67155
2022-12-01 18:13:45.853036, 1.67155
2022-12-01 18:13:45.861164, 1.66178
2022-12-01 18:13:45.868824, 1.65200
2022-12-01 18:13:45.881619, 1.64223
2022-12-01 18:13:45.889284, 1.63734
2022-12-01 18:13:45.897912, 1.63245
2022-12-01 18:13:45.910970, 1.62268
2022-12-01 18:13:45.919101, 1.62268
2022-12-01 18:13:45.927357, 1.61290
2022-12-01 18:13:45.934727, 1.60802
2022-12-01 18:13:45.947140, 1.60802
2022-12-01 18:13:45.955714, 1.59824
2022-12-01 18:13:45.964208, 1.59335
2022-12-01 18:13:45.975986, 1.60802
2022-12-01 18:13:45.983759, 1.58847
2022-12-01 18:13:45.991485, 1.58847
2022-12-01 18:13:46.000095, 1.57869
2022-12-01 18:13:46.013220, 1.57869
2022-12-01 18:13:46.021396, 1.57380
2022-12-01 18:13:46.029147, 1.56891
2022-12-01 18:13:46.041400, 1.58847
2022-12-01 18:13:46.048748, 1.56403
2022-12-01 18:13:46.057620, 1.56403
2022-12-01 18:13:46.065293, 1.55425
2022-12-01 18:13:46.078907, 1.55914
2022-12-01 18:13:46.086213, 1.55914
2022-12-01 18:13:46.094751, 1.55914
2022-12-01 18:13:46.106966, 1.54936
2022-12-01 18:13:46.115295, 1.54448
2022-12-01 18:13:46.123412, 1.54448
2022-12-01 18:13:46.131589, 1.54448
2022-12-01 18:13:46.142859, 1.53959
2022-12-01 18:13:46.151856, 1.53959
2022-12-01 18:13:46.159159, 1.52981
2022-12-01 18:13:46.172074, 1.52981
2022-12-01 18:13:46.180406, 1.52004
2022-12-01 18:13:46.189190, 1.52493
2022-12-01 18:13:46.197209, 1.52004
2022-12-01 18:13:46.209267, 1.52004
2022-12-01 18:13:46.217553, 1.52981
2022-12-01 18:13:46.225820, 1.52493
2022-12-01 18:13:46.238172, 1.54448
2022-12-01 18:13:46.246819, 1.52493
2022-12-01 18:13:46.253912, 1.52493
2022-12-01 18:13:46.263225, 1.55425
2022-12-01 18:13:46.275503, 1.52493
2022-12-01 18:13:46.282574, 1.52493
2022-12-01 18:13:46.291873, 1.52493
2022-12-01 18:13:46.302894, 1.52493
2022-12-01 18:13:46.311848, 1.52981
2022-12-01 18:13:46.320462, 1.52981
2022-12-01 18:13:46.328946, 1.53470
2022-12-01 18:13:46.341007, 1.53470
2022-12-01 18:13:46.348514, 1.54448
2022-12-01 18:13:46.356892, 1.54936
2022-12-01 18:13:46.369106, 1.55914
2022-12-01 18:13:46.377269, 1.57869
2022-12-01 18:13:46.385451, 1.57869
2022-12-01 18:13:46.393614, 1.61779
2022-12-01 18:13:46.405396, 1.59824
2022-12-01 18:13:46.414722, 1.61290
2022-12-01 18:13:46.422157, 1.62268
2022-12-01 18:13:46.435112, 1.63245
2022-12-01 18:13:46.442235, 1.63734
2022-12-01 18:13:46.451464, 1.64223
2022-12-01 18:13:46.459805, 1.65200
2022-12-01 18:13:46.471582, 1.64712
2022-12-01 18:13:46.479681, 1.64712
2022-12-01 18:13:46.487855, 1.64712
2022-12-01 18:13:46.499936, 1.64712
2022-12-01 18:13:46.508376, 1.64712
2022-12-01 18:13:46.516405, 1.64223
2022-12-01 18:13:46.525213, 1.64223
2022-12-01 18:13:46.536864, 1.63245
2022-12-01 18:13:46.544847, 1.62757
2022-12-01 18:13:46.553512, 1.63245
2022-12-01 18:13:46.565099, 1.62757
2022-12-01 18:13:46.574607, 1.64223
2022-12-01 18:13:46.581649, 1.62757
2022-12-01 18:13:46.589891, 1.62268
2022-12-01 18:13:46.602878, 1.63245
2022-12-01 18:13:46.611367, 1.61779
2022-12-01 18:13:46.618694, 1.62757
2022-12-01 18:13:46.631740, 1.62268
2022-12-01 18:13:46.639938, 1.62268
2022-12-01 18:13:46.648116, 1.62268
2022-12-01 18:13:46.656331, 1.64712
2022-12-01 18:13:46.667233, 1.61779
2022-12-01 18:13:46.676459, 1.62268
2022-12-01 18:13:46.685151, 1.62268
2022-12-01 18:13:46.696862, 1.62268
2022-12-01 18:13:46.704433, 1.62268
2022-12-01 18:13:46.712688, 1.61779
2022-12-01 18:13:46.720312, 1.62268
2022-12-01 18:13:46.733350, 1.61779
2022-12-01 18:13:46.742338, 1.61290
2022-12-01 18:13:46.749829, 1.61290
2022-12-01 18:13:46.758159, 1.64712
2022-12-01 18:13:46.771140, 1.61290
2022-12-01 18:13:46.778596, 1.61779
2022-12-01 18:13:46.786942, 1.60802
2022-12-01 18:13:46.798461, 1.63734
2022-12-01 18:13:46.807856, 1.60802
2022-12-01 18:13:46.815037, 1.61290
2022-12-01 18:13:46.824273, 1.61290
2022-12-01 18:13:46.836377, 1.60802
2022-12-01 18:13:46.844812, 1.60802
2022-12-01 18:13:46.852308, 1.60802
2022-12-01 18:13:46.864862, 1.60313
2022-12-01 18:13:46.872951, 1.60802
2022-12-01 18:13:46.881156, 1.59824
2022-12-01 18:13:46.889344, 1.59335
2022-12-01 18:13:46.901004, 1.59335
2022-12-01 18:13:46.909844, 1.59335
2022-12-01 18:13:46.917551, 1.59824
2022-12-01 18:13:46.929586, 1.60313
2022-12-01 18:13:46.938335, 1.60313
2022-12-01 18:13:46.946386, 1.60313
2022-12-01 18:13:46.954497, 1.62757
2022-12-01 18:13:46.966027, 1.61290
2022-12-01 18:13:46.974977, 1.61779
2022-12-01 18:13:46.983077, 1.62757
2022-12-01 18:13:46.994737, 1.63734
2022-12-01 18:13:47.003692, 1.68133
2022-12-01 18:13:47.012688, 1.65689
2022-12-01 18:13:47.020346, 1.66178
2022-12-01 18:13:47.031567, 1.67155
2022-12-01 18:13:47.040920, 1.68133
2022-12-01 18:13:47.048906, 1.68622
2022-12-01 18:13:47.061360, 1.69599
2022-12-01 18:13:47.069620, 1.70088
2022-12-01 18:13:47.077880, 1.70088
2022-12-01 18:13:47.086542, 1.70577
2022-12-01 18:13:47.097855, 1.70577
2022-12-01 18:13:47.106361, 1.71554
2022-12-01 18:13:47.114456, 1.69599
2022-12-01 18:13:47.126791, 1.69599
2022-12-01 18:13:47.135659, 1.68622
2022-12-01 18:13:47.142562, 1.68622
2022-12-01 18:13:47.151243, 1.68133
2022-12-01 18:13:47.164356, 1.67644
2022-12-01 18:13:47.172650, 1.67644
2022-12-01 18:13:47.179388, 1.67155
2022-12-01 18:13:47.191490, 1.68133
2022-12-01 18:13:47.199512, 1.66667
2022-12-01 18:13:47.208634, 1.66667
2022-12-01 18:13:47.216647, 1.65689
2022-12-01 18:13:47.229394, 1.66178
2022-12-01 18:13:47.237581, 1.65689
2022-12-01 18:13:47.245693, 1.65689
2022-12-01 18:13:47.257668, 1.65200
2022-12-01 18:13:47.265950, 1.64223
2022-12-01 18:13:47.274327, 1.64223
2022-12-01 18:13:47.282348, 1.64712
2022-12-01 18:13:47.295318, 1.65200
2022-12-01 18:13:47.303155, 1.64712
2022-12-01 18:13:47.311187, 1.67155
2022-12-01 18:13:47.324060, 1.64223
2022-12-01 18:13:47.331566, 1.64223
2022-12-01 18:13:47.340192, 1.65200
2022-12-01 18:13:47.348116, 1.64223
2022-12-01 18:13:47.360044, 1.64223
2022-12-01 18:13:47.368966, 1.63245
2022-12-01 18:13:47.376737, 1.63245
2022-12-01 18:13:47.388675, 1.64712
2022-12-01 18:13:47.397180, 1.62757
2022-12-01 18:13:47.405580, 1.63734
2022-12-01 18:13:47.413341, 1.62268
2022-12-01 18:13:47.425779, 1.64712
2022-12-01 18:13:47.434293, 1.61779
2022-12-01 18:13:47.442295, 1.61779
2022-12-01 18:13:47.454531, 1.61290
2022-12-01 18:13:47.463378, 1.61779
2022-12-01 18:13:47.471034, 1.64223
2022-12-01 18:13:47.478992, 1.61290
2022-12-01 18:13:47.492077, 1.60802
2022-12-01 18:13:47.499451, 1.63734
2022-12-01 18:13:47.508058, 1.60802
2022-12-01 18:13:47.520669, 1.60802
2022-12-01 18:13:47.528144, 1.60313
2022-12-01 18:13:47.536968, 1.59824
2022-12-01 18:13:47.544973, 1.62757
2022-12-01 18:13:47.557097, 1.59824
2022-12-01 18:13:47.564798, 1.61290
2022-12-01 18:13:47.573246, 1.59824
2022-12-01 18:13:47.581245, 1.62757
2022-12-01 18:13:47.593637, 1.59824
2022-12-01 18:13:47.602235, 1.62268
2022-12-01 18:13:47.610000, 1.60802
2022-12-01 18:13:47.623158, 1.61290
2022-12-01 18:13:47.631158, 1.61290
2022-12-01 18:13:47.638326, 1.62757
2022-12-01 18:13:47.647562, 1.63734
2022-12-01 18:13:47.659886, 1.64712
2022-12-01 18:13:47.667637, 1.65689
2022-12-01 18:13:47.675653, 1.66667
2022-12-01 18:13:47.688647, 1.67155
2022-12-01 18:13:47.695946, 1.68133
2022-12-01 18:13:47.704558, 1.69110
2022-12-01 18:13:47.712342, 1.69599
2022-12-01 18:13:47.725307, 1.70088
2022-12-01 18:13:47.732791, 1.70577
2022-12-01 18:13:47.741329, 1.73509
2022-12-01 18:13:47.753526, 1.72043
2022-12-01 18:13:47.760846, 1.70088
2022-12-01 18:13:47.769718, 1.70088
2022-12-01 18:13:47.777973, 1.69599
2022-12-01 18:13:47.790368, 1.69599
2022-12-01 18:13:47.797887, 1.69599
2022-12-01 18:13:47.806905, 1.69110
2022-12-01 18:13:47.818819, 1.68622
2022-12-01 18:13:47.826358, 1.68622
2022-12-01 18:13:47.835229, 1.68133
2022-12-01 18:13:47.843640, 1.67155
2022-12-01 18:13:47.856351, 1.68622
2022-12-01 18:13:47.864292, 1.66667
2022-12-01 18:13:47.871770, 1.66667
2022-12-01 18:13:47.884631, 1.65689
2022-12-01 18:13:47.892795, 1.65689
2022-12-01 18:13:47.901082, 1.67644
2022-12-01 18:13:47.908937, 1.65689
2022-12-01 18:13:47.921571, 1.66178
2022-12-01 18:13:47.929492, 1.67155
2022-12-01 18:13:47.937684, 1.65200
2022-12-01 18:13:47.949903, 1.64712
2022-12-01 18:13:47.958170, 1.64712
2022-12-01 18:13:47.966291, 1.64712
2022-12-01 18:13:47.975372, 1.64712
2022-12-01 18:13:47.986811, 1.64712
2022-12-01 18:13:47.995252, 1.65689
2022-12-01 18:13:48.003277, 1.64712
2022-12-01 18:13:48.015281, 1.64712
2022-12-01 18:13:48.022899, 1.63734
2022-12-01 18:13:48.031968, 1.63245
2022-12-01 18:13:48.040352, 1.64712
2022-12-01 18:13:48.052607, 1.63245
2022-12-01 18:13:48.060306, 1.63245
2022-12-01 18:13:48.069239, 1.65200
2022-12-01 18:13:48.081081, 1.62268
2022-12-01 18:13:48.089525, 1.62268
2022-12-01 18:13:48.097658, 1.61290
2022-12-01 18:13:48.105633, 1.61290
2022-12-01 18:13:48.118604, 1.60802
2022-12-01 18:13:48.126031, 1.63245
2022-12-01 18:13:48.134561, 1.60802
2022-12-01 18:13:48.146547, 1.63245
2022-12-01 18:13:48.155562, 1.60313
2022-12-01 18:13:48.163747, 1.60802
2022-12-01 18:13:48.171832, 1.60313
2022-12-01 18:13:48.182975, 1.59335
2022-12-01 18:13:48.191622, 1.61779
2022-12-01 18:13:48.199056, 1.58847
2022-12-01 18:13:48.211937, 1.59335
2022-12-01 18:13:48.219521, 1.58847
2022-12-01 18:13:48.229079, 1.58847
2022-12-01 18:13:48.237220, 1.58847
2022-12-01 18:13:48.248846, 1.59335
2022-12-01 18:13:48.257298, 1.59335
2022-12-01 18:13:48.265520, 1.59824
2022-12-01 18:13:48.277999, 1.59824
2022-12-01 18:13:48.285865, 1.59824
2022-12-01 18:13:48.294761, 1.60313
2022-12-01 18:13:48.302455, 1.61290
2022-12-01 18:13:48.314376, 1.61779
2022-12-01 18:13:48.322105, 1.62268
2022-12-01 18:13:48.331144, 1.63734
2022-12-01 18:13:48.343641, 1.64223
2022-12-01 18:13:48.351083, 1.65200
2022-12-01 18:13:48.359774, 1.65689
2022-12-01 18:13:48.367348, 1.67155
2022-12-01 18:13:48.379541, 1.67644
2022-12-01 18:13:48.388194, 1.68622
2022-12-01 18:13:48.396886, 1.71065
2022-12-01 18:13:48.409061, 1.69599
2022-12-01 18:13:48.417195, 1.70088
2022-12-01 18:13:48.425130, 1.70088
2022-12-01 18:13:48.433463, 1.69599
2022-12-01 18:13:48.445868, 1.69110
2022-12-01 18:13:48.454104, 1.69599
2022-12-01 18:13:48.462429, 1.68622
2022-12-01 18:13:48.470655, 1.68622
2022-12-01 18:13:48.481912, 1.68622
2022-12-01 18:13:48.490138, 1.69110
2022-12-01 18:13:48.498803, 1.67644
2022-12-01 18:13:48.511812, 1.67644
2022-12-01 18:13:48.519116, 1.68133
2022-12-01 18:13:48.528202, 1.66667
2022-12-01 18:13:48.535871, 1.65689
2022-12-01 18:13:48.547746, 1.69110
2022-12-01 18:13:48.556982, 1.65689
2022-12-01 18:13:48.564909, 1.64712
2022-12-01 18:13:48.576966, 1.64712
2022-12-01 18:13:48.585172, 1.67155
2022-12-01 18:13:48.592921, 1.64223
2022-12-01 18:13:48.601325, 1.64223
2022-12-01 18:13:48.613594, 1.63734
2022-12-01 18:13:48.622006, 1.63245
2022-12-01 18:13:48.629124, 1.63245
2022-12-01 18:13:48.642032, 1.64223
2022-12-01 18:13:48.650380, 1.62268
2022-12-01 18:13:48.657791, 1.62268
2022-12-01 18:13:48.665971, 1.62268
2022-12-01 18:13:48.678532, 1.61290
2022-12-01 18:13:48.686443, 1.61290
2022-12-01 18:13:48.695243, 1.61290
2022-12-01 18:13:48.707591, 1.62757
2022-12-01 18:13:48.715813, 1.60313
2022-12-01 18:13:48.723427, 1.59824
2022-12-01 18:13:48.731638, 1.59335
2022-12-01 18:13:48.744836, 1.58847
2022-12-01 18:13:48.753045, 1.58358
2022-12-01 18:13:48.760850, 1.57869
2022-12-01 18:13:48.773495, 1.57380
2022-12-01 18:13:48.781358, 1.57869
2022-12-01 18:13:48.790356, 1.56891
2022-12-01 18:13:48.796931, 1.56891
2022-12-01 18:13:48.809650, 1.56403
2022-12-01 18:13:48.818495, 1.57380
2022-12-01 18:13:48.826683, 1.56403
2022-12-01 18:13:48.839633, 1.55914
2022-12-01 18:13:48.847517, 1.55425
2022-12-01 18:13:48.856117, 1.55425
2022-12-01 18:13:48.864089, 1.54936
2022-12-01 18:13:48.876069, 1.54936
2022-12-01 18:13:48.884665, 1.54448
2022-12-01 18:13:48.892862, 1.53959
2022-12-01 18:13:48.904876, 1.56403
2022-12-01 18:13:48.912847, 1.52981
2022-12-01 18:13:48.920955, 1.56403
2022-12-01 18:13:48.929040, 1.53470
2022-12-01 18:13:48.941462, 1.53470
2022-12-01 18:13:48.949145, 1.54448
2022-12-01 18:13:48.957013, 1.54448
2022-12-01 18:13:48.969500, 1.54936
2022-12-01 18:13:48.977652, 1.56403
2022-12-01 18:13:48.986527, 1.56403
2022-12-01 18:13:48.994109, 1.56891
2022-12-01 18:13:49.007452, 1.58358
2022-12-01 18:13:49.014213, 1.61290
2022-12-01 18:13:49.023900, 1.60313
2022-12-01 18:13:49.035643, 1.60802
2022-12-01 18:13:49.044255, 1.63245
2022-12-01 18:13:49.052483, 1.61779
2022-12-01 18:13:49.060230, 1.62757
2022-12-01 18:13:49.072992, 1.63245
2022-12-01 18:13:49.080870, 1.67155
2022-12-01 18:13:49.088893, 1.63734
2022-12-01 18:13:49.100878, 1.63734
2022-12-01 18:13:49.109397, 1.63245
2022-12-01 18:13:49.117546, 1.64223
2022-12-01 18:13:49.125618, 1.62268
2022-12-01 18:13:49.137720, 1.62268
2022-12-01 18:13:49.145972, 1.61779
2022-12-01 18:13:49.153961, 1.61779
2022-12-01 18:13:49.167263, 1.60802
2022-12-01 18:13:49.174673, 1.60802
2022-12-01 18:13:49.182827, 1.60313
2022-12-01 18:13:49.191791, 1.60313
2022-12-01 18:13:49.203681, 1.60802
2022-12-01 18:13:49.211120, 1.59335
2022-12-01 18:13:49.220358, 1.58847
2022-12-01 18:13:49.231825, 1.62268
2022-12-01 18:13:49.241032, 1.58847
2022-12-01 18:13:49.248341, 1.58847
2022-12-01 18:13:49.256986, 1.57869
2022-12-01 18:13:49.268735, 1.57869
2022-12-01 18:13:49.277040, 1.59824
2022-12-01 18:13:49.285288, 1.57380
2022-12-01 18:13:49.297366, 1.60802
2022-12-01 18:13:49.305858, 1.57380
2022-12-01 18:13:49.313410, 1.57869
2022-12-01 18:13:49.322986, 1.57380
2022-12-01 18:13:49.334956, 1.56891
2022-12-01 18:13:49.343434, 1.58847
2022-12-01 18:13:49.351609, 1.56403
2022-12-01 18:13:49.359712, 1.56891
2022-12-01 18:13:49.371977, 1.56403
2022-12-01 18:13:49.379223, 1.55914
2022-12-01 18:13:49.388468, 1.55914
2022-12-01 18:13:49.400755, 1.55914
2022-12-01 18:13:49.408298, 1.55914
2022-12-01 18:13:49.416987, 1.54936
2022-12-01 18:13:49.424493, 1.54936
2022-12-01 18:13:49.437163, 1.54936
2022-12-01 18:13:49.445235, 1.54936
2022-12-01 18:13:49.453405, 1.54936
2022-12-01 18:13:49.465157, 1.54936
2022-12-01 18:13:49.473587, 1.54448
2022-12-01 18:13:49.481855, 1.53959
2022-12-01 18:13:49.490236, 1.53959
2022-12-01 18:13:49.502093, 1.53959
2022-12-01 18:13:49.511350, 1.53959
2022-12-01 18:13:49.519550, 1.53959
2022-12-01 18:13:49.530624, 1.53959
2022-12-01 18:13:49.540060, 1.54448
2022-12-01 18:13:49.547137, 1.54448
2022-12-01 18:13:49.556308, 1.54936
2022-12-01 18:13:49.568441, 1.54448
2022-12-01 18:13:49.576725, 1.54936
2022-12-01 18:13:49.584995, 1.54936
2022-12-01 18:13:49.597149, 1.56403
2022-12-01 18:13:49.605255, 1.55914
2022-12-01 18:13:49.613168, 1.57869
2022-12-01 18:13:49.621454, 1.57869
2022-12-01 18:13:49.633572, 1.59335
2022-12-01 18:13:49.641572, 1.59824
2022-12-01 18:13:49.649872, 1.60802
2022-12-01 18:13:49.661980, 1.65200
2022-12-01 18:13:49.670118, 1.62757
2022-12-01 18:13:49.679288, 1.64223
2022-12-01 18:13:49.685716, 1.64223
2022-12-01 18:13:49.698909, 1.65200
2022-12-01 18:13:49.707984, 1.65689
2022-12-01 18:13:49.716385, 1.66178
2022-12-01 18:13:49.727252, 1.66667
2022-12-01 18:13:49.736085, 1.66178
2022-12-01 18:13:49.744337, 1.68622
2022-12-01 18:13:49.752997, 1.66667
2022-12-01 18:13:49.763828, 1.66667
2022-12-01 18:13:49.773020, 1.66667
2022-12-01 18:13:49.780145, 1.66178
2022-12-01 18:13:49.792864, 1.66178
2022-12-01 18:13:49.801458, 1.66178
2022-12-01 18:13:49.809119, 1.65689
2022-12-01 18:13:49.817744, 1.65689
2022-12-01 18:13:49.830463, 1.64712
2022-12-01 18:13:49.839128, 1.64712
2022-12-01 18:13:49.847276, 1.67155
2022-12-01 18:13:49.859186, 1.63734
2022-12-01 18:13:49.866641, 1.63734
2022-12-01 18:13:49.875370, 1.63734
2022-12-01 18:13:49.883527, 1.63734
2022-12-01 18:13:49.895898, 1.63245
2022-12-01 18:13:49.904089, 1.62757
2022-12-01 18:13:49.912250, 1.63245
2022-12-01 18:13:49.925055, 1.62757
2022-12-01 18:13:49.932260, 1.62757
2022-12-01 18:13:49.941252, 1.62757
2022-12-01 18:13:49.948605, 1.62757
2022-12-01 18:13:49.961349, 1.62757
2022-12-01 18:13:49.969549, 1.63245
2022-12-01 18:13:49.977668, 1.62757
2022-12-01 18:13:49.990507, 1.63245
2022-12-01 18:13:49.998187, 1.62757
2022-12-01 18:13:50.006879, 1.62757
2022-12-01 18:13:50.014636, 1.62757
2022-12-01 18:13:50.027337, 1.62268
2022-12-01 18:13:50.035557, 1.61779
2022-12-01 18:13:50.043245, 1.61290
2022-12-01 18:13:50.056093, 1.64223
2022-12-01 18:13:50.063536, 1.60313
2022-12-01 18:13:50.072435, 1.63734
2022-12-01 18:13:50.080362, 1.59824
2022-12-01 18:13:50.091966, 1.60313
2022-12-01 18:13:50.100189, 1.59335
2022-12-01 18:13:50.108726, 1.59824
2022-12-01 18:13:50.121158, 1.62268
2022-12-01 18:13:50.128600, 1.59335
2022-12-01 18:13:50.137348, 1.60313
2022-12-01 18:13:50.146087, 1.59335
2022-12-01 18:13:50.158420, 1.62268
2022-12-01 18:13:50.166344, 1.58358
2022-12-01 18:13:50.173994, 1.61290
2022-12-01 18:13:50.182238, 1.58358
2022-12-01 18:13:50.193988, 1.61779
2022-12-01 18:13:50.201945, 1.57869
2022-12-01 18:13:50.211674, 1.58847
2022-12-01 18:13:50.223109, 1.58358
2022-12-01 18:13:50.230946, 1.60802
2022-12-01 18:13:50.239016, 1.58847
2022-12-01 18:13:50.247100, 1.62268
2022-12-01 18:13:50.259940, 1.60802
2022-12-01 18:13:50.267887, 1.62268
2022-12-01 18:13:50.276550, 1.62757
2022-12-01 18:13:50.287903, 1.63245
2022-12-01 18:13:50.296865, 1.64223
2022-12-01 18:13:50.305352, 1.65200
2022-12-01 18:13:50.313381, 1.66178
2022-12-01 18:13:50.324983, 1.68133
2022-12-01 18:13:50.333405, 1.67155
2022-12-01 18:13:50.342802, 1.68133
2022-12-01 18:13:50.354572, 1.69110
2022-12-01 18:13:50.362711, 1.69599
2022-12-01 18:13:50.371420, 1.69599
2022-12-01 18:13:50.379067, 1.69599
2022-12-01 18:13:50.390507, 1.69599
2022-12-01 18:13:50.399322, 1.69599
2022-12-01 18:13:50.407814, 1.69599
2022-12-01 18:13:50.420064, 1.69110
2022-12-01 18:13:50.428768, 1.71554
2022-12-01 18:13:50.436237, 1.69110
2022-12-01 18:13:50.445253, 1.69110
2022-12-01 18:13:50.457072, 1.68622
2022-12-01 18:13:50.464279, 1.70577
2022-12-01 18:13:50.473337, 1.68622
2022-12-01 18:13:50.485657, 1.68622
2022-12-01 18:13:50.494385, 1.67644
2022-12-01 18:13:50.502219, 1.67644
2022-12-01 18:13:50.510131, 1.67644
2022-12-01 18:13:50.522428, 1.66667
2022-12-01 18:13:50.529899, 1.65689
2022-12-01 18:13:50.538842, 1.68133
2022-12-01 18:13:50.551234, 1.65689
2022-12-01 18:13:50.559191, 1.65689
2022-12-01 18:13:50.567502, 1.65200
2022-12-01 18:13:50.574872, 1.65689
2022-12-01 18:13:50.588718, 1.65689
2022-12-01 18:13:50.596686, 1.66667
2022-12-01 18:13:50.604163, 1.65689
2022-12-01 18:13:50.616608, 1.66178
2022-12-01 18:13:50.624909, 1.65689
2022-12-01 18:13:50.632872, 1.66667
2022-12-01 18:13:50.641291, 1.64712
2022-12-01 18:13:50.652701, 1.64712
2022-12-01 18:13:50.660769, 1.64223
2022-12-01 18:13:50.670100, 1.63734
2022-12-01 18:13:50.681781, 1.63245
2022-12-01 18:13:50.690399, 1.62757
2022-12-01 18:13:50.698462, 1.65689
2022-12-01 18:13:50.707035, 1.62757
2022-12-01 18:13:50.718912, 1.62268
2022-12-01 18:13:50.726298, 1.65689
2022-12-01 18:13:50.735729, 1.62268
2022-12-01 18:13:50.746904, 1.61779
2022-12-01 18:13:50.756322, 1.62268
2022-12-01 18:13:50.764042, 1.63734
2022-12-01 18:13:50.772682, 1.61779
2022-12-01 18:13:50.784908, 1.61779
2022-12-01 18:13:50.792915, 1.62268
2022-12-01 18:13:50.800915, 1.62268
2022-12-01 18:13:50.813306, 1.62268
2022-12-01 18:13:50.821338, 1.62268
2022-12-01 18:13:50.829636, 1.62757
2022-12-01 18:13:50.837741, 1.63734
2022-12-01 18:13:50.850089, 1.63245
2022-12-01 18:13:50.858368, 1.63734
2022-12-01 18:13:50.866329, 1.64712
2022-12-01 18:13:50.879343, 1.67155
2022-12-01 18:13:50.887524, 1.66667
2022-12-01 18:13:50.895819, 1.67644
2022-12-01 18:13:50.903336, 1.68622
2022-12-01 18:13:50.915113, 1.70088
2022-12-01 18:13:50.924480, 1.71554
2022-12-01 18:13:50.931750, 1.75953
2022-12-01 18:13:50.943468, 1.73998
2022-12-01 18:13:50.951907, 1.75464
2022-12-01 18:13:50.959802, 1.76442
2022-12-01 18:13:50.968990, 1.77419
2022-12-01 18:13:50.980263, 1.80352
2022-12-01 18:13:50.988812, 1.78886
2022-12-01 18:13:50.996556, 1.79863
2022-12-01 18:13:51.008836, 1.79374
2022-12-01 18:13:51.017827, 1.79863
2022-12-01 18:13:51.026344, 1.79374
2022-12-01 18:13:51.034598, 1.78886
2022-12-01 18:13:51.046643, 1.78886
2022-12-01 18:13:51.054509, 1.77908
2022-12-01 18:13:51.063103, 1.78886
2022-12-01 18:13:51.069951, 1.78397
2022-12-01 18:13:51.084310, 1.76442
2022-12-01 18:13:51.092340, 1.75464
2022-12-01 18:13:51.099896, 1.76442
2022-12-01 18:13:51.112820, 1.74976
2022-12-01 18:13:51.120912, 1.74487
2022-12-01 18:13:51.128907, 1.76931
2022-12-01 18:13:51.136886, 1.74976
2022-12-01 18:13:51.148757, 1.74487
2022-12-01 18:13:51.157496, 1.75953
2022-12-01 18:13:51.165347, 1.73998
2022-12-01 18:13:51.177677, 1.73998
2022-12-01 18:13:51.185828, 1.73998
2022-12-01 18:13:51.193725, 1.73998
2022-12-01 18:13:51.202624, 1.74487
2022-12-01 18:13:51.214289, 1.73509
2022-12-01 18:13:51.222981, 1.73998
2022-12-01 18:13:51.230626, 1.74976
2022-12-01 18:13:51.242665, 1.73509
2022-12-01 18:13:51.251783, 1.73509
2022-12-01 18:13:51.259717, 1.73509
2022-12-01 18:13:51.268178, 1.73509
2022-12-01 18:13:51.279845, 1.73021
2022-12-01 18:13:51.288222, 1.72532
2022-12-01 18:13:51.296416, 1.72043
2022-12-01 18:13:51.309018, 1.72043
2022-12-01 18:13:51.316649, 1.71554
2022-12-01 18:13:51.325138, 1.71065
2022-12-01 18:13:51.333683, 1.70577
2022-12-01 18:13:51.345105, 1.70577
2022-12-01 18:13:51.353830, 1.70577
2022-12-01 18:13:51.361994, 1.70088
2022-12-01 18:13:51.374880, 1.70088
2022-12-01 18:13:51.382459, 1.70088
2022-12-01 18:13:51.390845, 1.69599
2022-12-01 18:13:51.398661, 1.69599
2022-12-01 18:13:51.411823, 1.69110
2022-12-01 18:13:51.419549, 1.69599
2022-12-01 18:13:51.428235, 1.69599
2022-12-01 18:13:51.438876, 1.69599
2022-12-01 18:13:51.447910, 1.68622
2022-12-01 18:13:51.456294, 1.72532
2022-12-01 18:13:51.464451, 1.69110
2022-12-01 18:13:51.477161, 1.69110
2022-12-01 18:13:51.484597, 1.69110
2022-12-01 18:13:51.493349, 1.73021
2022-12-01 18:13:51.505576, 1.70577
2022-12-01 18:13:51.512925, 1.72532
2022-12-01 18:13:51.521835, 1.72043
2022-12-01 18:13:51.529961, 1.73021
2022-12-01 18:13:51.542904, 1.73998
2022-12-01 18:13:51.551097, 1.74976
2022-12-01 18:13:51.559271, 1.75464
2022-12-01 18:13:51.571651, 1.75953
2022-12-01 18:13:51.579221, 1.76442
2022-12-01 18:13:51.588070, 1.76442
2022-12-01 18:13:51.596142, 1.76442
2022-12-01 18:13:51.607570, 1.76931
2022-12-01 18:13:51.616112, 1.76442
2022-12-01 18:13:51.624830, 1.75953
2022-12-01 18:13:51.636021, 1.75464
2022-12-01 18:13:51.644925, 1.74976
2022-12-01 18:13:51.652935, 1.74487
2022-12-01 18:13:51.661193, 1.73998
2022-12-01 18:13:51.673433, 1.73998
2022-12-01 18:13:51.681795, 1.72532
2022-12-01 18:13:51.689836, 1.72043
2022-12-01 18:13:51.702596, 1.71554
2022-12-01 18:13:51.710822, 1.73021
2022-12-01 18:13:51.719196, 1.70577
2022-12-01 18:13:51.727594, 1.69599
2022-12-01 18:13:51.738036, 1.69110
2022-12-01 18:13:51.746904, 1.68622
2022-12-01 18:13:51.754388, 1.68133
2022-12-01 18:13:51.766743, 1.67644
2022-12-01 18:13:51.775093, 1.67155
2022-12-01 18:13:51.783466, 1.67644
2022-12-01 18:13:51.792081, 1.66667
2022-12-01 18:13:51.803743, 1.66178
2022-12-01 18:13:51.812513, 1.66178
2022-12-01 18:13:51.820080, 1.65689
2022-12-01 18:13:51.832179, 1.65689
2022-12-01 18:13:51.841176, 1.64712
2022-12-01 18:13:51.849396, 1.64223
2022-12-01 18:13:51.857516, 1.63734
2022-12-01 18:13:51.869000, 1.63245
2022-12-01 18:13:51.877179, 1.63245
2022-12-01 18:13:51.887089, 1.62757
2022-12-01 18:13:51.898456, 1.62268
2022-12-01 18:13:51.907125, 1.61779
2022-12-01 18:13:51.914827, 1.62268
2022-12-01 18:13:51.923929, 1.60802
2022-12-01 18:13:51.935743, 1.60313
2022-12-01 18:13:51.943325, 1.59824
2022-12-01 18:13:51.952240, 1.59824
2022-12-01 18:13:51.960701, 1.58847
2022-12-01 18:13:51.972592, 1.59335
2022-12-01 18:13:51.980350, 1.59335
2022-12-01 18:13:51.988938, 1.62268
2022-12-01 18:13:52.001298, 1.58358
2022-12-01 18:13:52.009335, 1.58847
2022-12-01 18:13:52.017522, 1.58358
2022-12-01 18:13:52.025861, 1.58358
2022-12-01 18:13:52.038233, 1.57869
2022-12-01 18:13:52.046175, 1.57380
2022-12-01 18:13:52.054475, 1.58847
2022-12-01 18:13:52.066406, 1.56891
2022-12-01 18:13:52.074601, 1.56403
2022-12-01 18:13:52.082909, 1.56403
2022-12-01 18:13:52.091104, 1.56891
2022-12-01 18:13:52.104095, 1.57380
2022-12-01 18:13:52.111459, 1.58358
2022-12-01 18:13:52.120549, 1.62268
2022-12-01 18:13:52.131994, 1.59335
2022-12-01 18:13:52.139552, 1.60313
2022-12-01 18:13:52.149172, 1.60802
2022-12-01 18:13:52.156495, 1.62268
2022-12-01 18:13:52.169184, 1.61779
2022-12-01 18:13:52.177273, 1.62268
2022-12-01 18:13:52.185737, 1.62757
2022-12-01 18:13:52.197271, 1.62757
2022-12-01 18:13:52.206544, 1.64223
2022-12-01 18:13:52.213974, 1.64223
2022-12-01 18:13:52.222936, 1.63245
2022-12-01 18:13:52.234651, 1.63245
2022-12-01 18:13:52.243087, 1.62757
2022-12-01 18:13:52.250211, 1.62757
2022-12-01 18:13:52.261847, 1.61779
2022-12-01 18:13:52.271696, 1.61290
2022-12-01 18:13:52.279485, 1.61290
2022-12-01 18:13:52.288082, 1.59824
2022-12-01 18:13:52.299863, 1.59824
2022-12-01 18:13:52.308221, 1.59335
2022-12-01 18:13:52.316006, 1.61290
2022-12-01 18:13:52.328498, 1.58358
2022-12-01 18:13:52.337057, 1.57869
2022-12-01 18:13:52.345337, 1.57869
2022-12-01 18:13:52.353676, 1.57380
2022-12-01 18:13:52.364800, 1.56891
2022-12-01 18:13:52.373151, 1.57380
2022-12-01 18:13:52.382587, 1.56403
2022-12-01 18:13:52.394364, 1.56891
2022-12-01 18:13:52.402386, 1.56403
2022-12-01 18:13:52.410493, 1.56403
2022-12-01 18:13:52.419057, 1.56891
2022-12-01 18:13:52.430658, 1.55914
2022-12-01 18:13:52.439742, 1.56403
2022-12-01 18:13:52.447471, 1.56403
2022-12-01 18:13:52.460172, 1.58847
2022-12-01 18:13:52.468016, 1.55914
2022-12-01 18:13:52.475717, 1.55914
2022-12-01 18:13:52.483413, 1.55425
2022-12-01 18:13:52.496144, 1.55425
2022-12-01 18:13:52.504978, 1.56891
2022-12-01 18:13:52.512805, 1.55425
2022-12-01 18:13:52.525498, 1.55425
2022-12-01 18:13:52.533630, 1.55425
2022-12-01 18:13:52.542092, 1.55425
2022-12-01 18:13:52.550006, 1.56403
2022-12-01 18:13:52.562186, 1.54936
2022-12-01 18:13:52.570618, 1.54448
2022-12-01 18:13:52.578800, 1.54936
2022-12-01 18:13:52.590994, 1.53959
2022-12-01 18:13:52.599155, 1.56403
2022-12-01 18:13:52.607225, 1.54448
2022-12-01 18:13:52.614793, 1.54448
2022-12-01 18:13:52.627660, 1.55914
2022-12-01 18:13:52.636044, 1.54936
2022-12-01 18:13:52.643317, 1.55425
2022-12-01 18:13:52.656928, 1.55914
2022-12-01 18:13:52.664271, 1.56891
2022-12-01 18:13:52.673072, 1.58358
2022-12-01 18:13:52.680885, 1.59335
2022-12-01 18:13:52.693411, 1.61290
2022-12-01 18:13:52.701401, 1.61779
2022-12-01 18:13:52.709886, 1.63245
2022-12-01 18:13:52.721836, 1.64223
2022-12-01 18:13:52.729266, 1.65200
2022-12-01 18:13:52.737666, 1.66178
2022-12-01 18:13:52.746609, 1.67644
2022-12-01 18:13:52.758972, 1.68133
2022-12-01 18:13:52.766874, 1.68622
2022-12-01 18:13:52.775410, 1.69110
2022-12-01 18:13:52.783371, 1.69110
2022-12-01 18:13:52.795952, 1.69110
2022-12-01 18:13:52.803989, 1.69599
2022-12-01 18:13:52.811809, 1.68622
2022-12-01 18:13:52.824922, 1.68622
2022-12-01 18:13:52.833050, 1.68622
2022-12-01 18:13:52.841195, 1.68622
2022-12-01 18:13:52.849087, 1.67644
2022-12-01 18:13:52.861376, 1.68133
2022-12-01 18:13:52.869595, 1.67644
2022-12-01 18:13:52.877838, 1.68622
2022-12-01 18:13:52.889294, 1.67644
2022-12-01 18:13:52.898113, 1.68622
2022-12-01 18:13:52.906349, 1.67644
2022-12-01 18:13:52.914440, 1.66667
2022-12-01 18:13:52.927367, 1.67155
2022-12-01 18:13:52.934679, 1.66667
2022-12-01 18:13:52.943883, 1.67155
2022-12-01 18:13:52.956157, 1.67155
2022-12-01 18:13:52.964127, 1.68133
2022-12-01 18:13:52.972501, 1.67155
2022-12-01 18:13:52.979100, 1.66667
2022-12-01 18:13:52.992882, 1.66667
2022-12-01 18:13:53.001012, 1.66667
2022-12-01 18:13:53.009193, 1.66667
2022-12-01 18:13:53.020398, 1.66178
2022-12-01 18:13:53.028877, 1.66178
2022-12-01 18:13:53.037329, 1.66667
2022-12-01 18:13:53.045467, 1.66178
2022-12-01 18:13:53.056861, 1.66667
2022-12-01 18:13:53.065822, 1.66178
2022-12-01 18:13:53.074165, 1.66667
2022-12-01 18:13:53.086358, 1.66178
2022-12-01 18:13:53.094546, 1.65689
2022-12-01 18:13:53.101742, 1.65689
2022-12-01 18:13:53.111691, 1.65689
2022-12-01 18:13:53.123890, 1.65689
2022-12-01 18:13:53.131416, 1.65200
2022-12-01 18:13:53.140354, 1.68133
2022-12-01 18:13:53.151341, 1.65200
2022-12-01 18:13:53.160142, 1.65689
2022-12-01 18:13:53.168208, 1.65689
2022-12-01 18:13:53.176748, 1.65689
2022-12-01 18:13:53.189189, 1.65689
2022-12-01 18:13:53.197051, 1.66178
2022-12-01 18:13:53.205417, 1.66178
2022-12-01 18:13:53.217665, 1.67155
2022-12-01 18:13:53.224899, 1.70088
2022-12-01 18:13:53.233815, 1.68622
2022-12-01 18:13:53.242024, 1.70088
2022-12-01 18:13:53.254406, 1.71554
2022-12-01 18:13:53.262299, 1.72532
2022-12-01 18:13:53.270507, 1.73509
2022-12-01 18:13:53.282550, 1.74487
2022-12-01 18:13:53.292016, 1.78886
2022-12-01 18:13:53.300120, 1.77908
2022-12-01 18:13:53.307472, 1.77419
2022-12-01 18:13:53.320701, 1.77908
2022-12-01 18:13:53.328439, 1.77419
2022-12-01 18:13:53.336930, 1.77419
2022-12-01 18:13:53.348017, 1.76931
2022-12-01 18:13:53.357296, 1.77419
2022-12-01 18:13:53.365201, 1.76442
2022-12-01 18:13:53.373197, 1.75953
2022-12-01 18:13:53.385614, 1.74976
2022-12-01 18:13:53.393365, 1.74976
2022-12-01 18:13:53.401813, 1.74487
2022-12-01 18:13:53.413523, 1.74976
2022-12-01 18:13:53.421604, 1.73021
2022-12-01 18:13:53.430092, 1.73509
2022-12-01 18:13:53.438299, 1.72532
2022-12-01 18:13:53.451216, 1.71554
2022-12-01 18:13:53.459471, 1.71554
2022-12-01 18:13:53.467517, 1.71065
2022-12-01 18:13:53.478963, 1.70577
2022-12-01 18:13:53.488112, 1.70088
2022-12-01 18:13:53.495450, 1.69599
2022-12-01 18:13:53.504536, 1.70577
2022-12-01 18:13:53.517289, 1.69110
2022-12-01 18:13:53.524867, 1.69599
2022-12-01 18:13:53.532910, 1.68622
2022-12-01 18:13:53.544953, 1.68622
2022-12-01 18:13:53.553591, 1.68133
2022-12-01 18:13:53.561357, 1.68133
2022-12-01 18:13:53.569750, 1.67644
2022-12-01 18:13:53.582715, 1.67644
2022-12-01 18:13:53.589689, 1.68133
2022-12-01 18:13:53.598257, 1.67155
2022-12-01 18:13:53.611414, 1.66667
2022-12-01 18:13:53.619157, 1.66178
2022-12-01 18:13:53.627894, 1.68622
2022-12-01 18:13:53.635979, 1.66178
2022-12-01 18:13:53.646914, 1.68622
2022-12-01 18:13:53.656358, 1.65200
2022-12-01 18:13:53.663867, 1.65689
2022-12-01 18:13:53.671806, 1.64712
2022-12-01 18:13:53.684488, 1.64223
2022-12-01 18:13:53.693283, 1.64223
2022-12-01 18:13:53.701258, 1.63734
2022-12-01 18:13:53.712332, 1.64712
2022-12-01 18:13:53.721387, 1.63245
2022-12-01 18:13:53.729770, 1.63245
2022-12-01 18:13:53.737831, 1.64223
2022-12-01 18:13:53.750261, 1.62757
2022-12-01 18:13:53.758451, 1.62757
2022-12-01 18:13:53.765487, 1.62268
2022-12-01 18:13:53.778526, 1.63245
2022-12-01 18:13:53.787631, 1.63245
2022-12-01 18:13:53.795153, 1.67155
2022-12-01 18:13:53.803636, 1.64223
2022-12-01 18:13:53.816256, 1.65200
2022-12-01 18:13:53.824369, 1.66667
2022-12-01 18:13:53.832083, 1.68133
2022-12-01 18:13:53.844940, 1.72043
2022-12-01 18:13:53.852278, 1.71554
2022-12-01 18:13:53.861288, 1.73509
2022-12-01 18:13:53.868687, 1.74487
2022-12-01 18:13:53.880881, 1.75953
2022-12-01 18:13:53.889510, 1.76442
2022-12-01 18:13:53.897696, 1.80841
2022-12-01 18:13:53.910108, 1.77908
2022-12-01 18:13:53.918205, 1.77908
2022-12-01 18:13:53.926386, 1.77908
2022-12-01 18:13:53.935103, 1.76931
2022-12-01 18:13:53.945959, 1.77419
2022-12-01 18:13:53.955581, 1.76442
2022-12-01 18:13:53.962914, 1.75464
2022-12-01 18:13:53.974208, 1.74976
2022-12-01 18:13:53.984217, 1.74487
2022-12-01 18:13:53.991590, 1.73998
2022-12-01 18:13:54.000306, 1.73998
2022-12-01 18:13:54.012226, 1.72043
2022-12-01 18:13:54.019556, 1.72043
2022-12-01 18:13:54.028771, 1.71065
2022-12-01 18:13:54.040969, 1.70577
2022-12-01 18:13:54.049574, 1.73021
2022-12-01 18:13:54.057319, 1.69599
2022-12-01 18:13:54.065826, 1.69599
2022-12-01 18:13:54.078309, 1.68133
2022-12-01 18:13:54.086650, 1.67644
2022-12-01 18:13:54.094727, 1.68622
2022-12-01 18:13:54.106626, 1.66667
2022-12-01 18:13:54.114536, 1.67155
2022-12-01 18:13:54.123547, 1.66178
2022-12-01 18:13:54.130902, 1.66178
2022-12-01 18:13:54.142917, 1.65689
2022-12-01 18:13:54.151645, 1.65689
2022-12-01 18:13:54.158488, 1.65200
2022-12-01 18:13:54.171707, 1.65200
2022-12-01 18:13:54.179878, 1.64223
2022-12-01 18:13:54.188457, 1.65200
2022-12-01 18:13:54.196202, 1.64223
2022-12-01 18:13:54.209076, 1.63734
2022-12-01 18:13:54.216970, 1.65200
2022-12-01 18:13:54.225283, 1.63245
2022-12-01 18:13:54.237701, 1.63245
2022-12-01 18:13:54.245326, 1.62757
2022-12-01 18:13:54.254451, 1.65689
2022-12-01 18:13:54.262019, 1.62268
2022-12-01 18:13:54.274655, 1.62268
2022-12-01 18:13:54.282466, 1.61779
2022-12-01 18:13:54.291065, 1.61290
2022-12-01 18:13:54.303713, 1.60802
2022-12-01 18:13:54.310929, 1.61290
2022-12-01 18:13:54.320126, 1.63734
2022-12-01 18:13:54.328211, 1.60313
2022-12-01 18:13:54.339792, 1.60313
2022-12-01 18:13:54.347475, 1.63245
2022-12-01 18:13:54.356290, 1.59824
2022-12-01 18:13:54.368221, 1.63245
2022-12-01 18:13:54.376615, 1.59824
2022-12-01 18:13:54.384659, 1.59335
2022-12-01 18:13:54.393261, 1.59824
2022-12-01 18:13:54.405515, 1.59824
2022-12-01 18:13:54.413434, 1.61290
2022-12-01 18:13:54.421767, 1.61779
2022-12-01 18:13:54.434003, 1.62757
2022-12-01 18:13:54.442689, 1.66667
2022-12-01 18:13:54.450770, 1.64712
2022-12-01 18:13:54.459004, 1.66667
2022-12-01 18:13:54.471014, 1.68133
2022-12-01 18:13:54.478615, 1.70088
2022-12-01 18:13:54.488081, 1.72532
2022-12-01 18:13:54.500355, 1.73509
2022-12-01 18:13:54.507818, 1.75464
2022-12-01 18:13:54.516737, 1.78886
2022-12-01 18:13:54.524336, 1.76442
2022-12-01 18:13:54.537019, 1.76442
2022-12-01 18:13:54.544940, 1.78886
2022-12-01 18:13:54.553083, 1.75464
2022-12-01 18:13:54.561056, 1.74976
2022-12-01 18:13:54.573378, 1.74487
2022-12-01 18:13:54.581767, 1.73509
2022-12-01 18:13:54.590437, 1.73021
2022-12-01 18:13:54.602046, 1.75464
2022-12-01 18:13:54.610386, 1.72043
2022-12-01 18:13:54.618596, 1.71065
2022-12-01 18:13:54.626954, 1.69599
2022-12-01 18:13:54.639501, 1.69110
2022-12-01 18:13:54.646923, 1.68133
2022-12-01 18:13:54.655822, 1.66667
2022-12-01 18:13:54.668160, 1.67644
2022-12-01 18:13:54.675596, 1.65200
2022-12-01 18:13:54.684547, 1.64712
2022-12-01 18:13:54.692836, 1.63245
2022-12-01 18:13:54.704948, 1.63734
2022-12-01 18:13:54.712489, 1.62268
2022-12-01 18:13:54.721008, 1.63245
2022-12-01 18:13:54.733350, 1.61290
2022-12-01 18:13:54.741491, 1.60802
2022-12-01 18:13:54.748587, 1.60313
2022-12-01 18:13:54.757468, 1.60313
2022-12-01 18:13:54.769859, 1.60313
2022-12-01 18:13:54.777473, 1.59335
2022-12-01 18:13:54.786353, 1.59335
2022-12-01 18:13:54.798809, 1.59335
2022-12-01 18:13:54.806776, 1.58358
2022-12-01 18:13:54.815089, 1.57869
2022-12-01 18:13:54.823202, 1.57380
2022-12-01 18:13:54.835098, 1.60802
2022-12-01 18:13:54.843886, 1.56891
2022-12-01 18:13:54.852074, 1.57380
2022-12-01 18:13:54.864257, 1.56891
2022-12-01 18:13:54.872325, 1.56891
2022-12-01 18:13:54.879938, 1.56403
2022-12-01 18:13:54.889255, 1.59824
2022-12-01 18:13:54.899923, 1.56891
2022-12-01 18:13:54.909044, 1.56891
2022-12-01 18:13:54.917299, 1.56403
2022-12-01 18:13:54.928997, 1.56403
2022-12-01 18:13:54.937464, 1.55914
2022-12-01 18:13:54.945322, 1.58847
2022-12-01 18:13:54.953243, 1.55425
2022-12-01 18:13:54.965843, 1.54936
2022-12-01 18:13:54.974504, 1.54448
2022-12-01 18:13:54.982496, 1.54448
2022-12-01 18:13:54.994159, 1.54448
2022-12-01 18:13:55.003730, 1.53470
2022-12-01 18:13:55.011696, 1.53470
2022-12-01 18:13:55.020006, 1.53470
2022-12-01 18:13:55.032317, 1.53470
2022-12-01 18:13:55.040531, 1.52981
2022-12-01 18:13:55.048619, 1.56891
2022-12-01 18:13:55.060179, 1.53470
2022-12-01 18:13:55.068724, 1.54448
2022-12-01 18:13:55.077307, 1.54936
2022-12-01 18:13:55.085559, 1.55914
2022-12-01 18:13:55.097464, 1.56891
2022-12-01 18:13:55.105765, 1.58358
2022-12-01 18:13:55.114009, 1.59335
2022-12-01 18:13:55.125689, 1.61290
2022-12-01 18:13:55.134741, 1.63245
2022-12-01 18:13:55.143206, 1.64712
2022-12-01 18:13:55.151321, 1.66667
2022-12-01 18:13:55.162698, 1.68133
2022-12-01 18:13:55.171056, 1.70088
2022-12-01 18:13:55.179520, 1.70577
2022-12-01 18:13:55.192301, 1.71065
2022-12-01 18:13:55.199976, 1.71554
2022-12-01 18:13:55.208483, 1.71065
2022-12-01 18:13:55.216607, 1.70577
2022-12-01 18:13:55.228289, 1.70088
2022-12-01 18:13:55.237333, 1.72043
2022-12-01 18:13:55.244977, 1.68622
2022-12-01 18:13:55.257519, 1.68133
2022-12-01 18:13:55.265829, 1.67644
2022-12-01 18:13:55.273602, 1.69599
2022-12-01 18:13:55.281391, 1.67644
2022-12-01 18:13:55.294192, 1.65689
2022-12-01 18:13:55.302686, 1.64712
2022-12-01 18:13:55.311202, 1.65200
2022-12-01 18:13:55.323052, 1.63245
2022-12-01 18:13:55.331004, 1.62268
2022-12-01 18:13:55.339083, 1.62268
2022-12-01 18:13:55.347550, 1.61779
2022-12-01 18:13:55.360308, 1.62757
2022-12-01 18:13:55.368167, 1.61290
2022-12-01 18:13:55.376418, 1.61290
2022-12-01 18:13:55.385008, 1.60313
2022-12-01 18:13:55.396655, 1.63734
2022-12-01 18:13:55.405354, 1.59824
2022-12-01 18:13:55.412601, 1.62757
2022-12-01 18:13:55.425436, 1.59335
2022-12-01 18:13:55.433609, 1.61779
2022-12-01 18:13:55.441866, 1.59335
2022-12-01 18:13:55.449709, 1.60313
2022-12-01 18:13:55.462054, 1.59335
2022-12-01 18:13:55.470571, 1.62268
2022-12-01 18:13:55.477770, 1.58358
2022-12-01 18:13:55.491201, 1.58358
2022-12-01 18:13:55.498899, 1.57869
2022-12-01 18:13:55.506328, 1.58847
2022-12-01 18:13:55.515619, 1.56891
2022-12-01 18:13:55.528186, 1.57380
2022-12-01 18:13:55.536314, 1.56403
2022-12-01 18:13:55.544269, 1.56403
2022-12-01 18:13:55.556425, 1.57869
2022-12-01 18:13:55.564626, 1.56403
2022-12-01 18:13:55.572497, 1.55914
2022-12-01 18:13:55.581328, 1.55425
2022-12-01 18:13:55.593342, 1.55914
2022-12-01 18:13:55.600989, 1.55425
2022-12-01 18:13:55.609868, 1.55914
2022-12-01 18:13:55.621305, 1.54448
2022-12-01 18:13:55.629959, 1.54448
2022-12-01 18:13:55.638493, 1.53959
2022-12-01 18:13:55.646634, 1.56891
2022-12-01 18:13:55.658990, 1.53959
2022-12-01 18:13:55.667060, 1.53470
2022-12-01 18:13:55.675265, 1.53470
2022-12-01 18:13:55.687658, 1.53959
2022-12-01 18:13:55.695636, 1.53470
2022-12-01 18:13:55.704042, 1.53959
2022-12-01 18:13:55.711405, 1.53959
2022-12-01 18:13:55.723784, 1.54448
2022-12-01 18:13:55.732656, 1.55425
2022-12-01 18:13:55.740834, 1.54936
2022-12-01 18:13:55.753145, 1.55425
2022-12-01 18:13:55.761236, 1.57380
2022-12-01 18:13:55.769656, 1.57869
2022-12-01 18:13:55.777720, 1.58847
2022-12-01 18:13:55.789333, 1.61290
2022-12-01 18:13:55.797423, 1.62757
2022-12-01 18:13:55.806406, 1.64223
2022-12-01 18:13:55.818385, 1.65689
2022-12-01 18:13:55.826908, 1.67644
2022-12-01 18:13:55.835304, 1.68133
2022-12-01 18:13:55.843255, 1.69110
2022-12-01 18:13:55.855575, 1.69599
2022-12-01 18:13:55.863543, 1.69599
2022-12-01 18:13:55.872320, 1.71554
2022-12-01 18:13:55.884327, 1.69599
2022-12-01 18:13:55.892392, 1.68133
2022-12-01 18:13:55.900649, 1.67644
2022-12-01 18:13:55.909511, 1.66667
2022-12-01 18:13:55.919989, 1.66178
2022-12-01 18:13:55.929018, 1.65689
2022-12-01 18:13:55.937428, 1.65689
2022-12-01 18:13:55.949798, 1.64712
2022-12-01 18:13:55.957549, 1.64223
2022-12-01 18:13:55.966222, 1.63245
2022-12-01 18:13:55.974127, 1.63245
2022-12-01 18:13:55.986232, 1.61779
2022-12-01 18:13:55.994499, 1.61779
2022-12-01 18:13:56.002091, 1.61290
2022-12-01 18:13:56.015153, 1.60802
2022-12-01 18:13:56.023526, 1.60802
2022-12-01 18:13:56.030752, 1.60313
2022-12-01 18:13:56.039957, 1.59824
2022-12-01 18:13:56.052342, 1.62757
2022-12-01 18:13:56.060348, 1.59824
2022-12-01 18:13:56.068455, 1.59335
2022-12-01 18:13:56.080668, 1.59824
2022-12-01 18:13:56.089287, 1.59824
2022-12-01 18:13:56.096788, 1.59335
2022-12-01 18:13:56.105390, 1.60802
2022-12-01 18:13:56.117806, 1.58847
2022-12-01 18:13:56.125609, 1.58358
2022-12-01 18:13:56.134251, 1.58358
2022-12-01 18:13:56.145474, 1.58358
2022-12-01 18:13:56.153655, 1.57869
2022-12-01 18:13:56.162081, 1.57869
2022-12-01 18:13:56.170283, 1.57869
2022-12-01 18:13:56.183262, 1.57380
2022-12-01 18:13:56.191332, 1.57380
2022-12-01 18:13:56.199576, 1.58358
2022-12-01 18:13:56.211183, 1.57380
2022-12-01 18:13:56.219844, 1.57380
2022-12-01 18:13:56.227821, 1.56403
2022-12-01 18:13:56.236397, 1.56403
2022-12-01 18:13:56.248928, 1.56891
2022-12-01 18:13:56.257289, 1.56403
2022-12-01 18:13:56.265340, 1.56891
2022-12-01 18:13:56.273414, 1.56891
2022-12-01 18:13:56.285653, 1.56403
2022-12-01 18:13:56.293922, 1.56403
2022-12-01 18:13:56.301659, 1.56891
2022-12-01 18:13:56.314063, 1.55914
2022-12-01 18:13:56.322309, 1.57380
2022-12-01 18:13:56.330182, 1.55914
2022-12-01 18:13:56.339037, 1.55914
2022-12-01 18:13:56.351337, 1.55914
2022-12-01 18:13:56.359341, 1.56403
2022-12-01 18:13:56.367591, 1.56891
2022-12-01 18:13:56.378886, 1.56891
2022-12-01 18:13:56.388221, 1.58847
2022-12-01 18:13:56.395810, 1.58358
2022-12-01 18:13:56.404189, 1.59335
2022-12-01 18:13:56.416011, 1.60313
2022-12-01 18:13:56.424366, 1.62268
2022-12-01 18:13:56.432539, 1.62757
2022-12-01 18:13:56.444365, 1.65200
2022-12-01 18:13:56.453516, 1.66667
2022-12-01 18:13:56.461250, 1.68133
2022-12-01 18:13:56.470208, 1.70088
2022-12-01 18:13:56.481862, 1.71554
2022-12-01 18:13:56.490345, 1.73021
2022-12-01 18:13:56.498550, 1.73509
2022-12-01 18:13:56.510965, 1.75464
2022-12-01 18:13:56.518577, 1.74976
2022-12-01 18:13:56.527292, 1.74487
2022-12-01 18:13:56.535394, 1.74487
2022-12-01 18:13:56.547512, 1.73998
2022-12-01 18:13:56.556318, 1.73509
2022-12-01 18:13:56.563919, 1.73021
2022-12-01 18:13:56.576244, 1.72532
2022-12-01 18:13:56.584784, 1.72043
2022-12-01 18:13:56.592308, 1.71554
2022-12-01 18:13:56.601293, 1.71065
2022-12-01 18:13:56.612210, 1.70577
2022-12-01 18:13:56.622000, 1.70088
2022-12-01 18:13:56.629599, 1.70577
2022-12-01 18:13:56.641731, 1.69110
2022-12-01 18:13:56.649964, 1.68133
2022-12-01 18:13:56.658216, 1.70577
2022-12-01 18:13:56.666383, 1.67155
2022-12-01 18:13:56.677668, 1.66667
2022-12-01 18:13:56.686801, 1.66667
2022-12-01 18:13:56.694639, 1.66178
2022-12-01 18:13:56.707325, 1.66178
2022-12-01 18:13:56.715688, 1.66178
2022-12-01 18:13:56.723035, 1.68622
2022-12-01 18:13:56.731623, 1.65689
2022-12-01 18:13:56.743249, 1.66178
2022-12-01 18:13:56.751403, 1.69110
2022-12-01 18:13:56.760183, 1.65200
2022-12-01 18:13:56.772380, 1.65200
2022-12-01 18:13:56.781257, 1.64712
2022-12-01 18:13:56.789267, 1.64712
2022-12-01 18:13:56.797517, 1.66667
2022-12-01 18:13:56.809831, 1.64223
2022-12-01 18:13:56.817904, 1.64223
2022-12-01 18:13:56.826175, 1.64223
2022-12-01 18:13:56.838432, 1.63245
2022-12-01 18:13:56.846339, 1.63734
2022-12-01 18:13:56.855559, 1.63245
2022-12-01 18:13:56.862700, 1.62268
2022-12-01 18:13:56.875332, 1.62268
2022-12-01 18:13:56.883101, 1.61779
2022-12-01 18:13:56.891990, 1.61779
2022-12-01 18:13:56.904233, 1.61290
2022-12-01 18:13:56.912153, 1.61290
2022-12-01 18:13:56.920974, 1.61779
2022-12-01 18:13:56.928711, 1.60802
2022-12-01 18:13:56.941311, 1.60802
2022-12-01 18:13:56.949115, 1.60802
2022-12-01 18:13:56.957348, 1.60313
2022-12-01 18:13:56.969728, 1.60802
2022-12-01 18:13:56.976886, 1.60313
2022-12-01 18:13:56.985904, 1.59824
2022-12-01 18:13:56.993925, 1.62268
2022-12-01 18:13:57.005841, 1.59824
2022-12-01 18:13:57.015192, 1.61290
2022-12-01 18:13:57.022296, 1.60313
2022-12-01 18:13:57.035671, 1.59824
2022-12-01 18:13:57.043898, 1.62757
2022-12-01 18:13:57.051509, 1.61290
2022-12-01 18:13:57.058898, 1.62757
2022-12-01 18:13:57.072065, 1.62268
2022-12-01 18:13:57.080132, 1.63734
2022-12-01 18:13:57.088206, 1.64712
2022-12-01 18:13:57.100254, 1.68622
2022-12-01 18:13:57.109252, 1.67644
2022-12-01 18:13:57.117228, 1.69599
2022-12-01 18:13:57.125141, 1.71554
2022-12-01 18:13:57.137554, 1.73509
2022-12-01 18:13:57.145807, 1.74976
2022-12-01 18:13:57.153791, 1.75464
2022-12-01 18:13:57.161500, 1.77419
2022-12-01 18:13:57.173945, 1.76442
2022-12-01 18:13:57.183164, 1.76442
2022-12-01 18:13:57.190488, 1.76442
2022-12-01 18:13:57.203621, 1.76931
2022-12-01 18:13:57.210970, 1.78397
2022-12-01 18:13:57.219912, 1.75464
2022-12-01 18:13:57.227512, 1.73998
2022-12-01 18:13:57.240173, 1.73021
2022-12-01 18:13:57.247900, 1.72532
2022-12-01 18:13:57.256875, 1.71554
2022-12-01 18:13:57.268568, 1.70577
2022-12-01 18:13:57.276848, 1.69599
2022-12-01 18:13:57.285348, 1.69110
2022-12-01 18:13:57.293241, 1.68133
2022-12-01 18:13:57.305488, 1.67155
2022-12-01 18:13:57.313340, 1.66178
2022-12-01 18:13:57.321851, 1.65689
2022-12-01 18:13:57.334787, 1.65689
2022-12-01 18:13:57.343025, 1.65200
2022-12-01 18:13:57.350070, 1.64712
2022-12-01 18:13:57.358940, 1.64223
2022-12-01 18:13:57.371625, 1.64223
2022-12-01 18:13:57.378391, 1.63734
2022-12-01 18:13:57.387929, 1.63245
2022-12-01 18:13:57.399864, 1.62757
2022-12-01 18:13:57.408415, 1.62757
2022-12-01 18:13:57.416626, 1.62757
2022-12-01 18:13:57.424796, 1.62757
2022-12-01 18:13:57.435785, 1.62268
2022-12-01 18:13:57.444189, 1.62757
2022-12-01 18:13:57.452632, 1.62268
2022-12-01 18:13:57.464265, 1.61779
2022-12-01 18:13:57.473185, 1.63734
2022-12-01 18:13:57.481571, 1.60802
2022-12-01 18:13:57.489833, 1.60802
2022-12-01 18:13:57.502195, 1.59824
2022-12-01 18:13:57.510263, 1.60313
2022-12-01 18:13:57.518537, 1.60313
2022-12-01 18:13:57.530610, 1.63245
2022-12-01 18:13:57.539494, 1.59824
2022-12-01 18:13:57.546923, 1.59335
2022-12-01 18:13:57.555893, 1.59335
2022-12-01 18:13:57.568255, 1.59824
2022-12-01 18:13:57.575687, 1.59335
2022-12-01 18:13:57.584545, 1.59824
2022-12-01 18:13:57.595875, 1.58847
2022-12-01 18:13:57.605026, 1.58847
2022-12-01 18:13:57.612434, 1.61290
2022-12-01 18:13:57.621641, 1.58358
2022-12-01 18:13:57.633250, 1.58847
2022-12-01 18:13:57.641302, 1.58358
2022-12-01 18:13:57.649505, 1.57869
2022-12-01 18:13:57.661493, 1.57380
2022-12-01 18:13:57.670036, 1.57869
2022-12-01 18:13:57.678136, 1.57869
2022-12-01 18:13:57.686297, 1.58358
2022-12-01 18:13:57.698475, 1.57869
2022-12-01 18:13:57.706805, 1.58358
2022-12-01 18:13:57.714903, 1.60802
2022-12-01 18:13:57.727307, 1.58358
2022-12-01 18:13:57.735650, 1.59335
2022-12-01 18:13:57.743962, 1.59824
2022-12-01 18:13:57.751314, 1.63245
2022-12-01 18:13:57.764771, 1.61779
2022-12-01 18:13:57.772925, 1.63245
2022-12-01 18:13:57.781165, 1.64712
2022-12-01 18:13:57.791894, 1.66178
2022-12-01 18:13:57.801178, 1.68133
2022-12-01 18:13:57.808968, 1.70088
2022-12-01 18:13:57.816688, 1.71554
2022-12-01 18:13:57.828664, 1.73021
2022-12-01 18:13:57.837786, 1.73998
2022-12-01 18:13:57.845954, 1.74976
2022-12-01 18:13:57.858380, 1.74487
2022-12-01 18:13:57.866562, 1.75464
2022-12-01 18:13:57.874697, 1.74487
2022-12-01 18:13:57.883111, 1.73998
2022-12-01 18:13:57.894914, 1.72532
2022-12-01 18:13:57.902554, 1.72532
2022-12-01 18:13:57.911712, 1.71554
2022-12-01 18:13:57.924588, 1.70577
2022-12-01 18:13:57.931794, 1.70088
2022-12-01 18:13:57.940898, 1.69599
2022-12-01 18:13:57.948213, 1.72043
2022-12-01 18:13:57.960535, 1.69110
2022-12-01 18:13:57.969109, 1.68133
2022-12-01 18:13:57.977349, 1.67644
2022-12-01 18:13:57.985321, 1.67155
2022-12-01 18:13:57.997865, 1.66667
2022-12-01 18:13:58.006466, 1.65689
2022-12-01 18:13:58.013950, 1.65689
2022-12-01 18:13:58.025801, 1.66178
2022-12-01 18:13:58.034093, 1.64223
2022-12-01 18:13:58.041952, 1.65689
2022-12-01 18:13:58.050564, 1.63734
2022-12-01 18:13:58.062276, 1.63245
2022-12-01 18:13:58.071018, 1.63245
2022-12-01 18:13:58.079088, 1.63245
2022-12-01 18:13:58.091213, 1.63245
2022-12-01 18:13:58.099031, 1.63245
2022-12-01 18:13:58.107902, 1.62757
2022-12-01 18:13:58.116365, 1.62757
2022-12-01 18:13:58.128820, 1.62757
2022-12-01 18:13:58.136291, 1.63734
2022-12-01 18:13:58.144596, 1.61779
2022-12-01 18:13:58.157546, 1.64712
2022-12-01 18:13:58.165657, 1.61290
2022-12-01 18:13:58.174297, 1.60802
2022-12-01 18:13:58.182571, 1.60802
2022-12-01 18:13:58.193373, 1.61779
2022-12-01 18:13:58.202068, 1.60802
2022-12-01 18:13:58.210399, 1.60802
2022-12-01 18:13:58.222425, 1.60802
2022-12-01 18:13:58.231162, 1.61290
2022-12-01 18:13:58.239207, 1.60313
2022-12-01 18:13:58.247615, 1.60313
2022-12-01 18:13:58.260410, 1.62268
2022-12-01 18:13:58.268053, 1.59824
2022-12-01 18:13:58.276782, 1.59335
2022-12-01 18:13:58.288593, 1.60313
2022-12-01 18:13:58.297045, 1.58847
2022-12-01 18:13:58.305069, 1.60802
2022-12-01 18:13:58.313187, 1.58847
2022-12-01 18:13:58.325540, 1.57869
2022-12-01 18:13:58.333109, 1.57869
2022-12-01 18:13:58.341860, 1.57869
2022-12-01 18:13:58.353898, 1.57869
2022-12-01 18:13:58.361326, 1.56891
2022-12-01 18:13:58.369774, 1.56403
2022-12-01 18:13:58.378510, 1.56403
2022-12-01 18:13:58.390455, 1.56403
2022-12-01 18:13:58.399106, 1.54448
2022-12-01 18:13:58.407465, 1.54936
2022-12-01 18:13:58.419672, 1.54448
2022-12-01 18:13:58.427025, 1.55425
2022-12-01 18:13:58.435928, 1.56891
2022-12-01 18:13:58.443409, 1.57380
2022-12-01 18:13:58.455555, 1.59335
2022-12-01 18:13:58.463918, 1.61290
2022-12-01 18:13:58.471895, 1.63245
2022-12-01 18:13:58.484451, 1.65200
2022-12-01 18:13:58.492735, 1.67155
2022-12-01 18:13:58.500872, 1.69110
2022-12-01 18:13:58.509774, 1.70088
2022-12-01 18:13:58.521583, 1.71065
2022-12-01 18:13:58.529978, 1.71065
2022-12-01 18:13:58.538397, 1.71065
2022-12-01 18:13:58.551311, 1.70577
2022-12-01 18:13:58.558700, 1.71065
2022-12-01 18:13:58.567608, 1.68622
2022-12-01 18:13:58.575132, 1.67644
2022-12-01 18:13:58.588082, 1.66667
2022-12-01 18:13:58.595630, 1.65689
2022-12-01 18:13:58.604551, 1.64712
2022-12-01 18:13:58.616491, 1.64223
2022-12-01 18:13:58.624618, 1.64223
2022-12-01 18:13:58.632996, 1.62757
2022-12-01 18:13:58.640995, 1.64712
2022-12-01 18:13:58.653249, 1.61779
2022-12-01 18:13:58.661090, 1.61779
2022-12-01 18:13:58.669533, 1.60802
2022-12-01 18:13:58.681590, 1.60313
2022-12-01 18:13:58.689847, 1.59824
2022-12-01 18:13:58.698048, 1.58847
2022-12-01 18:13:58.706364, 1.62757
2022-12-01 18:13:58.719170, 1.59335
2022-12-01 18:13:58.727360, 1.59824
2022-12-01 18:13:58.734783, 1.59335
2022-12-01 18:13:58.747277, 1.59335
2022-12-01 18:13:58.755628, 1.58847
2022-12-01 18:13:58.763668, 1.60802
2022-12-01 18:13:58.771755, 1.58358
2022-12-01 18:13:58.783868, 1.58847
2022-12-01 18:13:58.792310, 1.58358
2022-12-01 18:13:58.801000, 1.58358
2022-12-01 18:13:58.812336, 1.58847
2022-12-01 18:13:58.820987, 1.58358
2022-12-01 18:13:58.829094, 1.58847
2022-12-01 18:13:58.837152, 1.58358
2022-12-01 18:13:58.849692, 1.59335
2022-12-01 18:13:58.857757, 1.57869
2022-12-01 18:13:58.865687, 1.57869
2022-12-01 18:13:58.874121, 1.57869
2022-12-01 18:13:58.887068, 1.60802
2022-12-01 18:13:58.894230, 1.57380
2022-12-01 18:13:58.903469, 1.57380
2022-12-01 18:13:58.914425, 1.57380
2022-12-01 18:13:58.924055, 1.57869
2022-12-01 18:13:58.931576, 1.57380
2022-12-01 18:13:58.940345, 1.57380
2022-12-01 18:13:58.952738, 1.56891
2022-12-01 18:13:58.960309, 1.56891
2022-12-01 18:13:58.968521, 1.56891
2022-12-01 18:13:58.980283, 1.56891
2022-12-01 18:13:58.989349, 1.56403
2022-12-01 18:13:58.997352, 1.59824
2022-12-01 18:13:59.005432, 1.56403
2022-12-01 18:13:59.017665, 1.56403
2022-12-01 18:13:59.025851, 1.56403
2022-12-01 18:13:59.033916, 1.56403
2022-12-01 18:13:59.045405, 1.56403
2022-12-01 18:13:59.054242, 1.57380
2022-12-01 18:13:59.062391, 1.57869
2022-12-01 18:13:59.071016, 1.58847
2022-12-01 18:13:59.083254, 1.60313
2022-12-01 18:13:59.091886, 1.61290
2022-12-01 18:13:59.100229, 1.63245
2022-12-01 18:13:59.111218, 1.67155
2022-12-01 18:13:59.119460, 1.67155
2022-12-01 18:13:59.127969, 1.71065
2022-12-01 18:13:59.136249, 1.71554
2022-12-01 18:13:59.148061, 1.73998
2022-12-01 18:13:59.156803, 1.75953
2022-12-01 18:13:59.164912, 1.76442
2022-12-01 18:13:59.177177, 1.80352
2022-12-01 18:13:59.184879, 1.77419
2022-12-01 18:13:59.192814, 1.76931
2022-12-01 18:13:59.201189, 1.75464
2022-12-01 18:13:59.214036, 1.75464
2022-12-01 18:13:59.221761, 1.73509
2022-12-01 18:13:59.230423, 1.72532
2022-12-01 18:13:59.242664, 1.71065
2022-12-01 18:13:59.250892, 1.71065
2022-12-01 18:13:59.259063, 1.71554
2022-12-01 18:13:59.268430, 1.68133
2022-12-01 18:13:59.279442, 1.67155
2022-12-01 18:13:59.288120, 1.68133
2022-12-01 18:13:59.295941, 1.65200
2022-12-01 18:13:59.308920, 1.64223
2022-12-01 18:13:59.316003, 1.64223
2022-12-01 18:13:59.324380, 1.63245
2022-12-01 18:13:59.332131, 1.61779
2022-12-01 18:13:59.344395, 1.64712
2022-12-01 18:13:59.353271, 1.61290
2022-12-01 18:13:59.360568, 1.61290
2022-12-01 18:13:59.373778, 1.61290
2022-12-01 18:13:59.382742, 1.60802
2022-12-01 18:13:59.390304, 1.60313
2022-12-01 18:13:59.399131, 1.60802
2022-12-01 18:13:59.410371, 1.59335
2022-12-01 18:13:59.419248, 1.59824
2022-12-01 18:13:59.426453, 1.58847
2022-12-01 18:13:59.439318, 1.58358
2022-12-01 18:13:59.448252, 1.58358
2022-12-01 18:13:59.455793, 1.59335
2022-12-01 18:13:59.464652, 1.57380
2022-12-01 18:13:59.476601, 1.58358
2022-12-01 18:13:59.485034, 1.56891
2022-12-01 18:13:59.493260, 1.56403
2022-12-01 18:13:59.505109, 1.55425
2022-12-01 18:13:59.513133, 1.56891
2022-12-01 18:13:59.521468, 1.55425
2022-12-01 18:13:59.529438, 1.54936
2022-12-01 18:13:59.542582, 1.54448
2022-12-01 18:13:59.550663, 1.55425
2022-12-01 18:13:59.558841, 1.54936
2022-12-01 18:13:59.571278, 1.54936
2022-12-01 18:13:59.578625, 1.54448
2022-12-01 18:13:59.587616, 1.54936
2022-12-01 18:13:59.594385, 1.54448
2022-12-01 18:13:59.607518, 1.53470
2022-12-01 18:13:59.616092, 1.53470
2022-12-01 18:13:59.623807, 1.54936
2022-12-01 18:13:59.636669, 1.52981
2022-12-01 18:13:59.644345, 1.53959
2022-12-01 18:13:59.652680, 1.52493
2022-12-01 18:13:59.659974, 1.52981
2022-12-01 18:13:59.672558, 1.53470
2022-12-01 18:13:59.681094, 1.53959
2022-12-01 18:13:59.689403, 1.54448
2022-12-01 18:13:59.701174, 1.55425
2022-12-01 18:13:59.709119, 1.56891
2022-12-01 18:13:59.718078, 1.58358
2022-12-01 18:13:59.726244, 1.59335
2022-12-01 18:13:59.738569, 1.61779
2022-12-01 18:13:59.746227, 1.64223
2022-12-01 18:13:59.755445, 1.66178
2022-12-01 18:13:59.763121, 1.68133
2022-12-01 18:13:59.775830, 1.70088
2022-12-01 18:13:59.784191, 1.73509
2022-12-01 18:13:59.792321, 1.73021
2022-12-01 18:13:59.804739, 1.74976
2022-12-01 18:13:59.811946, 1.73509
2022-12-01 18:13:59.821006, 1.73021
2022-12-01 18:13:59.828542, 1.72532
2022-12-01 18:13:59.840310, 1.71554
2022-12-01 18:13:59.849192, 1.71065
2022-12-01 18:13:59.857247, 1.69599
2022-12-01 18:13:59.869109, 1.68622
2022-12-01 18:13:59.877371, 1.67644
2022-12-01 18:13:59.885704, 1.66667
2022-12-01 18:13:59.894065, 1.68133
2022-12-01 18:13:59.906543, 1.67155
2022-12-01 18:13:59.914622, 1.63734
2022-12-01 18:13:59.922020, 1.62757
2022-12-01 18:13:59.934352, 1.64223
2022-12-01 18:13:59.942594, 1.61779
2022-12-01 18:13:59.951823, 1.62757
2022-12-01 18:13:59.959740, 1.60802
2022-12-01 18:13:59.972619, 1.61290
2022-12-01 18:13:59.979619, 1.60802
2022-12-01 18:13:59.988919, 1.60802
2022-12-01 18:14:00.000303, 1.60313
2022-12-01 18:14:00.008630, 1.60313
2022-12-01 18:14:00.016061, 1.60313
2022-12-01 18:14:00.024806, 1.60802
2022-12-01 18:14:00.036725, 1.59824
2022-12-01 18:14:00.045646, 1.60313
2022-12-01 18:14:00.053810, 1.59824
2022-12-01 18:14:00.066092, 1.60313
2022-12-01 18:14:00.074350, 1.59824
2022-12-01 18:14:00.082536, 1.60313
2022-12-01 18:14:00.090849, 1.59824
2022-12-01 18:14:00.103615, 1.59335
2022-12-01 18:14:00.111022, 1.59824
2022-12-01 18:14:00.119331, 1.58847
2022-12-01 18:14:00.131347, 1.59335
2022-12-01 18:14:00.140106, 1.58847
2022-12-01 18:14:00.148198, 1.58358
2022-12-01 18:14:00.156424, 1.58358
2022-12-01 18:14:00.168675, 1.58358
2022-12-01 18:14:00.176324, 1.58358
2022-12-01 18:14:00.185040, 1.58358
2022-12-01 18:14:00.197357, 1.57869
2022-12-01 18:14:00.205541, 1.60313
2022-12-01 18:14:00.213799, 1.57380
2022-12-01 18:14:00.223131, 1.57380
2022-12-01 18:14:00.233946, 1.56891
2022-12-01 18:14:00.242280, 1.56891
2022-12-01 18:14:00.250575, 1.57380
2022-12-01 18:14:00.263363, 1.57380
2022-12-01 18:14:00.270368, 1.60802
2022-12-01 18:14:00.278821, 1.57380
2022-12-01 18:14:00.287956, 1.57869
2022-12-01 18:14:00.299903, 1.59335
2022-12-01 18:14:00.308408, 1.58847
2022-12-01 18:14:00.316193, 1.59824
2022-12-01 18:14:00.327392, 1.61290
2022-12-01 18:14:00.336622, 1.62757
2022-12-01 18:14:00.344473, 1.64223
2022-12-01 18:14:00.352988, 1.68622
2022-12-01 18:14:00.364134, 1.68622
2022-12-01 18:14:00.373322, 1.72043
2022-12-01 18:14:00.380805, 1.74487
2022-12-01 18:14:00.392822, 1.77908
2022-12-01 18:14:00.401762, 1.78397
2022-12-01 18:14:00.409783, 1.80352
2022-12-01 18:14:00.418225, 1.80841
2022-12-01 18:14:00.430387, 1.80841
2022-12-01 18:14:00.438664, 1.80352
2022-12-01 18:14:00.446958, 1.81329
2022-12-01 18:14:00.459431, 1.79374
2022-12-01 18:14:00.468100, 1.78397
2022-12-01 18:14:00.476106, 1.77419
2022-12-01 18:14:00.484519, 1.75953
2022-12-01 18:14:00.495984, 1.75464
2022-12-01 18:14:00.504927, 1.74976
2022-12-01 18:14:00.512475, 1.73998
2022-12-01 18:14:00.523943, 1.72043
2022-12-01 18:14:00.532035, 1.71554
2022-12-01 18:14:00.540839, 1.72043
2022-12-01 18:14:00.549223, 1.72043
2022-12-01 18:14:00.560681, 1.68622
2022-12-01 18:14:00.569874, 1.68622
2022-12-01 18:14:00.577793, 1.67644
2022-12-01 18:14:00.586265, 1.66667
2022-12-01 18:14:00.599073, 1.66667
2022-12-01 18:14:00.607613, 1.67155
2022-12-01 18:14:00.615634, 1.66178
2022-12-01 18:14:00.626794, 1.66178
2022-12-01 18:14:00.636110, 1.65689
2022-12-01 18:14:00.643555, 1.66178
2022-12-01 18:14:00.652499, 1.65200
2022-12-01 18:14:00.664455, 1.65689
2022-12-01 18:14:00.672971, 1.65200
2022-12-01 18:14:00.680607, 1.65200
2022-12-01 18:14:00.692168, 1.64712
2022-12-01 18:14:00.700276, 1.64223
2022-12-01 18:14:00.709341, 1.63734
2022-12-01 18:14:00.717068, 1.64712
2022-12-01 18:14:00.729704, 1.66178
2022-12-01 18:14:00.737837, 1.62757
2022-12-01 18:14:00.745777, 1.62757
2022-12-01 18:14:00.758986, 1.62757
2022-12-01 18:14:00.767201, 1.62268
2022-12-01 18:14:00.775617, 1.61290
2022-12-01 18:14:00.783580, 1.64223
2022-12-01 18:14:00.795018, 1.61290
2022-12-01 18:14:00.804152, 1.60802
2022-12-01 18:14:00.811497, 1.60802
2022-12-01 18:14:00.823842, 1.60802
2022-12-01 18:14:00.832267, 1.61779
2022-12-01 18:14:00.839684, 1.60313
2022-12-01 18:14:00.847701, 1.59824
2022-12-01 18:14:00.860512, 1.59824
2022-12-01 18:14:00.868908, 1.60313
2022-12-01 18:14:00.877175, 1.59335
2022-12-01 18:14:00.888882, 1.59824
2022-12-01 18:14:00.897714, 1.59335
2022-12-01 18:14:00.905563, 1.59824
2022-12-01 18:14:00.913449, 1.60313
2022-12-01 18:14:00.925991, 1.60802
2022-12-01 18:14:00.935092, 1.61779
2022-12-01 18:14:00.942674, 1.63245
2022-12-01 18:14:00.955581, 1.64223
2022-12-01 18:14:00.963762, 1.66178
2022-12-01 18:14:00.972077, 1.68133
2022-12-01 18:14:00.980203, 1.71065
2022-12-01 18:14:00.991364, 1.73998
2022-12-01 18:14:01.000649, 1.76442
2022-12-01 18:14:01.007694, 1.80352
2022-12-01 18:14:01.021196, 1.82307
2022-12-01 18:14:01.028565, 1.83773
2022-12-01 18:14:01.037147, 1.83773
2022-12-01 18:14:01.044437, 1.84262
2022-12-01 18:14:01.057488, 1.83773
2022-12-01 18:14:01.065615, 1.83284
2022-12-01 18:14:01.073637, 1.82307
2022-12-01 18:14:01.085181, 1.84751
2022-12-01 18:14:01.094017, 1.81329
2022-12-01 18:14:01.102289, 1.79863
2022-12-01 18:14:01.110033, 1.78886
2022-12-01 18:14:01.123539, 1.78397
2022-12-01 18:14:01.131081, 1.76931
2022-12-01 18:14:01.139931, 1.75464
2022-12-01 18:14:01.150878, 1.74487
2022-12-01 18:14:01.159458, 1.73509
2022-12-01 18:14:01.167303, 1.72043
2022-12-01 18:14:01.175976, 1.71065
2022-12-01 18:14:01.187863, 1.69599
2022-12-01 18:14:01.196455, 1.70577
2022-12-01 18:14:01.204081, 1.68133
2022-12-01 18:14:01.216916, 1.68133
2022-12-01 18:14:01.224642, 1.67155
2022-12-01 18:14:01.232686, 1.67155
2022-12-01 18:14:01.241170, 1.66667
2022-12-01 18:14:01.253380, 1.67155
2022-12-01 18:14:01.261537, 1.65689
2022-12-01 18:14:01.270121, 1.65689
2022-12-01 18:14:01.281817, 1.65200
2022-12-01 18:14:01.290437, 1.65200
2022-12-01 18:14:01.298677, 1.65200
2022-12-01 18:14:01.307861, 1.64223
2022-12-01 18:14:01.319794, 1.66667
2022-12-01 18:14:01.327566, 1.67155
2022-12-01 18:14:01.336240, 1.63734
2022-12-01 18:14:01.348313, 1.63245
2022-12-01 18:14:01.356628, 1.62268
2022-12-01 18:14:01.365307, 1.62757
2022-12-01 18:14:01.372933, 1.61779
2022-12-01 18:14:01.384473, 1.64712
2022-12-01 18:14:01.392594, 1.63245
2022-12-01 18:14:01.401534, 1.60802
2022-12-01 18:14:01.414475, 1.60802
2022-12-01 18:14:01.421328, 1.60802
2022-12-01 18:14:01.430837, 1.59824
2022-12-01 18:14:01.438021, 1.59824
2022-12-01 18:14:01.451435, 1.59824
2022-12-01 18:14:01.458895, 1.59335
2022-12-01 18:14:01.467078, 1.58847
2022-12-01 18:14:01.475369, 1.58847
2022-12-01 18:14:01.487877, 1.61779
2022-12-01 18:14:01.495475, 1.58847
2022-12-01 18:14:01.504130, 1.58358
2022-12-01 18:14:01.516756, 1.58847
2022-12-01 18:14:01.525032, 1.59335
2022-12-01 18:14:01.531947, 1.61779
2022-12-01 18:14:01.540943, 1.59335
2022-12-01 18:14:01.552908, 1.62268
2022-12-01 18:14:01.560876, 1.61290
2022-12-01 18:14:01.569473, 1.62757
2022-12-01 18:14:01.581906, 1.64223
2022-12-01 18:14:01.589871, 1.67155
2022-12-01 18:14:01.598732, 1.70088
2022-12-01 18:14:01.606031, 1.73998
2022-12-01 18:14:01.619213, 1.76442
2022-12-01 18:14:01.626795, 1.82307
2022-12-01 18:14:01.635405, 1.82307
2022-12-01 18:14:01.647911, 1.84751
2022-12-01 18:14:01.656018, 1.85239
2022-12-01 18:14:01.664318, 1.85239
2022-12-01 18:14:01.672041, 1.85239
2022-12-01 18:14:01.683991, 1.84751
2022-12-01 18:14:01.692137, 1.84262
2022-12-01 18:14:01.701187, 1.83284
2022-12-01 18:14:01.712280, 1.82307
2022-12-01 18:14:01.721064, 1.81818
2022-12-01 18:14:01.728995, 1.80841
2022-12-01 18:14:01.737446, 1.79863
2022-12-01 18:14:01.749673, 1.80352
2022-12-01 18:14:01.758261, 1.78397
2022-12-01 18:14:01.766592, 1.76931
2022-12-01 18:14:01.778654, 1.75464
2022-12-01 18:14:01.787181, 1.73509
2022-12-01 18:14:01.795343, 1.72532
2022-12-01 18:14:01.803566, 1.71554
2022-12-01 18:14:01.815370, 1.70577
2022-12-01 18:14:01.823349, 1.69110
2022-12-01 18:14:01.831999, 1.68622
2022-12-01 18:14:01.843770, 1.67644
2022-12-01 18:14:01.851251, 1.67155
2022-12-01 18:14:01.859524, 1.66178
2022-12-01 18:14:01.868986, 1.65200
2022-12-01 18:14:01.880427, 1.65200
2022-12-01 18:14:01.888743, 1.64712
2022-12-01 18:14:01.896813, 1.63734
2022-12-01 18:14:01.908972, 1.64223
2022-12-01 18:14:01.917749, 1.63734
2022-12-01 18:14:01.925488, 1.62757
2022-12-01 18:14:01.934030, 1.62757
2022-12-01 18:14:01.946047, 1.62268
2022-12-01 18:14:01.954360, 1.63245
2022-12-01 18:14:01.962570, 1.60802
2022-12-01 18:14:01.974029, 1.60802
2022-12-01 18:14:01.983659, 1.60313
2022-12-01 18:14:01.990609, 1.59824
2022-12-01 18:14:01.999459, 1.59335
2022-12-01 18:14:02.012446, 1.59335
2022-12-01 18:14:02.019957, 1.58358
2022-12-01 18:14:02.028819, 1.58358
2022-12-01 18:14:02.041152, 1.57869
2022-12-01 18:14:02.048269, 1.57380
2022-12-01 18:14:02.057057, 1.56891
2022-12-01 18:14:02.064607, 1.56403
2022-12-01 18:14:02.076660, 1.56403
2022-12-01 18:14:02.085300, 1.55914
2022-12-01 18:14:02.093824, 1.55914
2022-12-01 18:14:02.106000, 1.55425
2022-12-01 18:14:02.114074, 1.55425
2022-12-01 18:14:02.122565, 1.55425
2022-12-01 18:14:02.131300, 1.54936
2022-12-01 18:14:02.142202, 1.54448
2022-12-01 18:14:02.151732, 1.55425
2022-12-01 18:14:02.158860, 1.54448
2022-12-01 18:14:02.170889, 1.54936
2022-12-01 18:14:02.180326, 1.54936
2022-12-01 18:14:02.187391, 1.55914
2022-12-01 18:14:02.196770, 1.57380
2022-12-01 18:14:02.208842, 1.59335
2022-12-01 18:14:02.216945, 1.61779
2022-12-01 18:14:02.225027, 1.64712
2022-12-01 18:14:02.237051, 1.68133
2022-12-01 18:14:02.245489, 1.71554
2022-12-01 18:14:02.253636, 1.74976
2022-12-01 18:14:02.261952, 1.78397
2022-12-01 18:14:02.273916, 1.83284
2022-12-01 18:14:02.281972, 1.81329
2022-12-01 18:14:02.290666, 1.82307
2022-12-01 18:14:02.299173, 1.82307
2022-12-01 18:14:02.310254, 1.83773
2022-12-01 18:14:02.318809, 1.85239
2022-12-01 18:14:02.327076, 1.81818
2022-12-01 18:14:02.339361, 1.79863
2022-12-01 18:14:02.347795, 1.78886
2022-12-01 18:14:02.355817, 1.77908
2022-12-01 18:14:02.364217, 1.76931
2022-12-01 18:14:02.376387, 1.75464
2022-12-01 18:14:02.384882, 1.73998
2022-12-01 18:14:02.391899, 1.75464
2022-12-01 18:14:02.405055, 1.71554
2022-12-01 18:14:02.413252, 1.70088
2022-12-01 18:14:02.421595, 1.68133
2022-12-01 18:14:02.429462, 1.67155
2022-12-01 18:14:02.441793, 1.65689
2022-12-01 18:14:02.449907, 1.66667
2022-12-01 18:14:02.458039, 1.63245
2022-12-01 18:14:02.471237, 1.62757
2022-12-01 18:14:02.478466, 1.63245
2022-12-01 18:14:02.486781, 1.61779
2022-12-01 18:14:02.494746, 1.61290
2022-12-01 18:14:02.508072, 1.61290
2022-12-01 18:14:02.515374, 1.60802
2022-12-01 18:14:02.523637, 1.59824
2022-12-01 18:14:02.535271, 1.59824
2022-12-01 18:14:02.544138, 1.59335
2022-12-01 18:14:02.552224, 1.58358
2022-12-01 18:14:02.560405, 1.58847
2022-12-01 18:14:02.572306, 1.58358
2022-12-01 18:14:02.580423, 1.57869
2022-12-01 18:14:02.588726, 1.56891
2022-12-01 18:14:02.601514, 1.56891
2022-12-01 18:14:02.609183, 1.56891
2022-12-01 18:14:02.616959, 1.56403
2022-12-01 18:14:02.626052, 1.56891
2022-12-01 18:14:02.637810, 1.55914
2022-12-01 18:14:02.646414, 1.58358
2022-12-01 18:14:02.654134, 1.54936
2022-12-01 18:14:02.666540, 1.54936
2022-12-01 18:14:02.674838, 1.54936
2022-12-01 18:14:02.683460, 1.54448
2022-12-01 18:14:02.691698, 1.53959
2022-12-01 18:14:02.704735, 1.53959
2022-12-01 18:14:02.711379, 1.53959
2022-12-01 18:14:02.721099, 1.53959
2022-12-01 18:14:02.733376, 1.53470
2022-12-01 18:14:02.740793, 1.53470
2022-12-01 18:14:02.749295, 1.53959
2022-12-01 18:14:02.757176, 1.53470
2022-12-01 18:14:02.769624, 1.56891
2022-12-01 18:14:02.777830, 1.53470
2022-12-01 18:14:02.785804, 1.54448
2022-12-01 18:14:02.798433, 1.53959
2022-12-01 18:14:02.806999, 1.54448
2022-12-01 18:14:02.814922, 1.55425
2022-12-01 18:14:02.823529, 1.56403
2022-12-01 18:14:02.834723, 1.57380
2022-12-01 18:14:02.842933, 1.59824
2022-12-01 18:14:02.850575, 1.61779
2022-12-01 18:14:02.863844, 1.66667
2022-12-01 18:14:02.872603, 1.68133
2022-12-01 18:14:02.880874, 1.72532
2022-12-01 18:14:02.889001, 1.78397
2022-12-01 18:14:02.900846, 1.78886
2022-12-01 18:14:02.908516, 1.81329
2022-12-01 18:14:02.916550, 1.86217
2022-12-01 18:14:02.928819, 1.85239
2022-12-01 18:14:02.937646, 1.85239
2022-12-01 18:14:02.945753, 1.85239
2022-12-01 18:14:02.953561, 1.84751
2022-12-01 18:14:02.965984, 1.83773
2022-12-01 18:14:02.974794, 1.82796
2022-12-01 18:14:02.983220, 1.81818
2022-12-01 18:14:02.995536, 1.80841
2022-12-01 18:14:03.002640, 1.80352
2022-12-01 18:14:03.011856, 1.78397
2022-12-01 18:14:03.018570, 1.77908
2022-12-01 18:14:03.032288, 1.76442
2022-12-01 18:14:03.039991, 1.75953
2022-12-01 18:14:03.048354, 1.73998
2022-12-01 18:14:03.060182, 1.73021
2022-12-01 18:14:03.069229, 1.73509
2022-12-01 18:14:03.076271, 1.70577
2022-12-01 18:14:03.085292, 1.69110
2022-12-01 18:14:03.097452, 1.71554
2022-12-01 18:14:03.105405, 1.67644
2022-12-01 18:14:03.113468, 1.67644
2022-12-01 18:14:03.125251, 1.66667
2022-12-01 18:14:03.134792, 1.66667
2022-12-01 18:14:03.141574, 1.66667
2022-12-01 18:14:03.150450, 1.66178
2022-12-01 18:14:03.162697, 1.66178
2022-12-01 18:14:03.170893, 1.65689
2022-12-01 18:14:03.179825, 1.65689
2022-12-01 18:14:03.187312, 1.65200
2022-12-01 18:14:03.200422, 1.64712
2022-12-01 18:14:03.207170, 1.64223
2022-12-01 18:14:03.215500, 1.63734
2022-12-01 18:14:03.228965, 1.65200
2022-12-01 18:14:03.236893, 1.62757
2022-12-01 18:14:03.245271, 1.64223
2022-12-01 18:14:03.253392, 1.61779
2022-12-01 18:14:03.265255, 1.61290
2022-12-01 18:14:03.273292, 1.60802
2022-12-01 18:14:03.281724, 1.62268
2022-12-01 18:14:03.293450, 1.60313
2022-12-01 18:14:03.302712, 1.59824
2022-12-01 18:14:03.309315, 1.59335
2022-12-01 18:14:03.318727, 1.59824
2022-12-01 18:14:03.331396, 1.59335
2022-12-01 18:14:03.338989, 1.59335
2022-12-01 18:14:03.347250, 1.58847
2022-12-01 18:14:03.358389, 1.58358
2022-12-01 18:14:03.367865, 1.57869
2022-12-01 18:14:03.375141, 1.57869
2022-12-01 18:14:03.384685, 1.57380
2022-12-01 18:14:03.396754, 1.57869
2022-12-01 18:14:03.404006, 1.56891
2022-12-01 18:14:03.412842, 1.57380
2022-12-01 18:14:03.425018, 1.57380
2022-12-01 18:14:03.432902, 1.57869
2022-12-01 18:14:03.441317, 1.58358
2022-12-01 18:14:03.449433, 1.59335
2022-12-01 18:14:03.461528, 1.59824
2022-12-01 18:14:03.470672, 1.61779
2022-12-01 18:14:03.477877, 1.63245
2022-12-01 18:14:03.490563, 1.65689
2022-12-01 18:14:03.498090, 1.69110
2022-12-01 18:14:03.506667, 1.74487
2022-12-01 18:14:03.514407, 1.78397
2022-12-01 18:14:03.526655, 1.79863
2022-12-01 18:14:03.535891, 1.82796
2022-12-01 18:14:03.543881, 1.86217
2022-12-01 18:14:03.554984, 1.87683
2022-12-01 18:14:03.564609, 1.85239
2022-12-01 18:14:03.572295, 1.84751
2022-12-01 18:14:03.581228, 1.84262
2022-12-01 18:14:03.592733, 1.83284
2022-12-01 18:14:03.600930, 1.82307
2022-12-01 18:14:03.609387, 1.82307
2022-12-01 18:14:03.621649, 1.80841
2022-12-01 18:14:03.629865, 1.80352
2022-12-01 18:14:03.638606, 1.79374
2022-12-01 18:14:03.646694, 1.80841
2022-12-01 18:14:03.657954, 1.77419
2022-12-01 18:14:03.666576, 1.74976
2022-12-01 18:14:03.674584, 1.73998
2022-12-01 18:14:03.687126, 1.72043
2022-12-01 18:14:03.694837, 1.70577
2022-12-01 18:14:03.703855, 1.69599
2022-12-01 18:14:03.711676, 1.68622
2022-12-01 18:14:03.724705, 1.70088
2022-12-01 18:14:03.732708, 1.66667
2022-12-01 18:14:03.740815, 1.69110
2022-12-01 18:14:03.752700, 1.65689
2022-12-01 18:14:03.760871, 1.69110
2022-12-01 18:14:03.769135, 1.65200
2022-12-01 18:14:03.776997, 1.65689
2022-12-01 18:14:03.788801, 1.64223
2022-12-01 18:14:03.797679, 1.63734
2022-12-01 18:14:03.805957, 1.65689
2022-12-01 18:14:03.817790, 1.63245
2022-12-01 18:14:03.825850, 1.62757
2022-12-01 18:14:03.834382, 1.62268
2022-12-01 18:14:03.842537, 1.61290
2022-12-01 18:14:03.854030, 1.61290
2022-12-01 18:14:03.863184, 1.62268
2022-12-01 18:14:03.871927, 1.59824
2022-12-01 18:14:03.883674, 1.59335
2022-12-01 18:14:03.891663, 1.59335
2022-12-01 18:14:03.900765, 1.58847
2022-12-01 18:14:03.908024, 1.61779
2022-12-01 18:14:03.921139, 1.58358
2022-12-01 18:14:03.928043, 1.57869
2022-12-01 18:14:03.937028, 1.58358
2022-12-01 18:14:03.949418, 1.57380
2022-12-01 18:14:03.957276, 1.56403
2022-12-01 18:14:03.965703, 1.55914
2022-12-01 18:14:03.973768, 1.55914
2022-12-01 18:14:03.985810, 1.55425
2022-12-01 18:14:03.993991, 1.55914
2022-12-01 18:14:04.001780, 1.54936
2022-12-01 18:14:04.015413, 1.54936
2022-12-01 18:14:04.023556, 1.54936
2022-12-01 18:14:04.031736, 1.54448
2022-12-01 18:14:04.039750, 1.54448
2022-12-01 18:14:04.052232, 1.54448
2022-12-01 18:14:04.059751, 1.54936
2022-12-01 18:14:04.068439, 1.55425
2022-12-01 18:14:04.075511, 1.56403
2022-12-01 18:14:04.088487, 1.57869
2022-12-01 18:14:04.096141, 1.59335
2022-12-01 18:14:04.105053, 1.64712
2022-12-01 18:14:04.117407, 1.64712
2022-12-01 18:14:04.125373, 1.68622
2022-12-01 18:14:04.133666, 1.74487
2022-12-01 18:14:04.141931, 1.76442
2022-12-01 18:14:04.153971, 1.78886
2022-12-01 18:14:04.162040, 1.81329
2022-12-01 18:14:04.170673, 1.82307
2022-12-01 18:14:04.183276, 1.84751
2022-12-01 18:14:04.191380, 1.84262
2022-12-01 18:14:04.199667, 1.83773
2022-12-01 18:14:04.207837, 1.83284
2022-12-01 18:14:04.219115, 1.82796
2022-12-01 18:14:04.227667, 1.82307
2022-12-01 18:14:04.234840, 1.80841
2022-12-01 18:14:04.248784, 1.80352
2022-12-01 18:14:04.257005, 1.78886
2022-12-01 18:14:04.264742, 1.76931
2022-12-01 18:14:04.273058, 1.75953
2022-12-01 18:14:04.284691, 1.74487
2022-12-01 18:14:04.293095, 1.73021
2022-12-01 18:14:04.301398, 1.71554
2022-12-01 18:14:04.312698, 1.70577
2022-12-01 18:14:04.321556, 1.71554
2022-12-01 18:14:04.329405, 1.67155
2022-12-01 18:14:04.338156, 1.68133
2022-12-01 18:14:04.349932, 1.64712
2022-12-01 18:14:04.358308, 1.63734
2022-12-01 18:14:04.366852, 1.63734
2022-12-01 18:14:04.378865, 1.62757
2022-12-01 18:14:04.387362, 1.64223
2022-12-01 18:14:04.394974, 1.61290
2022-12-01 18:14:04.403466, 1.61779
2022-12-01 18:14:04.415434, 1.60802
2022-12-01 18:14:04.423576, 1.59824
2022-12-01 18:14:04.432727, 1.59335
2022-12-01 18:14:04.445402, 1.58847
2022-12-01 18:14:04.453175, 1.61779
2022-12-01 18:14:04.461303, 1.57869
2022-12-01 18:14:04.469268, 1.57380
2022-12-01 18:14:04.481691, 1.56891
2022-12-01 18:14:04.489796, 1.56403
2022-12-01 18:14:04.497925, 1.58847
2022-12-01 18:14:04.509933, 1.55914
2022-12-01 18:14:04.519251, 1.55425
2022-12-01 18:14:04.526570, 1.54936
2022-12-01 18:14:04.535646, 1.53959
2022-12-01 18:14:04.546149, 1.53959
2022-12-01 18:14:04.556005, 1.53470
2022-12-01 18:14:04.563634, 1.53470
2022-12-01 18:14:04.575845, 1.55914
2022-12-01 18:14:04.584762, 1.52493
2022-12-01 18:14:04.592204, 1.52493
2022-12-01 18:14:04.601051, 1.51515
2022-12-01 18:14:04.613121, 1.51026
2022-12-01 18:14:04.620575, 1.51515
2022-12-01 18:14:04.629067, 1.50538
2022-12-01 18:14:04.640575, 1.50049
2022-12-01 18:14:04.649213, 1.50049
2022-12-01 18:14:04.657658, 1.50049
2022-12-01 18:14:04.665651, 1.49560
2022-12-01 18:14:04.679037, 1.50049
2022-12-01 18:14:04.687188, 1.51515
2022-12-01 18:14:04.694482, 1.50538
2022-12-01 18:14:04.707592, 1.51026
2022-12-01 18:14:04.715882, 1.51515
2022-12-01 18:14:04.723921, 1.52493
2022-12-01 18:14:04.732251, 1.53959
2022-12-01 18:14:04.743727, 1.56403
2022-12-01 18:14:04.752732, 1.59335
2022-12-01 18:14:04.760390, 1.63245
2022-12-01 18:14:04.772301, 1.66178
2022-12-01 18:14:04.780840, 1.70088
2022-12-01 18:14:04.789611, 1.73509
2022-12-01 18:14:04.797407, 1.78886
2022-12-01 18:14:04.808890, 1.80352
2022-12-01 18:14:04.817568, 1.78886
2022-12-01 18:14:04.825594, 1.79863
2022-12-01 18:14:04.838729, 1.79374
2022-12-01 18:14:04.846795, 1.78886
2022-12-01 18:14:04.855125, 1.77908
2022-12-01 18:14:04.863117, 1.76931
2022-12-01 18:14:04.874256, 1.75953
2022-12-01 18:14:04.882517, 1.74487
2022-12-01 18:14:04.890257, 1.76931
2022-12-01 18:14:04.899601, 1.72532
2022-12-01 18:14:04.911803, 1.71065
2022-12-01 18:14:04.920223, 1.69599
2022-12-01 18:14:04.928194, 1.68133
2022-12-01 18:14:04.941049, 1.66667
2022-12-01 18:14:04.949321, 1.68133
2022-12-01 18:14:04.956960, 1.63734
2022-12-01 18:14:04.965328, 1.63245
2022-12-01 18:14:04.977425, 1.61290
2022-12-01 18:14:04.985322, 1.61290
2022-12-01 18:14:04.993675, 1.59824
2022-12-01 18:14:05.006581, 1.58847
2022-12-01 18:14:05.014376, 1.58847
2022-12-01 18:14:05.022956, 1.58358
2022-12-01 18:14:05.030779, 1.58358
2022-12-01 18:14:05.042155, 1.57380
2022-12-01 18:14:05.051622, 1.57869
2022-12-01 18:14:05.059221, 1.58358
2022-12-01 18:14:05.072005, 1.56891
2022-12-01 18:14:05.079753, 1.57380
2022-12-01 18:14:05.088497, 1.55914
2022-12-01 18:14:05.096160, 1.55425
2022-12-01 18:14:05.107615, 1.54448
2022-12-01 18:14:05.117122, 1.53959
2022-12-01 18:14:05.123848, 1.53470
2022-12-01 18:14:05.137150, 1.52493
2022-12-01 18:14:05.145081, 1.53959
2022-12-01 18:14:05.153513, 1.52004
2022-12-01 18:14:05.161661, 1.51515
2022-12-01 18:14:05.173983, 1.51515
2022-12-01 18:14:05.182784, 1.51026
2022-12-01 18:14:05.189458, 1.50049
2022-12-01 18:14:05.202715, 1.49560
2022-12-01 18:14:05.210811, 1.49560
2022-12-01 18:14:05.218829, 1.49071
2022-12-01 18:14:05.227034, 1.48583
2022-12-01 18:14:05.239289, 1.51515
2022-12-01 18:14:05.247126, 1.48583
2022-12-01 18:14:05.255812, 1.48094
2022-12-01 18:14:05.267938, 1.49071
2022-12-01 18:14:05.276258, 1.48583
2022-12-01 18:14:05.284010, 1.48583
2022-12-01 18:14:05.292542, 1.48094
2022-12-01 18:14:05.304580, 1.48583
2022-12-01 18:14:05.313038, 1.48094
2022-12-01 18:14:05.321134, 1.48094
2022-12-01 18:14:05.333558, 1.48094
2022-12-01 18:14:05.341671, 1.48583
2022-12-01 18:14:05.350653, 1.49071
2022-12-01 18:14:05.357555, 1.50049
2022-12-01 18:14:05.371116, 1.50538
2022-12-01 18:14:05.378573, 1.52004
2022-12-01 18:14:05.387639, 1.53470
2022-12-01 18:14:05.399844, 1.55425
2022-12-01 18:14:05.407677, 1.60802
2022-12-01 18:14:05.414829, 1.61779
2022-12-01 18:14:05.423809, 1.65689
2022-12-01 18:14:05.435576, 1.70088
2022-12-01 18:14:05.444182, 1.73998
2022-12-01 18:14:05.452329, 1.76931
2022-12-01 18:14:05.465079, 1.79374
2022-12-01 18:14:05.472423, 1.80352
2022-12-01 18:14:05.481248, 1.83773
2022-12-01 18:14:05.489245, 1.80841
2022-12-01 18:14:05.501552, 1.80352
2022-12-01 18:14:05.509875, 1.79374
2022-12-01 18:14:05.518163, 1.78886
2022-12-01 18:14:05.530277, 1.77419
2022-12-01 18:14:05.539163, 1.76442
2022-12-01 18:14:05.546165, 1.75464
2022-12-01 18:14:05.554965, 1.73998
2022-12-01 18:14:05.567727, 1.73021
2022-12-01 18:14:05.575277, 1.71554
2022-12-01 18:14:05.583880, 1.70088
2022-12-01 18:14:05.595739, 1.68622
2022-12-01 18:14:05.604578, 1.66667
2022-12-01 18:14:05.612893, 1.65689
2022-12-01 18:14:05.620706, 1.64223
2022-12-01 18:14:05.632924, 1.65200
2022-12-01 18:14:05.640800, 1.62757
2022-12-01 18:14:05.649249, 1.65200
2022-12-01 18:14:05.661548, 1.61779
2022-12-01 18:14:05.669640, 1.61779
2022-12-01 18:14:05.677861, 1.60802
2022-12-01 18:14:05.685743, 1.60313
2022-12-01 18:14:05.697785, 1.62757
2022-12-01 18:14:05.706433, 1.60313
2022-12-01 18:14:05.714705, 1.59824
2022-12-01 18:14:05.727243, 1.61290
2022-12-01 18:14:05.735026, 1.58847
2022-12-01 18:14:05.743225, 1.58358
2022-12-01 18:14:05.751813, 1.58358
2022-12-01 18:14:05.763836, 1.57380
2022-12-01 18:14:05.772620, 1.56891
2022-12-01 18:14:05.780355, 1.56403
2022-12-01 18:14:05.788109, 1.56403
2022-12-01 18:14:05.801177, 1.55914
2022-12-01 18:14:05.808508, 1.57380
2022-12-01 18:14:05.817211, 1.55425
2022-12-01 18:14:05.829455, 1.55425
2022-12-01 18:14:05.837581, 1.54936
2022-12-01 18:14:05.845837, 1.55914
2022-12-01 18:14:05.853749, 1.54448
2022-12-01 18:14:05.865803, 1.53959
2022-12-01 18:14:05.873776, 1.54448
2022-12-01 18:14:05.881624, 1.53470
2022-12-01 18:14:05.895418, 1.53470
2022-12-01 18:14:05.903674, 1.52981
2022-12-01 18:14:05.910950, 1.53959
2022-12-01 18:14:05.919883, 1.52981
2022-12-01 18:14:05.931300, 1.52981
2022-12-01 18:14:05.940602, 1.52981
2022-12-01 18:14:05.948651, 1.52493
2022-12-01 18:14:05.961081, 1.52493
2022-12-01 18:14:05.968485, 1.52004
2022-12-01 18:14:05.977165, 1.52004
2022-12-01 18:14:05.985167, 1.52004
2022-12-01 18:14:05.997401, 1.52493
2022-12-01 18:14:06.005551, 1.52981
2022-12-01 18:14:06.013868, 1.53959
2022-12-01 18:14:06.025706, 1.55425
2022-12-01 18:14:06.033408, 1.57380
2022-12-01 18:14:06.042004, 1.59824
2022-12-01 18:14:06.050664, 1.62757
2022-12-01 18:14:06.062829, 1.66178
2022-12-01 18:14:06.070944, 1.70088
2022-12-01 18:14:06.078344, 1.73509
2022-12-01 18:14:06.090601, 1.76442
2022-12-01 18:14:06.100365, 1.78886
2022-12-01 18:14:06.107317, 1.80841
2022-12-01 18:14:06.116719, 1.81818
2022-12-01 18:14:06.128992, 1.82307
2022-12-01 18:14:06.136990, 1.83773
2022-12-01 18:14:06.145202, 1.81818
2022-12-01 18:14:06.156720, 1.80352
2022-12-01 18:14:06.165433, 1.79374
2022-12-01 18:14:06.173459, 1.78397
2022-12-01 18:14:06.181826, 1.76931
2022-12-01 18:14:06.193521, 1.76442
2022-12-01 18:14:06.201848, 1.74487
2022-12-01 18:14:06.210169, 1.77419
2022-12-01 18:14:06.223089, 1.73509
2022-12-01 18:14:06.231454, 1.71065
2022-12-01 18:14:06.238688, 1.70577
2022-12-01 18:14:06.247046, 1.69110
2022-12-01 18:14:06.259198, 1.67644
2022-12-01 18:14:06.267593, 1.68133
2022-12-01 18:14:06.275361, 1.65689
2022-12-01 18:14:06.288250, 1.65200
2022-12-01 18:14:06.296240, 1.63734
2022-12-01 18:14:06.304629, 1.64223
2022-12-01 18:14:06.312875, 1.63245
2022-12-01 18:14:06.324320, 1.63245
2022-12-01 18:14:06.333020, 1.62268
2022-12-01 18:14:06.340625, 1.62268
2022-12-01 18:14:06.353196, 1.61779
2022-12-01 18:14:06.361988, 1.61290
2022-12-01 18:14:06.369915, 1.60802
2022-12-01 18:14:06.378068, 1.61290
2022-12-01 18:14:06.389712, 1.60313
2022-12-01 18:14:06.397997, 1.61290
2022-12-01 18:14:06.407152, 1.59824
2022-12-01 18:14:06.419868, 1.59824
2022-12-01 18:14:06.427217, 1.60313
2022-12-01 18:14:06.436167, 1.59335
2022-12-01 18:14:06.443480, 1.58847
2022-12-01 18:14:06.456462, 1.58847
2022-12-01 18:14:06.464778, 1.61290
2022-12-01 18:14:06.472218, 1.58358
2022-12-01 18:14:06.485362, 1.58847
2022-12-01 18:14:06.492606, 1.57869
2022-12-01 18:14:06.501019, 1.57380
2022-12-01 18:14:06.509068, 1.59335
2022-12-01 18:14:06.521593, 1.56891
2022-12-01 18:14:06.529869, 1.57380
2022-12-01 18:14:06.537639, 1.56403
2022-12-01 18:14:06.550871, 1.57869
2022-12-01 18:14:06.558247, 1.56403
2022-12-01 18:14:06.567173, 1.56403
2022-12-01 18:14:06.574646, 1.55914
2022-12-01 18:14:06.587074, 1.56403
2022-12-01 18:14:06.595616, 1.55914
2022-12-01 18:14:06.603412, 1.55425
2022-12-01 18:14:06.615584, 1.55425
2022-12-01 18:14:06.623733, 1.56403
2022-12-01 18:14:06.632249, 1.55914
2022-12-01 18:14:06.640397, 1.56403
2022-12-01 18:14:06.653276, 1.56891
2022-12-01 18:14:06.660337, 1.57869
2022-12-01 18:14:06.668790, 1.58847
2022-12-01 18:14:06.677190, 1.60802
2022-12-01 18:14:06.688714, 1.62757
2022-12-01 18:14:06.697757, 1.65200
2022-12-01 18:14:06.705956, 1.68133
2022-12-01 18:14:06.718843, 1.71554
2022-12-01 18:14:06.727000, 1.75464
2022-12-01 18:14:06.734398, 1.79863
2022-12-01 18:14:06.742516, 1.81329
2022-12-01 18:14:06.754623, 1.84262
2022-12-01 18:14:06.762281, 1.86217
2022-12-01 18:14:06.770457, 1.86217
2022-12-01 18:14:06.783195, 1.86217
2022-12-01 18:14:06.791739, 1.85239
2022-12-01 18:14:06.800143, 1.84751
2022-12-01 18:14:06.808138, 1.84262
2022-12-01 18:14:06.820986, 1.82796
2022-12-01 18:14:06.828747, 1.81329
2022-12-01 18:14:06.837003, 1.80352
2022-12-01 18:14:06.849008, 1.78886
2022-12-01 18:14:06.857075, 1.77908
2022-12-01 18:14:06.865666, 1.76442
2022-12-01 18:14:06.873541, 1.75464
2022-12-01 18:14:06.885382, 1.73998
2022-12-01 18:14:06.894119, 1.72532
2022-12-01 18:14:06.903125, 1.71554
2022-12-01 18:14:06.915391, 1.70088
2022-12-01 18:14:06.922965, 1.69110
2022-12-01 18:14:06.931696, 1.68133
2022-12-01 18:14:06.939038, 1.66667
2022-12-01 18:14:06.952364, 1.66178
2022-12-01 18:14:06.960454, 1.65689
2022-12-01 18:14:06.967934, 1.65200
2022-12-01 18:14:06.980606, 1.64712
2022-12-01 18:14:06.988296, 1.63734
2022-12-01 18:14:06.997002, 1.63734
2022-12-01 18:14:07.005448, 1.64223
2022-12-01 18:14:07.017206, 1.62757
2022-12-01 18:14:07.025090, 1.62757
2022-12-01 18:14:07.033608, 1.62268
2022-12-01 18:14:07.045841, 1.61779
2022-12-01 18:14:07.054668, 1.61290
2022-12-01 18:14:07.062191, 1.61779
2022-12-01 18:14:07.071130, 1.60802
2022-12-01 18:14:07.083373, 1.60313
2022-12-01 18:14:07.090121, 1.59824
2022-12-01 18:14:07.099074, 1.59335
2022-12-01 18:14:07.110927, 1.59335
2022-12-01 18:14:07.119943, 1.58847
2022-12-01 18:14:07.127995, 1.58358
2022-12-01 18:14:07.135890, 1.58358
2022-12-01 18:14:07.148817, 1.57869
2022-12-01 18:14:07.156855, 1.57869
2022-12-01 18:14:07.165249, 1.57380
2022-12-01 18:14:07.177162, 1.57380
2022-12-01 18:14:07.184513, 1.57380
2022-12-01 18:14:07.193132, 1.56891
2022-12-01 18:14:07.201438, 1.58847
2022-12-01 18:14:07.213739, 1.56403
2022-12-01 18:14:07.222102, 1.56403
2022-12-01 18:14:07.229904, 1.56403
2022-12-01 18:14:07.242505, 1.55914
2022-12-01 18:14:07.250249, 1.55914
2022-12-01 18:14:07.258712, 1.56891
2022-12-01 18:14:07.267563, 1.55914
2022-12-01 18:14:07.278349, 1.55914
2022-12-01 18:14:07.286742, 1.56403
2022-12-01 18:14:07.295244, 1.56403
2022-12-01 18:14:07.307303, 1.55914
2022-12-01 18:14:07.316290, 1.55914
2022-12-01 18:14:07.323934, 1.56403
2022-12-01 18:14:07.332712, 1.57869
2022-12-01 18:14:07.345030, 1.60313
2022-12-01 18:14:07.352542, 1.57869
2022-12-01 18:14:07.361319, 1.59335
2022-12-01 18:14:07.373317, 1.61290
2022-12-01 18:14:07.381772, 1.63245
2022-12-01 18:14:07.390207, 1.65689
2022-12-01 18:14:07.398222, 1.68622
2022-12-01 18:14:07.410364, 1.72043
2022-12-01 18:14:07.419135, 1.74487
2022-12-01 18:14:07.426980, 1.77908
2022-12-01 18:14:07.439602, 1.83284
2022-12-01 18:14:07.446451, 1.82307
2022-12-01 18:14:07.455262, 1.83773
2022-12-01 18:14:07.463496, 1.84262
2022-12-01 18:14:07.475144, 1.87195
2022-12-01 18:14:07.483468, 1.84262
2022-12-01 18:14:07.491515, 1.82307
2022-12-01 18:14:07.503844, 1.81329
2022-12-01 18:14:07.512221, 1.80352
2022-12-01 18:14:07.520770, 1.78397
2022-12-01 18:14:07.528268, 1.77419
2022-12-01 18:14:07.541011, 1.76442
2022-12-01 18:14:07.549757, 1.75464
2022-12-01 18:14:07.557506, 1.73998
2022-12-01 18:14:07.565972, 1.73021
2022-12-01 18:14:07.578198, 1.72043
2022-12-01 18:14:07.586597, 1.70577
2022-12-01 18:14:07.594607, 1.69599
2022-12-01 18:14:07.606685, 1.68622
2022-12-01 18:14:07.615745, 1.67644
2022-12-01 18:14:07.623341, 1.67155
2022-12-01 18:14:07.631878, 1.67155
2022-12-01 18:14:07.644494, 1.66178
2022-12-01 18:14:07.652702, 1.65689
2022-12-01 18:14:07.660900, 1.65689
2022-12-01 18:14:07.672306, 1.64712
2022-12-01 18:14:07.681186, 1.64712
2022-12-01 18:14:07.689189, 1.64223
2022-12-01 18:14:07.696906, 1.66667
2022-12-01 18:14:07.709509, 1.63245
2022-12-01 18:14:07.717680, 1.65200
2022-12-01 18:14:07.725368, 1.62268
2022-12-01 18:14:07.738010, 1.61779
2022-12-01 18:14:07.746169, 1.61290
2022-12-01 18:14:07.754649, 1.61290
2022-12-01 18:14:07.762919, 1.61290
2022-12-01 18:14:07.774383, 1.60313
2022-12-01 18:14:07.782970, 1.60802
2022-12-01 18:14:07.791106, 1.59335
2022-12-01 18:14:07.804299, 1.58847
2022-12-01 18:14:07.812334, 1.58358
2022-12-01 18:14:07.820614, 1.57869
2022-12-01 18:14:07.828591, 1.61290
2022-12-01 18:14:07.840155, 1.57380
2022-12-01 18:14:07.848147, 1.57380
2022-12-01 18:14:07.856274, 1.56891
2022-12-01 18:14:07.869359, 1.57380
2022-12-01 18:14:07.877507, 1.57869
2022-12-01 18:14:07.885313, 1.56403
2022-12-01 18:14:07.893134, 1.56891
2022-12-01 18:14:07.906037, 1.56403
2022-12-01 18:14:07.913805, 1.55914
2022-12-01 18:14:07.922362, 1.56403
2022-12-01 18:14:07.933672, 1.55425
2022-12-01 18:14:07.943528, 1.55425
2022-12-01 18:14:07.951630, 1.55425
2022-12-01 18:14:07.959829, 1.57869
2022-12-01 18:14:07.972192, 1.54936
2022-12-01 18:14:07.979094, 1.54936
2022-12-01 18:14:07.988577, 1.54448
2022-12-01 18:14:08.000793, 1.55425
2022-12-01 18:14:08.007561, 1.55425
2022-12-01 18:14:08.016874, 1.55425
2022-12-01 18:14:08.024670, 1.55914
2022-12-01 18:14:08.036823, 1.56403
2022-12-01 18:14:08.045399, 1.57380
2022-12-01 18:14:08.053294, 1.58358
2022-12-01 18:14:08.065794, 1.59824
2022-12-01 18:14:08.073222, 1.61779
2022-12-01 18:14:08.082176, 1.66178
2022-12-01 18:14:08.089820, 1.65689
2022-12-01 18:14:08.103170, 1.72043
2022-12-01 18:14:08.110123, 1.72043
2022-12-01 18:14:08.119628, 1.73998
2022-12-01 18:14:08.131845, 1.76442
2022-12-01 18:14:08.139805, 1.78397
2022-12-01 18:14:08.148414, 1.79374
2022-12-01 18:14:08.156556, 1.78886
2022-12-01 18:14:08.168863, 1.78886
2022-12-01 18:14:08.176012, 1.78397
2022-12-01 18:14:08.185088, 1.77419
2022-12-01 18:14:08.197498, 1.76442
2022-12-01 18:14:08.205346, 1.74976
2022-12-01 18:14:08.213518, 1.76931
2022-12-01 18:14:08.221897, 1.72532
2022-12-01 18:14:08.233748, 1.72532
2022-12-01 18:14:08.241874, 1.71065
2022-12-01 18:14:08.249977, 1.71554
2022-12-01 18:14:08.262726, 1.71554
2022-12-01 18:14:08.269966, 1.67644
2022-12-01 18:14:08.279293, 1.66178
2022-12-01 18:14:08.288077, 1.64712
2022-12-01 18:14:08.298793, 1.64223
2022-12-01 18:14:08.307043, 1.64223
2022-12-01 18:14:08.315503, 1.63734
2022-12-01 18:14:08.327968, 1.62757
2022-12-01 18:14:08.336169, 1.65689
2022-12-01 18:14:08.344823, 1.61779
2022-12-01 18:14:08.352105, 1.61290
2022-12-01 18:14:08.365327, 1.61290
2022-12-01 18:14:08.373046, 1.64223
2022-12-01 18:14:08.381226, 1.60802
2022-12-01 18:14:08.389439, 1.62757
2022-12-01 18:14:08.401618, 1.59824
2022-12-01 18:14:08.409641, 1.59824
2022-12-01 18:14:08.417637, 1.59335
2022-12-01 18:14:08.430942, 1.58358
2022-12-01 18:14:08.438801, 1.58358
2022-12-01 18:14:08.446117, 1.58358
2022-12-01 18:14:08.454762, 1.58358
2022-12-01 18:14:08.467702, 1.57380
2022-12-01 18:14:08.475697, 1.56891
2022-12-01 18:14:08.484230, 1.57380
2022-12-01 18:14:08.495876, 1.59335
2022-12-01 18:14:08.503833, 1.55914
2022-12-01 18:14:08.512301, 1.56403
2022-12-01 18:14:08.520628, 1.55914
2022-12-01 18:14:08.532393, 1.55914
2022-12-01 18:14:08.540815, 1.55425
2022-12-01 18:14:08.549101, 1.55914
2022-12-01 18:14:08.560951, 1.55425
2022-12-01 18:14:08.569425, 1.54936
2022-12-01 18:14:08.577506, 1.54448
2022-12-01 18:14:08.585856, 1.54448
2022-12-01 18:14:08.598286, 1.54936
2022-12-01 18:14:08.606020, 1.54448
2022-12-01 18:14:08.615332, 1.54448
2022-12-01 18:14:08.626780, 1.54448
2022-12-01 18:14:08.634988, 1.54448
2022-12-01 18:14:08.643294, 1.55425
2022-12-01 18:14:08.651546, 1.54448
2022-12-01 18:14:08.663941, 1.57869
2022-12-01 18:14:08.671609, 1.54936
2022-12-01 18:14:08.680269, 1.54936
2022-12-01 18:14:08.692233, 1.54936
2022-12-01 18:14:08.700617, 1.55914
2022-12-01 18:14:08.708386, 1.56891
2022-12-01 18:14:08.716904, 1.57869
2022-12-01 18:14:08.728619, 1.61779
2022-12-01 18:14:08.736993, 1.60802
2022-12-01 18:14:08.746026, 1.62757
2022-12-01 18:14:08.757850, 1.64712
2022-12-01 18:14:08.766321, 1.68133
2022-12-01 18:14:08.774140, 1.69110
2022-12-01 18:14:08.782602, 1.71554
2022-12-01 18:14:08.794850, 1.73509
2022-12-01 18:14:08.802969, 1.75464
2022-12-01 18:14:08.811054, 1.75464
2022-12-01 18:14:08.822589, 1.76442
2022-12-01 18:14:08.831900, 1.75953
2022-12-01 18:14:08.839245, 1.75953
2022-12-01 18:14:08.848246, 1.73998
2022-12-01 18:14:08.860947, 1.74976
2022-12-01 18:14:08.869150, 1.72043
2022-12-01 18:14:08.877313, 1.71065
2022-12-01 18:14:08.888702, 1.69110
2022-12-01 18:14:08.896233, 1.68622
2022-12-01 18:14:08.905611, 1.67644
2022-12-01 18:14:08.913669, 1.69110
2022-12-01 18:14:08.925910, 1.65689
2022-12-01 18:14:08.934662, 1.64223
2022-12-01 18:14:08.941927, 1.63734
2022-12-01 18:14:08.955236, 1.64223
2022-12-01 18:14:08.962624, 1.62268
2022-12-01 18:14:08.970929, 1.61290
2022-12-01 18:14:08.978999, 1.60802
2022-12-01 18:14:08.990448, 1.60802
2022-12-01 18:14:09.000287, 1.60802
2022-12-01 18:14:09.007861, 1.62757
2022-12-01 18:14:09.020766, 1.59824
2022-12-01 18:14:09.028874, 1.60313
2022-12-01 18:14:09.037057, 1.59824
2022-12-01 18:14:09.045283, 1.59824
2022-12-01 18:14:09.056209, 1.59335
2022-12-01 18:14:09.065402, 1.62268
2022-12-01 18:14:09.072997, 1.58847
2022-12-01 18:14:09.085751, 1.58358
2022-12-01 18:14:09.093427, 1.59824
2022-12-01 18:14:09.102085, 1.57869
2022-12-01 18:14:09.110270, 1.57869
2022-12-01 18:14:09.122607, 1.58847
2022-12-01 18:14:09.131282, 1.57380
2022-12-01 18:14:09.138581, 1.58358
2022-12-01 18:14:09.150766, 1.56891
2022-12-01 18:14:09.159375, 1.56403
2022-12-01 18:14:09.167920, 1.55914
2022-12-01 18:14:09.175445, 1.56403
2022-12-01 18:14:09.188727, 1.55914
2022-12-01 18:14:09.196807, 1.55914
2022-12-01 18:14:09.205016, 1.55425
2022-12-01 18:14:09.217206, 1.55425
2022-12-01 18:14:09.224641, 1.55425
2022-12-01 18:14:09.233195, 1.54448
2022-12-01 18:14:09.241286, 1.54936
2022-12-01 18:14:09.253614, 1.53959
2022-12-01 18:14:09.261914, 1.53959
2022-12-01 18:14:09.269988, 1.53470
2022-12-01 18:14:09.278304, 1.53959
2022-12-01 18:14:09.290187, 1.53959
2022-12-01 18:14:09.298540, 1.53959
2022-12-01 18:14:09.306091, 1.53470
2022-12-01 18:14:09.318825, 1.55914
2022-12-01 18:14:09.326563, 1.53959
2022-12-01 18:14:09.335083, 1.54448
2022-12-01 18:14:09.344299, 1.54936
2022-12-01 18:14:09.355891, 1.55914
2022-12-01 18:14:09.364484, 1.59335
2022-12-01 18:14:09.372535, 1.58358
2022-12-01 18:14:09.385044, 1.59824
2022-12-01 18:14:09.392526, 1.62268
2022-12-01 18:14:09.401234, 1.64223
2022-12-01 18:14:09.408908, 1.67155
2022-12-01 18:14:09.421637, 1.69599
2022-12-01 18:14:09.429873, 1.71554
2022-12-01 18:14:09.438574, 1.73998
2022-12-01 18:14:09.449166, 1.74976
2022-12-01 18:14:09.458240, 1.75464
2022-12-01 18:14:09.467242, 1.75464
2022-12-01 18:14:09.474677, 1.75464
2022-12-01 18:14:09.486890, 1.77908
2022-12-01 18:14:09.495031, 1.75464
2022-12-01 18:14:09.502802, 1.72532
2022-12-01 18:14:09.516285, 1.74487
2022-12-01 18:14:09.523383, 1.70577
2022-12-01 18:14:09.532672, 1.69110
2022-12-01 18:14:09.540152, 1.68133
2022-12-01 18:14:09.553111, 1.67155
2022-12-01 18:14:09.561110, 1.66178
2022-12-01 18:14:09.569119, 1.65200
2022-12-01 18:14:09.581150, 1.64223
2022-12-01 18:14:09.589233, 1.63245
2022-12-01 18:14:09.597090, 1.62757
2022-12-01 18:14:09.605501, 1.62268
2022-12-01 18:14:09.618037, 1.61290
2022-12-01 18:14:09.625627, 1.61290
2022-12-01 18:14:09.634897, 1.60802
2022-12-01 18:14:09.647467, 1.61779
2022-12-01 18:14:09.655560, 1.60802
2022-12-01 18:14:09.663856, 1.60802
2022-12-01 18:14:09.671971, 1.60313
2022-12-01 18:14:09.684399, 1.60313
2022-12-01 18:14:09.691696, 1.60313
2022-12-01 18:14:09.700633, 1.59335
2022-12-01 18:14:09.712442, 1.58847
2022-12-01 18:14:09.720271, 1.58847
2022-12-01 18:14:09.728812, 1.58847
2022-12-01 18:14:09.735990, 1.58358
2022-12-01 18:14:09.749383, 1.58358
2022-12-01 18:14:09.756552, 1.57380
2022-12-01 18:14:09.765982, 1.57380
2022-12-01 18:14:09.778011, 1.57380
2022-12-01 18:14:09.785877, 1.56891
2022-12-01 18:14:09.793999, 1.56403
2022-12-01 18:14:09.801684, 1.56403
2022-12-01 18:14:09.814291, 1.55914
2022-12-01 18:14:09.822441, 1.55425
2022-12-01 18:14:09.831126, 1.54936
2022-12-01 18:14:09.842696, 1.57869
2022-12-01 18:14:09.851719, 1.54936
2022-12-01 18:14:09.859639, 1.54448
2022-12-01 18:14:09.867934, 1.53959
2022-12-01 18:14:09.880690, 1.54448
2022-12-01 18:14:09.889029, 1.53470
2022-12-01 18:14:09.896727, 1.53959
2022-12-01 18:14:09.908326, 1.53470
2022-12-01 18:14:09.916784, 1.53470
2022-12-01 18:14:09.924877, 1.52981
2022-12-01 18:14:09.933642, 1.52981
2022-12-01 18:14:09.945851, 1.53959
2022-12-01 18:14:09.953820, 1.53470
2022-12-01 18:14:09.962118, 1.53959
2022-12-01 18:14:09.974295, 1.55425
2022-12-01 18:14:09.982770, 1.56403
2022-12-01 18:14:09.990786, 1.59824
2022-12-01 18:14:09.999348, 1.58358
2022-12-01 18:14:10.011434, 1.60313
2022-12-01 18:14:10.019473, 1.62757
2022-12-01 18:14:10.027747, 1.64712
2022-12-01 18:14:10.039144, 1.68133
2022-12-01 18:14:10.047938, 1.73998
2022-12-01 18:14:10.055806, 1.73509
2022-12-01 18:14:10.065119, 1.75464
2022-12-01 18:14:10.077026, 1.78397
2022-12-01 18:14:10.085371, 1.77908
2022-12-01 18:14:10.093283, 1.78397
2022-12-01 18:14:10.105538, 1.77908
2022-12-01 18:14:10.113800, 1.77419
2022-12-01 18:14:10.121814, 1.76442
2022-12-01 18:14:10.130021, 1.75464
2022-12-01 18:14:10.142983, 1.73998
2022-12-01 18:14:10.151212, 1.73021
2022-12-01 18:14:10.159374, 1.72043
2022-12-01 18:14:10.167589, 1.71065
2022-12-01 18:14:10.179853, 1.69599
2022-12-01 18:14:10.187257, 1.68133
2022-12-01 18:14:10.195611, 1.67155
2022-12-01 18:14:10.207231, 1.69110
2022-12-01 18:14:10.215983, 1.66178
2022-12-01 18:14:10.224143, 1.63734
2022-12-01 18:14:10.232172, 1.66178
2022-12-01 18:14:10.244346, 1.61779
2022-12-01 18:14:10.253381, 1.61290
2022-12-01 18:14:10.261255, 1.60802
2022-12-01 18:14:10.273196, 1.60313
2022-12-01 18:14:10.281541, 1.59824
2022-12-01 18:14:10.289683, 1.59335
2022-12-01 18:14:10.297988, 1.59335
2022-12-01 18:14:10.310218, 1.58358
2022-12-01 18:14:10.319126, 1.58847
2022-12-01 18:14:10.326645, 1.57869
2022-12-01 18:14:10.338917, 1.59824
2022-12-01 18:14:10.347797, 1.57380
2022-12-01 18:14:10.354746, 1.57380
2022-12-01 18:14:10.364202, 1.56891
2022-12-01 18:14:10.376470, 1.56403
2022-12-01 18:14:10.384685, 1.56403
2022-12-01 18:14:10.392849, 1.55914
2022-12-01 18:14:10.403847, 1.55914
2022-12-01 18:14:10.413339, 1.55425
2022-12-01 18:14:10.420873, 1.55425
2022-12-01 18:14:10.429364, 1.55425
2022-12-01 18:14:10.441138, 1.54936
2022-12-01 18:14:10.450023, 1.54448
2022-12-01 18:14:10.457918, 1.54936
2022-12-01 18:14:10.469778, 1.54448
2022-12-01 18:14:10.477517, 1.54448
2022-12-01 18:14:10.486190, 1.56891
2022-12-01 18:14:10.494760, 1.53959
2022-12-01 18:14:10.506487, 1.53470
2022-12-01 18:14:10.514780, 1.53470
2022-12-01 18:14:10.522793, 1.53470
2022-12-01 18:14:10.536157, 1.53470
2022-12-01 18:14:10.543571, 1.53959
2022-12-01 18:14:10.551647, 1.53959
2022-12-01 18:14:10.559529, 1.54448
2022-12-01 18:14:10.571438, 1.54448
2022-12-01 18:14:10.580619, 1.55425
2022-12-01 18:14:10.588583, 1.54936
2022-12-01 18:14:10.601024, 1.56403
2022-12-01 18:14:10.608647, 1.56891
2022-12-01 18:14:10.616699, 1.58358
2022-12-01 18:14:10.625159, 1.60313
2022-12-01 18:14:10.637344, 1.64223
2022-12-01 18:14:10.646145, 1.65689
2022-12-01 18:14:10.654354, 1.72043
2022-12-01 18:14:10.666338, 1.72043
2022-12-01 18:14:10.674045, 1.75464
2022-12-01 18:14:10.682826, 1.78397
2022-12-01 18:14:10.691195, 1.80841
2022-12-01 18:14:10.704170, 1.81818
2022-12-01 18:14:10.711866, 1.82796
2022-12-01 18:14:10.720213, 1.83773
2022-12-01 18:14:10.732822, 1.83773
2022-12-01 18:14:10.741030, 1.83284
2022-12-01 18:14:10.749303, 1.82796
2022-12-01 18:14:10.756213, 1.82307
2022-12-01 18:14:10.768779, 1.81329
2022-12-01 18:14:10.776758, 1.80841
2022-12-01 18:14:10.784467, 1.78886
2022-12-01 18:14:10.797157, 1.77419
2022-12-01 18:14:10.805792, 1.76442
2022-12-01 18:14:10.814840, 1.74976
2022-12-01 18:14:10.821773, 1.73509
2022-12-01 18:14:10.834578, 1.72043
2022-12-01 18:14:10.843491, 1.71065
2022-12-01 18:14:10.850946, 1.70088
2022-12-01 18:14:10.863913, 1.69110
2022-12-01 18:14:10.872031, 1.68133
2022-12-01 18:14:10.880239, 1.67155
2022-12-01 18:14:10.888478, 1.67155
2022-12-01 18:14:10.900754, 1.67644
2022-12-01 18:14:10.907952, 1.66667
2022-12-01 18:14:10.916483, 1.69110
2022-12-01 18:14:10.929214, 1.65689
2022-12-01 18:14:10.937251, 1.65689
2022-12-01 18:14:10.944301, 1.65689
2022-12-01 18:14:10.953432, 1.65200
2022-12-01 18:14:10.965783, 1.64223
2022-12-01 18:14:10.973590, 1.65200
2022-12-01 18:14:10.982779, 1.63734
2022-12-01 18:14:10.990098, 1.63245
2022-12-01 18:14:11.002841, 1.62757
2022-12-01 18:14:11.011480, 1.65200
2022-12-01 18:14:11.018846, 1.62268
2022-12-01 18:14:11.031972, 1.63245
2022-12-01 18:14:11.038777, 1.61779
2022-12-01 18:14:11.047907, 1.61779
2022-12-01 18:14:11.055477, 1.62268
2022-12-01 18:14:11.068197, 1.60802
2022-12-01 18:14:11.075713, 1.60313
2022-12-01 18:14:11.084647, 1.60313
2022-12-01 18:14:11.096131, 1.60313
2022-12-01 18:14:11.104993, 1.59824
2022-12-01 18:14:11.113240, 1.60313
2022-12-01 18:14:11.121342, 1.59335
2022-12-01 18:14:11.133775, 1.59824
2022-12-01 18:14:11.141721, 1.58847
2022-12-01 18:14:11.150191, 1.58847
2022-12-01 18:14:11.162316, 1.59335
2022-12-01 18:14:11.170374, 1.58358
2022-12-01 18:14:11.178746, 1.58358
2022-12-01 18:14:11.187126, 1.60313
2022-12-01 18:14:11.199389, 1.59335
2022-12-01 18:14:11.207169, 1.61779
2022-12-01 18:14:11.215819, 1.60313
2022-12-01 18:14:11.228217, 1.61779
2022-12-01 18:14:11.236645, 1.62757
2022-12-01 18:14:11.244854, 1.65200
2022-12-01 18:14:11.251907, 1.67644
2022-12-01 18:14:11.264400, 1.70577
2022-12-01 18:14:11.272973, 1.73509
2022-12-01 18:14:11.281319, 1.77908
2022-12-01 18:14:11.293716, 1.81329
2022-12-01 18:14:11.301539, 1.84262
2022-12-01 18:14:11.309644, 1.86217
2022-12-01 18:14:11.318643, 1.90127
2022-12-01 18:14:11.330221, 1.88661
2022-12-01 18:14:11.338273, 1.88172
2022-12-01 18:14:11.346136, 1.88172
2022-12-01 18:14:11.357970, 1.87195
2022-12-01 18:14:11.367011, 1.86706
2022-12-01 18:14:11.374485, 1.85239
2022-12-01 18:14:11.382918, 1.85728
2022-12-01 18:14:11.394803, 1.83773
2022-12-01 18:14:11.403218, 1.82307
2022-12-01 18:14:11.411734, 1.82307
2022-12-01 18:14:11.424008, 1.79863
2022-12-01 18:14:11.432667, 1.78886
2022-12-01 18:14:11.440767, 1.76931
2022-12-01 18:14:11.448956, 1.74976
2022-12-01 18:14:11.461461, 1.73509
2022-12-01 18:14:11.469511, 1.72043
2022-12-01 18:14:11.478077, 1.71065
2022-12-01 18:14:11.489039, 1.69110
2022-12-01 18:14:11.497491, 1.69110
2022-12-01 18:14:11.506083, 1.68133
2022-12-01 18:14:11.514304, 1.67155
2022-12-01 18:14:11.526096, 1.66667
2022-12-01 18:14:11.535796, 1.66667
2022-12-01 18:14:11.543842, 1.66178
2022-12-01 18:14:11.555148, 1.65689
2022-12-01 18:14:11.564313, 1.65200
2022-12-01 18:14:11.571566, 1.65689
2022-12-01 18:14:11.580712, 1.64223
2022-12-01 18:14:11.593062, 1.63734
2022-12-01 18:14:11.600748, 1.63734
2022-12-01 18:14:11.609211, 1.63734
2022-12-01 18:14:11.621383, 1.62757
2022-12-01 18:14:11.629387, 1.62268
2022-12-01 18:14:11.637673, 1.62268
2022-12-01 18:14:11.645821, 1.64712
2022-12-01 18:14:11.657832, 1.61779
2022-12-01 18:14:11.666048, 1.63734
2022-12-01 18:14:11.674711, 1.60802
2022-12-01 18:14:11.686466, 1.60313
2022-12-01 18:14:11.694842, 1.59824
2022-12-01 18:14:11.702991, 1.59824
2022-12-01 18:14:11.711265, 1.59824
2022-12-01 18:14:11.722544, 1.59335
2022-12-01 18:14:11.731871, 1.58847
2022-12-01 18:14:11.739831, 1.58847
2022-12-01 18:14:11.752201, 1.60313
2022-12-01 18:14:11.760419, 1.58358
2022-12-01 18:14:11.768587, 1.58358
2022-12-01 18:14:11.776886, 1.58358
2022-12-01 18:14:11.788326, 1.57869
2022-12-01 18:14:11.797215, 1.57869
2022-12-01 18:14:11.805101, 1.58358
2022-12-01 18:14:11.816845, 1.57869
2022-12-01 18:14:11.826076, 1.57869
2022-12-01 18:14:11.833821, 1.58847
2022-12-01 18:14:11.842212, 1.58847
2022-12-01 18:14:11.854980, 1.59824
2022-12-01 18:14:11.862643, 1.60313
2022-12-01 18:14:11.871527, 1.63734
2022-12-01 18:14:11.878625, 1.63245
2022-12-01 18:14:11.892037, 1.64712
2022-12-01 18:14:11.900299, 1.66667
2022-12-01 18:14:11.907681, 1.69599
2022-12-01 18:14:11.920367, 1.73021
2022-12-01 18:14:11.927433, 1.76931
2022-12-01 18:14:11.936044, 1.80841
2022-12-01 18:14:11.945131, 1.84751
2022-12-01 18:14:11.956984, 1.86706
2022-12-01 18:14:11.965482, 1.89150
2022-12-01 18:14:11.973188, 1.90127
2022-12-01 18:14:11.985697, 1.90616
2022-12-01 18:14:11.994059, 1.90127
2022-12-01 18:14:12.002149, 1.89638
2022-12-01 18:14:12.010169, 1.89150
2022-12-01 18:14:12.022501, 1.88172
2022-12-01 18:14:12.031460, 1.87195
2022-12-01 18:14:12.038353, 1.86706
2022-12-01 18:14:12.051739, 1.85728
2022-12-01 18:14:12.058805, 1.84262
2022-12-01 18:14:12.068231, 1.83773
2022-12-01 18:14:12.075722, 1.81818
2022-12-01 18:14:12.088342, 1.80841
2022-12-01 18:14:12.095957, 1.78886
2022-12-01 18:14:12.105000, 1.77419
2022-12-01 18:14:12.117425, 1.76442
2022-12-01 18:14:12.124727, 1.74487
2022-12-01 18:14:12.133487, 1.75953
2022-12-01 18:14:12.141036, 1.72532
2022-12-01 18:14:12.153703, 1.71554
2022-12-01 18:14:12.161829, 1.71065
2022-12-01 18:14:12.169834, 1.69599
2022-12-01 18:14:12.182833, 1.69110
2022-12-01 18:14:12.190337, 1.68622
2022-12-01 18:14:12.198899, 1.68622
2022-12-01 18:14:12.206590, 1.68133
2022-12-01 18:14:12.218657, 1.68133
2022-12-01 18:14:12.227446, 1.67644
2022-12-01 18:14:12.236195, 1.67155
2022-12-01 18:14:12.247889, 1.66667
2022-12-01 18:14:12.255541, 1.66178
2022-12-01 18:14:12.264303, 1.65689
2022-12-01 18:14:12.272442, 1.65200
2022-12-01 18:14:12.285347, 1.64223
2022-12-01 18:14:12.292675, 1.66667
2022-12-01 18:14:12.301386, 1.64712
2022-12-01 18:14:12.313523, 1.63734
2022-12-01 18:14:12.321342, 1.63245
2022-12-01 18:14:12.329802, 1.63734
2022-12-01 18:14:12.337830, 1.62757
2022-12-01 18:14:12.350884, 1.62268
2022-12-01 18:14:12.357770, 1.62268
2022-12-01 18:14:12.367140, 1.61779
2022-12-01 18:14:12.379550, 1.61290
2022-12-01 18:14:12.386963, 1.61290
2022-12-01 18:14:12.395936, 1.61290
2022-12-01 18:14:12.403427, 1.61290
2022-12-01 18:14:12.415841, 1.60802
2022-12-01 18:14:12.423732, 1.60313
2022-12-01 18:14:12.432197, 1.63734
2022-12-01 18:14:12.444572, 1.61779
2022-12-01 18:14:12.452216, 1.59824
2022-12-01 18:14:12.460613, 1.59824
2022-12-01 18:14:12.469085, 1.60802
2022-12-01 18:14:12.480424, 1.59335
2022-12-01 18:14:12.489032, 1.59335
2022-12-01 18:14:12.497625, 1.61779
2022-12-01 18:14:12.509742, 1.58847
2022-12-01 18:14:12.518180, 1.59335
2022-12-01 18:14:12.526066, 1.62268
2022-12-01 18:14:12.534652, 1.58358
2022-12-01 18:14:12.546434, 1.60802
2022-12-01 18:14:12.554497, 1.58358
2022-12-01 18:14:12.563082, 1.58358
2022-12-01 18:14:12.576057, 1.58847
2022-12-01 18:14:12.584235, 1.58847
2022-12-01 18:14:12.591205, 1.59335
2022-12-01 18:14:12.600163, 1.59335
2022-12-01 18:14:12.611322, 1.60313
2022-12-01 18:14:12.620303, 1.62268
2022-12-01 18:14:12.627958, 1.63245
2022-12-01 18:14:12.640697, 1.65200
2022-12-01 18:14:12.648884, 1.66667
2022-12-01 18:14:12.656906, 1.70088
2022-12-01 18:14:12.665114, 1.73509
2022-12-01 18:14:12.677103, 1.80352
2022-12-01 18:14:12.686225, 1.80352
2022-12-01 18:14:12.694213, 1.85728
2022-12-01 18:14:12.706244, 1.85728
2022-12-01 18:14:12.714129, 1.87683
2022-12-01 18:14:12.722233, 1.88172
2022-12-01 18:14:12.731719, 1.88172
2022-12-01 18:14:12.743245, 1.88172
2022-12-01 18:14:12.752098, 1.87195
2022-12-01 18:14:12.759091, 1.86217
2022-12-01 18:14:12.768595, 1.85239
2022-12-01 18:14:12.780419, 1.83773
2022-12-01 18:14:12.788143, 1.82796
2022-12-01 18:14:12.797317, 1.82307
2022-12-01 18:14:12.808754, 1.80841
2022-12-01 18:14:12.816252, 1.79374
2022-12-01 18:14:12.825007, 1.78397
2022-12-01 18:14:12.832875, 1.76931
2022-12-01 18:14:12.845248, 1.75953
2022-12-01 18:14:12.853907, 1.74487
2022-12-01 18:14:12.862782, 1.73021
2022-12-01 18:14:12.874862, 1.71554
2022-12-01 18:14:12.883003, 1.70577
2022-12-01 18:14:12.890695, 1.69599
2022-12-01 18:14:12.899713, 1.68622
2022-12-01 18:14:12.910899, 1.68133
2022-12-01 18:14:12.919831, 1.67155
2022-12-01 18:14:12.927683, 1.67155
2022-12-01 18:14:12.939451, 1.66178
2022-12-01 18:14:12.947657, 1.69110
2022-12-01 18:14:12.956375, 1.65200
2022-12-01 18:14:12.965291, 1.65200
2022-12-01 18:14:12.977153, 1.64223
2022-12-01 18:14:12.985268, 1.64712
2022-12-01 18:14:12.992747, 1.65200
2022-12-01 18:14:13.004187, 1.63245
2022-12-01 18:14:13.013937, 1.65200
2022-12-01 18:14:13.021291, 1.62268
2022-12-01 18:14:13.030788, 1.62268
2022-12-01 18:14:13.042478, 1.64223
2022-12-01 18:14:13.050393, 1.61290
2022-12-01 18:14:13.059475, 1.60313
2022-12-01 18:14:13.070909, 1.60802
2022-12-01 18:14:13.079339, 1.59824
2022-12-01 18:14:13.087511, 1.59824
2022-12-01 18:14:13.095794, 1.59335
2022-12-01 18:14:13.108092, 1.58847
2022-12-01 18:14:13.116279, 1.58847
2022-12-01 18:14:13.124152, 1.58847
2022-12-01 18:14:13.137148, 1.58847
2022-12-01 18:14:13.145162, 1.57869
2022-12-01 18:14:13.153253, 1.61290
2022-12-01 18:14:13.161285, 1.57869
2022-12-01 18:14:13.172488, 1.57380
2022-12-01 18:14:13.181795, 1.56891
2022-12-01 18:14:13.189734, 1.58358
2022-12-01 18:14:13.201593, 1.57380
2022-12-01 18:14:13.210274, 1.56891
2022-12-01 18:14:13.218583, 1.56891
2022-12-01 18:14:13.226664, 1.56891
2022-12-01 18:14:13.238781, 1.56891
2022-12-01 18:14:13.247232, 1.56891
2022-12-01 18:14:13.255441, 1.56891
2022-12-01 18:14:13.268460, 1.55914
2022-12-01 18:14:13.275335, 1.56891
2022-12-01 18:14:13.284674, 1.56403
2022-12-01 18:14:13.292085, 1.56403
2022-12-01 18:14:13.304105, 1.56403
2022-12-01 18:14:13.313155, 1.57380
2022-12-01 18:14:13.321063, 1.57380
2022-12-01 18:14:13.333412, 1.60802
2022-12-01 18:14:13.341320, 1.61779
2022-12-01 18:14:13.349841, 1.60802
2022-12-01 18:14:13.357736, 1.63245
2022-12-01 18:14:13.369913, 1.65200
2022-12-01 18:14:13.377803, 1.68133
2022-12-01 18:14:13.386203, 1.70577
2022-12-01 18:14:13.397866, 1.75953
2022-12-01 18:14:13.406859, 1.79863
2022-12-01 18:14:13.415423, 1.79374
2022-12-01 18:14:13.423197, 1.81329
2022-12-01 18:14:13.436116, 1.83284
2022-12-01 18:14:13.443871, 1.83773
2022-12-01 18:14:13.451920, 1.83773
2022-12-01 18:14:13.463958, 1.83284
2022-12-01 18:14:13.472003, 1.82307
2022-12-01 18:14:13.479876, 1.81818
2022-12-01 18:14:13.487889, 1.80841
2022-12-01 18:14:13.501408, 1.79374
2022-12-01 18:14:13.509052, 1.78397
2022-12-01 18:14:13.517498, 1.76931
2022-12-01 18:14:13.529900, 1.75953
2022-12-01 18:14:13.537544, 1.74487
2022-12-01 18:14:13.546104, 1.73509
2022-12-01 18:14:13.553851, 1.73021
2022-12-01 18:14:13.566825, 1.72043
2022-12-01 18:14:13.575545, 1.70577
2022-12-01 18:14:13.583754, 1.69599
2022-12-01 18:14:13.590473, 1.68622
2022-12-01 18:14:13.602642, 1.68622
2022-12-01 18:14:13.611458, 1.67155
2022-12-01 18:14:13.619276, 1.67155
2022-12-01 18:14:13.631669, 1.66178
2022-12-01 18:14:13.641105, 1.65689
2022-12-01 18:14:13.648067, 1.64712
2022-12-01 18:14:13.657239, 1.64712
2022-12-01 18:14:13.669504, 1.64712
2022-12-01 18:14:13.676718, 1.67155
2022-12-01 18:14:13.685709, 1.63734
2022-12-01 18:14:13.697497, 1.67155
2022-12-01 18:14:13.705571, 1.63245
2022-12-01 18:14:13.713769, 1.62757
2022-12-01 18:14:13.722001, 1.65200
2022-12-01 18:14:13.733950, 1.62268
2022-12-01 18:14:13.741954, 1.61290
2022-12-01 18:14:13.750589, 1.61290
2022-12-01 18:14:13.762653, 1.60313
2022-12-01 18:14:13.770635, 1.60313
2022-12-01 18:14:13.779018, 1.60313
2022-12-01 18:14:13.787736, 1.59335
2022-12-01 18:14:13.799733, 1.61290
2022-12-01 18:14:13.807392, 1.58847
2022-12-01 18:14:13.815987, 1.59335
2022-12-01 18:14:13.828880, 1.58358
2022-12-01 18:14:13.837145, 1.57380
2022-12-01 18:14:13.845417, 1.57380
2022-12-01 18:14:13.853555, 1.57869
2022-12-01 18:14:13.865771, 1.56891
2022-12-01 18:14:13.873973, 1.59824
2022-12-01 18:14:13.881885, 1.56891
2022-12-01 18:14:13.895061, 1.56891
2022-12-01 18:14:13.903152, 1.56891
2022-12-01 18:14:13.911455, 1.56403
2022-12-01 18:14:13.919548, 1.56403
2022-12-01 18:14:13.930967, 1.56403
2022-12-01 18:14:13.938895, 1.56403
2022-12-01 18:14:13.948318, 1.56891
2022-12-01 18:14:13.960124, 1.56891
2022-12-01 18:14:13.968511, 1.56403
2022-12-01 18:14:13.976908, 1.56891
2022-12-01 18:14:13.984616, 1.55914
2022-12-01 18:14:13.997381, 1.55914
2022-12-01 18:14:14.004779, 1.55425
2022-12-01 18:14:14.013511, 1.55914
2022-12-01 18:14:14.025549, 1.55425
2022-12-01 18:14:14.032846, 1.56403
2022-12-01 18:14:14.041839, 1.56403
2022-12-01 18:14:14.049167, 1.57380
2022-12-01 18:14:14.062881, 1.57869
2022-12-01 18:14:14.070756, 1.58847
2022-12-01 18:14:14.079472, 1.60802
2022-12-01 18:14:14.090750, 1.65689
2022-12-01 18:14:14.099168, 1.64223
2022-12-01 18:14:14.107203, 1.67155
2022-12-01 18:14:14.115685, 1.73021
2022-12-01 18:14:14.128572, 1.73021
2022-12-01 18:14:14.136742, 1.75464
2022-12-01 18:14:14.144952, 1.77419
2022-12-01 18:14:14.156290, 1.79374
2022-12-01 18:14:14.165335, 1.79863
2022-12-01 18:14:14.172662, 1.82796
2022-12-01 18:14:14.181417, 1.80352
2022-12-01 18:14:14.193574, 1.79374
2022-12-01 18:14:14.201602, 1.78397
2022-12-01 18:14:14.209854, 1.78397
2022-12-01 18:14:14.221822, 1.76442
2022-12-01 18:14:14.230191, 1.75953
2022-12-01 18:14:14.238476, 1.75953
2022-12-01 18:14:14.246462, 1.73509
2022-12-01 18:14:14.258810, 1.72043
2022-12-01 18:14:14.267708, 1.71065
2022-12-01 18:14:14.274808, 1.70088
2022-12-01 18:14:14.287348, 1.72043
2022-12-01 18:14:14.296495, 1.68622
2022-12-01 18:14:14.304017, 1.67155
2022-12-01 18:14:14.312441, 1.67155
2022-12-01 18:14:14.324474, 1.65689
2022-12-01 18:14:14.333243, 1.64712
2022-12-01 18:14:14.340506, 1.63734
2022-12-01 18:14:14.353353, 1.63245
2022-12-01 18:14:14.361424, 1.63245
2022-12-01 18:14:14.369522, 1.62757
2022-12-01 18:14:14.377866, 1.62757
2022-12-01 18:14:14.390029, 1.61779
2022-12-01 18:14:14.398778, 1.62757
2022-12-01 18:14:14.406249, 1.61779
2022-12-01 18:14:14.418279, 1.64223
2022-12-01 18:14:14.426821, 1.61779
2022-12-01 18:14:14.435435, 1.60802
2022-12-01 18:14:14.443495, 1.61290
2022-12-01 18:14:14.454935, 1.60313
2022-12-01 18:14:14.463775, 1.59824
2022-12-01 18:14:14.471738, 1.58847
2022-12-01 18:14:14.480129, 1.60802
2022-12-01 18:14:14.493114, 1.58847
2022-12-01 18:14:14.501206, 1.58358
2022-12-01 18:14:14.508734, 1.58358
2022-12-01 18:14:14.520694, 1.57869
2022-12-01 18:14:14.529334, 1.57869
2022-12-01 18:14:14.537196, 1.57380
2022-12-01 18:14:14.545725, 1.57380
2022-12-01 18:14:14.557757, 1.56891
2022-12-01 18:14:14.566723, 1.56891
2022-12-01 18:14:14.573972, 1.60313
2022-12-01 18:14:14.586080, 1.56891
2022-12-01 18:14:14.594163, 1.58847
2022-12-01 18:14:14.602092, 1.56891
2022-12-01 18:14:14.611874, 1.57380
2022-12-01 18:14:14.623539, 1.57380
2022-12-01 18:14:14.631791, 1.56403
2022-12-01 18:14:14.639889, 1.56403
2022-12-01 18:14:14.652193, 1.56403
2022-12-01 18:14:14.660507, 1.56403
2022-12-01 18:14:14.668688, 1.55914
2022-12-01 18:14:14.676848, 1.56403
2022-12-01 18:14:14.688291, 1.56403
2022-12-01 18:14:14.697295, 1.56403
2022-12-01 18:14:14.704589, 1.59824
2022-12-01 18:14:14.717866, 1.56891
2022-12-01 18:14:14.725311, 1.59335
2022-12-01 18:14:14.734032, 1.57380
2022-12-01 18:14:14.742179, 1.57869
2022-12-01 18:14:14.753838, 1.58847
2022-12-01 18:14:14.762592, 1.59824
2022-12-01 18:14:14.770856, 1.61290
2022-12-01 18:14:14.783843, 1.63734
2022-12-01 18:14:14.791303, 1.64712
2022-12-01 18:14:14.800199, 1.68133
2022-12-01 18:14:14.807732, 1.69110
2022-12-01 18:14:14.820468, 1.71554
2022-12-01 18:14:14.828671, 1.73509
2022-12-01 18:14:14.836608, 1.75464
2022-12-01 18:14:14.848594, 1.77419
2022-12-01 18:14:14.856040, 1.78886
2022-12-01 18:14:14.865139, 1.78397
2022-12-01 18:14:14.873370, 1.78886
2022-12-01 18:14:14.885551, 1.77908
2022-12-01 18:14:14.893769, 1.76931
2022-12-01 18:14:14.901185, 1.75953
2022-12-01 18:14:14.914518, 1.75464
2022-12-01 18:14:14.922416, 1.74487
2022-12-01 18:14:14.930379, 1.73509
2022-12-01 18:14:14.938910, 1.73021
2022-12-01 18:14:14.951320, 1.72043
2022-12-01 18:14:14.959524, 1.73998
2022-12-01 18:14:14.967681, 1.70088
2022-12-01 18:14:14.980424, 1.69110
2022-12-01 18:14:14.987202, 1.68133
2022-12-01 18:14:14.996789, 1.69110
2022-12-01 18:14:15.003764, 1.66178
2022-12-01 18:14:15.016877, 1.65689
2022-12-01 18:14:15.024708, 1.65200
2022-12-01 18:14:15.033087, 1.64223
2022-12-01 18:14:15.045571, 1.64712
2022-12-01 18:14:15.053630, 1.64223
2022-12-01 18:14:15.061873, 1.64223
2022-12-01 18:14:15.070364, 1.64223
2022-12-01 18:14:15.082198, 1.64712
2022-12-01 18:14:15.090087, 1.63734
2022-12-01 18:14:15.099214, 1.65200
2022-12-01 18:14:15.110487, 1.63734
2022-12-01 18:14:15.119800, 1.63245
2022-12-01 18:14:15.127237, 1.63245
2022-12-01 18:14:15.136090, 1.63245
2022-12-01 18:14:15.148356, 1.62757
2022-12-01 18:14:15.155471, 1.64712
2022-12-01 18:14:15.163507, 1.62757
2022-12-01 18:14:15.176561, 1.62268
2022-12-01 18:14:15.185170, 1.61779
2022-12-01 18:14:15.193171, 1.61779
2022-12-01 18:14:15.201176, 1.60802
2022-12-01 18:14:15.213121, 1.63734
2022-12-01 18:14:15.221303, 1.60313
2022-12-01 18:14:15.229934, 1.61290
2022-12-01 18:14:15.241554, 1.59824
2022-12-01 18:14:15.250031, 1.59824
2022-12-01 18:14:15.258296, 1.61290
2022-12-01 18:14:15.266484, 1.59335
2022-12-01 18:14:15.278908, 1.59335
2022-12-01 18:14:15.286766, 1.61779
2022-12-01 18:14:15.295411, 1.58847
2022-12-01 18:14:15.307585, 1.58358
2022-12-01 18:14:15.316447, 1.58847
2022-12-01 18:14:15.323664, 1.58358
2022-12-01 18:14:15.332594, 1.58358
2022-12-01 18:14:15.344954, 1.58847
2022-12-01 18:14:15.353178, 1.57869
2022-12-01 18:14:15.361266, 1.57869
2022-12-01 18:14:15.369174, 1.58847
2022-12-01 18:14:15.381434, 1.58358
2022-12-01 18:14:15.388993, 1.57869
2022-12-01 18:14:15.397843, 1.58847
2022-12-01 18:14:15.409341, 1.58847
2022-12-01 18:14:15.417737, 1.59824
2022-12-01 18:14:15.425647, 1.63734
2022-12-01 18:14:15.433797, 1.62268
2022-12-01 18:14:15.447366, 1.63734
2022-12-01 18:14:15.454586, 1.64712
2022-12-01 18:14:15.463843, 1.66667
2022-12-01 18:14:15.476145, 1.68622
2022-12-01 18:14:15.484225, 1.71065
2022-12-01 18:14:15.492544, 1.73509
2022-12-01 18:14:15.499165, 1.78397
2022-12-01 18:14:15.512199, 1.76931
2022-12-01 18:14:15.520182, 1.78397
2022-12-01 18:14:15.529176, 1.78886
2022-12-01 18:14:15.540843, 1.78397
2022-12-01 18:14:15.549431, 1.77908
2022-12-01 18:14:15.557017, 1.76442
2022-12-01 18:14:15.565748, 1.75953
2022-12-01 18:14:15.577922, 1.77908
2022-12-01 18:14:15.585907, 1.73998
2022-12-01 18:14:15.593741, 1.73021
2022-12-01 18:14:15.605744, 1.72532
2022-12-01 18:14:15.614962, 1.74487
2022-12-01 18:14:15.622930, 1.70577
2022-12-01 18:14:15.631235, 1.69599
2022-12-01 18:14:15.643456, 1.69110
2022-12-01 18:14:15.651420, 1.68133
2022-12-01 18:14:15.659945, 1.67644
2022-12-01 18:14:15.671078, 1.66667
2022-12-01 18:14:15.680641, 1.66178
2022-12-01 18:14:15.688105, 1.65200
2022-12-01 18:14:15.696912, 1.65689
2022-12-01 18:14:15.708781, 1.64712
2022-12-01 18:14:15.717434, 1.64712
2022-12-01 18:14:15.725411, 1.64223
2022-12-01 18:14:15.736873, 1.64223
2022-12-01 18:14:15.745648, 1.64223
2022-12-01 18:14:15.753904, 1.63734
2022-12-01 18:14:15.761863, 1.67155
