2022-12-15 14:21:26.245348, 2.17008
2022-12-15 14:21:26.246343, 2.39980
2022-12-15 14:21:26.246343, 2.55131
2022-12-15 14:21:26.279254, 2.61974
2022-12-15 14:21:26.280255, 2.62463
2022-12-15 14:21:26.280255, 2.59042
2022-12-15 14:21:26.313163, 2.50733
2022-12-15 14:21:26.313163, 2.38514
2022-12-15 14:21:26.346081, 2.27761
2022-12-15 14:21:26.347073, 2.16031
2022-12-15 14:21:26.347073, 2.04789
2022-12-15 14:21:26.379990, 1.93548
2022-12-15 14:21:26.379990, 1.83773
2022-12-15 14:21:26.380981, 1.75464
2022-12-15 14:21:26.412935, 1.66666
2022-12-15 14:21:26.413894, 1.57380
2022-12-15 14:21:26.446808, 1.50537
2022-12-15 14:21:26.447840, 1.46138
2022-12-15 14:21:26.447840, 1.42717
2022-12-15 14:21:26.480717, 1.39784
2022-12-15 14:21:26.480717, 1.40273
2022-12-15 14:21:26.481721, 1.43206
2022-12-15 14:21:26.513666, 1.47116
2022-12-15 14:21:26.514624, 1.50537
2022-12-15 14:21:26.547536, 1.54447
2022-12-15 14:21:26.547536, 1.58846
2022-12-15 14:21:26.548534, 1.65200
2022-12-15 14:21:26.581447, 1.66177
2022-12-15 14:21:26.581447, 1.63734
2022-12-15 14:21:26.582443, 1.63245
2022-12-15 14:21:26.614359, 1.62756
2022-12-15 14:21:26.615357, 1.59335
2022-12-15 14:21:26.648269, 1.56891
2022-12-15 14:21:26.648269, 1.53958
2022-12-15 14:21:26.649264, 1.51515
2022-12-15 14:21:26.681215, 1.48093
2022-12-15 14:21:26.682177, 1.44183
2022-12-15 14:21:26.682177, 1.40762
2022-12-15 14:21:26.715089, 1.38807
2022-12-15 14:21:26.716086, 1.35386
2022-12-15 14:21:26.748998, 1.32453
2022-12-15 14:21:26.748998, 1.30498
2022-12-15 14:21:26.749998, 1.29521
2022-12-15 14:21:26.781913, 1.28054
2022-12-15 14:21:26.782908, 1.26099
2022-12-15 14:21:26.785901, 1.25610
2022-12-15 14:21:26.815821, 1.28054
2022-12-15 14:21:26.816818, 1.23655
2022-12-15 14:21:26.848732, 1.22678
2022-12-15 14:21:26.849729, 1.22189
2022-12-15 14:21:26.850726, 1.21700
2022-12-15 14:21:26.882641, 1.21212
2022-12-15 14:21:26.882641, 1.20234
2022-12-15 14:21:26.883638, 1.20723
2022-12-15 14:21:26.916550, 1.21700
2022-12-15 14:21:26.917548, 1.27077
2022-12-15 14:21:26.949462, 1.37829
2022-12-15 14:21:26.950461, 1.57869
2022-12-15 14:21:26.950461, 1.83773
2022-12-15 14:21:26.983371, 2.09677
2022-12-15 14:21:26.984369, 2.32160
2022-12-15 14:21:26.984369, 2.47800
2022-12-15 14:21:27.016284, 2.58553
2022-12-15 14:21:27.017283, 2.60997
2022-12-15 14:21:27.050193, 2.56109
2022-12-15 14:21:27.051190, 2.50733
2022-12-15 14:21:27.051190, 2.42424
2022-12-15 14:21:27.084107, 2.28250
2022-12-15 14:21:27.085101, 2.15542
2022-12-15 14:21:27.085101, 2.05767
2022-12-15 14:21:27.117017, 1.94525
2022-12-15 14:21:27.118014, 1.85239
2022-12-15 14:21:27.150926, 1.74975
2022-12-15 14:21:27.150926, 1.69110
2022-12-15 14:21:27.151923, 1.59335
2022-12-15 14:21:27.184835, 1.51515
2022-12-15 14:21:27.184835, 1.44672
2022-12-15 14:21:27.185831, 1.41251
2022-12-15 14:21:27.217753, 1.40273
2022-12-15 14:21:27.218743, 1.41251
2022-12-15 14:21:27.251654, 1.42717
2022-12-15 14:21:27.251654, 1.47116
2022-12-15 14:21:27.252652, 1.52003
2022-12-15 14:21:27.284608, 1.57380
2022-12-15 14:21:27.285566, 1.59824
2022-12-15 14:21:27.286564, 1.62756
2022-12-15 14:21:27.318509, 1.65200
2022-12-15 14:21:27.319473, 1.66666
2022-12-15 14:21:27.352393, 1.65200
2022-12-15 14:21:27.352393, 1.64222
2022-12-15 14:21:27.353383, 1.62756
2022-12-15 14:21:27.385808, 1.60801
2022-12-15 14:21:27.385808, 1.56891
2022-12-15 14:21:27.386804, 1.56402
2022-12-15 14:21:27.419260, 1.50048
2022-12-15 14:21:27.419260, 1.47605
2022-12-15 14:21:27.452824, 1.44183
2022-12-15 14:21:27.452824, 1.40762
2022-12-15 14:21:27.453822, 1.38807
2022-12-15 14:21:27.486231, 1.36852
2022-12-15 14:21:27.487185, 1.34897
2022-12-15 14:21:27.487185, 1.32942
2022-12-15 14:21:27.520634, 1.33919
2022-12-15 14:21:27.520977, 1.32453
2022-12-15 14:21:27.554198, 1.32453
2022-12-15 14:21:27.554437, 1.28054
2022-12-15 14:21:27.554894, 1.27565
2022-12-15 14:21:27.587863, 1.27565
2022-12-15 14:21:27.588157, 1.26099
2022-12-15 14:21:27.588735, 1.25122
2022-12-15 14:21:27.620838, 1.25122
2022-12-15 14:21:27.620838, 1.25610
2022-12-15 14:21:27.654756, 1.26099
2022-12-15 14:21:27.655780, 1.30498
2022-12-15 14:21:27.655780, 1.42717
2022-12-15 14:21:27.687866, 1.63245
2022-12-15 14:21:27.687866, 1.89149
2022-12-15 14:21:27.688873, 2.14565
2022-12-15 14:21:27.721359, 2.39491
2022-12-15 14:21:27.721359, 2.56109
2022-12-15 14:21:27.754912, 2.66373
2022-12-15 14:21:27.755235, 2.67350
2022-12-15 14:21:27.755687, 2.64418
2022-12-15 14:21:27.788155, 2.57575
2022-12-15 14:21:27.788155, 2.47800
2022-12-15 14:21:27.788155, 2.35092
2022-12-15 14:21:27.821192, 2.23851
2022-12-15 14:21:27.822189, 2.13098
2022-12-15 14:21:27.855100, 2.03323
2022-12-15 14:21:27.855100, 1.91593
2022-12-15 14:21:27.856096, 1.82795
2022-12-15 14:21:27.889008, 1.74486
2022-12-15 14:21:27.889008, 1.66666
2022-12-15 14:21:27.889008, 1.57869
2022-12-15 14:21:27.921930, 1.52003
2022-12-15 14:21:27.922929, 1.47116
2022-12-15 14:21:27.955589, 1.45650
2022-12-15 14:21:27.955589, 1.45161
2022-12-15 14:21:27.956590, 1.47605
2022-12-15 14:21:27.989499, 1.50048
2022-12-15 14:21:27.989499, 1.54447
2022-12-15 14:21:27.990496, 1.57869
2022-12-15 14:21:28.022530, 1.61779
2022-12-15 14:21:28.023371, 1.65200
2022-12-15 14:21:28.056901, 1.68132
2022-12-15 14:21:28.057167, 1.68132
2022-12-15 14:21:28.057795, 1.69110
2022-12-15 14:21:28.090327, 1.68621
2022-12-15 14:21:28.091150, 1.64711
2022-12-15 14:21:28.091344, 1.61290
2022-12-15 14:21:28.124217, 1.57869
2022-12-15 14:21:28.124608, 1.54936
2022-12-15 14:21:28.157712, 1.52003
2022-12-15 14:21:28.158256, 1.49071
2022-12-15 14:21:28.158256, 1.47605
2022-12-15 14:21:28.191329, 1.41739
2022-12-15 14:21:28.191623, 1.39784
2022-12-15 14:21:28.192093, 1.36363
2022-12-15 14:21:28.224833, 1.33919
2022-12-15 14:21:28.225225, 1.32942
2022-12-15 14:21:28.257777, 1.31964
2022-12-15 14:21:28.258053, 1.30498
2022-12-15 14:21:28.258515, 1.28543
2022-12-15 14:21:28.291811, 1.29032
2022-12-15 14:21:28.292685, 1.29521
2022-12-15 14:21:28.292685, 1.26588
2022-12-15 14:21:28.324671, 1.25122
2022-12-15 14:21:28.324671, 1.25122
2022-12-15 14:21:28.357986, 1.24144
2022-12-15 14:21:28.357986, 1.23655
2022-12-15 14:21:28.358986, 1.22189
2022-12-15 14:21:28.392167, 1.23655
2022-12-15 14:21:28.392167, 1.26099
2022-12-15 14:21:28.393169, 1.31476
2022-12-15 14:21:28.425807, 1.45161
2022-12-15 14:21:28.425807, 1.67155
2022-12-15 14:21:28.459453, 1.94525
2022-12-15 14:21:28.460276, 2.21407
2022-12-15 14:21:28.460276, 2.43401
2022-12-15 14:21:28.493008, 2.58553
2022-12-15 14:21:28.493523, 2.67350
2022-12-15 14:21:28.493523, 2.68817
2022-12-15 14:21:28.526671, 2.62463
2022-12-15 14:21:28.527673, 2.53665
2022-12-15 14:21:28.559738, 2.43890
2022-12-15 14:21:28.560096, 2.32649
2022-12-15 14:21:28.560096, 2.19452
2022-12-15 14:21:28.593723, 2.08211
2022-12-15 14:21:28.594246, 1.98435
2022-12-15 14:21:28.594246, 1.89149
2022-12-15 14:21:28.627046, 1.78396
2022-12-15 14:21:28.627510, 1.70087
2022-12-15 14:21:28.660738, 1.62756
2022-12-15 14:21:28.660738, 1.57380
2022-12-15 14:21:28.661760, 1.49071
2022-12-15 14:21:28.694354, 1.44672
2022-12-15 14:21:28.695384, 1.43206
2022-12-15 14:21:28.695384, 1.43695
2022-12-15 14:21:28.727397, 1.44672
2022-12-15 14:21:28.727397, 1.48582
2022-12-15 14:21:28.760857, 1.53958
2022-12-15 14:21:28.760857, 1.60312
2022-12-15 14:21:28.761865, 1.59824
2022-12-15 14:21:28.794633, 1.62756
2022-12-15 14:21:28.796636, 1.64711
2022-12-15 14:21:28.797620, 1.66666
2022-12-15 14:21:28.827994, 1.65689
2022-12-15 14:21:28.827994, 1.64222
2022-12-15 14:21:28.861079, 1.64222
2022-12-15 14:21:28.862086, 1.60312
2022-12-15 14:21:28.862086, 1.55425
2022-12-15 14:21:28.895187, 1.52003
2022-12-15 14:21:28.895480, 1.48582
2022-12-15 14:21:28.896066, 1.45650
2022-12-15 14:21:28.928704, 1.42717
2022-12-15 14:21:28.928704, 1.41251
2022-12-15 14:21:28.962459, 1.36363
2022-12-15 14:21:28.962725, 1.34408
2022-12-15 14:21:28.963344, 1.31476
2022-12-15 14:21:28.995961, 1.30009
2022-12-15 14:21:28.996295, 1.28543
2022-12-15 14:21:28.996755, 1.30498
2022-12-15 14:21:29.029643, 1.28054
2022-12-15 14:21:29.029643, 1.25122
2022-12-15 14:21:29.062083, 1.24144
2022-12-15 14:21:29.063080, 1.24144
2022-12-15 14:21:29.063080, 1.23167
2022-12-15 14:21:29.096586, 1.21700
2022-12-15 14:21:29.096881, 1.22189
2022-12-15 14:21:29.097426, 1.22189
2022-12-15 14:21:29.129581, 1.22189
2022-12-15 14:21:29.129905, 1.21212
2022-12-15 14:21:29.163573, 1.23655
2022-12-15 14:21:29.163811, 1.30987
2022-12-15 14:21:29.164397, 1.45161
2022-12-15 14:21:29.197093, 1.66177
2022-12-15 14:21:29.197384, 1.92570
2022-12-15 14:21:29.197384, 2.18963
2022-12-15 14:21:29.230614, 2.41935
2022-12-15 14:21:29.230963, 2.53176
2022-12-15 14:21:29.264188, 2.60508
2022-12-15 14:21:29.264429, 2.61974
2022-12-15 14:21:29.265031, 2.57575
2022-12-15 14:21:29.297696, 2.47311
2022-12-15 14:21:29.298035, 2.36559
2022-12-15 14:21:29.298499, 2.26295
2022-12-15 14:21:29.331119, 2.15053
2022-12-15 14:21:29.331811, 2.02346
2022-12-15 14:21:29.364180, 1.93059
2022-12-15 14:21:29.365197, 1.83773
2022-12-15 14:21:29.365397, 1.74486
2022-12-15 14:21:29.398164, 1.64711
2022-12-15 14:21:29.398457, 1.56891
2022-12-15 14:21:29.398457, 1.50537
2022-12-15 14:21:29.431828, 1.46627
2022-12-15 14:21:29.432213, 1.42717
2022-12-15 14:21:29.465322, 1.43206
2022-12-15 14:21:29.465559, 1.42717
2022-12-15 14:21:29.466106, 1.46138
2022-12-15 14:21:29.499003, 1.49071
2022-12-15 14:21:29.499298, 1.53958
2022-12-15 14:21:29.499872, 1.60312
2022-12-15 14:21:29.532498, 1.64711
2022-12-15 14:21:29.532843, 1.64222
2022-12-15 14:21:29.566016, 1.65200
2022-12-15 14:21:29.566257, 1.65689
2022-12-15 14:21:29.566719, 1.65200
2022-12-15 14:21:29.599487, 1.62756
2022-12-15 14:21:29.599783, 1.60801
2022-12-15 14:21:29.600364, 1.58846
2022-12-15 14:21:29.632829, 1.54936
2022-12-15 14:21:29.632829, 1.51515
2022-12-15 14:21:29.665944, 1.47605
2022-12-15 14:21:29.666951, 1.44672
2022-12-15 14:21:29.667208, 1.42228
2022-12-15 14:21:29.699117, 1.39296
2022-12-15 14:21:29.700116, 1.36852
2022-12-15 14:21:29.700116, 1.34897
2022-12-15 14:21:29.733538, 1.33919
2022-12-15 14:21:29.733883, 1.34408
2022-12-15 14:21:29.767104, 1.29521
2022-12-15 14:21:29.767341, 1.29032
2022-12-15 14:21:29.767972, 1.28543
2022-12-15 14:21:29.800725, 1.27565
2022-12-15 14:21:29.801018, 1.27077
2022-12-15 14:21:29.801018, 1.27077
2022-12-15 14:21:29.834380, 1.27565
2022-12-15 14:21:29.834726, 1.28543
2022-12-15 14:21:29.867799, 1.24144
2022-12-15 14:21:29.868037, 1.24144
2022-12-15 14:21:29.868497, 1.24144
2022-12-15 14:21:29.901364, 1.25610
2022-12-15 14:21:29.901658, 1.29032
2022-12-15 14:21:29.902245, 1.40273
2022-12-15 14:21:29.934900, 1.58357
2022-12-15 14:21:29.935277, 1.82795
2022-12-15 14:21:29.968469, 2.07722
2022-12-15 14:21:29.968759, 2.31182
2022-12-15 14:21:29.968759, 2.49755
2022-12-15 14:21:30.001991, 2.63440
2022-12-15 14:21:30.001991, 2.62463
2022-12-15 14:21:30.002946, 2.60508
2022-12-15 14:21:30.034671, 2.54154
2022-12-15 14:21:30.035680, 2.44868
2022-12-15 14:21:30.068349, 2.32649
2022-12-15 14:21:30.068349, 2.21407
2022-12-15 14:21:30.069330, 2.11143
2022-12-15 14:21:30.102042, 2.01857
2022-12-15 14:21:30.102333, 1.91104
2022-12-15 14:21:30.102333, 1.82306
2022-12-15 14:21:30.136048, 1.74486
2022-12-15 14:21:30.136388, 1.67155
2022-12-15 14:21:30.169659, 1.59335
2022-12-15 14:21:30.169898, 1.55425
2022-12-15 14:21:30.169898, 1.49071
2022-12-15 14:21:30.203246, 1.47605
2022-12-15 14:21:30.203537, 1.46627
2022-12-15 14:21:30.204116, 1.48582
2022-12-15 14:21:30.236859, 1.51515
2022-12-15 14:21:30.237245, 1.56402
2022-12-15 14:21:30.270332, 1.59824
2022-12-15 14:21:30.270571, 1.65200
2022-12-15 14:21:30.271122, 1.65200
2022-12-15 14:21:30.303786, 1.68132
2022-12-15 14:21:30.304107, 1.67155
2022-12-15 14:21:30.304107, 1.65689
2022-12-15 14:21:30.337226, 1.64222
2022-12-15 14:21:30.337989, 1.62756
2022-12-15 14:21:30.369852, 1.60312
2022-12-15 14:21:30.369852, 1.55913
2022-12-15 14:21:30.370859, 1.52492
2022-12-15 14:21:30.403574, 1.50048
2022-12-15 14:21:30.403574, 1.46138
2022-12-15 14:21:30.404572, 1.42717
2022-12-15 14:21:30.437673, 1.40273
2022-12-15 14:21:30.438068, 1.38318
2022-12-15 14:21:30.471279, 1.37341
2022-12-15 14:21:30.471279, 1.32453
2022-12-15 14:21:30.472281, 1.30498
2022-12-15 14:21:30.504851, 1.29521
2022-12-15 14:21:30.504851, 1.28054
2022-12-15 14:21:30.505795, 1.29521
2022-12-15 14:21:30.538329, 1.25122
2022-12-15 14:21:30.538329, 1.24633
2022-12-15 14:21:30.571691, 1.23655
2022-12-15 14:21:30.571691, 1.22189
2022-12-15 14:21:30.572694, 1.22189
2022-12-15 14:21:30.604913, 1.23655
2022-12-15 14:21:30.604913, 1.20234
2022-12-15 14:21:30.605924, 1.18768
2022-12-15 14:21:30.638185, 1.18768
2022-12-15 14:21:30.638942, 1.21212
2022-12-15 14:21:30.672296, 1.27077
2022-12-15 14:21:30.672296, 1.38318
2022-12-15 14:21:30.673298, 1.57869
2022-12-15 14:21:30.705638, 1.80840
2022-12-15 14:21:30.705638, 2.05767
2022-12-15 14:21:30.706642, 2.24828
2022-12-15 14:21:30.739194, 2.39980
2022-12-15 14:21:30.739614, 2.48778
2022-12-15 14:21:30.773132, 2.51221
2022-12-15 14:21:30.773417, 2.45845
2022-12-15 14:21:30.773417, 2.38514
2022-12-15 14:21:30.806099, 2.29227
2022-12-15 14:21:30.807101, 2.19941
2022-12-15 14:21:30.807101, 2.08211
2022-12-15 14:21:30.840245, 1.97947
2022-12-15 14:21:30.840632, 1.92570
2022-12-15 14:21:30.873666, 1.81818
2022-12-15 14:21:30.873903, 1.72043
2022-12-15 14:21:30.874450, 1.64222
2022-12-15 14:21:30.907261, 1.57380
2022-12-15 14:21:30.907551, 1.51515
2022-12-15 14:21:30.908008, 1.45650
2022-12-15 14:21:30.940735, 1.42228
2022-12-15 14:21:30.941120, 1.38318
2022-12-15 14:21:30.974411, 1.38807
2022-12-15 14:21:30.974411, 1.38807
2022-12-15 14:21:30.975413, 1.40762
2022-12-15 14:21:31.007648, 1.43206
2022-12-15 14:21:31.007648, 1.46627
2022-12-15 14:21:31.008655, 1.49071
2022-12-15 14:21:31.041335, 1.50537
2022-12-15 14:21:31.041680, 1.53958
2022-12-15 14:21:31.074941, 1.53470
2022-12-15 14:21:31.075181, 1.51515
2022-12-15 14:21:31.075181, 1.48093
2022-12-15 14:21:31.108413, 1.45650
2022-12-15 14:21:31.108706, 1.43695
2022-12-15 14:21:31.109286, 1.40273
2022-12-15 14:21:31.141928, 1.36852
2022-12-15 14:21:31.142276, 1.33919
2022-12-15 14:21:31.175479, 1.31964
2022-12-15 14:21:31.175745, 1.30987
2022-12-15 14:21:31.176416, 1.24633
2022-12-15 14:21:31.208505, 1.22189
2022-12-15 14:21:31.208505, 1.20234
2022-12-15 14:21:31.209536, 1.17790
2022-12-15 14:21:31.242469, 1.15347
2022-12-15 14:21:31.242469, 1.13391
2022-12-15 14:21:31.276099, 1.13391
2022-12-15 14:21:31.276368, 1.14369
2022-12-15 14:21:31.276889, 1.08993
2022-12-15 14:21:31.309479, 1.08015
2022-12-15 14:21:31.310124, 1.08015
2022-12-15 14:21:31.310124, 1.07038
2022-12-15 14:21:31.342009, 1.05083
2022-12-15 14:21:31.343016, 1.04594
2022-12-15 14:21:31.376632, 1.04105
2022-12-15 14:21:31.376632, 1.04105
2022-12-15 14:21:31.377633, 1.05083
2022-12-15 14:21:31.409832, 1.03128
2022-12-15 14:21:31.409832, 1.06060
2022-12-15 14:21:31.410867, 1.14369
2022-12-15 14:21:31.443586, 1.27077
2022-12-15 14:21:31.444415, 1.45650
2022-12-15 14:21:31.477283, 1.67644
2022-12-15 14:21:31.478015, 1.90127
2022-12-15 14:21:31.478015, 2.01368
2022-12-15 14:21:31.510786, 2.12121
2022-12-15 14:21:31.511559, 2.17497
2022-12-15 14:21:31.511559, 2.17986
2022-12-15 14:21:31.544448, 2.13098
2022-12-15 14:21:31.544913, 2.06256
2022-12-15 14:21:31.578064, 1.97947
2022-12-15 14:21:31.578064, 1.89638
2022-12-15 14:21:31.579068, 1.79374
2022-12-15 14:21:31.611509, 1.71554
2022-12-15 14:21:31.611509, 1.63734
2022-12-15 14:21:31.612559, 1.56891
2022-12-15 14:21:31.644692, 1.48582
2022-12-15 14:21:31.644692, 1.41739
2022-12-15 14:21:31.678236, 1.36363
2022-12-15 14:21:31.679240, 1.32453
2022-12-15 14:21:31.679240, 1.26588
2022-12-15 14:21:31.711913, 1.23167
2022-12-15 14:21:31.711913, 1.21700
2022-12-15 14:21:31.712941, 1.23167
2022-12-15 14:21:31.744878, 1.24144
2022-12-15 14:21:31.744878, 1.29032
2022-12-15 14:21:31.778806, 1.28543
2022-12-15 14:21:31.778806, 1.31476
2022-12-15 14:21:31.779815, 1.32942
2022-12-15 14:21:31.811872, 1.34408
2022-12-15 14:21:31.811872, 1.34897
2022-12-15 14:21:31.812870, 1.35386
2022-12-15 14:21:31.846084, 1.34408
2022-12-15 14:21:31.846429, 1.32453
2022-12-15 14:21:31.878919, 1.30987
2022-12-15 14:21:31.878919, 1.29521
2022-12-15 14:21:31.879883, 1.27077
2022-12-15 14:21:31.912899, 1.23655
2022-12-15 14:21:31.913228, 1.21212
2022-12-15 14:21:31.913228, 1.18768
2022-12-15 14:21:31.946440, 1.15835
2022-12-15 14:21:31.947249, 1.13880
2022-12-15 14:21:31.980124, 1.11925
2022-12-15 14:21:31.980362, 1.12414
2022-12-15 14:21:31.980949, 1.08993
2022-12-15 14:21:32.012350, 1.06060
2022-12-15 14:21:32.013438, 1.04105
2022-12-15 14:21:32.014008, 1.03128
2022-12-15 14:21:32.046868, 1.01661
2022-12-15 14:21:32.047292, 1.00684
2022-12-15 14:21:32.080452, 1.01173
2022-12-15 14:21:32.080773, 1.00195
2022-12-15 14:21:32.081233, 0.99706
2022-12-15 14:21:32.113893, 0.98240
2022-12-15 14:21:32.114271, 0.97262
2022-12-15 14:21:32.114717, 0.96285
2022-12-15 14:21:32.147798, 0.96774
2022-12-15 14:21:32.148141, 0.97262
2022-12-15 14:21:32.181283, 1.02150
2022-12-15 14:21:32.181521, 1.05083
2022-12-15 14:21:32.182067, 1.16324
2022-12-15 14:21:32.214731, 1.29521
2022-12-15 14:21:32.215737, 1.47116
2022-12-15 14:21:32.215737, 1.64222
2022-12-15 14:21:32.248321, 1.79863
2022-12-15 14:21:32.248663, 1.86705
2022-12-15 14:21:32.282034, 1.92570
2022-12-15 14:21:32.282272, 1.95503
2022-12-15 14:21:32.282817, 1.95014
2022-12-15 14:21:32.315399, 1.91104
2022-12-15 14:21:32.315691, 1.84261
2022-12-15 14:21:32.316274, 1.78885
2022-12-15 14:21:32.349117, 1.72043
2022-12-15 14:21:32.349460, 1.64222
2022-12-15 14:21:32.382553, 1.61290
2022-12-15 14:21:32.382794, 1.52492
2022-12-15 14:21:32.383255, 1.46138
2022-12-15 14:21:32.416167, 1.40762
2022-12-15 14:21:32.416506, 1.34897
2022-12-15 14:21:32.416506, 1.30987
2022-12-15 14:21:32.449634, 1.27565
2022-12-15 14:21:32.449983, 1.25122
2022-12-15 14:21:32.483453, 1.25610
2022-12-15 14:21:32.483453, 1.23655
2022-12-15 14:21:32.484456, 1.25610
2022-12-15 14:21:32.516526, 1.26588
2022-12-15 14:21:32.516825, 1.28543
2022-12-15 14:21:32.517409, 1.30498
2022-12-15 14:21:32.550211, 1.32453
2022-12-15 14:21:32.550561, 1.32942
2022-12-15 14:21:32.583770, 1.32942
2022-12-15 14:21:32.584010, 1.34408
2022-12-15 14:21:32.584562, 1.36363
2022-12-15 14:21:32.617411, 1.32453
2022-12-15 14:21:32.617701, 1.30498
2022-12-15 14:21:32.617701, 1.30009
2022-12-15 14:21:32.650809, 1.29521
2022-12-15 14:21:32.651155, 1.29032
2022-12-15 14:21:32.684399, 1.23655
2022-12-15 14:21:32.684640, 1.22678
2022-12-15 14:21:32.684640, 1.23167
2022-12-15 14:21:32.718030, 1.18768
2022-12-15 14:21:32.718322, 1.16813
2022-12-15 14:21:32.718782, 1.16324
2022-12-15 14:21:32.751670, 1.14858
2022-12-15 14:21:32.751670, 1.13880
2022-12-15 14:21:32.784306, 1.12414
2022-12-15 14:21:32.784306, 1.11925
2022-12-15 14:21:32.785338, 1.10459
2022-12-15 14:21:32.817587, 1.09970
2022-12-15 14:21:32.818582, 1.11436
2022-12-15 14:21:32.818582, 1.08504
2022-12-15 14:21:32.852061, 1.08015
2022-12-15 14:21:32.852406, 1.09481
2022-12-15 14:21:32.885779, 1.06549
2022-12-15 14:21:32.886017, 1.06060
2022-12-15 14:21:32.886610, 1.10459
2022-12-15 14:21:32.919289, 1.08993
2022-12-15 14:21:32.919621, 1.13391
2022-12-15 14:21:32.920209, 1.24144
2022-12-15 14:21:32.952640, 1.35386
2022-12-15 14:21:32.952987, 1.49071
2022-12-15 14:21:32.986244, 1.63734
2022-12-15 14:21:32.986527, 1.73509
2022-12-15 14:21:32.987114, 1.83284
2022-12-15 14:21:33.019751, 1.90615
2022-12-15 14:21:33.020072, 1.92082
2022-12-15 14:21:33.020579, 1.92082
2022-12-15 14:21:33.053283, 1.93059
2022-12-15 14:21:33.053283, 1.87683
2022-12-15 14:21:33.086822, 1.82306
2022-12-15 14:21:33.086822, 1.76930
2022-12-15 14:21:33.087825, 1.71554
2022-12-15 14:21:33.119737, 1.70087
2022-12-15 14:21:33.119737, 1.61779
2022-12-15 14:21:33.119737, 1.58357
2022-12-15 14:21:33.153410, 1.52492
2022-12-15 14:21:33.153833, 1.48093
2022-12-15 14:21:33.187370, 1.43206
2022-12-15 14:21:33.187609, 1.40273
2022-12-15 14:21:33.188193, 1.37341
2022-12-15 14:21:33.220868, 1.36363
2022-12-15 14:21:33.221159, 1.35386
2022-12-15 14:21:33.221159, 1.35386
2022-12-15 14:21:33.254359, 1.37341
2022-12-15 14:21:33.254359, 1.37829
2022-12-15 14:21:33.288128, 1.38318
2022-12-15 14:21:33.288369, 1.38807
2022-12-15 14:21:33.288830, 1.41739
2022-12-15 14:21:33.321602, 1.41251
2022-12-15 14:21:33.321894, 1.40273
2022-12-15 14:21:33.322439, 1.39296
2022-12-15 14:21:33.354981, 1.38807
2022-12-15 14:21:33.354981, 1.37829
2022-12-15 14:21:33.388102, 1.36363
2022-12-15 14:21:33.388102, 1.34897
2022-12-15 14:21:33.389131, 1.35386
2022-12-15 14:21:33.421161, 1.32453
2022-12-15 14:21:33.422161, 1.30498
2022-12-15 14:21:33.422161, 1.29521
2022-12-15 14:21:33.455608, 1.27565
2022-12-15 14:21:33.455608, 1.26588
2022-12-15 14:21:33.489219, 1.25122
2022-12-15 14:21:33.489458, 1.25610
2022-12-15 14:21:33.490045, 1.22678
2022-12-15 14:21:33.521672, 1.21700
2022-12-15 14:21:33.522669, 1.21212
2022-12-15 14:21:33.522669, 1.23167
2022-12-15 14:21:33.555484, 1.19257
2022-12-15 14:21:33.555484, 1.18768
2022-12-15 14:21:33.589492, 1.19745
2022-12-15 14:21:33.589731, 1.17790
2022-12-15 14:21:33.590278, 1.17302
2022-12-15 14:21:33.622936, 1.17790
2022-12-15 14:21:33.623554, 1.16324
2022-12-15 14:21:33.623554, 1.15347
2022-12-15 14:21:33.656253, 1.18279
2022-12-15 14:21:33.656253, 1.16324
2022-12-15 14:21:33.689828, 1.19257
2022-12-15 14:21:33.690049, 1.25122
2022-12-15 14:21:33.690510, 1.35386
2022-12-15 14:21:33.723753, 1.48093
2022-12-15 14:21:33.724044, 1.59824
2022-12-15 14:21:33.724044, 1.68621
2022-12-15 14:21:33.757423, 1.79374
2022-12-15 14:21:33.758060, 1.82306
2022-12-15 14:21:33.791087, 1.86705
2022-12-15 14:21:33.791329, 1.86217
2022-12-15 14:21:33.791786, 1.88172
2022-12-15 14:21:33.824754, 1.83773
2022-12-15 14:21:33.825079, 1.81329
2022-12-15 14:21:33.825668, 1.76930
2022-12-15 14:21:33.858134, 1.72531
2022-12-15 14:21:33.858134, 1.72043
2022-12-15 14:21:33.891552, 1.65689
2022-12-15 14:21:33.891552, 1.63245
2022-12-15 14:21:33.892553, 1.56891
2022-12-15 14:21:33.924220, 1.53470
2022-12-15 14:21:33.924220, 1.51026
2022-12-15 14:21:33.925226, 1.46138
2022-12-15 14:21:33.957863, 1.43695
2022-12-15 14:21:33.957863, 1.42228
2022-12-15 14:21:33.992100, 1.41739
2022-12-15 14:21:33.992367, 1.41739
2022-12-15 14:21:33.993025, 1.40762
2022-12-15 14:21:34.025604, 1.42228
2022-12-15 14:21:34.025923, 1.43695
2022-12-15 14:21:34.026568, 1.45161
2022-12-15 14:21:34.059074, 1.44183
2022-12-15 14:21:34.059546, 1.44672
2022-12-15 14:21:34.092741, 1.48093
2022-12-15 14:21:34.092980, 1.44672
2022-12-15 14:21:34.092980, 1.43206
2022-12-15 14:21:34.126295, 1.42228
2022-12-15 14:21:34.126587, 1.42717
2022-12-15 14:21:34.127046, 1.40762
2022-12-15 14:21:34.159539, 1.38807
2022-12-15 14:21:34.160115, 1.38318
2022-12-15 14:21:34.193303, 1.36852
2022-12-15 14:21:34.193303, 1.34897
2022-12-15 14:21:34.194307, 1.32942
2022-12-15 14:21:34.226436, 1.34897
2022-12-15 14:21:34.226436, 1.30987
2022-12-15 14:21:34.227464, 1.29521
2022-12-15 14:21:34.260201, 1.28543
2022-12-15 14:21:34.260928, 1.27565
2022-12-15 14:21:34.293888, 1.27077
2022-12-15 14:21:34.293888, 1.26588
2022-12-15 14:21:34.294889, 1.24633
2022-12-15 14:21:34.327496, 1.24144
2022-12-15 14:21:34.327496, 1.25122
2022-12-15 14:21:34.328497, 1.24144
2022-12-15 14:21:34.360506, 1.23655
2022-12-15 14:21:34.360506, 1.24144
2022-12-15 14:21:34.394532, 1.24144
2022-12-15 14:21:34.394532, 1.24144
2022-12-15 14:21:34.395502, 1.23167
2022-12-15 14:21:34.428186, 1.23167
2022-12-15 14:21:34.428186, 1.23655
2022-12-15 14:21:34.429188, 1.24144
2022-12-15 14:21:34.460947, 1.24144
2022-12-15 14:21:34.460947, 1.27565
2022-12-15 14:21:34.495193, 1.37829
2022-12-15 14:21:34.495646, 1.44672
2022-12-15 14:21:34.495646, 1.54936
2022-12-15 14:21:34.528017, 1.65200
2022-12-15 14:21:34.529024, 1.74486
2022-12-15 14:21:34.529024, 1.81818
2022-12-15 14:21:34.561771, 1.86217
2022-12-15 14:21:34.561771, 1.88172
2022-12-15 14:21:34.595481, 1.89638
2022-12-15 14:21:34.595481, 1.88660
2022-12-15 14:21:34.596488, 1.87194
2022-12-15 14:21:34.629034, 1.82795
2022-12-15 14:21:34.629034, 1.79374
2022-12-15 14:21:34.630018, 1.76930
2022-12-15 14:21:34.662086, 1.72043
2022-12-15 14:21:34.662086, 1.69110
2022-12-15 14:21:34.696186, 1.65689
2022-12-15 14:21:34.696574, 1.63245
2022-12-15 14:21:34.697163, 1.58846
2022-12-15 14:21:34.729362, 1.55913
2022-12-15 14:21:34.729362, 1.53470
2022-12-15 14:21:34.730371, 1.52003
2022-12-15 14:21:34.762758, 1.50048
2022-12-15 14:21:34.762758, 1.50048
2022-12-15 14:21:34.796579, 1.50048
2022-12-15 14:21:34.796949, 1.51515
2022-12-15 14:21:34.797455, 1.52981
2022-12-15 14:21:34.829911, 1.53470
2022-12-15 14:21:34.830296, 1.54936
2022-12-15 14:21:34.830296, 1.58357
2022-12-15 14:21:34.863766, 1.55913
2022-12-15 14:21:34.864568, 1.55425
2022-12-15 14:21:34.896247, 1.55913
2022-12-15 14:21:34.897248, 1.57869
2022-12-15 14:21:34.897248, 1.54447
2022-12-15 14:21:34.929678, 1.52981
2022-12-15 14:21:34.930714, 1.51515
2022-12-15 14:21:34.931254, 1.51515
2022-12-15 14:21:34.963345, 1.49560
2022-12-15 14:21:34.964348, 1.47605
2022-12-15 14:21:34.997366, 1.46627
2022-12-15 14:21:34.997726, 1.46627
2022-12-15 14:21:34.998205, 1.44672
2022-12-15 14:21:35.031220, 1.42228
2022-12-15 14:21:35.031566, 1.41251
2022-12-15 14:21:35.032020, 1.41739
2022-12-15 14:21:35.064568, 1.43206
2022-12-15 14:21:35.064969, 1.38318
2022-12-15 14:21:35.098512, 1.37341
2022-12-15 14:21:35.098789, 1.37341
2022-12-15 14:21:35.099260, 1.36852
2022-12-15 14:21:35.132020, 1.35386
2022-12-15 14:21:35.132314, 1.34897
2022-12-15 14:21:35.132314, 1.34897
2022-12-15 14:21:35.165605, 1.35386
2022-12-15 14:21:35.165993, 1.33431
2022-12-15 14:21:35.199004, 1.32453
2022-12-15 14:21:35.199004, 1.32942
2022-12-15 14:21:35.200005, 1.33431
2022-12-15 14:21:35.232662, 1.32942
2022-12-15 14:21:35.232958, 1.35386
2022-12-15 14:21:35.233528, 1.40762
2022-12-15 14:21:35.265452, 1.51515
2022-12-15 14:21:35.266448, 1.61290
2022-12-15 14:21:35.299731, 1.73020
2022-12-15 14:21:35.300027, 1.84750
2022-12-15 14:21:35.300027, 1.93548
2022-12-15 14:21:35.333189, 1.99413
2022-12-15 14:21:35.333189, 2.03812
2022-12-15 14:21:35.334208, 2.07233
2022-12-15 14:21:35.366814, 2.08699
2022-12-15 14:21:35.366814, 2.08211
2022-12-15 14:21:35.400242, 2.04301
2022-12-15 14:21:35.400242, 2.02346
2022-12-15 14:21:35.401244, 1.99902
2022-12-15 14:21:35.433520, 1.96969
2022-12-15 14:21:35.433520, 1.91104
2022-12-15 14:21:35.434472, 1.91104
2022-12-15 14:21:35.466785, 1.85239
2022-12-15 14:21:35.466785, 1.80351
2022-12-15 14:21:35.500213, 1.75953
2022-12-15 14:21:35.500862, 1.75953
2022-12-15 14:21:35.500862, 1.71554
2022-12-15 14:21:35.534414, 1.68132
2022-12-15 14:21:35.534706, 1.66177
2022-12-15 14:21:35.535294, 1.66177
2022-12-15 14:21:35.567904, 1.69110
2022-12-15 14:21:35.568248, 1.68621
2022-12-15 14:21:35.601542, 1.68621
2022-12-15 14:21:35.601782, 1.70087
2022-12-15 14:21:35.602369, 1.72043
2022-12-15 14:21:35.635099, 1.72043
2022-12-15 14:21:35.635390, 1.72531
2022-12-15 14:21:35.635974, 1.72043
2022-12-15 14:21:35.668544, 1.72531
2022-12-15 14:21:35.668891, 1.71554
2022-12-15 14:21:35.702227, 1.69599
2022-12-15 14:21:35.702492, 1.68621
2022-12-15 14:21:35.703142, 1.67644
2022-12-15 14:21:35.735558, 1.65689
2022-12-15 14:21:35.735853, 1.63734
2022-12-15 14:21:35.735853, 1.62756
2022-12-15 14:21:35.769162, 1.60801
2022-12-15 14:21:35.769558, 1.59335
2022-12-15 14:21:35.802262, 1.56891
2022-12-15 14:21:35.802262, 1.55425
2022-12-15 14:21:35.802262, 1.54936
2022-12-15 14:21:35.836223, 1.53958
2022-12-15 14:21:35.836522, 1.53958
2022-12-15 14:21:35.837065, 1.50048
2022-12-15 14:21:35.869812, 1.49560
2022-12-15 14:21:35.870198, 1.48093
2022-12-15 14:21:35.903484, 1.46627
2022-12-15 14:21:35.903764, 1.45650
2022-12-15 14:21:35.903764, 1.45650
2022-12-15 14:21:35.936860, 1.45650
2022-12-15 14:21:35.937153, 1.43695
2022-12-15 14:21:35.937702, 1.42717
2022-12-15 14:21:35.970245, 1.42228
2022-12-15 14:21:35.971089, 1.41251
2022-12-15 14:21:36.004115, 1.40273
2022-12-15 14:21:36.004383, 1.42228
2022-12-15 14:21:36.004891, 1.44672
2022-12-15 14:21:36.037315, 1.52981
2022-12-15 14:21:36.038322, 1.63734
2022-12-15 14:21:36.038322, 1.76930
2022-12-15 14:21:36.069741, 1.91104
2022-12-15 14:21:36.070748, 2.05767
2022-12-15 14:21:36.104404, 2.13587
2022-12-15 14:21:36.104645, 2.21896
2022-12-15 14:21:36.105240, 2.28738
2022-12-15 14:21:36.138055, 2.33626
2022-12-15 14:21:36.138347, 2.33137
2022-12-15 14:21:36.138347, 2.33137
2022-12-15 14:21:36.170844, 2.29716
2022-12-15 14:21:36.171875, 2.26783
2022-12-15 14:21:36.205174, 2.22385
2022-12-15 14:21:36.205415, 2.17008
2022-12-15 14:21:36.205873, 2.13098
2022-12-15 14:21:36.238779, 2.09188
2022-12-15 14:21:36.239072, 2.03323
2022-12-15 14:21:36.239660, 1.98435
2022-12-15 14:21:36.272242, 1.93548
2022-12-15 14:21:36.272619, 1.89638
2022-12-15 14:21:36.305687, 1.85239
2022-12-15 14:21:36.305687, 1.81818
2022-12-15 14:21:36.306696, 1.79863
2022-12-15 14:21:36.338317, 1.79863
2022-12-15 14:21:36.339327, 1.79374
2022-12-15 14:21:36.339327, 1.79863
2022-12-15 14:21:36.371622, 1.82795
2022-12-15 14:21:36.372635, 1.82306
2022-12-15 14:21:36.406325, 1.82795
2022-12-15 14:21:36.406563, 1.82795
2022-12-15 14:21:36.407111, 1.82795
2022-12-15 14:21:36.439954, 1.83773
2022-12-15 14:21:36.440245, 1.82795
2022-12-15 14:21:36.440790, 1.84261
2022-12-15 14:21:36.473561, 1.79863
2022-12-15 14:21:36.473905, 1.78885
2022-12-15 14:21:36.507092, 1.76930
2022-12-15 14:21:36.507332, 1.73998
2022-12-15 14:21:36.507796, 1.72043
2022-12-15 14:21:36.540713, 1.70576
2022-12-15 14:21:36.541049, 1.69599
2022-12-15 14:21:36.541631, 1.64222
2022-12-15 14:21:36.574036, 1.62267
2022-12-15 14:21:36.574426, 1.60801
2022-12-15 14:21:36.607486, 1.58846
2022-12-15 14:21:36.608126, 1.55425
2022-12-15 14:21:36.609146, 1.54447
2022-12-15 14:21:36.640922, 1.55913
2022-12-15 14:21:36.640922, 1.51026
2022-12-15 14:21:36.640922, 1.48582
2022-12-15 14:21:36.674475, 1.47116
2022-12-15 14:21:36.674845, 1.46138
2022-12-15 14:21:36.708101, 1.45161
2022-12-15 14:21:36.708369, 1.43206
2022-12-15 14:21:36.708984, 1.42228
2022-12-15 14:21:36.741614, 1.40762
2022-12-15 14:21:36.741904, 1.40762
2022-12-15 14:21:36.742489, 1.38807
2022-12-15 14:21:36.775203, 1.40273
2022-12-15 14:21:36.775548, 1.42717
2022-12-15 14:21:36.808771, 1.45161
2022-12-15 14:21:36.809010, 1.53470
2022-12-15 14:21:36.809479, 1.66666
2022-12-15 14:21:36.841351, 1.82306
2022-12-15 14:21:36.842086, 1.99902
2022-12-15 14:21:36.842693, 2.09677
2022-12-15 14:21:36.875722, 2.19941
2022-12-15 14:21:36.875722, 2.28250
2022-12-15 14:21:36.908506, 2.33626
2022-12-15 14:21:36.908506, 2.34604
2022-12-15 14:21:36.909517, 2.33626
2022-12-15 14:21:36.941679, 2.30694
2022-12-15 14:21:36.942680, 2.27761
2022-12-15 14:21:36.943112, 2.21407
2022-12-15 14:21:36.975946, 2.14565
2022-12-15 14:21:36.976272, 2.09188
2022-12-15 14:21:37.009956, 2.04301
2022-12-15 14:21:37.010196, 1.97947
2022-12-15 14:21:37.010792, 1.91593
2022-12-15 14:21:37.043523, 1.86217
2022-12-15 14:21:37.043815, 1.81818
2022-12-15 14:21:37.044357, 1.77419
2022-12-15 14:21:37.077109, 1.71554
2022-12-15 14:21:37.077454, 1.68621
2022-12-15 14:21:37.110712, 1.67644
2022-12-15 14:21:37.110950, 1.67155
2022-12-15 14:21:37.111411, 1.67155
2022-12-15 14:21:37.144195, 1.70087
2022-12-15 14:21:37.144195, 1.69599
2022-12-15 14:21:37.145230, 1.70087
2022-12-15 14:21:37.177499, 1.70576
2022-12-15 14:21:37.178506, 1.71065
2022-12-15 14:21:37.210606, 1.73020
2022-12-15 14:21:37.210606, 1.73998
2022-12-15 14:21:37.211604, 1.70576
2022-12-15 14:21:37.244577, 1.70087
2022-12-15 14:21:37.244577, 1.69599
2022-12-15 14:21:37.245578, 1.68132
2022-12-15 14:21:37.278185, 1.65689
2022-12-15 14:21:37.278185, 1.63245
2022-12-15 14:21:37.311544, 1.62267
2022-12-15 14:21:37.311783, 1.60801
2022-12-15 14:21:37.311783, 1.57380
2022-12-15 14:21:37.345286, 1.54936
2022-12-15 14:21:37.345610, 1.53470
2022-12-15 14:21:37.346612, 1.51515
2022-12-15 14:21:37.378713, 1.49071
2022-12-15 14:21:37.379226, 1.47605
2022-12-15 14:21:37.412270, 1.46627
2022-12-15 14:21:37.412866, 1.46627
2022-12-15 14:21:37.412866, 1.42228
2022-12-15 14:21:37.445763, 1.41251
2022-12-15 14:21:37.446794, 1.39784
2022-12-15 14:21:37.446794, 1.39784
2022-12-15 14:21:37.478652, 1.40762
2022-12-15 14:21:37.478652, 1.36363
2022-12-15 14:21:37.512774, 1.35874
2022-12-15 14:21:37.513089, 1.35386
2022-12-15 14:21:37.513089, 1.33919
2022-12-15 14:21:37.546543, 1.33431
2022-12-15 14:21:37.546794, 1.35874
2022-12-15 14:21:37.547796, 1.40762
2022-12-15 14:21:37.579583, 1.47116
2022-12-15 14:21:37.579583, 1.57380
2022-12-15 14:21:37.613358, 1.72531
2022-12-15 14:21:37.613709, 1.89149
2022-12-15 14:21:37.614381, 2.02834
2022-12-15 14:21:37.646544, 2.14076
2022-12-15 14:21:37.646945, 2.26783
2022-12-15 14:21:37.646945, 2.32649
2022-12-15 14:21:37.680055, 2.32160
2022-12-15 14:21:37.680428, 2.32160
2022-12-15 14:21:37.713373, 2.29716
2022-12-15 14:21:37.713373, 2.27761
2022-12-15 14:21:37.714408, 2.19452
2022-12-15 14:21:37.746642, 2.13098
2022-12-15 14:21:37.747648, 2.07233
2022-12-15 14:21:37.747648, 2.01857
2022-12-15 14:21:37.780407, 1.94525
2022-12-15 14:21:37.780407, 1.87683
2022-12-15 14:21:37.814331, 1.84261
2022-12-15 14:21:37.815136, 1.76441
2022-12-15 14:21:37.815136, 1.70576
2022-12-15 14:21:37.847663, 1.65689
2022-12-15 14:21:37.848668, 1.63245
2022-12-15 14:21:37.848668, 1.61779
2022-12-15 14:21:37.881038, 1.61290
2022-12-15 14:21:37.882044, 1.63245
2022-12-15 14:21:37.914327, 1.61779
2022-12-15 14:21:37.915331, 1.63734
2022-12-15 14:21:37.915331, 1.65200
2022-12-15 14:21:37.947787, 1.66177
2022-12-15 14:21:37.948788, 1.67644
2022-12-15 14:21:37.948788, 1.70576
2022-12-15 14:21:37.982191, 1.72043
2022-12-15 14:21:37.982535, 1.68621
2022-12-15 14:21:38.015666, 1.68621
2022-12-15 14:21:38.015955, 1.68132
2022-12-15 14:21:38.016417, 1.67155
2022-12-15 14:21:38.049269, 1.64222
2022-12-15 14:21:38.051268, 1.63245
2022-12-15 14:21:38.051268, 1.63245
2022-12-15 14:21:38.082655, 1.60312
2022-12-15 14:21:38.082655, 1.56402
2022-12-15 14:21:38.115905, 1.54447
2022-12-15 14:21:38.115905, 1.52492
2022-12-15 14:21:38.116903, 1.52003
2022-12-15 14:21:38.149496, 1.51515
2022-12-15 14:21:38.149876, 1.47116
2022-12-15 14:21:38.150401, 1.46138
2022-12-15 14:21:38.182999, 1.44183
2022-12-15 14:21:38.183321, 1.42228
2022-12-15 14:21:38.216968, 1.41739
2022-12-15 14:21:38.217207, 1.41251
2022-12-15 14:21:38.217799, 1.40762
2022-12-15 14:21:38.250486, 1.38807
2022-12-15 14:21:38.250779, 1.39296
2022-12-15 14:21:38.251364, 1.36363
2022-12-15 14:21:38.284058, 1.35874
2022-12-15 14:21:38.284403, 1.34897
2022-12-15 14:21:38.317559, 1.36852
2022-12-15 14:21:38.317800, 1.43695
2022-12-15 14:21:38.318393, 1.58846
2022-12-15 14:21:38.351066, 1.70087
2022-12-15 14:21:38.351358, 1.87194
2022-12-15 14:21:38.351823, 2.04789
2022-12-15 14:21:38.384603, 2.19941
2022-12-15 14:21:38.384958, 2.30694
2022-12-15 14:21:38.418136, 2.38025
2022-12-15 14:21:38.418136, 2.45356
2022-12-15 14:21:38.419137, 2.45845
2022-12-15 14:21:38.451556, 2.41935
2022-12-15 14:21:38.452593, 2.39491
2022-12-15 14:21:38.452970, 2.30694
2022-12-15 14:21:38.484773, 2.25317
2022-12-15 14:21:38.485181, 2.17497
2022-12-15 14:21:38.518736, 2.09677
2022-12-15 14:21:38.519016, 2.03323
2022-12-15 14:21:38.519635, 1.96969
2022-12-15 14:21:38.552383, 1.90615
2022-12-15 14:21:38.552676, 1.82795
2022-12-15 14:21:38.552676, 1.77419
2022-12-15 14:21:38.585934, 1.72531
2022-12-15 14:21:38.586280, 1.68621
2022-12-15 14:21:38.619455, 1.65689
2022-12-15 14:21:38.619693, 1.63245
2022-12-15 14:21:38.620244, 1.63245
2022-12-15 14:21:38.652876, 1.63734
2022-12-15 14:21:38.653167, 1.64222
2022-12-15 14:21:38.653626, 1.65689
2022-12-15 14:21:38.686412, 1.68621
2022-12-15 14:21:38.686763, 1.70087
2022-12-15 14:21:38.719858, 1.73020
2022-12-15 14:21:38.719858, 1.71065
2022-12-15 14:21:38.720860, 1.72043
2022-12-15 14:21:38.752467, 1.71554
2022-12-15 14:21:38.753526, 1.69599
2022-12-15 14:21:38.753526, 1.69110
2022-12-15 14:21:38.786941, 1.68621
2022-12-15 14:21:38.787314, 1.66666
2022-12-15 14:21:38.820502, 1.65200
2022-12-15 14:21:38.820741, 1.63734
2022-12-15 14:21:38.821293, 1.59824
2022-12-15 14:21:38.854212, 1.56891
2022-12-15 14:21:38.854502, 1.53958
2022-12-15 14:21:38.855049, 1.52003
2022-12-15 14:21:38.887657, 1.50048
2022-12-15 14:21:38.888004, 1.48582
2022-12-15 14:21:38.921182, 1.46138
2022-12-15 14:21:38.921461, 1.45650
2022-12-15 14:21:38.922053, 1.44672
2022-12-15 14:21:38.954838, 1.42228
2022-12-15 14:21:38.955156, 1.39784
2022-12-15 14:21:38.955667, 1.38807
2022-12-15 14:21:38.988421, 1.37829
2022-12-15 14:21:38.988421, 1.36852
2022-12-15 14:21:39.021313, 1.35386
2022-12-15 14:21:39.021529, 1.35386
2022-12-15 14:21:39.021529, 1.33431
2022-12-15 14:21:39.055181, 1.34408
2022-12-15 14:21:39.055473, 1.37829
2022-12-15 14:21:39.056097, 1.47116
2022-12-15 14:21:39.088568, 1.62267
2022-12-15 14:21:39.088568, 1.81329
2022-12-15 14:21:39.122410, 2.00391
2022-12-15 14:21:39.122695, 2.15542
2022-12-15 14:21:39.123345, 2.29716
2022-12-15 14:21:39.155946, 2.40957
2022-12-15 14:21:39.156237, 2.45356
2022-12-15 14:21:39.156706, 2.46823
2022-12-15 14:21:39.189452, 2.45845
2022-12-15 14:21:39.189797, 2.42424
2022-12-15 14:21:39.223165, 2.35092
2022-12-15 14:21:39.223429, 2.27761
2022-12-15 14:21:39.223933, 2.19941
2022-12-15 14:21:39.256566, 2.13587
2022-12-15 14:21:39.256566, 2.05278
2022-12-15 14:21:39.257595, 1.96969
2022-12-15 14:21:39.289099, 1.90127
2022-12-15 14:21:39.290085, 1.83773
2022-12-15 14:21:39.322386, 1.76930
2022-12-15 14:21:39.323383, 1.71065
2022-12-15 14:21:39.323383, 1.67644
2022-12-15 14:21:39.357248, 1.63245
2022-12-15 14:21:39.357541, 1.59824
2022-12-15 14:21:39.358119, 1.58357
2022-12-15 14:21:39.390736, 1.58846
2022-12-15 14:21:39.391083, 1.60801
2022-12-15 14:21:39.424390, 1.62267
2022-12-15 14:21:39.424672, 1.63245
2022-12-15 14:21:39.425131, 1.64711
2022-12-15 14:21:39.457697, 1.67155
2022-12-15 14:21:39.457990, 1.68132
2022-12-15 14:21:39.458537, 1.68132
2022-12-15 14:21:39.491168, 1.68621
2022-12-15 14:21:39.491635, 1.68132
2022-12-15 14:21:39.523605, 1.67155
2022-12-15 14:21:39.524613, 1.64711
2022-12-15 14:21:39.524613, 1.63245
2022-12-15 14:21:39.556917, 1.62756
2022-12-15 14:21:39.557919, 1.62267
2022-12-15 14:21:39.558532, 1.56402
2022-12-15 14:21:39.591451, 1.53958
2022-12-15 14:21:39.591845, 1.52003
2022-12-15 14:21:39.625433, 1.50048
2022-12-15 14:21:39.625718, 1.46627
2022-12-15 14:21:39.626262, 1.44672
2022-12-15 14:21:39.658827, 1.44672
2022-12-15 14:21:39.659117, 1.45161
2022-12-15 14:21:39.659703, 1.38807
2022-12-15 14:21:39.692631, 1.37829
2022-12-15 14:21:39.693016, 1.36852
2022-12-15 14:21:39.726113, 1.35874
2022-12-15 14:21:39.726350, 1.33919
2022-12-15 14:21:39.726940, 1.32942
2022-12-15 14:21:39.759431, 1.32453
2022-12-15 14:21:39.759431, 1.31964
2022-12-15 14:21:39.760391, 1.30987
2022-12-15 14:21:39.792357, 1.30009
2022-12-15 14:21:39.793382, 1.31964
2022-12-15 14:21:39.825989, 1.38807
2022-12-15 14:21:39.825989, 1.50048
2022-12-15 14:21:39.825989, 1.68621
2022-12-15 14:21:39.859072, 1.85728
2022-12-15 14:21:39.860072, 2.05767
2022-12-15 14:21:39.860072, 2.20430
2022-12-15 14:21:39.893630, 2.33137
2022-12-15 14:21:39.894008, 2.41935
2022-12-15 14:21:39.927137, 2.47800
2022-12-15 14:21:39.927375, 2.47800
2022-12-15 14:21:39.927968, 2.41446
2022-12-15 14:21:39.960714, 2.35092
2022-12-15 14:21:39.961007, 2.28738
2022-12-15 14:21:39.961465, 2.19452
2022-12-15 14:21:39.994283, 2.13098
2022-12-15 14:21:39.994659, 2.02834
2022-12-15 14:21:40.027660, 1.96480
2022-12-15 14:21:40.027660, 1.87683
2022-12-15 14:21:40.028662, 1.80351
2022-12-15 14:21:40.061124, 1.72531
2022-12-15 14:21:40.061124, 1.66666
2022-12-15 14:21:40.062132, 1.60801
2022-12-15 14:21:40.094010, 1.56402
2022-12-15 14:21:40.094010, 1.54447
2022-12-15 14:21:40.128313, 1.54447
2022-12-15 14:21:40.128581, 1.52981
2022-12-15 14:21:40.129583, 1.53958
2022-12-15 14:21:40.161716, 1.56402
2022-12-15 14:21:40.162724, 1.59335
2022-12-15 14:21:40.162724, 1.61290
2022-12-15 14:21:40.195309, 1.65200
2022-12-15 14:21:40.195309, 1.64222
2022-12-15 14:21:40.228816, 1.66177
2022-12-15 14:21:40.228816, 1.66666
2022-12-15 14:21:40.229818, 1.65689
2022-12-15 14:21:40.262210, 1.65200
2022-12-15 14:21:40.262210, 1.65200
2022-12-15 14:21:40.263211, 1.63734
2022-12-15 14:21:40.295897, 1.63734
2022-12-15 14:21:40.295897, 1.58357
2022-12-15 14:21:40.329156, 1.56891
2022-12-15 14:21:40.329913, 1.54447
2022-12-15 14:21:40.329913, 1.51515
2022-12-15 14:21:40.362285, 1.50048
2022-12-15 14:21:40.362285, 1.50537
2022-12-15 14:21:40.363322, 1.46627
2022-12-15 14:21:40.396276, 1.43695
2022-12-15 14:21:40.396276, 1.42228
2022-12-15 14:21:40.429144, 1.41739
2022-12-15 14:21:40.430087, 1.41251
2022-12-15 14:21:40.430087, 1.39784
2022-12-15 14:21:40.463592, 1.39296
2022-12-15 14:21:40.463592, 1.39784
2022-12-15 14:21:40.464596, 1.37341
2022-12-15 14:21:40.496851, 1.35386
2022-12-15 14:21:40.497310, 1.34897
2022-12-15 14:21:40.530460, 1.34408
2022-12-15 14:21:40.530752, 1.35386
2022-12-15 14:21:40.530752, 1.40273
2022-12-15 14:21:40.564066, 1.52981
2022-12-15 14:21:40.564066, 1.66177
2022-12-15 14:21:40.565036, 1.86217
2022-12-15 14:21:40.597259, 2.04789
2022-12-15 14:21:40.597636, 2.22385
2022-12-15 14:21:40.631007, 2.37536
2022-12-15 14:21:40.631345, 2.47800
2022-12-15 14:21:40.632346, 2.51710
2022-12-15 14:21:40.664174, 2.51710
2022-12-15 14:21:40.664174, 2.48289
2022-12-15 14:21:40.665174, 2.43890
2022-12-15 14:21:40.697525, 2.34604
2022-12-15 14:21:40.697525, 2.25806
2022-12-15 14:21:40.731231, 2.17497
2022-12-15 14:21:40.731511, 2.12609
2022-12-15 14:21:40.732512, 2.00391
2022-12-15 14:21:40.765222, 1.91593
2022-12-15 14:21:40.765222, 1.84261
2022-12-15 14:21:40.766224, 1.77419
2022-12-15 14:21:40.798775, 1.69599
2022-12-15 14:21:40.799777, 1.62756
2022-12-15 14:21:40.832101, 1.58357
2022-12-15 14:21:40.832101, 1.56402
2022-12-15 14:21:40.833108, 1.53958
2022-12-15 14:21:40.865505, 1.53958
2022-12-15 14:21:40.865889, 1.56402
2022-12-15 14:21:40.866474, 1.61290
2022-12-15 14:21:40.898970, 1.60801
2022-12-15 14:21:40.899317, 1.62756
2022-12-15 14:21:40.932972, 1.65689
2022-12-15 14:21:40.933211, 1.68132
2022-12-15 14:21:40.933756, 1.69110
2022-12-15 14:21:40.966439, 1.69599
2022-12-15 14:21:40.966732, 1.71065
2022-12-15 14:21:40.967191, 1.69110
2022-12-15 14:21:40.999534, 1.68132
2022-12-15 14:21:40.999534, 1.65200
2022-12-15 14:21:41.033376, 1.63245
2022-12-15 14:21:41.034206, 1.61290
2022-12-15 14:21:41.034206, 1.58846
2022-12-15 14:21:41.067002, 1.55913
2022-12-15 14:21:41.067292, 1.53470
2022-12-15 14:21:41.067885, 1.51515
2022-12-15 14:21:41.100252, 1.49560
2022-12-15 14:21:41.100675, 1.46138
2022-12-15 14:21:41.133686, 1.44672
2022-12-15 14:21:41.134007, 1.43206
2022-12-15 14:21:41.134464, 1.42228
2022-12-15 14:21:41.167216, 1.41251
2022-12-15 14:21:41.167590, 1.38318
2022-12-15 14:21:41.167590, 1.37341
2022-12-15 14:21:41.200890, 1.36363
2022-12-15 14:21:41.201382, 1.33919
2022-12-15 14:21:41.234722, 1.32942
2022-12-15 14:21:41.234962, 1.32453
2022-12-15 14:21:41.235421, 1.32942
2022-12-15 14:21:41.268428, 1.36363
2022-12-15 14:21:41.268760, 1.40762
2022-12-15 14:21:41.269312, 1.54447
2022-12-15 14:21:41.301866, 1.73509
2022-12-15 14:21:41.301866, 1.94037
2022-12-15 14:21:41.334604, 2.14565
2022-12-15 14:21:41.335612, 2.32649
2022-12-15 14:21:41.335612, 2.48778
2022-12-15 14:21:41.368049, 2.52199
2022-12-15 14:21:41.369047, 2.54154
2022-12-15 14:21:41.369047, 2.53176
2022-12-15 14:21:41.402552, 2.50733
2022-12-15 14:21:41.402945, 2.43890
2022-12-15 14:21:41.436002, 2.31671
2022-12-15 14:21:41.436242, 2.23362
2022-12-15 14:21:41.436831, 2.15542
2022-12-15 14:21:41.469462, 2.06256
2022-12-15 14:21:41.469761, 1.97458
2022-12-15 14:21:41.469761, 1.89638
2022-12-15 14:21:41.502986, 1.83284
2022-12-15 14:21:41.503333, 1.76441
2022-12-15 14:21:41.536538, 1.67644
2022-12-15 14:21:41.536822, 1.62756
2022-12-15 14:21:41.537469, 1.59335
2022-12-15 14:21:41.569972, 1.56402
2022-12-15 14:21:41.569972, 1.54447
2022-12-15 14:21:41.570974, 1.56402
2022-12-15 14:21:41.602577, 1.61779
2022-12-15 14:21:41.603692, 1.63734
2022-12-15 14:21:41.637092, 1.62267
2022-12-15 14:21:41.637331, 1.65200
2022-12-15 14:21:41.637918, 1.68621
2022-12-15 14:21:41.670704, 1.70087
2022-12-15 14:21:41.670998, 1.72531
2022-12-15 14:21:41.670998, 1.70576
2022-12-15 14:21:41.704333, 1.70576
2022-12-15 14:21:41.704680, 1.69599
2022-12-15 14:21:41.737744, 1.66666
2022-12-15 14:21:41.737984, 1.65200
2022-12-15 14:21:41.738452, 1.63734
2022-12-15 14:21:41.771316, 1.62267
2022-12-15 14:21:41.771611, 1.59335
2022-12-15 14:21:41.772208, 1.54447
2022-12-15 14:21:41.804858, 1.52492
2022-12-15 14:21:41.805228, 1.50537
2022-12-15 14:21:41.838557, 1.47605
2022-12-15 14:21:41.838557, 1.48093
2022-12-15 14:21:41.839562, 1.46627
2022-12-15 14:21:41.871266, 1.43206
2022-12-15 14:21:41.871266, 1.39296
2022-12-15 14:21:41.872268, 1.38318
2022-12-15 14:21:41.905436, 1.37341
2022-12-15 14:21:41.905780, 1.36363
2022-12-15 14:21:41.939092, 1.34408
2022-12-15 14:21:41.939381, 1.32942
2022-12-15 14:21:41.939928, 1.32942
2022-12-15 14:21:41.972613, 1.32942
2022-12-15 14:21:41.972907, 1.33919
2022-12-15 14:21:41.973453, 1.31964
2022-12-15 14:21:42.006071, 1.36852
2022-12-15 14:21:42.006418, 1.47605
2022-12-15 14:21:42.039580, 1.63734
2022-12-15 14:21:42.039817, 1.83773
2022-12-15 14:21:42.040410, 2.05767
2022-12-15 14:21:42.073315, 2.25806
2022-12-15 14:21:42.073636, 2.39491
2022-12-15 14:21:42.074139, 2.49266
2022-12-15 14:21:42.106680, 2.54154
2022-12-15 14:21:42.107066, 2.54643
2022-12-15 14:21:42.140239, 2.50244
2022-12-15 14:21:42.140631, 2.44379
2022-12-15 14:21:42.141634, 2.33137
2022-12-15 14:21:42.172419, 2.25317
2022-12-15 14:21:42.173430, 2.16520
2022-12-15 14:21:42.173430, 2.05767
2022-12-15 14:21:42.206573, 1.99902
2022-12-15 14:21:42.207218, 1.90615
2022-12-15 14:21:42.240719, 1.80840
2022-12-15 14:21:42.240956, 1.73020
2022-12-15 14:21:42.241545, 1.66177
2022-12-15 14:21:42.274453, 1.60801
2022-12-15 14:21:42.274786, 1.56402
2022-12-15 14:21:42.275374, 1.53958
2022-12-15 14:21:42.307908, 1.51515
2022-12-15 14:21:42.308294, 1.52492
2022-12-15 14:21:42.341494, 1.53470
2022-12-15 14:21:42.341736, 1.55425
2022-12-15 14:21:42.342286, 1.57869
2022-12-15 14:21:42.374821, 1.61779
2022-12-15 14:21:42.374821, 1.64222
2022-12-15 14:21:42.375823, 1.66177
2022-12-15 14:21:42.408055, 1.69599
2022-12-15 14:21:42.409082, 1.67644
2022-12-15 14:21:42.441383, 1.67155
2022-12-15 14:21:42.441383, 1.65689
2022-12-15 14:21:42.442380, 1.64222
2022-12-15 14:21:42.475445, 1.62267
2022-12-15 14:21:42.475738, 1.60312
2022-12-15 14:21:42.476331, 1.57380
2022-12-15 14:21:42.509080, 1.53958
2022-12-15 14:21:42.509430, 1.52492
2022-12-15 14:21:42.542651, 1.50048
2022-12-15 14:21:42.542894, 1.47116
2022-12-15 14:21:42.543444, 1.44183
2022-12-15 14:21:42.576295, 1.42228
2022-12-15 14:21:42.576631, 1.40762
2022-12-15 14:21:42.577094, 1.37829
2022-12-15 14:21:42.609693, 1.36852
2022-12-15 14:21:42.610042, 1.35874
2022-12-15 14:21:42.643110, 1.34897
2022-12-15 14:21:42.643863, 1.32942
2022-12-15 14:21:42.643863, 1.31964
2022-12-15 14:21:42.676201, 1.32453
2022-12-15 14:21:42.676201, 1.30009
2022-12-15 14:21:42.677232, 1.28543
2022-12-15 14:21:42.709218, 1.28054
2022-12-15 14:21:42.710224, 1.29521
2022-12-15 14:21:42.743154, 1.35874
2022-12-15 14:21:42.743481, 1.46138
2022-12-15 14:21:42.743938, 1.63245
2022-12-15 14:21:42.777340, 1.86705
2022-12-15 14:21:42.777676, 2.05278
2022-12-15 14:21:42.778223, 2.22873
2022-12-15 14:21:42.810706, 2.37536
2022-12-15 14:21:42.811056, 2.46334
2022-12-15 14:21:42.844442, 2.51221
2022-12-15 14:21:42.844684, 2.48289
2022-12-15 14:21:42.845274, 2.42424
2022-12-15 14:21:42.877707, 2.35092
2022-12-15 14:21:42.878002, 2.27272
2022-12-15 14:21:42.878465, 2.17008
2022-12-15 14:21:42.911642, 2.07722
2022-12-15 14:21:42.912089, 1.99413
2022-12-15 14:21:42.944881, 1.91104
2022-12-15 14:21:42.945574, 1.82306
2022-12-15 14:21:42.945574, 1.74486
2022-12-15 14:21:42.977856, 1.69110
2022-12-15 14:21:42.977856, 1.59824
2022-12-15 14:21:42.978857, 1.53958
2022-12-15 14:21:43.011861, 1.50048
2022-12-15 14:21:43.012209, 1.48093
2022-12-15 14:21:43.045560, 1.48582
2022-12-15 14:21:43.045829, 1.49560
2022-12-15 14:21:43.046468, 1.51515
2022-12-15 14:21:43.079087, 1.54447
2022-12-15 14:21:43.079408, 1.58357
2022-12-15 14:21:43.080410, 1.61290
2022-12-15 14:21:43.112707, 1.63245
2022-12-15 14:21:43.113084, 1.65689
2022-12-15 14:21:43.146189, 1.67644
2022-12-15 14:21:43.146459, 1.68132
2022-12-15 14:21:43.146459, 1.66177
2022-12-15 14:21:43.179624, 1.65200
2022-12-15 14:21:43.180376, 1.64222
2022-12-15 14:21:43.180376, 1.61290
2022-12-15 14:21:43.213169, 1.61290
2022-12-15 14:21:43.213169, 1.55913
2022-12-15 14:21:43.245688, 1.53958
2022-12-15 14:21:43.246689, 1.51026
2022-12-15 14:21:43.246689, 1.48093
2022-12-15 14:21:43.280183, 1.45650
2022-12-15 14:21:43.280183, 1.44183
2022-12-15 14:21:43.281184, 1.42717
2022-12-15 14:21:43.313570, 1.40273
2022-12-15 14:21:43.314095, 1.40273
2022-12-15 14:21:43.347162, 1.37341
2022-12-15 14:21:43.347587, 1.36363
2022-12-15 14:21:43.347587, 1.34408
2022-12-15 14:21:43.379993, 1.33919
2022-12-15 14:21:43.380943, 1.32942
2022-12-15 14:21:43.380943, 1.31964
2022-12-15 14:21:43.414463, 1.30498
2022-12-15 14:21:43.414463, 1.30009
2022-12-15 14:21:43.447970, 1.30987
2022-12-15 14:21:43.448183, 1.35386
2022-12-15 14:21:43.448769, 1.44183
2022-12-15 14:21:43.481520, 1.57869
2022-12-15 14:21:43.481520, 1.78885
2022-12-15 14:21:43.482526, 2.01368
2022-12-15 14:21:43.514464, 2.20918
2022-12-15 14:21:43.514464, 2.38514
2022-12-15 14:21:43.548051, 2.49266
2022-12-15 14:21:43.548051, 2.56109
2022-12-15 14:21:43.549059, 2.54643
2022-12-15 14:21:43.581854, 2.50244
2022-12-15 14:21:43.582471, 2.43401
2022-12-15 14:21:43.582471, 2.36070
2022-12-15 14:21:43.615032, 2.25806
2022-12-15 14:21:43.615385, 2.17986
2022-12-15 14:21:43.648820, 2.06744
2022-12-15 14:21:43.648820, 1.99902
2022-12-15 14:21:43.649828, 1.90127
2022-12-15 14:21:43.681932, 1.82306
2022-12-15 14:21:43.681932, 1.73998
2022-12-15 14:21:43.682931, 1.67644
2022-12-15 14:21:43.716159, 1.60801
2022-12-15 14:21:43.716669, 1.55913
2022-12-15 14:21:43.749576, 1.53470
2022-12-15 14:21:43.749576, 1.53470
2022-12-15 14:21:43.750634, 1.54936
2022-12-15 14:21:43.783096, 1.57869
2022-12-15 14:21:43.783483, 1.57869
2022-12-15 14:21:43.783997, 1.62267
2022-12-15 14:21:43.816514, 1.65200
2022-12-15 14:21:43.817419, 1.67644
2022-12-15 14:21:43.849238, 1.70087
2022-12-15 14:21:43.850239, 1.72043
2022-12-15 14:21:43.850239, 1.72531
2022-12-15 14:21:43.883272, 1.71065
2022-12-15 14:21:43.884276, 1.71554
2022-12-15 14:21:43.884276, 1.68621
2022-12-15 14:21:43.916664, 1.66177
2022-12-15 14:21:43.917667, 1.62756
2022-12-15 14:21:43.950168, 1.59824
2022-12-15 14:21:43.951170, 1.57869
2022-12-15 14:21:43.951170, 1.55425
2022-12-15 14:21:43.984261, 1.51515
2022-12-15 14:21:43.984596, 1.48582
2022-12-15 14:21:43.985182, 1.46627
2022-12-15 14:21:44.017743, 1.45650
2022-12-15 14:21:44.018096, 1.44672
2022-12-15 14:21:44.051287, 1.40762
2022-12-15 14:21:44.051553, 1.39296
2022-12-15 14:21:44.051553, 1.38318
2022-12-15 14:21:44.084668, 1.36363
2022-12-15 14:21:44.085448, 1.34897
2022-12-15 14:21:44.085448, 1.34897
2022-12-15 14:21:44.117803, 1.33919
2022-12-15 14:21:44.118806, 1.32453
2022-12-15 14:21:44.151625, 1.34897
2022-12-15 14:21:44.151949, 1.31476
2022-12-15 14:21:44.152399, 1.32453
2022-12-15 14:21:44.185124, 1.35874
2022-12-15 14:21:44.185497, 1.45650
2022-12-15 14:21:44.185955, 1.62756
2022-12-15 14:21:44.218554, 1.84750
2022-12-15 14:21:44.218975, 2.09188
2022-12-15 14:21:44.252510, 2.26783
2022-12-15 14:21:44.252757, 2.43890
2022-12-15 14:21:44.253225, 2.55620
2022-12-15 14:21:44.286011, 2.58553
2022-12-15 14:21:44.286306, 2.57575
2022-12-15 14:21:44.286890, 2.52688
2022-12-15 14:21:44.319582, 2.45356
2022-12-15 14:21:44.319934, 2.35092
2022-12-15 14:21:44.352588, 2.24828
2022-12-15 14:21:44.353614, 2.16520
2022-12-15 14:21:44.353614, 2.07722
2022-12-15 14:21:44.386618, 1.97947
2022-12-15 14:21:44.386914, 1.89149
2022-12-15 14:21:44.386914, 1.81818
2022-12-15 14:21:44.420284, 1.75464
2022-12-15 14:21:44.420634, 1.66666
2022-12-15 14:21:44.453651, 1.60312
2022-12-15 14:21:44.453651, 1.56402
2022-12-15 14:21:44.454542, 1.54447
2022-12-15 14:21:44.487373, 1.52981
2022-12-15 14:21:44.487669, 1.52492
2022-12-15 14:21:44.487669, 1.54447
2022-12-15 14:21:44.520749, 1.58357
2022-12-15 14:21:44.521097, 1.60801
2022-12-15 14:21:44.554357, 1.63245
2022-12-15 14:21:44.554597, 1.65689
2022-12-15 14:21:44.555061, 1.68621
2022-12-15 14:21:44.588067, 1.69599
2022-12-15 14:21:44.588389, 1.68621
2022-12-15 14:21:44.589392, 1.68132
2022-12-15 14:21:44.621490, 1.68132
2022-12-15 14:21:44.622106, 1.65689
2022-12-15 14:21:44.654785, 1.63245
2022-12-15 14:21:44.654785, 1.61779
2022-12-15 14:21:44.655791, 1.57380
2022-12-15 14:21:44.687096, 1.53958
2022-12-15 14:21:44.688172, 1.50537
2022-12-15 14:21:44.688575, 1.47605
2022-12-15 14:21:44.722092, 1.45650
2022-12-15 14:21:44.722445, 1.42717
2022-12-15 14:21:44.755642, 1.40762
2022-12-15 14:21:44.755884, 1.40762
2022-12-15 14:21:44.756480, 1.36852
2022-12-15 14:21:44.789207, 1.34897
2022-12-15 14:21:44.789500, 1.32453
2022-12-15 14:21:44.789500, 1.31476
2022-12-15 14:21:44.822602, 1.30987
2022-12-15 14:21:44.822955, 1.30009
2022-12-15 14:21:44.856199, 1.29521
2022-12-15 14:21:44.856491, 1.29032
2022-12-15 14:21:44.857099, 1.30498
2022-12-15 14:21:44.889823, 1.27077
2022-12-15 14:21:44.890150, 1.25610
2022-12-15 14:21:44.890150, 1.26588
2022-12-15 14:21:44.923411, 1.31476
2022-12-15 14:21:44.923411, 1.42228
2022-12-15 14:21:44.956708, 1.58357
2022-12-15 14:21:44.957494, 1.80351
2022-12-15 14:21:44.957494, 2.04301
2022-12-15 14:21:44.989325, 2.23851
2022-12-15 14:21:44.990334, 2.39002
2022-12-15 14:21:44.990334, 2.49266
2022-12-15 14:21:45.023356, 2.54154
2022-12-15 14:21:45.023674, 2.53665
2022-12-15 14:21:45.057427, 2.46334
2022-12-15 14:21:45.057723, 2.38025
2022-12-15 14:21:45.058309, 2.29227
2022-12-15 14:21:45.090841, 2.19941
2022-12-15 14:21:45.090841, 2.09188
2022-12-15 14:21:45.091844, 1.99413
2022-12-15 14:21:45.124313, 1.90615
2022-12-15 14:21:45.124313, 1.82795
2022-12-15 14:21:45.157993, 1.73509
2022-12-15 14:21:45.157993, 1.65200
2022-12-15 14:21:45.158913, 1.59335
2022-12-15 14:21:45.191245, 1.53958
2022-12-15 14:21:45.191245, 1.49560
2022-12-15 14:21:45.192263, 1.48582
2022-12-15 14:21:45.224549, 1.45650
2022-12-15 14:21:45.224549, 1.47116
2022-12-15 14:21:45.258347, 1.49071
2022-12-15 14:21:45.259346, 1.51515
2022-12-15 14:21:45.259639, 1.54936
2022-12-15 14:21:45.291351, 1.59335
2022-12-15 14:21:45.292343, 1.61779
2022-12-15 14:21:45.292343, 1.62267
2022-12-15 14:21:45.325483, 1.63734
2022-12-15 14:21:45.325868, 1.64711
2022-12-15 14:21:45.358981, 1.63734
2022-12-15 14:21:45.359222, 1.62267
2022-12-15 14:21:45.359773, 1.60312
2022-12-15 14:21:45.392499, 1.58846
2022-12-15 14:21:45.392795, 1.57380
2022-12-15 14:21:45.392795, 1.52003
2022-12-15 14:21:45.426106, 1.49071
2022-12-15 14:21:45.426456, 1.47116
2022-12-15 14:21:45.459648, 1.44672
2022-12-15 14:21:45.459888, 1.40762
2022-12-15 14:21:45.460481, 1.39296
2022-12-15 14:21:45.493093, 1.37829
2022-12-15 14:21:45.493093, 1.37829
2022-12-15 14:21:45.494093, 1.32453
2022-12-15 14:21:45.525703, 1.30987
2022-12-15 14:21:45.526705, 1.30498
2022-12-15 14:21:45.559837, 1.29521
2022-12-15 14:21:45.560060, 1.28054
2022-12-15 14:21:45.560519, 1.27565
2022-12-15 14:21:45.593786, 1.27077
2022-12-15 14:21:45.593786, 1.26588
2022-12-15 14:21:45.594788, 1.27077
2022-12-15 14:21:45.627424, 1.24144
2022-12-15 14:21:45.627772, 1.25122
2022-12-15 14:21:45.660980, 1.27565
2022-12-15 14:21:45.661218, 1.32453
2022-12-15 14:21:45.661811, 1.45650
2022-12-15 14:21:45.694424, 1.66177
2022-12-15 14:21:45.694786, 1.88172
2022-12-15 14:21:45.694786, 2.09188
2022-12-15 14:21:45.728126, 2.26783
2022-12-15 14:21:45.728517, 2.40469
2022-12-15 14:21:45.761279, 2.48778
2022-12-15 14:21:45.761279, 2.49266
2022-12-15 14:21:45.762264, 2.45845
2022-12-15 14:21:45.794106, 2.39491
2022-12-15 14:21:45.795114, 2.31671
2022-12-15 14:21:45.795114, 2.21407
2022-12-15 14:21:45.828035, 2.10166
2022-12-15 14:21:45.828459, 2.01368
2022-12-15 14:21:45.862143, 1.92570
2022-12-15 14:21:45.862382, 1.83284
2022-12-15 14:21:45.862979, 1.74975
2022-12-15 14:21:45.895720, 1.67155
2022-12-15 14:21:45.896017, 1.60312
2022-12-15 14:21:45.896017, 1.53470
2022-12-15 14:21:45.929288, 1.48093
2022-12-15 14:21:45.929641, 1.45161
2022-12-15 14:21:45.962701, 1.44672
2022-12-15 14:21:45.962941, 1.45650
2022-12-15 14:21:45.963408, 1.48093
2022-12-15 14:21:45.996255, 1.53470
2022-12-15 14:21:45.996890, 1.54447
2022-12-15 14:21:45.996890, 1.57869
2022-12-15 14:21:46.029707, 1.60801
2022-12-15 14:21:46.029707, 1.63245
2022-12-15 14:21:46.062578, 1.65689
2022-12-15 14:21:46.063586, 1.66177
2022-12-15 14:21:46.063586, 1.65200
2022-12-15 14:21:46.096117, 1.67155
2022-12-15 14:21:46.096117, 1.63245
2022-12-15 14:21:46.097067, 1.60801
2022-12-15 14:21:46.129612, 1.57380
2022-12-15 14:21:46.129612, 1.54447
2022-12-15 14:21:46.163255, 1.52492
2022-12-15 14:21:46.163255, 1.50048
2022-12-15 14:21:46.164234, 1.47605
2022-12-15 14:21:46.197433, 1.43695
2022-12-15 14:21:46.197433, 1.42228
2022-12-15 14:21:46.198439, 1.39784
2022-12-15 14:21:46.231044, 1.37829
2022-12-15 14:21:46.231044, 1.37341
2022-12-15 14:21:46.263769, 1.34897
2022-12-15 14:21:46.263769, 1.33919
2022-12-15 14:21:46.264805, 1.31964
2022-12-15 14:21:46.297817, 1.30987
2022-12-15 14:21:46.297817, 1.30498
2022-12-15 14:21:46.298843, 1.30009
2022-12-15 14:21:46.331022, 1.28543
2022-12-15 14:21:46.331022, 1.28054
2022-12-15 14:21:46.365091, 1.28054
2022-12-15 14:21:46.365330, 1.28543
2022-12-15 14:21:46.365881, 1.30987
2022-12-15 14:21:46.398201, 1.39296
2022-12-15 14:21:46.398201, 1.54936
2022-12-15 14:21:46.399243, 1.76441
2022-12-15 14:21:46.431941, 1.99413
2022-12-15 14:21:46.432409, 2.19941
2022-12-15 14:21:46.465745, 2.38514
2022-12-15 14:21:46.465745, 2.51710
2022-12-15 14:21:46.466754, 2.55620
2022-12-15 14:21:46.498690, 2.55620
2022-12-15 14:21:46.499088, 2.51710
2022-12-15 14:21:46.499088, 2.44868
2022-12-15 14:21:46.532707, 2.34115
2022-12-15 14:21:46.533105, 2.26783
2022-12-15 14:21:46.565878, 2.14076
2022-12-15 14:21:46.565878, 2.05278
2022-12-15 14:21:46.566964, 1.95014
2022-12-15 14:21:46.598676, 1.86217
2022-12-15 14:21:46.599684, 1.78885
2022-12-15 14:21:46.599684, 1.71554
2022-12-15 14:21:46.632779, 1.63734
2022-12-15 14:21:46.633216, 1.57380
2022-12-15 14:21:46.666705, 1.53470
2022-12-15 14:21:46.667711, 1.50537
2022-12-15 14:21:46.667711, 1.51026
2022-12-15 14:21:46.700342, 1.48582
2022-12-15 14:21:46.700631, 1.51026
2022-12-15 14:21:46.701208, 1.54447
2022-12-15 14:21:46.733764, 1.57380
2022-12-15 14:21:46.734153, 1.60312
2022-12-15 14:21:46.767253, 1.63245
2022-12-15 14:21:46.767253, 1.66666
2022-12-15 14:21:46.768132, 1.70087
2022-12-15 14:21:46.800709, 1.66666
2022-12-15 14:21:46.801139, 1.66666
2022-12-15 14:21:46.801783, 1.66177
2022-12-15 14:21:46.834287, 1.64222
2022-12-15 14:21:46.834287, 1.60801
2022-12-15 14:21:46.867063, 1.59335
2022-12-15 14:21:46.868066, 1.58846
2022-12-15 14:21:46.868066, 1.52981
2022-12-15 14:21:46.901142, 1.49560
2022-12-15 14:21:46.902177, 1.47116
2022-12-15 14:21:46.902177, 1.45161
2022-12-15 14:21:46.934522, 1.42717
2022-12-15 14:21:46.934522, 1.39784
2022-12-15 14:21:46.967833, 1.38807
2022-12-15 14:21:46.967833, 1.38318
2022-12-15 14:21:46.968838, 1.37341
2022-12-15 14:21:47.002068, 1.32453
2022-12-15 14:21:47.002397, 1.31476
2022-12-15 14:21:47.002990, 1.30498
2022-12-15 14:21:47.035561, 1.30498
2022-12-15 14:21:47.035909, 1.28054
2022-12-15 14:21:47.069129, 1.28543
2022-12-15 14:21:47.069369, 1.30009
2022-12-15 14:21:47.069917, 1.27077
2022-12-15 14:21:47.102462, 1.26588
2022-12-15 14:21:47.103375, 1.29521
2022-12-15 14:21:47.103745, 1.38807
2022-12-15 14:21:47.136158, 1.54447
2022-12-15 14:21:47.136504, 1.76930
2022-12-15 14:21:47.169451, 1.96969
2022-12-15 14:21:47.169773, 2.19452
2022-12-15 14:21:47.169773, 2.39002
2022-12-15 14:21:47.202877, 2.50244
2022-12-15 14:21:47.203146, 2.59042
2022-12-15 14:21:47.203601, 2.58553
2022-12-15 14:21:47.236338, 2.53665
2022-12-15 14:21:47.236765, 2.44379
2022-12-15 14:21:47.270337, 2.34604
2022-12-15 14:21:47.270575, 2.24828
2022-12-15 14:21:47.271033, 2.15542
2022-12-15 14:21:47.304034, 2.04301
2022-12-15 14:21:47.304355, 1.95014
2022-12-15 14:21:47.305007, 1.86705
2022-12-15 14:21:47.337592, 1.79374
2022-12-15 14:21:47.337962, 1.70087
2022-12-15 14:21:47.370977, 1.63245
2022-12-15 14:21:47.370977, 1.56891
2022-12-15 14:21:47.372019, 1.52492
2022-12-15 14:21:47.403351, 1.48582
2022-12-15 14:21:47.404351, 1.46627
2022-12-15 14:21:47.404351, 1.47116
2022-12-15 14:21:47.437169, 1.49560
2022-12-15 14:21:47.438167, 1.51515
2022-12-15 14:21:47.471505, 1.54447
2022-12-15 14:21:47.471742, 1.58357
2022-12-15 14:21:47.472331, 1.62267
2022-12-15 14:21:47.505151, 1.63245
2022-12-15 14:21:47.505441, 1.63734
2022-12-15 14:21:47.506023, 1.64711
2022-12-15 14:21:47.538578, 1.65689
2022-12-15 14:21:47.538925, 1.63734
2022-12-15 14:21:47.572348, 1.63245
2022-12-15 14:21:47.572625, 1.62267
2022-12-15 14:21:47.573213, 1.56891
2022-12-15 14:21:47.605792, 1.53470
2022-12-15 14:21:47.606110, 1.49560
2022-12-15 14:21:47.606110, 1.46138
2022-12-15 14:21:47.639220, 1.44672
2022-12-15 14:21:47.639778, 1.42228
2022-12-15 14:21:47.671477, 1.38318
2022-12-15 14:21:47.672486, 1.36363
2022-12-15 14:21:47.672486, 1.34897
2022-12-15 14:21:47.705947, 1.32942
2022-12-15 14:21:47.706256, 1.30987
2022-12-15 14:21:47.706668, 1.30009
2022-12-15 14:21:47.739799, 1.28543
2022-12-15 14:21:47.740143, 1.28054
2022-12-15 14:21:47.773521, 1.26099
2022-12-15 14:21:47.773785, 1.25610
2022-12-15 14:21:47.773785, 1.25122
2022-12-15 14:21:47.806866, 1.24144
2022-12-15 14:21:47.807162, 1.23167
2022-12-15 14:21:47.807624, 1.24144
2022-12-15 14:21:47.840449, 1.29521
2022-12-15 14:21:47.840803, 1.35386
2022-12-15 14:21:47.874144, 1.47605
2022-12-15 14:21:47.874412, 1.67644
2022-12-15 14:21:47.874412, 1.91104
2022-12-15 14:21:47.907549, 2.14565
2022-12-15 14:21:47.907549, 2.32160
2022-12-15 14:21:47.908590, 2.45845
2022-12-15 14:21:47.940452, 2.53176
2022-12-15 14:21:47.941460, 2.53176
2022-12-15 14:21:47.974200, 2.47311
2022-12-15 14:21:47.974200, 2.39980
2022-12-15 14:21:47.975153, 2.31182
2022-12-15 14:21:48.007970, 2.21896
2022-12-15 14:21:48.008264, 2.10166
2022-12-15 14:21:48.008808, 1.99902
2022-12-15 14:21:48.041805, 1.90615
2022-12-15 14:21:48.042192, 1.82306
2022-12-15 14:21:48.075202, 1.73020
2022-12-15 14:21:48.075441, 1.64711
2022-12-15 14:21:48.075903, 1.58357
2022-12-15 14:21:48.108735, 1.54936
2022-12-15 14:21:48.109070, 1.47605
2022-12-15 14:21:48.109070, 1.43206
2022-12-15 14:21:48.142411, 1.42717
2022-12-15 14:21:48.142782, 1.44183
2022-12-15 14:21:48.175578, 1.45650
2022-12-15 14:21:48.176587, 1.49071
2022-12-15 14:21:48.176923, 1.54447
2022-12-15 14:21:48.208241, 1.56891
2022-12-15 14:21:48.209250, 1.59335
2022-12-15 14:21:48.209250, 1.61779
2022-12-15 14:21:48.242666, 1.63734
2022-12-15 14:21:48.243008, 1.64711
2022-12-15 14:21:48.276333, 1.64222
2022-12-15 14:21:48.276570, 1.62267
2022-12-15 14:21:48.277111, 1.60312
2022-12-15 14:21:48.309890, 1.58846
2022-12-15 14:21:48.310184, 1.55913
2022-12-15 14:21:48.310184, 1.52003
2022-12-15 14:21:48.343458, 1.49560
2022-12-15 14:21:48.343807, 1.47116
2022-12-15 14:21:48.377012, 1.44672
2022-12-15 14:21:48.377290, 1.41739
2022-12-15 14:21:48.377881, 1.39784
2022-12-15 14:21:48.410552, 1.37829
2022-12-15 14:21:48.410552, 1.35874
2022-12-15 14:21:48.411554, 1.33431
2022-12-15 14:21:48.443160, 1.31964
2022-12-15 14:21:48.444169, 1.31476
2022-12-15 14:21:48.477144, 1.30987
2022-12-15 14:21:48.477520, 1.28054
2022-12-15 14:21:48.477972, 1.27077
2022-12-15 14:21:48.511010, 1.26588
2022-12-15 14:21:48.511305, 1.26588
2022-12-15 14:21:48.511305, 1.25610
2022-12-15 14:21:48.544649, 1.27565
2022-12-15 14:21:48.544997, 1.31964
2022-12-15 14:21:48.578226, 1.43695
2022-12-15 14:21:48.578464, 1.59824
2022-12-15 14:21:48.579056, 1.82306
2022-12-15 14:21:48.611865, 2.05767
2022-12-15 14:21:48.612197, 2.27272
2022-12-15 14:21:48.612663, 2.40957
2022-12-15 14:21:48.645428, 2.50244
2022-12-15 14:21:48.645816, 2.54154
2022-12-15 14:21:48.678763, 2.52688
2022-12-15 14:21:48.679046, 2.44379
2022-12-15 14:21:48.679046, 2.36070
2022-12-15 14:21:48.712189, 2.26783
2022-12-15 14:21:48.712874, 2.20430
2022-12-15 14:21:48.713878, 2.06256
2022-12-15 14:21:48.745777, 1.96480
2022-12-15 14:21:48.745777, 1.88172
2022-12-15 14:21:48.779222, 1.80351
2022-12-15 14:21:48.779491, 1.71065
2022-12-15 14:21:48.780139, 1.63245
2022-12-15 14:21:48.812813, 1.58357
2022-12-15 14:21:48.813134, 1.52981
2022-12-15 14:21:48.813785, 1.49071
2022-12-15 14:21:48.846385, 1.48093
2022-12-15 14:21:48.846732, 1.48582
2022-12-15 14:21:48.879916, 1.52003
2022-12-15 14:21:48.880159, 1.53958
2022-12-15 14:21:48.880748, 1.57380
2022-12-15 14:21:48.913544, 1.63245
2022-12-15 14:21:48.913867, 1.67155
2022-12-15 14:21:48.914413, 1.69110
2022-12-15 14:21:48.947050, 1.69110
2022-12-15 14:21:48.947447, 1.69599
2022-12-15 14:21:48.980472, 1.70087
2022-12-15 14:21:48.980472, 1.68132
2022-12-15 14:21:48.981474, 1.66666
2022-12-15 14:21:49.013557, 1.65200
2022-12-15 14:21:49.013557, 1.62756
2022-12-15 14:21:49.014585, 1.58846
2022-12-15 14:21:49.046645, 1.55425
2022-12-15 14:21:49.047641, 1.52981
2022-12-15 14:21:49.080957, 1.50537
2022-12-15 14:21:49.081197, 1.48093
2022-12-15 14:21:49.081749, 1.46138
2022-12-15 14:21:49.114572, 1.43206
2022-12-15 14:21:49.114572, 1.41739
2022-12-15 14:21:49.115592, 1.39784
2022-12-15 14:21:49.148140, 1.38318
2022-12-15 14:21:49.148140, 1.36852
2022-12-15 14:21:49.181699, 1.36363
2022-12-15 14:21:49.181699, 1.35386
2022-12-15 14:21:49.182701, 1.34897
2022-12-15 14:21:49.215174, 1.32453
2022-12-15 14:21:49.215678, 1.31964
2022-12-15 14:21:49.216077, 1.32453
2022-12-15 14:21:49.248723, 1.34897
2022-12-15 14:21:49.249342, 1.44183
2022-12-15 14:21:49.282254, 1.58357
2022-12-15 14:21:49.282682, 1.79863
2022-12-15 14:21:49.282682, 2.01857
2022-12-15 14:21:49.314903, 2.24340
2022-12-15 14:21:49.315904, 2.43401
2022-12-15 14:21:49.315904, 2.56109
2022-12-15 14:21:49.349130, 2.60508
2022-12-15 14:21:49.349270, 2.60019
2022-12-15 14:21:49.382343, 2.55620
2022-12-15 14:21:49.382343, 2.47800
2022-12-15 14:21:49.383373, 2.36559
2022-12-15 14:21:49.416292, 2.26295
2022-12-15 14:21:49.416674, 2.16031
2022-12-15 14:21:49.416674, 2.07233
2022-12-15 14:21:49.449855, 1.99902
2022-12-15 14:21:49.449855, 1.88172
2022-12-15 14:21:49.482963, 1.80840
2022-12-15 14:21:49.483267, 1.73998
2022-12-15 14:21:49.483267, 1.65689
2022-12-15 14:21:49.516867, 1.60312
2022-12-15 14:21:49.516867, 1.56402
2022-12-15 14:21:49.517955, 1.54447
2022-12-15 14:21:49.550135, 1.53958
2022-12-15 14:21:49.550135, 1.52981
2022-12-15 14:21:49.583388, 1.55425
2022-12-15 14:21:49.583388, 1.59335
2022-12-15 14:21:49.584395, 1.61779
2022-12-15 14:21:49.616343, 1.64222
2022-12-15 14:21:49.617360, 1.68132
2022-12-15 14:21:49.617793, 1.73020
2022-12-15 14:21:49.650669, 1.70087
2022-12-15 14:21:49.651287, 1.69599
2022-12-15 14:21:49.684542, 1.68621
2022-12-15 14:21:49.684781, 1.67644
2022-12-15 14:21:49.685781, 1.65200
2022-12-15 14:21:49.718148, 1.62267
2022-12-15 14:21:49.718442, 1.58846
2022-12-15 14:21:49.719012, 1.55913
2022-12-15 14:21:49.751610, 1.52981
2022-12-15 14:21:49.752050, 1.49071
2022-12-15 14:21:49.785091, 1.46627
2022-12-15 14:21:49.785425, 1.45161
2022-12-15 14:21:49.785926, 1.42717
2022-12-15 14:21:49.818722, 1.40273
2022-12-15 14:21:49.819041, 1.40273
2022-12-15 14:21:49.819682, 1.37341
2022-12-15 14:21:49.852246, 1.35874
2022-12-15 14:21:49.852623, 1.33919
2022-12-15 14:21:49.885620, 1.32453
2022-12-15 14:21:49.886659, 1.31964
2022-12-15 14:21:49.886659, 1.30987
2022-12-15 14:21:49.918515, 1.32453
2022-12-15 14:21:49.919512, 1.29032
2022-12-15 14:21:49.919512, 1.31476
2022-12-15 14:21:49.952341, 1.37341
2022-12-15 14:21:49.953343, 1.48582
2022-12-15 14:21:49.985734, 1.68132
2022-12-15 14:21:49.985734, 1.94037
2022-12-15 14:21:49.986735, 2.14565
2022-12-15 14:21:50.019037, 2.33137
2022-12-15 14:21:50.020039, 2.47800
2022-12-15 14:21:50.020039, 2.56109
2022-12-15 14:21:50.053237, 2.58064
2022-12-15 14:21:50.053237, 2.52199
2022-12-15 14:21:50.086550, 2.44379
2022-12-15 14:21:50.086550, 2.35581
2022-12-15 14:21:50.087552, 2.26295
2022-12-15 14:21:50.120053, 2.14076
2022-12-15 14:21:50.120345, 2.03812
2022-12-15 14:21:50.120345, 1.95014
2022-12-15 14:21:50.154020, 1.87683
2022-12-15 14:21:50.154369, 1.77908
2022-12-15 14:21:50.187211, 1.70087
2022-12-15 14:21:50.187772, 1.63245
2022-12-15 14:21:50.187772, 1.58357
2022-12-15 14:21:50.220978, 1.51026
2022-12-15 14:21:50.221271, 1.47605
2022-12-15 14:21:50.221851, 1.46627
2022-12-15 14:21:50.254574, 1.47605
2022-12-15 14:21:50.254917, 1.48582
2022-12-15 14:21:50.288221, 1.51515
2022-12-15 14:21:50.288459, 1.54936
2022-12-15 14:21:50.289051, 1.61779
2022-12-15 14:21:50.321599, 1.60801
2022-12-15 14:21:50.321896, 1.62267
2022-12-15 14:21:50.322449, 1.63734
2022-12-15 14:21:50.355191, 1.64711
2022-12-15 14:21:50.355565, 1.63245
2022-12-15 14:21:50.388779, 1.60801
2022-12-15 14:21:50.389043, 1.59824
2022-12-15 14:21:50.389684, 1.57869
2022-12-15 14:21:50.422418, 1.55913
2022-12-15 14:21:50.422741, 1.50048
2022-12-15 14:21:50.422741, 1.47605
2022-12-15 14:21:50.455770, 1.45650
2022-12-15 14:21:50.456627, 1.42717
2022-12-15 14:21:50.488344, 1.39784
2022-12-15 14:21:50.489354, 1.38318
2022-12-15 14:21:50.489354, 1.37829
2022-12-15 14:21:50.522895, 1.32942
2022-12-15 14:21:50.523186, 1.30987
2022-12-15 14:21:50.523769, 1.29521
2022-12-15 14:21:50.556539, 1.29032
2022-12-15 14:21:50.556885, 1.28054
2022-12-15 14:21:50.590053, 1.27565
2022-12-15 14:21:50.590294, 1.25610
2022-12-15 14:21:50.590893, 1.25610
2022-12-15 14:21:50.623483, 1.24144
2022-12-15 14:21:50.623777, 1.23655
2022-12-15 14:21:50.624286, 1.25122
2022-12-15 14:21:50.657086, 1.30987
2022-12-15 14:21:50.657477, 1.43695
2022-12-15 14:21:50.690586, 1.60312
2022-12-15 14:21:50.690865, 1.82795
2022-12-15 14:21:50.691325, 2.06744
2022-12-15 14:21:50.724154, 2.27272
2022-12-15 14:21:50.724154, 2.40957
2022-12-15 14:21:50.725175, 2.49266
2022-12-15 14:21:50.757642, 2.53176
2022-12-15 14:21:50.758644, 2.50244
2022-12-15 14:21:50.790123, 2.41935
2022-12-15 14:21:50.791116, 2.29227
2022-12-15 14:21:50.791116, 2.19941
2022-12-15 14:21:50.824622, 2.10166
2022-12-15 14:21:50.824916, 1.97947
2022-12-15 14:21:50.825457, 1.88660
2022-12-15 14:21:50.858238, 1.80351
2022-12-15 14:21:50.858586, 1.72531
2022-12-15 14:21:50.891707, 1.63734
2022-12-15 14:21:50.891948, 1.56402
2022-12-15 14:21:50.892539, 1.50537
2022-12-15 14:21:50.925338, 1.47116
2022-12-15 14:21:50.925633, 1.45161
2022-12-15 14:21:50.926095, 1.41739
2022-12-15 14:21:50.958870, 1.43206
2022-12-15 14:21:50.959267, 1.45650
2022-12-15 14:21:50.992552, 1.48582
2022-12-15 14:21:50.992842, 1.52492
2022-12-15 14:21:50.993305, 1.57869
2022-12-15 14:21:51.026022, 1.59335
2022-12-15 14:21:51.026022, 1.60801
2022-12-15 14:21:51.027024, 1.61779
2022-12-15 14:21:51.059508, 1.61779
2022-12-15 14:21:51.059508, 1.62267
2022-12-15 14:21:51.092208, 1.59824
2022-12-15 14:21:51.092208, 1.59335
2022-12-15 14:21:51.093209, 1.54936
2022-12-15 14:21:51.126066, 1.52492
2022-12-15 14:21:51.126437, 1.49071
2022-12-15 14:21:51.126884, 1.46138
2022-12-15 14:21:51.160080, 1.43695
2022-12-15 14:21:51.160426, 1.41739
2022-12-15 14:21:51.193645, 1.39784
2022-12-15 14:21:51.193884, 1.36363
2022-12-15 14:21:51.194514, 1.34408
2022-12-15 14:21:51.227200, 1.33431
2022-12-15 14:21:51.227493, 1.31476
2022-12-15 14:21:51.227493, 1.29521
2022-12-15 14:21:51.260654, 1.29521
2022-12-15 14:21:51.261004, 1.28543
2022-12-15 14:21:51.294293, 1.26588
2022-12-15 14:21:51.294532, 1.25122
2022-12-15 14:21:51.295077, 1.27077
2022-12-15 14:21:51.327748, 1.26588
2022-12-15 14:21:51.328072, 1.25610
2022-12-15 14:21:51.328569, 1.29032
2022-12-15 14:21:51.361266, 1.38318
2022-12-15 14:21:51.361266, 1.54936
2022-12-15 14:21:51.393719, 1.75953
2022-12-15 14:21:51.394715, 1.99413
2022-12-15 14:21:51.394715, 2.22873
2022-12-15 14:21:51.428288, 2.39002
2022-12-15 14:21:51.428581, 2.49755
2022-12-15 14:21:51.429126, 2.52199
2022-12-15 14:21:51.461791, 2.50244
2022-12-15 14:21:51.462136, 2.44379
2022-12-15 14:21:51.494267, 2.36070
2022-12-15 14:21:51.495263, 2.25806
2022-12-15 14:21:51.495263, 2.14076
2022-12-15 14:21:51.528902, 2.05278
2022-12-15 14:21:51.529242, 1.95992
2022-12-15 14:21:51.529703, 1.85728
2022-12-15 14:21:51.562556, 1.77419
2022-12-15 14:21:51.562903, 1.70576
2022-12-15 14:21:51.595969, 1.64711
2022-12-15 14:21:51.596265, 1.59335
2022-12-15 14:21:51.596265, 1.51515
2022-12-15 14:21:51.629400, 1.48582
2022-12-15 14:21:51.629400, 1.48093
2022-12-15 14:21:51.630440, 1.47605
2022-12-15 14:21:51.662398, 1.49560
2022-12-15 14:21:51.663408, 1.53958
2022-12-15 14:21:51.696422, 1.58846
2022-12-15 14:21:51.696689, 1.61779
2022-12-15 14:21:51.697344, 1.63734
2022-12-15 14:21:51.730075, 1.66666
2022-12-15 14:21:51.730392, 1.67644
2022-12-15 14:21:51.731026, 1.67644
2022-12-15 14:21:51.763685, 1.67155
2022-12-15 14:21:51.764057, 1.68132
2022-12-15 14:21:51.797139, 1.64222
2022-12-15 14:21:51.797378, 1.60801
2022-12-15 14:21:51.797842, 1.57380
2022-12-15 14:21:51.830708, 1.54936
2022-12-15 14:21:51.831057, 1.52981
2022-12-15 14:21:51.831673, 1.51026
2022-12-15 14:21:51.864279, 1.46138
2022-12-15 14:21:51.864279, 1.43695
2022-12-15 14:21:51.897645, 1.42228
2022-12-15 14:21:51.898655, 1.39296
2022-12-15 14:21:51.898888, 1.37829
2022-12-15 14:21:51.930911, 1.36852
2022-12-15 14:21:51.930911, 1.36852
2022-12-15 14:21:51.930911, 1.36852
2022-12-15 14:21:51.964581, 1.32453
2022-12-15 14:21:51.964931, 1.31964
2022-12-15 14:21:51.998321, 1.31476
2022-12-15 14:21:51.998560, 1.30498
2022-12-15 14:21:51.998560, 1.29032
2022-12-15 14:21:52.031825, 1.30009
2022-12-15 14:21:52.032157, 1.31964
2022-12-15 14:21:52.032157, 1.37341
2022-12-15 14:21:52.065350, 1.49071
2022-12-15 14:21:52.065732, 1.68132
2022-12-15 14:21:52.099003, 1.92570
2022-12-15 14:21:52.099734, 2.16520
2022-12-15 14:21:52.099734, 2.39002
2022-12-15 14:21:52.132568, 2.51221
2022-12-15 14:21:52.133362, 2.60508
2022-12-15 14:21:52.133362, 2.61485
2022-12-15 14:21:52.165676, 2.56109
2022-12-15 14:21:52.166571, 2.50244
2022-12-15 14:21:52.199105, 2.39002
2022-12-15 14:21:52.199105, 2.28738
2022-12-15 14:21:52.200114, 2.17008
2022-12-15 14:21:52.232440, 2.07722
2022-12-15 14:21:52.232440, 1.98924
2022-12-15 14:21:52.233440, 1.91104
2022-12-15 14:21:52.266426, 1.81818
2022-12-15 14:21:52.266426, 1.74975
2022-12-15 14:21:52.299113, 1.69599
2022-12-15 14:21:52.299113, 1.61779
2022-12-15 14:21:52.300110, 1.55913
2022-12-15 14:21:52.332459, 1.52492
2022-12-15 14:21:52.333457, 1.51515
2022-12-15 14:21:52.333457, 1.52003
2022-12-15 14:21:52.366160, 1.52981
2022-12-15 14:21:52.367156, 1.54936
2022-12-15 14:21:52.400359, 1.58357
2022-12-15 14:21:52.400719, 1.62756
2022-12-15 14:21:52.400719, 1.67644
2022-12-15 14:21:52.433609, 1.65689
2022-12-15 14:21:52.433609, 1.67155
2022-12-15 14:21:52.434645, 1.67644
2022-12-15 14:21:52.467728, 1.65689
2022-12-15 14:21:52.468735, 1.64711
2022-12-15 14:21:52.500810, 1.62756
2022-12-15 14:21:52.500810, 1.61779
2022-12-15 14:21:52.501816, 1.58846
2022-12-15 14:21:52.534280, 1.52981
2022-12-15 14:21:52.534280, 1.50048
2022-12-15 14:21:52.535277, 1.47605
2022-12-15 14:21:52.568014, 1.44183
2022-12-15 14:21:52.568630, 1.41739
2022-12-15 14:21:52.601682, 1.40273
2022-12-15 14:21:52.601922, 1.41251
2022-12-15 14:21:52.601922, 1.35874
2022-12-15 14:21:52.635290, 1.33431
2022-12-15 14:21:52.635583, 1.32453
2022-12-15 14:21:52.636128, 1.31476
2022-12-15 14:21:52.668924, 1.30009
2022-12-15 14:21:52.669295, 1.29032
2022-12-15 14:21:52.702445, 1.30987
2022-12-15 14:21:52.702682, 1.27565
2022-12-15 14:21:52.702682, 1.26099
2022-12-15 14:21:52.735996, 1.25122
2022-12-15 14:21:52.736289, 1.25610
2022-12-15 14:21:52.736769, 1.30009
2022-12-15 14:21:52.769577, 1.39296
2022-12-15 14:21:52.770084, 1.53958
2022-12-15 14:21:52.802964, 1.76441
2022-12-15 14:21:52.802964, 2.00879
2022-12-15 14:21:52.803812, 2.23362
2022-12-15 14:21:52.835246, 2.40469
2022-12-15 14:21:52.836247, 2.50733
2022-12-15 14:21:52.836247, 2.55620
2022-12-15 14:21:52.869269, 2.53176
2022-12-15 14:21:52.870266, 2.45356
2022-12-15 14:21:52.902596, 2.36559
2022-12-15 14:21:52.903555, 2.26783
2022-12-15 14:21:52.903555, 2.16031
2022-12-15 14:21:52.936526, 2.04789
2022-12-15 14:21:52.936526, 1.95014
2022-12-15 14:21:52.937514, 1.86705
2022-12-15 14:21:52.969469, 1.78396
2022-12-15 14:21:52.970424, 1.69599
2022-12-15 14:21:53.002789, 1.64711
2022-12-15 14:21:53.003789, 1.55425
2022-12-15 14:21:53.003789, 1.50048
2022-12-15 14:21:53.037178, 1.45161
2022-12-15 14:21:53.037178, 1.42717
2022-12-15 14:21:53.037178, 1.42717
2022-12-15 14:21:53.071104, 1.43695
2022-12-15 14:21:53.072102, 1.45650
2022-12-15 14:21:53.104665, 1.50537
2022-12-15 14:21:53.104907, 1.52492
2022-12-15 14:21:53.105493, 1.55913
2022-12-15 14:21:53.137875, 1.57380
2022-12-15 14:21:53.138070, 1.58846
2022-12-15 14:21:53.138571, 1.60312
2022-12-15 14:21:53.171378, 1.60312
2022-12-15 14:21:53.171378, 1.58357
2022-12-15 14:21:53.205005, 1.56891
2022-12-15 14:21:53.205205, 1.56891
2022-12-15 14:21:53.205205, 1.52003
2022-12-15 14:21:53.238540, 1.48093
2022-12-15 14:21:53.238913, 1.45161
2022-12-15 14:21:53.239376, 1.42228
2022-12-15 14:21:53.272377, 1.40273
2022-12-15 14:21:53.272750, 1.38318
2022-12-15 14:21:53.305983, 1.34408
2022-12-15 14:21:53.306263, 1.32453
2022-12-15 14:21:53.306263, 1.30987
2022-12-15 14:21:53.339413, 1.28543
2022-12-15 14:21:53.339986, 1.26588
2022-12-15 14:21:53.339986, 1.25610
2022-12-15 14:21:53.372911, 1.26099
2022-12-15 14:21:53.373255, 1.25122
2022-12-15 14:21:53.405434, 1.22189
2022-12-15 14:21:53.406430, 1.21700
2022-12-15 14:21:53.406430, 1.21212
2022-12-15 14:21:53.440113, 1.20234
2022-12-15 14:21:53.440404, 1.20723
2022-12-15 14:21:53.440948, 1.22678
2022-12-15 14:21:53.473612, 1.30009
2022-12-15 14:21:53.473954, 1.43206
2022-12-15 14:21:53.507191, 1.62267
2022-12-15 14:21:53.507430, 1.86217
2022-12-15 14:21:53.507430, 2.12121
2022-12-15 14:21:53.540674, 2.32649
2022-12-15 14:21:53.540968, 2.41446
2022-12-15 14:21:53.541482, 2.48289
2022-12-15 14:21:53.574143, 2.49266
2022-12-15 14:21:53.574143, 2.44379
2022-12-15 14:21:53.607637, 2.34604
2022-12-15 14:21:53.607637, 2.26295
2022-12-15 14:21:53.608639, 2.14565
2022-12-15 14:21:53.640559, 2.03812
2022-12-15 14:21:53.641584, 1.94037
2022-12-15 14:21:53.641843, 1.83773
2022-12-15 14:21:53.674715, 1.75464
2022-12-15 14:21:53.675060, 1.67155
2022-12-15 14:21:53.708371, 1.58357
2022-12-15 14:21:53.708610, 1.51515
2022-12-15 14:21:53.708610, 1.46138
2022-12-15 14:21:53.741992, 1.42717
2022-12-15 14:21:53.742285, 1.39784
2022-12-15 14:21:53.742862, 1.42717
2022-12-15 14:21:53.775389, 1.41739
2022-12-15 14:21:53.775733, 1.44672
2022-12-15 14:21:53.809002, 1.47605
2022-12-15 14:21:53.809245, 1.52003
2022-12-15 14:21:53.809245, 1.57380
2022-12-15 14:21:53.842543, 1.59824
2022-12-15 14:21:53.842894, 1.61290
2022-12-15 14:21:53.842894, 1.61779
2022-12-15 14:21:53.875947, 1.62267
2022-12-15 14:21:53.876523, 1.61779
2022-12-15 14:21:53.908400, 1.59824
2022-12-15 14:21:53.909407, 1.56891
2022-12-15 14:21:53.909407, 1.54936
2022-12-15 14:21:53.943032, 1.52003
2022-12-15 14:21:53.943350, 1.49071
2022-12-15 14:21:53.944002, 1.45650
2022-12-15 14:21:53.976602, 1.44183
2022-12-15 14:21:53.976946, 1.42717
2022-12-15 14:21:54.010151, 1.42228
2022-12-15 14:21:54.010390, 1.36363
2022-12-15 14:21:54.010390, 1.34897
2022-12-15 14:21:54.043672, 1.33431
2022-12-15 14:21:54.043965, 1.31476
2022-12-15 14:21:54.044428, 1.30009
2022-12-15 14:21:54.077262, 1.30009
2022-12-15 14:21:54.077634, 1.29521
2022-12-15 14:21:54.110720, 1.28543
2022-12-15 14:21:54.110720, 1.26099
2022-12-15 14:21:54.111723, 1.25610
2022-12-15 14:21:54.143807, 1.25610
2022-12-15 14:21:54.143807, 1.25610
2022-12-15 14:21:54.144814, 1.29032
2022-12-15 14:21:54.177390, 1.38807
2022-12-15 14:21:54.177787, 1.55425
2022-12-15 14:21:54.211379, 1.76930
2022-12-15 14:21:54.211379, 2.00879
2022-12-15 14:21:54.212381, 2.23851
2022-12-15 14:21:54.244842, 2.42913
2022-12-15 14:21:54.245131, 2.54643
2022-12-15 14:21:54.245714, 2.60508
2022-12-15 14:21:54.278629, 2.56598
2022-12-15 14:21:54.279022, 2.51221
2022-12-15 14:21:54.312085, 2.41935
2022-12-15 14:21:54.312324, 2.30205
2022-12-15 14:21:54.312324, 2.20918
2022-12-15 14:21:54.345499, 2.09677
2022-12-15 14:21:54.345847, 1.99413
2022-12-15 14:21:54.345847, 1.89149
2022-12-15 14:21:54.378916, 1.80840
2022-12-15 14:21:54.379754, 1.73020
2022-12-15 14:21:54.411623, 1.65200
2022-12-15 14:21:54.412629, 1.57380
2022-12-15 14:21:54.412880, 1.52003
2022-12-15 14:21:54.445921, 1.48093
2022-12-15 14:21:54.446212, 1.46138
2022-12-15 14:21:54.446795, 1.44183
2022-12-15 14:21:54.479575, 1.45161
2022-12-15 14:21:54.479919, 1.49071
2022-12-15 14:21:54.513139, 1.52492
2022-12-15 14:21:54.513378, 1.57869
2022-12-15 14:21:54.513378, 1.58357
2022-12-15 14:21:54.546718, 1.61290
2022-12-15 14:21:54.547010, 1.64222
2022-12-15 14:21:54.547471, 1.63734
2022-12-15 14:21:54.580349, 1.63734
2022-12-15 14:21:54.580690, 1.62756
2022-12-15 14:21:54.613752, 1.61779
2022-12-15 14:21:54.613752, 1.58357
2022-12-15 14:21:54.614754, 1.55425
2022-12-15 14:21:54.647220, 1.52492
2022-12-15 14:21:54.647994, 1.50537
2022-12-15 14:21:54.647994, 1.47116
2022-12-15 14:21:54.680193, 1.45650
2022-12-15 14:21:54.680193, 1.41251
2022-12-15 14:21:54.713985, 1.39296
2022-12-15 14:21:54.714210, 1.36363
2022-12-15 14:21:54.714707, 1.33919
2022-12-15 14:21:54.747773, 1.32453
2022-12-15 14:21:54.748062, 1.31476
2022-12-15 14:21:54.748640, 1.31964
2022-12-15 14:21:54.781498, 1.28054
2022-12-15 14:21:54.781498, 1.26588
2022-12-15 14:21:54.814984, 1.25610
2022-12-15 14:21:54.814984, 1.25122
2022-12-15 14:21:54.815879, 1.23167
2022-12-15 14:21:54.848505, 1.26099
2022-12-15 14:21:54.848505, 1.23167
2022-12-15 14:21:54.849507, 1.24144
2022-12-15 14:21:54.881882, 1.29521
2022-12-15 14:21:54.881882, 1.42228
2022-12-15 14:21:54.915727, 1.62756
2022-12-15 14:21:54.916734, 1.88660
2022-12-15 14:21:54.916734, 2.10654
2022-12-15 14:21:54.948717, 2.32649
2022-12-15 14:21:54.948717, 2.49266
2022-12-15 14:21:54.949659, 2.58064
2022-12-15 14:21:54.982054, 2.59042
2022-12-15 14:21:54.983097, 2.55131
2022-12-15 14:21:55.015572, 2.48778
2022-12-15 14:21:55.015799, 2.38514
2022-12-15 14:21:55.015799, 2.26783
2022-12-15 14:21:55.049537, 2.18475
2022-12-15 14:21:55.049537, 2.05767
2022-12-15 14:21:55.050538, 1.97947
2022-12-15 14:21:55.083056, 1.86217
2022-12-15 14:21:55.083056, 1.76930
2022-12-15 14:21:55.116566, 1.69599
2022-12-15 14:21:55.116566, 1.61290
2022-12-15 14:21:55.117569, 1.53958
2022-12-15 14:21:55.149918, 1.50048
2022-12-15 14:21:55.149918, 1.45161
2022-12-15 14:21:55.150920, 1.43695
2022-12-15 14:21:55.182683, 1.42717
2022-12-15 14:21:55.183680, 1.44183
2022-12-15 14:21:55.217035, 1.47605
2022-12-15 14:21:55.217836, 1.52003
2022-12-15 14:21:55.217836, 1.53470
2022-12-15 14:21:55.250640, 1.56402
2022-12-15 14:21:55.251314, 1.59335
2022-12-15 14:21:55.251314, 1.61290
2022-12-15 14:21:55.284145, 1.60801
2022-12-15 14:21:55.284540, 1.60801
2022-12-15 14:21:55.317568, 1.60801
2022-12-15 14:21:55.317568, 1.60801
2022-12-15 14:21:55.318318, 1.54936
2022-12-15 14:21:55.351216, 1.52003
2022-12-15 14:21:55.351596, 1.49071
2022-12-15 14:21:55.352256, 1.47116
2022-12-15 14:21:55.384345, 1.42717
2022-12-15 14:21:55.384345, 1.40762
2022-12-15 14:21:55.417799, 1.38807
2022-12-15 14:21:55.418446, 1.35874
2022-12-15 14:21:55.419440, 1.32942
2022-12-15 14:21:55.451497, 1.30498
2022-12-15 14:21:55.451893, 1.29032
2022-12-15 14:21:55.452341, 1.27565
2022-12-15 14:21:55.484878, 1.26099
2022-12-15 14:21:55.485887, 1.26099
2022-12-15 14:21:55.518918, 1.23655
2022-12-15 14:21:55.519155, 1.22678
2022-12-15 14:21:55.519739, 1.20723
2022-12-15 14:21:55.551405, 1.19745
2022-12-15 14:21:55.552386, 1.19257
2022-12-15 14:21:55.552386, 1.21212
2022-12-15 14:21:55.586016, 1.25610
2022-12-15 14:21:55.586364, 1.34408
2022-12-15 14:21:55.619479, 1.52003
2022-12-15 14:21:55.619762, 1.75464
2022-12-15 14:21:55.620408, 2.00391
2022-12-15 14:21:55.653065, 2.22385
2022-12-15 14:21:55.653386, 2.40469
2022-12-15 14:21:55.653888, 2.53176
2022-12-15 14:21:55.686437, 2.56598
2022-12-15 14:21:55.687240, 2.52199
2022-12-15 14:21:55.719437, 2.45845
2022-12-15 14:21:55.719437, 2.37536
2022-12-15 14:21:55.720437, 2.26295
2022-12-15 14:21:55.753426, 2.15053
2022-12-15 14:21:55.753720, 2.03323
2022-12-15 14:21:55.753720, 1.94037
2022-12-15 14:21:55.787338, 1.87194
2022-12-15 14:21:55.787905, 1.73998
2022-12-15 14:21:55.820738, 1.65200
2022-12-15 14:21:55.821189, 1.57869
2022-12-15 14:21:55.821189, 1.50537
2022-12-15 14:21:55.854322, 1.44183
2022-12-15 14:21:55.854704, 1.42228
2022-12-15 14:21:55.855254, 1.38807
2022-12-15 14:21:55.887895, 1.39296
2022-12-15 14:21:55.888419, 1.40273
2022-12-15 14:21:55.921337, 1.43206
2022-12-15 14:21:55.921730, 1.48582
2022-12-15 14:21:55.922278, 1.52492
2022-12-15 14:21:55.954683, 1.55425
2022-12-15 14:21:55.955067, 1.58846
2022-12-15 14:21:55.955528, 1.64222
2022-12-15 14:21:55.988098, 1.62267
2022-12-15 14:21:55.989102, 1.61290
2022-12-15 14:21:56.021277, 1.59824
2022-12-15 14:21:56.021277, 1.58846
2022-12-15 14:21:56.022282, 1.57380
2022-12-15 14:21:56.054734, 1.54936
2022-12-15 14:21:56.055739, 1.50537
2022-12-15 14:21:56.055739, 1.48093
2022-12-15 14:21:56.088059, 1.45650
2022-12-15 14:21:56.089061, 1.41739
2022-12-15 14:21:56.122496, 1.39296
2022-12-15 14:21:56.122737, 1.37829
2022-12-15 14:21:56.122737, 1.36363
2022-12-15 14:21:56.156116, 1.33919
2022-12-15 14:21:56.156414, 1.31476
2022-12-15 14:21:56.156870, 1.30009
2022-12-15 14:21:56.189672, 1.29521
2022-12-15 14:21:56.190056, 1.27565
2022-12-15 14:21:56.223260, 1.26099
2022-12-15 14:21:56.223260, 1.26099
2022-12-15 14:21:56.224261, 1.27565
2022-12-15 14:21:56.256351, 1.27077
2022-12-15 14:21:56.256351, 1.23655
2022-12-15 14:21:56.257382, 1.25610
2022-12-15 14:21:56.289839, 1.31964
2022-12-15 14:21:56.289839, 1.44672
2022-12-15 14:21:56.323693, 1.63245
2022-12-15 14:21:56.323931, 1.88172
2022-12-15 14:21:56.324525, 2.14076
2022-12-15 14:21:56.356897, 2.34604
2022-12-15 14:21:56.357166, 2.48778
2022-12-15 14:21:56.357621, 2.57575
2022-12-15 14:21:56.390722, 2.60508
2022-12-15 14:21:56.391065, 2.56598
2022-12-15 14:21:56.424368, 2.47311
2022-12-15 14:21:56.424608, 2.38025
2022-12-15 14:21:56.425070, 2.27761
2022-12-15 14:21:56.457986, 2.16520
2022-12-15 14:21:56.458320, 2.04789
2022-12-15 14:21:56.458966, 1.95503
2022-12-15 14:21:56.491512, 1.86217
2022-12-15 14:21:56.491512, 1.77419
2022-12-15 14:21:56.524965, 1.68621
2022-12-15 14:21:56.524965, 1.62756
2022-12-15 14:21:56.526019, 1.55425
2022-12-15 14:21:56.557284, 1.50537
2022-12-15 14:21:56.558292, 1.47116
2022-12-15 14:21:56.558292, 1.46627
2022-12-15 14:21:56.592099, 1.48582
2022-12-15 14:21:56.592482, 1.51026
2022-12-15 14:21:56.625664, 1.54447
2022-12-15 14:21:56.625903, 1.59824
2022-12-15 14:21:56.626506, 1.66666
2022-12-15 14:21:56.659174, 1.66666
2022-12-15 14:21:56.659464, 1.68132
2022-12-15 14:21:56.659464, 1.69599
2022-12-15 14:21:56.692642, 1.70087
2022-12-15 14:21:56.692987, 1.69599
2022-12-15 14:21:56.726144, 1.68621
2022-12-15 14:21:56.726383, 1.63734
2022-12-15 14:21:56.726932, 1.61779
2022-12-15 14:21:56.759666, 1.58846
2022-12-15 14:21:56.759957, 1.54936
2022-12-15 14:21:56.760461, 1.51515
2022-12-15 14:21:56.793121, 1.49071
2022-12-15 14:21:56.793121, 1.47116
2022-12-15 14:21:56.826028, 1.44672
2022-12-15 14:21:56.827036, 1.41739
2022-12-15 14:21:56.827371, 1.39784
2022-12-15 14:21:56.860169, 1.38807
2022-12-15 14:21:56.860459, 1.36363
2022-12-15 14:21:56.860996, 1.34897
2022-12-15 14:21:56.893787, 1.34408
2022-12-15 14:21:56.894133, 1.33919
2022-12-15 14:21:56.927351, 1.34408
2022-12-15 14:21:56.927589, 1.30009
2022-12-15 14:21:56.928184, 1.29521
2022-12-15 14:21:56.961011, 1.29521
2022-12-15 14:21:56.961302, 1.28543
2022-12-15 14:21:56.961302, 1.30498
2022-12-15 14:21:56.994421, 1.37829
2022-12-15 14:21:56.994764, 1.54936
2022-12-15 14:21:57.027973, 1.72531
2022-12-15 14:21:57.028212, 1.96969
2022-12-15 14:21:57.028796, 2.21896
2022-12-15 14:21:57.061533, 2.43890
2022-12-15 14:21:57.062100, 2.58064
2022-12-15 14:21:57.062100, 2.64907
2022-12-15 14:21:57.093951, 2.65884
2022-12-15 14:21:57.094976, 2.64907
2022-12-15 14:21:57.128138, 2.53665
2022-12-15 14:21:57.128361, 2.42913
2022-12-15 14:21:57.128815, 2.30694
2022-12-15 14:21:57.162142, 2.20430
2022-12-15 14:21:57.162435, 2.10166
2022-12-15 14:21:57.162979, 1.99413
2022-12-15 14:21:57.195801, 1.90615
2022-12-15 14:21:57.196185, 1.82795
2022-12-15 14:21:57.229178, 1.73998
2022-12-15 14:21:57.229448, 1.66177
2022-12-15 14:21:57.229912, 1.59824
2022-12-15 14:21:57.262664, 1.56402
2022-12-15 14:21:57.263001, 1.54936
2022-12-15 14:21:57.263001, 1.49560
2022-12-15 14:21:57.296358, 1.50048
2022-12-15 14:21:57.296358, 1.52981
2022-12-15 14:21:57.329867, 1.56402
2022-12-15 14:21:57.329867, 1.58357
2022-12-15 14:21:57.330869, 1.62756
2022-12-15 14:21:57.362639, 1.65689
2022-12-15 14:21:57.362639, 1.68132
2022-12-15 14:21:57.363640, 1.68132
2022-12-15 14:21:57.396673, 1.67644
2022-12-15 14:21:57.397059, 1.67155
2022-12-15 14:21:57.430348, 1.66177
2022-12-15 14:21:57.430590, 1.64222
2022-12-15 14:21:57.431173, 1.62267
2022-12-15 14:21:57.463899, 1.56891
2022-12-15 14:21:57.464222, 1.53958
2022-12-15 14:21:57.464765, 1.49560
2022-12-15 14:21:57.497574, 1.46138
2022-12-15 14:21:57.497923, 1.43695
2022-12-15 14:21:57.531100, 1.42228
2022-12-15 14:21:57.531339, 1.39784
2022-12-15 14:21:57.531339, 1.36363
2022-12-15 14:21:57.564419, 1.34408
2022-12-15 14:21:57.564419, 1.33431
2022-12-15 14:21:57.565301, 1.30498
2022-12-15 14:21:57.596964, 1.30009
2022-12-15 14:21:57.597931, 1.30009
2022-12-15 14:21:57.631547, 1.30987
2022-12-15 14:21:57.631818, 1.27077
2022-12-15 14:21:57.632410, 1.25610
2022-12-15 14:21:57.665113, 1.25122
2022-12-15 14:21:57.665404, 1.25122
2022-12-15 14:21:57.665404, 1.25122
2022-12-15 14:21:57.698693, 1.28054
2022-12-15 14:21:57.699036, 1.37341
2022-12-15 14:21:57.732268, 1.52003
2022-12-15 14:21:57.732506, 1.73509
2022-12-15 14:21:57.732964, 1.97947
2022-12-15 14:21:57.765891, 2.22385
2022-12-15 14:21:57.766227, 2.42913
2022-12-15 14:21:57.766227, 2.55620
2022-12-15 14:21:57.799187, 2.62952
2022-12-15 14:21:57.799187, 2.59042
2022-12-15 14:21:57.833074, 2.54643
2022-12-15 14:21:57.833074, 2.44379
2022-12-15 14:21:57.834078, 2.32160
2022-12-15 14:21:57.865019, 2.20918
2022-12-15 14:21:57.866028, 2.11143
2022-12-15 14:21:57.866572, 2.00391
2022-12-15 14:21:57.899694, 1.89638
2022-12-15 14:21:57.900041, 1.81329
2022-12-15 14:21:57.933252, 1.73998
2022-12-15 14:21:57.933492, 1.65200
2022-12-15 14:21:57.933492, 1.56891
2022-12-15 14:21:57.966830, 1.50537
2022-12-15 14:21:57.967121, 1.46138
2022-12-15 14:21:57.967121, 1.44672
2022-12-15 14:21:58.000404, 1.43206
2022-12-15 14:21:58.000750, 1.46138
2022-12-15 14:21:58.033890, 1.47116
2022-12-15 14:21:58.034625, 1.50537
2022-12-15 14:21:58.034851, 1.52981
2022-12-15 14:21:58.067382, 1.56891
2022-12-15 14:21:58.068134, 1.60801
2022-12-15 14:21:58.068134, 1.62756
2022-12-15 14:21:58.100940, 1.65200
2022-12-15 14:21:58.101947, 1.61779
2022-12-15 14:21:58.133898, 1.61290
2022-12-15 14:21:58.133898, 1.59335
2022-12-15 14:21:58.134896, 1.56402
2022-12-15 14:21:58.167804, 1.52492
2022-12-15 14:21:58.168284, 1.50537
2022-12-15 14:21:58.168913, 1.48093
2022-12-15 14:21:58.201736, 1.43695
2022-12-15 14:21:58.202011, 1.41251
2022-12-15 14:21:58.234974, 1.38807
2022-12-15 14:21:58.235371, 1.36852
2022-12-15 14:21:58.235936, 1.33919
2022-12-15 14:21:58.268747, 1.32453
2022-12-15 14:21:58.268747, 1.30009
2022-12-15 14:21:58.269461, 1.29032
2022-12-15 14:21:58.301742, 1.27077
2022-12-15 14:21:58.301742, 1.26099
2022-12-15 14:21:58.335547, 1.25610
2022-12-15 14:21:58.335838, 1.25610
2022-12-15 14:21:58.335838, 1.24633
2022-12-15 14:21:58.368593, 1.25122
2022-12-15 14:21:58.368593, 1.22189
2022-12-15 14:21:58.369599, 1.22189
2022-12-15 14:21:58.401606, 1.22189
2022-12-15 14:21:58.402615, 1.25122
2022-12-15 14:21:58.434899, 1.33431
2022-12-15 14:21:58.435897, 1.51026
2022-12-15 14:21:58.435897, 1.73998
2022-12-15 14:21:58.469653, 1.96480
2022-12-15 14:21:58.469987, 2.20430
2022-12-15 14:21:58.469987, 2.40957
2022-12-15 14:21:58.503265, 2.52199
2022-12-15 14:21:58.503638, 2.56598
2022-12-15 14:21:58.536721, 2.56109
2022-12-15 14:21:58.536962, 2.50733
2022-12-15 14:21:58.536962, 2.40957
2022-12-15 14:21:58.570242, 2.29716
2022-12-15 14:21:58.570532, 2.18475
2022-12-15 14:21:58.571080, 2.08211
2022-12-15 14:21:58.603317, 1.97458
2022-12-15 14:21:58.603317, 1.87194
2022-12-15 14:21:58.636960, 1.78396
2022-12-15 14:21:58.636960, 1.70576
2022-12-15 14:21:58.636960, 1.62756
2022-12-15 14:21:58.670520, 1.57869
2022-12-15 14:21:58.671131, 1.49071
2022-12-15 14:21:58.671131, 1.46138
2022-12-15 14:21:58.704532, 1.44183
2022-12-15 14:21:58.704877, 1.43206
2022-12-15 14:21:58.738176, 1.45161
2022-12-15 14:21:58.738176, 1.49071
2022-12-15 14:21:58.739178, 1.53470
2022-12-15 14:21:58.771494, 1.56891
2022-12-15 14:21:58.771785, 1.60801
2022-12-15 14:21:58.772786, 1.66666
2022-12-15 14:21:58.805151, 1.65200
2022-12-15 14:21:58.805151, 1.65200
2022-12-15 14:21:58.838578, 1.64711
2022-12-15 14:21:58.838877, 1.64222
2022-12-15 14:21:58.838877, 1.62756
2022-12-15 14:21:58.872062, 1.59335
2022-12-15 14:21:58.872390, 1.56891
2022-12-15 14:21:58.872847, 1.55425
2022-12-15 14:21:58.905660, 1.51026
2022-12-15 14:21:58.906006, 1.47116
2022-12-15 14:21:58.939086, 1.44183
2022-12-15 14:21:58.940089, 1.42228
2022-12-15 14:21:58.941084, 1.40762
2022-12-15 14:21:58.972219, 1.37829
2022-12-15 14:21:58.973225, 1.38318
2022-12-15 14:21:58.973225, 1.34408
2022-12-15 14:21:59.005099, 1.33431
2022-12-15 14:21:59.006100, 1.30987
2022-12-15 14:21:59.039199, 1.30498
2022-12-15 14:21:59.039199, 1.30009
2022-12-15 14:21:59.040203, 1.29521
2022-12-15 14:21:59.072611, 1.29032
2022-12-15 14:21:59.073612, 1.29032
2022-12-15 14:21:59.073612, 1.26099
2022-12-15 14:21:59.105887, 1.26588
2022-12-15 14:21:59.106891, 1.26588
2022-12-15 14:21:59.140398, 1.30987
2022-12-15 14:21:59.140636, 1.40762
2022-12-15 14:21:59.141099, 1.60312
2022-12-15 14:21:59.173398, 1.85239
2022-12-15 14:21:59.174392, 2.08211
2022-12-15 14:21:59.174392, 2.31671
2022-12-15 14:21:59.207369, 2.51221
2022-12-15 14:21:59.207369, 2.60997
2022-12-15 14:21:59.240691, 2.64418
2022-12-15 14:21:59.241288, 2.61485
2022-12-15 14:21:59.241288, 2.55620
2022-12-15 14:21:59.274011, 2.44868
2022-12-15 14:21:59.274011, 2.32649
2022-12-15 14:21:59.275008, 2.21896
2022-12-15 14:21:59.307644, 2.12121
2022-12-15 14:21:59.308063, 2.01857
2022-12-15 14:21:59.341049, 1.91593
2022-12-15 14:21:59.341373, 1.83773
2022-12-15 14:21:59.341817, 1.78885
2022-12-15 14:21:59.374710, 1.71065
2022-12-15 14:21:59.374977, 1.59824
2022-12-15 14:21:59.375424, 1.54447
2022-12-15 14:21:59.408496, 1.51026
2022-12-15 14:21:59.408842, 1.48582
2022-12-15 14:21:59.442123, 1.48093
2022-12-15 14:21:59.442364, 1.49560
2022-12-15 14:21:59.442822, 1.53470
2022-12-15 14:21:59.475715, 1.57380
2022-12-15 14:21:59.476056, 1.62267
2022-12-15 14:21:59.476661, 1.63245
2022-12-15 14:21:59.509219, 1.66177
2022-12-15 14:21:59.510058, 1.68132
2022-12-15 14:21:59.541869, 1.67155
2022-12-15 14:21:59.541869, 1.66666
2022-12-15 14:21:59.542897, 1.66177
2022-12-15 14:21:59.576164, 1.64711
2022-12-15 14:21:59.576454, 1.59824
2022-12-15 14:21:59.577101, 1.56891
2022-12-15 14:21:59.609011, 1.53958
2022-12-15 14:21:59.610009, 1.51026
2022-12-15 14:21:59.643438, 1.46627
2022-12-15 14:21:59.643676, 1.44183
2022-12-15 14:21:59.644314, 1.42228
2022-12-15 14:21:59.676862, 1.40762
2022-12-15 14:21:59.677154, 1.36363
2022-12-15 14:21:59.677630, 1.34408
2022-12-15 14:21:59.710597, 1.33431
2022-12-15 14:21:59.711016, 1.32453
2022-12-15 14:21:59.743963, 1.30009
2022-12-15 14:21:59.743963, 1.29032
2022-12-15 14:21:59.744965, 1.29032
2022-12-15 14:21:59.777845, 1.30009
2022-12-15 14:21:59.777845, 1.29521
2022-12-15 14:21:59.778848, 1.26099
2022-12-15 14:21:59.810673, 1.26099
2022-12-15 14:21:59.810673, 1.26099
2022-12-15 14:21:59.843909, 1.25122
2022-12-15 14:21:59.843909, 1.25122
2022-12-15 14:21:59.844823, 1.28054
2022-12-15 14:21:59.877541, 1.36852
2022-12-15 14:21:59.877541, 1.51026
2022-12-15 14:21:59.878531, 1.72531
2022-12-15 14:21:59.911013, 1.97458
2022-12-15 14:21:59.911013, 2.23851
2022-12-15 14:21:59.945050, 2.43401
2022-12-15 14:21:59.945288, 2.57086
2022-12-15 14:21:59.945750, 2.63440
2022-12-15 14:21:59.978545, 2.63929
2022-12-15 14:21:59.978839, 2.57575
2022-12-15 14:21:59.979428, 2.47311
2022-12-15 14:22:00.012202, 2.37047
2022-12-15 14:22:00.012547, 2.26295
2022-12-15 14:22:00.045451, 2.14565
2022-12-15 14:22:00.046207, 2.03323
2022-12-15 14:22:00.046207, 1.93548
2022-12-15 14:22:00.078968, 1.85239
2022-12-15 14:22:00.078968, 1.76441
2022-12-15 14:22:00.078968, 1.67644
2022-12-15 14:22:00.112339, 1.62267
2022-12-15 14:22:00.112670, 1.54447
2022-12-15 14:22:00.146499, 1.49071
2022-12-15 14:22:00.146788, 1.44672
2022-12-15 14:22:00.147341, 1.43206
2022-12-15 14:22:00.179934, 1.44672
2022-12-15 14:22:00.180228, 1.47605
2022-12-15 14:22:00.180811, 1.50048
2022-12-15 14:22:00.213319, 1.53470
2022-12-15 14:22:00.213661, 1.57869
2022-12-15 14:22:00.246879, 1.61290
2022-12-15 14:22:00.247119, 1.62756
2022-12-15 14:22:00.247119, 1.63734
2022-12-15 14:22:00.280583, 1.64711
2022-12-15 14:22:00.280583, 1.63734
2022-12-15 14:22:00.281584, 1.60801
2022-12-15 14:22:00.313990, 1.58846
2022-12-15 14:22:00.314670, 1.55913
2022-12-15 14:22:00.347069, 1.52981
2022-12-15 14:22:00.347283, 1.49071
2022-12-15 14:22:00.347778, 1.46138
2022-12-15 14:22:00.380977, 1.43206
2022-12-15 14:22:00.381325, 1.40762
2022-12-15 14:22:00.381904, 1.36852
2022-12-15 14:22:00.414675, 1.34408
2022-12-15 14:22:00.415021, 1.34897
2022-12-15 14:22:00.448260, 1.30987
2022-12-15 14:22:00.448500, 1.28054
2022-12-15 14:22:00.449095, 1.26588
2022-12-15 14:22:00.481614, 1.25610
2022-12-15 14:22:00.481906, 1.25122
2022-12-15 14:22:00.482360, 1.23655
2022-12-15 14:22:00.515290, 1.26099
2022-12-15 14:22:00.515638, 1.22678
2022-12-15 14:22:00.548595, 1.22678
2022-12-15 14:22:00.548595, 1.21212
2022-12-15 14:22:00.549598, 1.20723
2022-12-15 14:22:00.581085, 1.20234
2022-12-15 14:22:00.582087, 1.21700
2022-12-15 14:22:00.582087, 1.22189
2022-12-15 14:22:00.614721, 1.27565
2022-12-15 14:22:00.615722, 1.39784
2022-12-15 14:22:00.649292, 1.59335
2022-12-15 14:22:00.649530, 1.83773
2022-12-15 14:22:00.650121, 2.10654
2022-12-15 14:22:00.682780, 2.29716
2022-12-15 14:22:00.683070, 2.46823
2022-12-15 14:22:00.683651, 2.55131
2022-12-15 14:22:00.716371, 2.56598
2022-12-15 14:22:00.716371, 2.53176
2022-12-15 14:22:00.750043, 2.45356
2022-12-15 14:22:00.750282, 2.34604
2022-12-15 14:22:00.750745, 2.26295
2022-12-15 14:22:00.783062, 2.11632
2022-12-15 14:22:00.783062, 2.01368
2022-12-15 14:22:00.784115, 1.91104
2022-12-15 14:22:00.816921, 1.80840
2022-12-15 14:22:00.816921, 1.72531
2022-12-15 14:22:00.850572, 1.66177
2022-12-15 14:22:00.850572, 1.56402
2022-12-15 14:22:00.851408, 1.49071
2022-12-15 14:22:00.883012, 1.44183
2022-12-15 14:22:00.884019, 1.41251
2022-12-15 14:22:00.884019, 1.39296
2022-12-15 14:22:00.917095, 1.40273
2022-12-15 14:22:00.917411, 1.42717
2022-12-15 14:22:00.951163, 1.47605
2022-12-15 14:22:00.951400, 1.50048
2022-12-15 14:22:00.951400, 1.53470
2022-12-15 14:22:00.984604, 1.57380
2022-12-15 14:22:00.985372, 1.60312
2022-12-15 14:22:00.985372, 1.62267
2022-12-15 14:22:01.018195, 1.61779
2022-12-15 14:22:01.018977, 1.61779
2022-12-15 14:22:01.051718, 1.63245
2022-12-15 14:22:01.051718, 1.57869
2022-12-15 14:22:01.052512, 1.54447
2022-12-15 14:22:01.085300, 1.51515
2022-12-15 14:22:01.086009, 1.49071
2022-12-15 14:22:01.086009, 1.46138
2022-12-15 14:22:01.118256, 1.42717
2022-12-15 14:22:01.119264, 1.39784
2022-12-15 14:22:01.151528, 1.39784
2022-12-15 14:22:01.151528, 1.34897
2022-12-15 14:22:01.152501, 1.32453
2022-12-15 14:22:01.185801, 1.30498
2022-12-15 14:22:01.186052, 1.29032
2022-12-15 14:22:01.186642, 1.28054
2022-12-15 14:22:01.219322, 1.26099
2022-12-15 14:22:01.219322, 1.25122
2022-12-15 14:22:01.252943, 1.25610
2022-12-15 14:22:01.252943, 1.26099
2022-12-15 14:22:01.253971, 1.25610
2022-12-15 14:22:01.286043, 1.23167
2022-12-15 14:22:01.286043, 1.23167
2022-12-15 14:22:01.287050, 1.23167
2022-12-15 14:22:01.319913, 1.22678
2022-12-15 14:22:01.320258, 1.23655
2022-12-15 14:22:01.353162, 1.28054
2022-12-15 14:22:01.353162, 1.39784
2022-12-15 14:22:01.354171, 1.58357
2022-12-15 14:22:01.386689, 1.79374
2022-12-15 14:22:01.386827, 2.04789
2022-12-15 14:22:01.386827, 2.29227
2022-12-15 14:22:01.420522, 2.46334
2022-12-15 14:22:01.420868, 2.56598
2022-12-15 14:22:01.453520, 2.63440
2022-12-15 14:22:01.453801, 2.59530
2022-12-15 14:22:01.454449, 2.51710
2022-12-15 14:22:01.487603, 2.41446
2022-12-15 14:22:01.487895, 2.31182
2022-12-15 14:22:01.487895, 2.24340
2022-12-15 14:22:01.521133, 2.09677
2022-12-15 14:22:01.521513, 1.98924
2022-12-15 14:22:01.554657, 1.89638
2022-12-15 14:22:01.554898, 1.81329
2022-12-15 14:22:01.555357, 1.72531
2022-12-15 14:22:01.588209, 1.63734
2022-12-15 14:22:01.588540, 1.57380
2022-12-15 14:22:01.589126, 1.52003
2022-12-15 14:22:01.621523, 1.49071
2022-12-15 14:22:01.622053, 1.45161
2022-12-15 14:22:01.654499, 1.45650
2022-12-15 14:22:01.654499, 1.48093
2022-12-15 14:22:01.655494, 1.51515
2022-12-15 14:22:01.688667, 1.54447
2022-12-15 14:22:01.688958, 1.59335
2022-12-15 14:22:01.689538, 1.63734
2022-12-15 14:22:01.722374, 1.66177
2022-12-15 14:22:01.722715, 1.67155
2022-12-15 14:22:01.755745, 1.68132
2022-12-15 14:22:01.755985, 1.68132
2022-12-15 14:22:01.756986, 1.67155
2022-12-15 14:22:01.789500, 1.65689
2022-12-15 14:22:01.789834, 1.61290
2022-12-15 14:22:01.790429, 1.58846
2022-12-15 14:22:01.822573, 1.55913
2022-12-15 14:22:01.822924, 1.51515
2022-12-15 14:22:01.856496, 1.48582
2022-12-15 14:22:01.856496, 1.46627
2022-12-15 14:22:01.857499, 1.46627
2022-12-15 14:22:01.889872, 1.40273
2022-12-15 14:22:01.889872, 1.38318
2022-12-15 14:22:01.890885, 1.36852
2022-12-15 14:22:01.923095, 1.35874
2022-12-15 14:22:01.923542, 1.33919
2022-12-15 14:22:01.956937, 1.35386
2022-12-15 14:22:01.957327, 1.31476
2022-12-15 14:22:01.957327, 1.30987
2022-12-15 14:22:01.990333, 1.30009
2022-12-15 14:22:01.990775, 1.29032
2022-12-15 14:22:01.991353, 1.29032
2022-12-15 14:22:02.023838, 1.29032
2022-12-15 14:22:02.024197, 1.27077
2022-12-15 14:22:02.057201, 1.26588
2022-12-15 14:22:02.057468, 1.27565
2022-12-15 14:22:02.057970, 1.32942
2022-12-15 14:22:02.090785, 1.42717
2022-12-15 14:22:02.091103, 1.61290
2022-12-15 14:22:02.091764, 1.85239
2022-12-15 14:22:02.124723, 2.12121
2022-12-15 14:22:02.125094, 2.35092
2022-12-15 14:22:02.158116, 2.53176
2022-12-15 14:22:02.158116, 2.64907
2022-12-15 14:22:02.159121, 2.69794
2022-12-15 14:22:02.190918, 2.65884
2022-12-15 14:22:02.190918, 2.58553
2022-12-15 14:22:02.191919, 2.48778
2022-12-15 14:22:02.224805, 2.39002
2022-12-15 14:22:02.225269, 2.29716
2022-12-15 14:22:02.258490, 2.15053
2022-12-15 14:22:02.258812, 2.05278
2022-12-15 14:22:02.259270, 1.96480
2022-12-15 14:22:02.292010, 1.87194
2022-12-15 14:22:02.292352, 1.78885
2022-12-15 14:22:02.292799, 1.71065
2022-12-15 14:22:02.325397, 1.65200
2022-12-15 14:22:02.325819, 1.59335
2022-12-15 14:22:02.359320, 1.53958
2022-12-15 14:22:02.359559, 1.51026
2022-12-15 14:22:02.359559, 1.51026
2022-12-15 14:22:02.392858, 1.52003
2022-12-15 14:22:02.393153, 1.53470
2022-12-15 14:22:02.393740, 1.56891
2022-12-15 14:22:02.426429, 1.61290
2022-12-15 14:22:02.426429, 1.65200
2022-12-15 14:22:02.459773, 1.68621
2022-12-15 14:22:02.460200, 1.67644
2022-12-15 14:22:02.460847, 1.69110
2022-12-15 14:22:02.493424, 1.68621
2022-12-15 14:22:02.493715, 1.66177
2022-12-15 14:22:02.494301, 1.64222
2022-12-15 14:22:02.527067, 1.62267
2022-12-15 14:22:02.527425, 1.59824
2022-12-15 14:22:02.560496, 1.54936
2022-12-15 14:22:02.560737, 1.51515
2022-12-15 14:22:02.560737, 1.49071
2022-12-15 14:22:02.594121, 1.46138
2022-12-15 14:22:02.594413, 1.42717
2022-12-15 14:22:02.595015, 1.39784
2022-12-15 14:22:02.627615, 1.38318
2022-12-15 14:22:02.627962, 1.37829
2022-12-15 14:22:02.661159, 1.33431
2022-12-15 14:22:02.661397, 1.31964
2022-12-15 14:22:02.661397, 1.30498
2022-12-15 14:22:02.694607, 1.30009
2022-12-15 14:22:02.694607, 1.29032
2022-12-15 14:22:02.695609, 1.28054
2022-12-15 14:22:02.727408, 1.27565
2022-12-15 14:22:02.728443, 1.27565
2022-12-15 14:22:02.761674, 1.25610
2022-12-15 14:22:02.761916, 1.25122
2022-12-15 14:22:02.761916, 1.25610
2022-12-15 14:22:02.795271, 1.26588
2022-12-15 14:22:02.795565, 1.29521
2022-12-15 14:22:02.796111, 1.39784
2022-12-15 14:22:02.828775, 1.52492
2022-12-15 14:22:02.829119, 1.75464
2022-12-15 14:22:02.862311, 1.99902
2022-12-15 14:22:02.862555, 2.23362
2022-12-15 14:22:02.863009, 2.43890
2022-12-15 14:22:02.895764, 2.58064
2022-12-15 14:22:02.895764, 2.65395
2022-12-15 14:22:02.896807, 2.60997
2022-12-15 14:22:02.929612, 2.55620
2022-12-15 14:22:02.929982, 2.47311
2022-12-15 14:22:02.962846, 2.38025
2022-12-15 14:22:02.962846, 2.23362
2022-12-15 14:22:02.963861, 2.12609
2022-12-15 14:22:02.996259, 2.03323
2022-12-15 14:22:02.997268, 1.92570
2022-12-15 14:22:02.997268, 1.83284
2022-12-15 14:22:03.029891, 1.75464
2022-12-15 14:22:03.030236, 1.71554
2022-12-15 14:22:03.063271, 1.60312
2022-12-15 14:22:03.063271, 1.52981
2022-12-15 14:22:03.064286, 1.48093
2022-12-15 14:22:03.097096, 1.45650
2022-12-15 14:22:03.097390, 1.43695
2022-12-15 14:22:03.097935, 1.44183
2022-12-15 14:22:03.130612, 1.47605
2022-12-15 14:22:03.130961, 1.50048
2022-12-15 14:22:03.164181, 1.53470
2022-12-15 14:22:03.164466, 1.55913
2022-12-15 14:22:03.164965, 1.59335
2022-12-15 14:22:03.197711, 1.61779
2022-12-15 14:22:03.198040, 1.62756
2022-12-15 14:22:03.198634, 1.62267
2022-12-15 14:22:03.231181, 1.63245
2022-12-15 14:22:03.232186, 1.61290
2022-12-15 14:22:03.264270, 1.57380
2022-12-15 14:22:03.264270, 1.53470
2022-12-15 14:22:03.264270, 1.50048
2022-12-15 14:22:03.298187, 1.47605
2022-12-15 14:22:03.298479, 1.44672
2022-12-15 14:22:03.298479, 1.41251
2022-12-15 14:22:03.331797, 1.39784
2022-12-15 14:22:03.332145, 1.36363
2022-12-15 14:22:03.365386, 1.33919
2022-12-15 14:22:03.365626, 1.30987
2022-12-15 14:22:03.365626, 1.29032
2022-12-15 14:22:03.398878, 1.27565
2022-12-15 14:22:03.399168, 1.26588
2022-12-15 14:22:03.399746, 1.25122
2022-12-15 14:22:03.432439, 1.24144
2022-12-15 14:22:03.432785, 1.23167
2022-12-15 14:22:03.465966, 1.23167
2022-12-15 14:22:03.466208, 1.21700
2022-12-15 14:22:03.466208, 1.21212
2022-12-15 14:22:03.499566, 1.21212
2022-12-15 14:22:03.499940, 1.21700
2022-12-15 14:22:03.500943, 1.22678
2022-12-15 14:22:03.532624, 1.23655
2022-12-15 14:22:03.532624, 1.31476
2022-12-15 14:22:03.566431, 1.47116
2022-12-15 14:22:03.566672, 1.67644
2022-12-15 14:22:03.567227, 1.92570
2022-12-15 14:22:03.599996, 2.17497
2022-12-15 14:22:03.600287, 2.40469
2022-12-15 14:22:03.600833, 2.50733
2022-12-15 14:22:03.633574, 2.54154
2022-12-15 14:22:03.633918, 2.54154
2022-12-15 14:22:03.666039, 2.49266
2022-12-15 14:22:03.667037, 2.39002
2022-12-15 14:22:03.667037, 2.28250
2022-12-15 14:22:03.700673, 2.17497
2022-12-15 14:22:03.700964, 2.07233
2022-12-15 14:22:03.700964, 1.95992
2022-12-15 14:22:03.734242, 1.87683
2022-12-15 14:22:03.734636, 1.76930
2022-12-15 14:22:03.767824, 1.69599
2022-12-15 14:22:03.768064, 1.60312
2022-12-15 14:22:03.768064, 1.52981
2022-12-15 14:22:03.801196, 1.46627
2022-12-15 14:22:03.801196, 1.43206
2022-12-15 14:22:03.802076, 1.41739
2022-12-15 14:22:03.833928, 1.39296
2022-12-15 14:22:03.834938, 1.40273
2022-12-15 14:22:03.868203, 1.44183
2022-12-15 14:22:03.868441, 1.48093
2022-12-15 14:22:03.868441, 1.51026
2022-12-15 14:22:03.901721, 1.55425
2022-12-15 14:22:03.901721, 1.59824
2022-12-15 14:22:03.902722, 1.62756
2022-12-15 14:22:03.935344, 1.65689
2022-12-15 14:22:03.935344, 1.62267
2022-12-15 14:22:03.968905, 1.62267
2022-12-15 14:22:03.969146, 1.59824
2022-12-15 14:22:03.969146, 1.56891
2022-12-15 14:22:04.002333, 1.54447
2022-12-15 14:22:04.003084, 1.52003
2022-12-15 14:22:04.003084, 1.49071
2022-12-15 14:22:04.035920, 1.47605
2022-12-15 14:22:04.036692, 1.42228
2022-12-15 14:22:04.069481, 1.39784
2022-12-15 14:22:04.069796, 1.37829
2022-12-15 14:22:04.070440, 1.34897
2022-12-15 14:22:04.103019, 1.32942
2022-12-15 14:22:04.103019, 1.31476
2022-12-15 14:22:04.104073, 1.30498
2022-12-15 14:22:04.136556, 1.28543
2022-12-15 14:22:04.136556, 1.28054
2022-12-15 14:22:04.169078, 1.27565
2022-12-15 14:22:04.170075, 1.26588
2022-12-15 14:22:04.170075, 1.25122
2022-12-15 14:22:04.203601, 1.25122
2022-12-15 14:22:04.203895, 1.24144
2022-12-15 14:22:04.204898, 1.24633
2022-12-15 14:22:04.237004, 1.24144
2022-12-15 14:22:04.237004, 1.25122
2022-12-15 14:22:04.270207, 1.32453
2022-12-15 14:22:04.270443, 1.46138
2022-12-15 14:22:04.270443, 1.66666
2022-12-15 14:22:04.304016, 1.91593
2022-12-15 14:22:04.304016, 2.16520
2022-12-15 14:22:04.304974, 2.38025
2022-12-15 14:22:04.337118, 2.51710
2022-12-15 14:22:04.338119, 2.59042
2022-12-15 14:22:04.370772, 2.60508
2022-12-15 14:22:04.371000, 2.57086
2022-12-15 14:22:04.371461, 2.47800
2022-12-15 14:22:04.404766, 2.37047
2022-12-15 14:22:04.405089, 2.26295
2022-12-15 14:22:04.405089, 2.18475
2022-12-15 14:22:04.438177, 2.04789
2022-12-15 14:22:04.439056, 1.97458
2022-12-15 14:22:04.471113, 1.87194
2022-12-15 14:22:04.471113, 1.79374
2022-12-15 14:22:04.472114, 1.69599
2022-12-15 14:22:04.505297, 1.61779
2022-12-15 14:22:04.505587, 1.54936
2022-12-15 14:22:04.505587, 1.50537
2022-12-15 14:22:04.539008, 1.47116
2022-12-15 14:22:04.539397, 1.46138
2022-12-15 14:22:04.572529, 1.46138
2022-12-15 14:22:04.572857, 1.49071
2022-12-15 14:22:04.573485, 1.52003
2022-12-15 14:22:04.605995, 1.54936
2022-12-15 14:22:04.606340, 1.59335
2022-12-15 14:22:04.606800, 1.63245
2022-12-15 14:22:04.639475, 1.65689
2022-12-15 14:22:04.639475, 1.68132
2022-12-15 14:22:04.672978, 1.65689
2022-12-15 14:22:04.672978, 1.65689
2022-12-15 14:22:04.673980, 1.64222
2022-12-15 14:22:04.706480, 1.60801
2022-12-15 14:22:04.707488, 1.58357
2022-12-15 14:22:04.707488, 1.55913
2022-12-15 14:22:04.739693, 1.54936
2022-12-15 14:22:04.740011, 1.48093
2022-12-15 14:22:04.773053, 1.45161
2022-12-15 14:22:04.773053, 1.43206
2022-12-15 14:22:04.774056, 1.39784
2022-12-15 14:22:04.806784, 1.37341
2022-12-15 14:22:04.807093, 1.37829
2022-12-15 14:22:04.808095, 1.33431
2022-12-15 14:22:04.840186, 1.31964
2022-12-15 14:22:04.840186, 1.29521
2022-12-15 14:22:04.873053, 1.28543
2022-12-15 14:22:04.874023, 1.27565
2022-12-15 14:22:04.874023, 1.28054
2022-12-15 14:22:04.907589, 1.26099
2022-12-15 14:22:04.908003, 1.26099
2022-12-15 14:22:04.908513, 1.24633
2022-12-15 14:22:04.941229, 1.24633
2022-12-15 14:22:04.941601, 1.23167
2022-12-15 14:22:04.973942, 1.22678
2022-12-15 14:22:04.974972, 1.24633
2022-12-15 14:22:04.975970, 1.30009
2022-12-15 14:22:05.007800, 1.41251
2022-12-15 14:22:05.007800, 1.60312
2022-12-15 14:22:05.007800, 1.86217
2022-12-15 14:22:05.041437, 2.12121
2022-12-15 14:22:05.041437, 2.33137
2022-12-15 14:22:05.074790, 2.49266
2022-12-15 14:22:05.074790, 2.59530
2022-12-15 14:22:05.075826, 2.62952
2022-12-15 14:22:05.108988, 2.58064
2022-12-15 14:22:05.109282, 2.50244
2022-12-15 14:22:05.109871, 2.40957
2022-12-15 14:22:05.142528, 2.31182
2022-12-15 14:22:05.142982, 2.20430
2022-12-15 14:22:05.176063, 2.08699
2022-12-15 14:22:05.176329, 2.01857
2022-12-15 14:22:05.176329, 1.92082
2022-12-15 14:22:05.209568, 1.83284
2022-12-15 14:22:05.209894, 1.74486
2022-12-15 14:22:05.209894, 1.66666
2022-12-15 14:22:05.242955, 1.59824
2022-12-15 14:22:05.243537, 1.52981
2022-12-15 14:22:05.275798, 1.48582
2022-12-15 14:22:05.275798, 1.47116
2022-12-15 14:22:05.276800, 1.46138
2022-12-15 14:22:05.310148, 1.46627
2022-12-15 14:22:05.310440, 1.48093
2022-12-15 14:22:05.311028, 1.51515
2022-12-15 14:22:05.343373, 1.54936
2022-12-15 14:22:05.343768, 1.57869
2022-12-15 14:22:05.376654, 1.59335
2022-12-15 14:22:05.376979, 1.62756
2022-12-15 14:22:05.377430, 1.64711
2022-12-15 14:22:05.410114, 1.60801
2022-12-15 14:22:05.410114, 1.58357
2022-12-15 14:22:05.411114, 1.56402
2022-12-15 14:22:05.444279, 1.54447
2022-12-15 14:22:05.444279, 1.51515
2022-12-15 14:22:05.477774, 1.48582
2022-12-15 14:22:05.477774, 1.46627
2022-12-15 14:22:05.478775, 1.41251
2022-12-15 14:22:05.511391, 1.38318
2022-12-15 14:22:05.512396, 1.34408
2022-12-15 14:22:05.512396, 1.31476
2022-12-15 14:22:05.544678, 1.29521
2022-12-15 14:22:05.545023, 1.27565
2022-12-15 14:22:05.578307, 1.25122
2022-12-15 14:22:05.578548, 1.24144
2022-12-15 14:22:05.579137, 1.23167
2022-12-15 14:22:05.611957, 1.24144
2022-12-15 14:22:05.612250, 1.19745
2022-12-15 14:22:05.612834, 1.18768
2022-12-15 14:22:05.645455, 1.18768
2022-12-15 14:22:05.645798, 1.18279
2022-12-15 14:22:05.678919, 1.16324
2022-12-15 14:22:05.679159, 1.16813
2022-12-15 14:22:05.679617, 1.18279
2022-12-15 14:22:05.712480, 1.20234
2022-12-15 14:22:05.712773, 1.20723
2022-12-15 14:22:05.713314, 1.30987
2022-12-15 14:22:05.746037, 1.48582
2022-12-15 14:22:05.746410, 1.71554
2022-12-15 14:22:05.779431, 1.94525
2022-12-15 14:22:05.780169, 2.15053
2022-12-15 14:22:05.780169, 2.31671
2022-12-15 14:22:05.811931, 2.43890
2022-12-15 14:22:05.813032, 2.43890
2022-12-15 14:22:05.813486, 2.40957
2022-12-15 14:22:05.846530, 2.34604
2022-12-15 14:22:05.846879, 2.27272
2022-12-15 14:22:05.879546, 2.15053
2022-12-15 14:22:05.879885, 2.04789
2022-12-15 14:22:05.880374, 1.94037
2022-12-15 14:22:05.913654, 1.85239
2022-12-15 14:22:05.913946, 1.77908
2022-12-15 14:22:05.914531, 1.66177
2022-12-15 14:22:05.947307, 1.58357
2022-12-15 14:22:05.947649, 1.51515
2022-12-15 14:22:05.980787, 1.44672
2022-12-15 14:22:05.981056, 1.39296
2022-12-15 14:22:05.981559, 1.37829
2022-12-15 14:22:06.014326, 1.35874
2022-12-15 14:22:06.014326, 1.32942
2022-12-15 14:22:06.015327, 1.33919
2022-12-15 14:22:06.047037, 1.35874
2022-12-15 14:22:06.048065, 1.39784
2022-12-15 14:22:06.081228, 1.42717
2022-12-15 14:22:06.081467, 1.45161
2022-12-15 14:22:06.082063, 1.50048
2022-12-15 14:22:06.114883, 1.49071
2022-12-15 14:22:06.115176, 1.49560
2022-12-15 14:22:06.115724, 1.48093
2022-12-15 14:22:06.148422, 1.47605
2022-12-15 14:22:06.148768, 1.46627
2022-12-15 14:22:06.181966, 1.44183
2022-12-15 14:22:06.182206, 1.41739
2022-12-15 14:22:06.182668, 1.40762
2022-12-15 14:22:06.215540, 1.35386
2022-12-15 14:22:06.215869, 1.32942
2022-12-15 14:22:06.216460, 1.29521
2022-12-15 14:22:06.249200, 1.26588
2022-12-15 14:22:06.249570, 1.25122
2022-12-15 14:22:06.282629, 1.23655
2022-12-15 14:22:06.283341, 1.21700
2022-12-15 14:22:06.283341, 1.18768
2022-12-15 14:22:06.315229, 1.16813
2022-12-15 14:22:06.316238, 1.15835
2022-12-15 14:22:06.316238, 1.13880
2022-12-15 14:22:06.349120, 1.13391
2022-12-15 14:22:06.349599, 1.12414
2022-12-15 14:22:06.383262, 1.12414
2022-12-15 14:22:06.383548, 1.11436
2022-12-15 14:22:06.384141, 1.08993
2022-12-15 14:22:06.416780, 1.08993
2022-12-15 14:22:06.417071, 1.08993
2022-12-15 14:22:06.417620, 1.11925
2022-12-15 14:22:06.450370, 1.19257
2022-12-15 14:22:06.450716, 1.33919
2022-12-15 14:22:06.483737, 1.55425
2022-12-15 14:22:06.483978, 1.73509
2022-12-15 14:22:06.484563, 1.94037
2022-12-15 14:22:06.517303, 2.11143
2022-12-15 14:22:06.517597, 2.23362
2022-12-15 14:22:06.518055, 2.28738
2022-12-15 14:22:06.550214, 2.27761
2022-12-15 14:22:06.550214, 2.23851
2022-12-15 14:22:06.583161, 2.19452
2022-12-15 14:22:06.584162, 2.08211
2022-12-15 14:22:06.584162, 1.98435
2022-12-15 14:22:06.617770, 1.89638
2022-12-15 14:22:06.618104, 1.81818
2022-12-15 14:22:06.618649, 1.72043
2022-12-15 14:22:06.651394, 1.64222
2022-12-15 14:22:06.652024, 1.57380
2022-12-15 14:22:06.685132, 1.51026
2022-12-15 14:22:06.685412, 1.45650
2022-12-15 14:22:06.685879, 1.38318
2022-12-15 14:22:06.718616, 1.34408
2022-12-15 14:22:06.718907, 1.32942
2022-12-15 14:22:06.718907, 1.32453
2022-12-15 14:22:06.751929, 1.32942
2022-12-15 14:22:06.751929, 1.35874
2022-12-15 14:22:06.785516, 1.39784
2022-12-15 14:22:06.786524, 1.43695
2022-12-15 14:22:06.786524, 1.46138
2022-12-15 14:22:06.818360, 1.46627
2022-12-15 14:22:06.818360, 1.49560
2022-12-15 14:22:06.819360, 1.50048
2022-12-15 14:22:06.852204, 1.49071
2022-12-15 14:22:06.852819, 1.48582
2022-12-15 14:22:06.886128, 1.48582
2022-12-15 14:22:06.886718, 1.47605
2022-12-15 14:22:06.886718, 1.43206
2022-12-15 14:22:06.919696, 1.40762
2022-12-15 14:22:06.920255, 1.39296
2022-12-15 14:22:06.920255, 1.36363
2022-12-15 14:22:06.952565, 1.32942
2022-12-15 14:22:06.952565, 1.31476
2022-12-15 14:22:06.986601, 1.30498
2022-12-15 14:22:06.987328, 1.30009
2022-12-15 14:22:06.987328, 1.25610
