81.36021954022988
80.44605977011494
79.98123276836156
79.98123276836156
79.54663222191348
79.0972994535519
79.0972994535519
79.5319
78.26948888888887
77.41430716845878
76.55912544802867
77.38693601269169
77.80751718667372
78.66269890710382
79.54663222191348
79.98123276836156
80.89539253847651
81.84135626134301
82.29068902970458
82.7718257508177
82.29068902970458
82.75551603145794
82.27437931034481
81.80955230859146
81.80955230859146
81.80955230859146
82.27437931034481
83.25383620689654
84.23329310344826
85.72919090909089
85.72919090909089
86.2456318181818
85.72919090909089
85.72919090909089
84.71442982456139
84.71442982456138
84.71442982456138
85.21274999999999
85.21274999999999
85.21274999999999
84.71442982456139
84.21610964912279
84.21610964912279
83.2701459262563
82.32418220338982
81.34472530683809
81.80955230859146
81.80955230859146
81.80955230859146
82.29068902970458
82.75551603145794
82.75551603145794
82.27437931034481
82.75551603145794
83.23665275257108
83.23665275257108
83.23665275257108
82.75551603145794
82.75551603145794
81.80955230859146
81.80955230859146
82.29068902970458
82.29068902970458
82.29068902970458
81.34472530683809
82.29068902970458
81.82586202795122
81.82586202795122
81.34472530683809
81.80955230859146
81.80955230859146
81.34472530683809
81.34472530683809
81.34472530683809
81.34472530683809
80.87989830508474
80.43056553672315
80.43056553672315
80.43056553672315
80.43056553672315
79.54663222191348
79.0972994535519
80.01145922366685
80.89539253847651
81.34472530683809
81.34472530683809
81.34472530683809
80.89539253847651
80.43056553672315
80.43056553672315
80.87989830508474
80.43056553672315
80.43056553672315
79.54663222191348
79.54663222191348
79.0972994535519
79.5319
79.5319
79.98123276836156
80.43056553672315
80.43056553672315
80.43056553672315
80.43056553672315
80.87989830508474
80.43056553672315
80.43056553672315
80.89539253847651
80.89539253847651
80.44605977011494
80.44605977011494
81.36021954022988
81.80955230859146
81.34472530683809
80.87989830508474
81.34472530683809
81.34472530683809
80.89539253847651
80.43056553672315
80.43056553672315
80.87989830508474
80.87989830508474
81.82586202795122
82.29068902970458
81.84135626134301
81.36021954022988
81.84135626134301
83.73497292800967
84.71442982456138
83.7684661016949
81.44024888858016
78.69145050148337
78.2421177331218
77.01980369623655
75.46492784090908
73.4256483537296
72.67250536130535
72.67250536130535
73.44937373737372
75.8594313131313
78.26948888888887
79.5319
80.92719649122806
81.84135626134301
82.75551603145794
82.75551603145794
83.23665275257108
83.23665275257108
82.29068902970458
81.80955230859146
80.89539253847651
80.89539253847651
80.43056553672315
81.34472530683809
81.80955230859146
82.27437931034481
82.75551603145794
83.23665275257108
82.7718257508177
81.82586202795122
81.34472530683809
81.34472530683809
81.34472530683809
80.87989830508474
80.87989830508474
80.43056553672315
79.98123276836156
80.44605977011494
80.89539253847651
81.34472530683809
81.34472530683809
81.80955230859146
82.27437931034481
81.80955230859146
81.80955230859146
81.34472530683809
81.34472530683809
81.34472530683809
81.80955230859146
81.80955230859146
80.89539253847651
80.89539253847651
80.89539253847651
80.89539253847651
80.89539253847651
80.44605977011494
80.44605977011494
79.98123276836156
79.98123276836156
80.43056553672315
80.43056553672315
80.87989830508474
81.34472530683809
81.80955230859146
82.27437931034481
81.80955230859146
81.80955230859146
80.89539253847651
80.01145922366685
79.54663222191348
79.99596499027507
80.43056553672315
79.98123276836156
79.5319
79.5319
79.98123276836156
81.87484943502824
81.87484943502824
82.33967643678159
81.36021954022988
82.75551603145794
83.23665275257108
82.32249298245613
81.84135626134301
80.44605977011494
80.44605977011494
79.0972994535519
79.0972994535519
79.0972994535519
79.5319
79.5319
79.98123276836156
80.89539253847651
81.34472530683809
81.34472530683809
81.34472530683809
81.80955230859146
81.36021954022988
80.44605977011494
79.98123276836156
79.98123276836156
79.98123276836156
79.0972994535519
78.66269890710382
79.1120316754654
80.46079199202842
80.89539253847651
80.01145922366685
79.0972994535519
79.54663222191348
79.54663222191348
79.1120316754654
77.8075171866737
78.2421177331218
77.82153655913977
77.41430716845878
76.9797066220107
77.83488834244079
78.66269890710382
78.66269890710382
78.22809836065574
78.66269890710382
78.66269890710382
78.66269890710382
79.1120316754654
80.46079199202842
81.34472530683809
81.34472530683809
80.87989830508474
80.43056553672315
79.12605104793147
78.67671827956988
78.67671827956988
79.0972994535519
79.0972994535519
79.54663222191348
80.43056553672315
80.87989830508474
80.43056553672315
81.37652925958963
82.32249298245613
83.23665275257108
82.75551603145794
82.27437931034481
82.27437931034481
81.36021954022988
80.89539253847651
80.89539253847651
80.89539253847651
80.89539253847651
79.54663222191348
79.99596499027507
79.54663222191348
79.98123276836156
80.44605977011494
81.84135626134301
82.75551603145794
82.29068902970458
81.80955230859146
81.34472530683809
80.46079199202842
79.54663222191348
78.66269890710382
78.66269890710382
77.8075171866737
78.2421177331218
79.12605104793147
80.43056553672315
80.43056553672315
80.89539253847651
81.36021954022988
81.80955230859146
81.34472530683809
81.34472530683809
81.34472530683809
80.89539253847651
79.98123276836156
80.44605977011494
81.36021954022988
82.27437931034481
82.27437931034481
81.80955230859146
81.34472530683809
79.57538381629304
78.69145050148339
77.38693601269169
76.58520314978847
74.98052420905707
74.57329481837607
74.96779829059828
74.23731011608622
74.64453950676723
75.05176889744824
76.96635483870968
76.96635483870968
77.38693601269169
78.2421177331218
78.2421177331218
77.82153655913977
77.38693601269169
77.80751718667372
77.8075171866737
77.38693601269169
77.38693601269169
78.2421177331218
78.2421177331218
77.82153655913977
77.38693601269169
78.69145050148339
79.54663222191348
79.98123276836156
79.5319
79.0972994535519
79.0972994535519
78.66269890710382
78.66269890710382
77.8075171866737
78.2421177331218
78.67671827956988
79.5319
79.0972994535519
79.54663222191348
79.1120316754654
79.1120316754654
78.66269890710382
79.0972994535519
78.67671827956988
78.2421177331218
78.69145050148339
79.54663222191348
79.54663222191348
79.0972994535519
79.0972994535519
79.5319
79.5319
80.44605977011494
80.89539253847651
81.80955230859146
80.89539253847651
81.36021954022988
80.89539253847651
81.34472530683809
80.87989830508474
81.34472530683809
81.80955230859146
81.80955230859146
81.34472530683809
79.99596499027507
79.54663222191348
79.54663222191348
79.98123276836156
79.54663222191348
78.66269890710382
79.1120316754654
80.46079199202842
80.89539253847651
80.01145922366685
79.0972994535519
78.66269890710382
77.83488834244079
76.17797375910746
74.95565972222221
74.17879134615384
73.06593826779563
73.46044174001784
73.84280664386401
74.95565972222221
74.17879134615384
74.98052420905707
75.78225707196029
76.55912544802867
76.9797066220107
77.40028779599271
77.8075171866737
76.9797066220107
76.9797066220107
76.97970662201068
78.2421177331218
78.2421177331218
79.0972994535519
79.54663222191348
79.54663222191348
79.1120316754654
78.22809836065574
78.22809836065574
77.8075171866737
77.80751718667372
76.58520314978847
75.78347028688523
75.78347028688523
76.58520314978847
77.80751718667372
76.9797066220107
77.83488834244079
77.41430716845878
77.41430716845878
76.15189605734767
76.15189605734766
76.15189605734767
75.37502768127929
74.96779829059828
74.57329481837607
76.17797375910746
76.17797375910746
76.57247723132969
76.15189605734766
76.55912544802867
76.55912544802867
75.75739258512544
76.17797375910746
76.58520314978847
77.38693601269169
76.96635483870968
76.96635483870968
76.96635483870968
76.96635483870968
76.16462197580645
76.16462197580644
76.58520314978847
77.80751718667372
78.22809836065574
78.66269890710382
79.0972994535519
79.5319
78.67671827956988
79.12605104793147
79.57538381629305
79.99596499027507
79.54663222191348
79.0972994535519
79.5319
79.0972994535519
78.2421177331218
78.2421177331218
78.67671827956988
78.67671827956988
78.67671827956988
78.67671827956988
80.92719649122806
81.84135626134301
82.75551603145794
81.36021954022988
80.44605977011494
80.44605977011494
81.36021954022988
81.80955230859146
80.89539253847651
80.43056553672315
80.89539253847651
81.34472530683809
80.46079199202842
79.99596499027507
79.99596499027507
80.43056553672315
79.98123276836156
79.5319
79.98123276836156
80.89539253847651
81.34472530683809
80.89539253847651
79.54663222191348
79.54663222191348
80.46079199202842
81.34472530683809
80.46079199202842
80.46079199202842
80.9256189937818
82.27437931034481
81.80955230859146
81.80955230859146
82.29068902970458
82.29068902970458
81.82586202795122
81.82586202795122
81.82586202795122
81.82586202795122
81.34472530683809
81.80955230859146
82.27437931034481
81.80955230859146
82.29068902970458
82.29068902970458
83.23665275257108
82.75551603145794
83.23665275257108
83.73497292800967
83.73497292800965
82.78900920514317
81.80955230859146
81.34472530683809
81.34472530683809
80.43056553672315
80.89539253847651
81.36021954022988
82.27437931034481
81.80955230859146
82.29068902970458
81.82586202795122
82.29068902970458
80.46079199202842
80.01145922366685
77.44038487021857
76.21807083333333
74.95565972222221
76.17797375910746
76.57247723132969
76.57247723132969
76.57247723132969
77.83488834244079
78.66269890710382
78.2421177331218
78.2421177331218
78.2421177331218
79.0972994535519
77.83488834244079
77.83488834244079
76.57247723132969
76.57247723132969
75.35016319444443
75.35016319444443
76.61257430555554
77.83488834244079
78.2421177331218
76.9797066220107
76.55912544802867
76.15189605734767
75.37502768127929
74.57329481837607
74.57329481837607
75.35016319444443
75.35016319444443
75.75739258512544
76.16462197580644
76.96635483870968
76.55912544802867
76.15189605734767
76.15189605734766
75.75739258512544
75.75739258512544
76.17797375910746
76.97970662201068
77.38693601269169
77.82153655913979
78.67671827956988
79.0972994535519
78.2421177331218
77.38693601269169
76.96635483870968
76.96635483870968
76.96635483870968
77.82153655913979
78.2421177331218
78.2421177331218
76.9797066220107
76.15189605734767
76.15189605734766
76.9797066220107
77.80751718667372
78.66269890710382
79.0972994535519
78.67671827956988
77.82153655913977
76.55912544802867
76.9797066220107
77.40028779599271
78.66269890710382
78.66269890710382
79.54663222191348
79.1120316754654
78.69145050148337
77.38693601269169
77.82153655913979
78.67671827956988
79.0972994535519
78.66269890710382
77.8075171866737
78.69145050148339
78.69145050148339
79.1120316754654
78.22809836065574
77.8075171866737
78.2421177331218
78.2421177331218
78.66269890710382
78.66269890710382
79.0972994535519
79.98123276836156
79.12605104793147
79.57538381629305
79.57538381629305
79.99596499027507
78.69145050148337
77.80751718667372
77.38693601269169
76.9797066220107
76.55912544802867
76.15189605734767
75.75739258512544
75.35016319444443
75.75739258512544
76.15189605734767
76.15189605734767
76.15189605734766
77.41430716845878
77.82153655913977
76.2666607038123
73.49689304212076
72.31279527537139
72.31279527537139
72.67250536130535
72.30172727272726
72.30172727272726
73.85660312805473
75.83206015736423
78.69145050148339
79.99596499027507
81.34472530683809
80.89539253847651
80.01145922366685
76.68724187779432
75.03032729446099
72.69516017921754
71.31798442164178
69.51699030932294
69.8767003952569
71.25387615283266
72.30172727272726
73.05487026515151
74.60974612047897
76.58520314978847
77.80751718667372
78.22809836065574
77.40028779599271
78.28422111080238
78.71882165725046
79.98123276836156
79.0972994535519
78.66269890710382
78.66269890710382
78.2421177331218
77.41430716845878
76.55912544802867
77.41430716845878
78.67671827956988
79.0972994535519
79.0972994535519
79.0972994535519
79.0972994535519
77.44038487021857
75.78347028688523
73.80801325757575
73.05487026515151
72.30172727272726
73.05487026515151
73.80801325757575
74.56115625
74.95565972222221
74.95565972222221
74.95565972222221
74.56115625
74.17879134615384
73.4256483537296
72.67250536130535
72.67250536130535
73.4256483537296
73.79642644230769
73.79642644230769
74.1909299145299
75.7956088552613
77.40028779599271
77.40028779599271
77.40028779599271
77.40028779599271
77.8075171866737
76.9797066220107
76.9797066220107
76.97970662201068
76.9797066220107
76.15189605734767
76.15189605734766
76.9797066220107
77.80751718667372
78.66269890710382
78.66269890710382
80.01145922366685
80.01145922366685
80.01145922366685
79.0972994535519
79.54663222191348
80.43056553672315
79.99596499027507
79.99596499027507
79.54663222191348
78.71882165725046
76.61257430555554
76.17797375910746
75.78347028688523
75.78347028688523
74.95565972222221
75.75739258512544
77.41430716845878
79.12605104793147
80.89539253847651
82.78900920514317
83.25383620689655
82.78900920514317
80.0402108180464
77.86363993682036
76.9797066220107
76.97970662201068
76.58520314978847
75.36288911290322
75.36288911290322
76.16462197580644
77.38693601269169
76.9797066220107
76.97970662201068
77.41430716845878
78.2421177331218
78.66269890710382
77.8075171866737
78.2421177331218
77.82153655913977
77.82153655913977
76.16462197580645
74.98052420905707
73.79642644230769
72.68357336394948
71.60395481191327
71.23317672333519
71.23317672333518
71.23317672333518
71.23317672333519
71.23317672333518
71.23317672333518
71.60395481191327
73.1113113624937
74.96779829059828
74.96779829059828
75.37502768127929
74.98052420905707
75.75739258512544
74.57329481837607
75.37502768127929
74.98052420905707
74.60974612047897
73.05487026515151
72.30172727272726
72.67250536130535
73.04328344988345
72.68357336394948
72.68357336394948
73.06593826779563
73.79642644230769
73.79642644230769
73.79642644230769
74.57329481837607
74.95565972222221
74.20251672979796
73.80801325757575
73.80801325757575
73.80801325757575
72.34602980169339
71.96366489784724
73.1113113624937
74.96779829059828
75.35016319444443
74.57329481837607
74.98052420905707
75.78225707196029
76.16462197580645
74.60974612047897
73.4256483537296
73.4256483537296
73.79642644230769
73.06593826779563
72.31279527537139
72.69516017921754
74.20251672979796
74.95565972222221
74.57329481837607
74.98052420905707
75.37502768127928
75.75739258512544
74.57329481837607
74.17879134615384
75.4011053830391
76.17797375910746
75.7956088552613
75.37502768127929
74.98052420905707
74.98052420905707
73.79642644230769
74.1909299145299
74.57329481837607
74.95565972222221
73.80801325757575
74.60974612047897
75.4114789833822
76.96635483870968
76.55912544802867
77.41430716845878
77.83488834244079
78.66269890710382
77.8075171866737
78.2421177331218
78.2421177331218
78.2421177331218
76.9797066220107
76.55912544802867
76.55912544802867
77.38693601269169
77.38693601269169
78.69145050148339
78.27086932750136
78.69145050148339
76.9797066220107
76.97970662201068
76.55912544802867
76.96635483870968
76.96635483870968
77.38693601269169
77.80751718667372
78.22809836065574
78.22809836065574
78.66269890710382
79.54663222191348
80.43056553672315
80.87989830508474
79.57538381629304
79.12605104793147
78.2421177331218
78.66269890710382
77.40028779599271
76.97970662201068
76.15189605734767
75.75739258512544
74.95565972222221
75.36288911290322
76.58520314978847
76.9797066220107
76.97970662201068
76.9797066220107
76.9797066220107
76.57247723132969
75.35016319444443
75.35016319444443
75.75739258512544
75.75739258512544
74.98052420905707
73.79642644230769
73.41406153846154
72.68357336394948
71.60395481191327
70.87346663740122
71.98631971575944
73.06593826779563
73.79642644230769
73.04328344988345
73.82015182595183
74.59702020202019
75.35016319444443
74.95565972222221
74.95565972222221
74.95565972222221
74.57329481837607
73.79642644230769
73.41406153846154
73.04328344988345
72.67250536130535
72.67250536130535
73.4256483537296
73.4256483537296
73.80801325757575
74.20251672979796
76.17797375910746
76.97970662201068
76.9797066220107
75.75739258512544
76.17797375910746
77.00578432377048
77.8075171866737
76.9797066220107
76.55912544802867
76.9797066220107
77.38693601269169
77.80751718667372
77.38693601269169
77.80751718667372
77.80751718667372
77.00578432377048
75.78347028688523
74.17879134615384
74.17879134615384
74.17879134615384
73.80801325757575
73.4256483537296
73.04328344988345
73.41406153846154
73.04328344988345
73.82015182595183
73.82015182595183
74.1909299145299
73.41406153846154
73.79642644230769
74.17879134615384
74.17879134615384
73.79642644230769
73.41406153846154
74.1909299145299
75.37502768127929
75.75739258512544
75.36288911290322
74.95565972222221
75.75739258512544
75.75739258512544
74.98052420905707
74.57329481837607
75.37502768127929
76.55912544802867
76.55912544802867
76.15189605734767
76.57247723132969
76.57247723132969
75.42483076668321
73.82015182595183
73.82015182595183
74.96779829059828
75.74466666666666
76.57247723132969
77.40028779599271
77.8075171866737
77.38693601269169
76.55912544802867
79.30792383512544
110.46097222222221
130.65954999999997
127.9107516129032
97.61288494623655
78.67671827956988
78.67671827956988
77.82153655913977
76.55912544802867
76.9797066220107
75.7956088552613
75.7956088552613
74.1909299145299
75.37502768127929
75.78225707196029
76.16462197580645
75.36288911290322
74.56115625
75.36288911290322
74.98052420905707
74.59815930521091
73.41406153846154
73.79642644230769
74.98052420905707
75.75739258512544
76.15189605734767
75.74466666666666
77.00707777777777
77.41430716845878
77.82153655913977
76.96635483870968
76.16462197580645
76.58520314978847
77.00578432377048
77.8075171866737
76.9797066220107
76.9797066220107
77.83488834244079
78.2421177331218
77.82153655913977
77.82153655913979
77.41430716845878
77.00707777777777
75.74466666666666
76.57247723132969
76.97970662201068
76.9797066220107
76.55912544802867
76.55912544802867
77.38693601269169
77.80751718667372
77.8075171866737
77.38693601269169
76.55912544802867
75.37502768127929
74.1909299145299
73.79642644230769
74.17879134615384
73.80801325757575
73.05487026515151
73.05487026515151
73.05487026515151
73.80801325757575
73.80801325757575
75.36288911290322
76.16462197580644
76.55912544802867
75.75739258512544
75.35016319444443
74.95565972222221
74.95565972222221
74.17879134615384
74.98052420905707
75.78225707196029
75.78225707196029
74.98052420905707
74.98052420905707
76.58520314978847
77.38693601269169
76.58520314978847
76.16462197580644
76.16462197580644
76.96635483870968
76.55912544802867
76.15189605734767
76.57247723132969
77.40028779599271
77.40028779599271
76.97970662201068
76.15189605734767
76.55912544802867
76.15189605734767
75.37502768127929
74.96779829059828
75.37502768127929
76.15189605734767
76.55912544802867
76.9797066220107
78.2421177331218
78.2421177331218
77.82153655913977
76.96635483870968
76.55912544802867
75.37502768127929
74.96779829059828
74.96779829059828
75.74466666666666
76.15189605734766
76.55912544802867
76.55912544802867
75.37502768127929
75.37502768127929
74.98052420905707
75.36288911290322
74.95565972222221
75.75739258512544
76.15189605734767
75.75739258512544
74.95565972222221
74.95565972222221
74.95565972222221
74.95565972222221
74.95565972222221
76.17797375910746
76.97970662201068
77.38693601269169
77.38693601269169
77.38693601269169
76.9797066220107
76.15189605734767
75.74466666666666
77.00707777777777
77.41430716845878
77.41430716845878
76.15189605734767
76.57247723132969
76.57247723132969
76.57247723132969
74.96779829059828
74.96779829059828
74.57329481837607
74.20251672979796
73.4256483537296
73.82015182595183
74.96779829059828
75.35016319444443
74.20251672979796
74.20251672979796
75.42483076668321
76.57247723132969
76.17797375910746
76.17797375910746
76.58520314978847
77.38693601269169
76.16462197580645
75.36288911290322
75.78347028688523
76.58520314978847
76.20283824594232
74.98052420905707
74.57329481837607
75.35016319444443
75.35016319444443
74.20251672979796
73.4256483537296
73.82015182595183
74.57329481837607
75.35016319444443
75.75739258512544
76.9797066220107
76.9797066220107
76.97970662201068
76.9797066220107
78.2421177331218
78.2421177331218
76.6374387923904
75.37502768127928
73.82015182595183
73.82015182595183
72.67250536130535
73.4256483537296
74.60974612047897
75.75739258512544
76.55912544802867
76.9797066220107
79.15627750323674
80.01145922366685
80.89539253847651
79.98123276836156
80.43056553672315
80.89539253847651
80.46079199202842
79.15627750323674
77.38693601269169
77.38693601269169
77.38693601269169
76.9797066220107
76.55912544802867
76.9797066220107
76.9797066220107
76.17797375910746
74.95565972222221
74.95565972222221
76.17797375910746
77.83488834244079
80.49259594477996
80.92719649122806
81.37652925958963
79.54663222191348
77.88971763858015
75.4011053830391
72.377797233835
70.57680312151615
70.57680312151615
71.26494415547678
71.95308518943742
72.33545009328358
73.06593826779563
74.17879134615384
73.79642644230769
74.57329481837607
75.37502768127929
76.15189605734767
75.75739258512544
74.20251672979796
74.60974612047897
75.83206015736423
77.38693601269169
76.9797066220107
76.55912544802867
76.9797066220107
76.58520314978847
92.78864627372735
95.63330439593301
104.62294734806065
86.86462836879431
81.33567275382104
70.21571105169339
70.58648914027148
70.93561951779563
72.31279527537139
71.9420171867933
72.30172727272726
71.59288680926915
70.88404634581103
69.83619522591644
69.83619522591644
69.83619522591644
69.50687058823527
69.50687058823527
69.85600096575942
71.23317672333519
71.23317672333518
71.96366489784724
73.1113113624937
74.96779829059828
74.96779829059828
73.82015182595183
73.82015182595183
73.82015182595183
74.1909299145299
73.41406153846154
75.01874047919293
77.05801996637243
79.54663222191348
79.54663222191348
79.54663222191348
77.05801996637243
74.37372247360481
72.33444298642533
71.96366489784724
72.31279527537139
72.31279527537139
73.06593826779563
73.79642644230769
74.57329481837607
75.7956088552613
77.83488834244079
79.0972994535519
79.98123276836156
80.89539253847651
81.34472530683809
81.34472530683809
81.34472530683809
81.34472530683809
80.89539253847651
79.98123276836156
79.98123276836156
79.98123276836156
79.98123276836156
79.5319
79.5319
79.0972994535519
78.66269890710382
77.8075171866737
77.80751718667372
77.80751718667372
77.40028779599271
75.7956088552613
74.57329481837607
74.57329481837607
76.17797375910746
77.83488834244079
77.83488834244079
77.83488834244079
76.97970662201068
76.9797066220107
75.75739258512544
75.35016319444443
75.75739258512544
76.55912544802867
76.96635483870968
76.55912544802867
76.9797066220107
76.97970662201068
76.58520314978847
75.75739258512544
75.75739258512544
76.55912544802867
77.38693601269169
77.38693601269169
78.2421177331218
78.67671827956988
79.0972994535519
77.83488834244079
76.97970662201068
77.41430716845878
77.82153655913977
77.82153655913977
76.96635483870968
77.38693601269169
77.80751718667372
77.40028779599271
76.57247723132969
76.15189605734766
75.75739258512544
76.16462197580644
76.58520314978847
77.38693601269169
76.9797066220107
75.75739258512544
76.17797375910746
76.17797375910746
76.57247723132969
74.96779829059828
74.96779829059828
75.37502768127929
76.15189605734767
75.75739258512544
75.35016319444443
75.35016319444443
75.35016319444443
75.35016319444443
75.75739258512544
75.75739258512544
75.36288911290322
74.17879134615384
74.57329481837607
75.37502768127929
76.15189605734767
75.75739258512544
75.75739258512544
75.36288911290322
75.36288911290322
74.95565972222221
75.75739258512544
77.86363993682036
79.12605104793147
79.98123276836156
78.67671827956988
78.2421177331218
76.58520314978847
73.9824761745664
70.62984338768115
69.8767003952569
70.21571105169339
70.88404634581103
70.88404634581104
72.34602980169339
73.4256483537296
74.17879134615384
74.57329481837607
76.61257430555554
77.83488834244079
78.66269890710382
78.22809836065574
78.22809836065574
77.40028779599271
76.97970662201068
75.37502768127929
75.78225707196029
74.98052420905707
74.98052420905707
74.57329481837607
74.57329481837607
74.57329481837607
74.57329481837607
75.37502768127929
76.55912544802867
76.55912544802867
75.75739258512544
75.35016319444443
75.75739258512544
76.15189605734767
76.15189605734767
75.35016319444443
75.75739258512544
76.58520314978847
77.38693601269169
76.58520314978847
76.58520314978847
77.44038487021857
78.2421177331218
77.41430716845878
76.15189605734767
76.57247723132969
76.97970662201068
76.9797066220107
76.55912544802867
76.55912544802867
76.55912544802867
75.37502768127929
74.57329481837607
74.98052420905707
75.36288911290322
75.36288911290322
74.56115625
74.95565972222221
74.95565972222221
74.95565972222221
74.56115625
75.36288911290322
75.36288911290322
75.36288911290322
74.17879134615384
74.57329481837607
74.57329481837607
74.95565972222221
74.56115625
75.36288911290322
75.75739258512544
76.15189605734767
75.35016319444443
75.35016319444443
75.75739258512544
76.15189605734767
75.75739258512544
75.75739258512544
76.16462197580644
76.55912544802867
76.15189605734767
75.74466666666666
76.15189605734766
75.75739258512544
75.36288911290322
75.78347028688523
76.58520314978847
76.58520314978847
75.36288911290322
74.56115625
74.56115625
74.17879134615384
73.79642644230769
74.59815930521091
75.78225707196029
76.96635483870968
76.16462197580645
76.58520314978847
76.58520314978847
76.20283824594232
73.86767113069885
72.68357336394948
73.86767113069885
75.37502768127928
75.75739258512544
75.75739258512544
75.75739258512544
75.75739258512544
74.95565972222221
74.95565972222221
75.35016319444443
75.35016319444443
76.17797375910746
76.17797375910746
76.17797375910746
74.95565972222221
74.95565972222221
74.57329481837607
74.57329481837607
74.17879134615384
75.36288911290322
76.58520314978847
76.9797066220107
76.17797375910746
76.61257430555554
77.01980369623655
76.6374387923904
74.22738121663282
73.82015182595183
74.20251672979796
74.20251672979796
73.05487026515151
72.67250536130535
71.96366489784724
71.60395481191327
71.60395481191327
73.06593826779563
73.79642644230769
73.79642644230769
74.1909299145299
73.82015182595183
74.59702020202019
74.59702020202019
77.00707777777777
77.00707777777777
77.00707777777777
74.59702020202019
74.20251672979796
72.34602980169339
71.29817868179879
69.83619522591644
70.54503568937454
71.59288680926915
72.30172727272726
72.30172727272726
73.85660312805473
74.60974612047897
75.36288911290322
74.17879134615384
74.98052420905707
75.37502768127928
75.75739258512544
75.35016319444443
76.17797375910746
76.57247723132969
76.17797375910746
74.57329481837607
74.57329481837607
74.57329481837607
75.75739258512544
77.93396346635149
82.53650397561076
85.28530236270753
84.82047536095416
79.83556994784875
76.67954217007097
73.11131136249371
71.36335751633986
69.85600096575942
69.85600096575942
69.53595307843548
69.18682270091134
70.26644125294754
71.60395481191327
72.68357336394948
73.46044174001784
75.7956088552613
76.57247723132969
76.17797375910746
76.17797375910746
77.44038487021857
79.0972994535519
80.44605977011494
80.89539253847651
82.29068902970458
82.7718257508177
84.21610964912279
84.71442982456138
86.26475925925925
86.78120016835015
87.29764107744106
86.76207272727271
87.29764107744106
87.29764107744106
86.78120016835015
85.72919090909089
