2.17008
2.39980
2.55131
2.61974
2.62463
2.59042
2.50733
2.38514
2.27761
2.16031
2.04789
1.93548
1.83773
1.75464
1.66666
1.57380
1.50537
1.46138
1.42717
1.39784
1.40273
1.43206
1.47116
1.50537
1.54447
1.58846
1.65200
1.66177
1.63734
1.63245
1.62756
1.59335
1.56891
1.53958
1.51515
1.48093
1.44183
1.40762
1.38807
1.35386
1.32453
1.30498
1.29521
1.28054
1.26099
1.25610
1.28054
1.23655
1.22678
1.22189
1.21700
1.21212
1.20234
1.20723
1.21700
1.27077
1.37829
1.57869
1.83773
2.09677
2.32160
2.47800
2.58553
2.60997
2.56109
2.50733
2.42424
2.28250
2.15542
2.05767
1.94525
1.85239
1.74975
1.69110
1.59335
1.51515
1.44672
1.41251
1.40273
1.41251
1.42717
1.47116
1.52003
1.57380
1.59824
1.62756
1.65200
1.66666
1.65200
1.64222
1.62756
1.60801
1.56891
1.56402
1.50048
1.47605
1.44183
1.40762
1.38807
1.36852
1.34897
1.32942
1.33919
1.32453
1.32453
1.28054
1.27565
1.27565
1.26099
1.25122
1.25122
1.25610
1.26099
1.30498
1.42717
1.63245
1.89149
2.14565
2.39491
2.56109
2.66373
2.67350
2.64418
2.57575
2.47800
2.35092
2.23851
2.13098
2.03323
1.91593
1.82795
1.74486
1.66666
1.57869
1.52003
1.47116
1.45650
1.45161
1.47605
1.50048
1.54447
1.57869
1.61779
1.65200
1.68132
1.68132
1.69110
1.68621
1.64711
1.61290
1.57869
1.54936
1.52003
1.49071
1.47605
1.41739
1.39784
1.36363
1.33919
1.32942
1.31964
1.30498
1.28543
1.29032
1.29521
1.26588
1.25122
1.25122
1.24144
1.23655
1.22189
1.23655
1.26099
1.31476
1.45161
1.67155
1.94525
2.21407
2.43401
2.58553
2.67350
2.68817
2.62463
2.53665
2.43890
2.32649
2.19452
2.08211
1.98435
1.89149
1.78396
1.70087
1.62756
1.57380
1.49071
1.44672
1.43206
1.43695
1.44672
1.48582
1.53958
1.60312
1.59824
1.62756
1.64711
1.66666
1.65689
1.64222
1.64222
1.60312
1.55425
1.52003
1.48582
1.45650
1.42717
1.41251
1.36363
1.34408
1.31476
1.30009
1.28543
1.30498
1.28054
1.25122
1.24144
1.24144
1.23167
1.21700
1.22189
1.22189
1.22189
1.21212
1.23655
1.30987
1.45161
1.66177
1.92570
2.18963
2.41935
2.53176
2.60508
2.61974
2.57575
2.47311
2.36559
2.26295
2.15053
2.02346
1.93059
1.83773
1.74486
1.64711
1.56891
1.50537
1.46627
1.42717
1.43206
1.42717
1.46138
1.49071
1.53958
1.60312
1.64711
1.64222
1.65200
1.65689
1.65200
1.62756
1.60801
1.58846
1.54936
1.51515
1.47605
1.44672
1.42228
1.39296
1.36852
1.34897
1.33919
1.34408
1.29521
1.29032
1.28543
1.27565
1.27077
1.27077
1.27565
1.28543
1.24144
1.24144
1.24144
1.25610
1.29032
1.40273
1.58357
1.82795
2.07722
2.31182
2.49755
2.63440
2.62463
2.60508
2.54154
2.44868
2.32649
2.21407
2.11143
2.01857
1.91104
1.82306
1.74486
1.67155
1.59335
1.55425
1.49071
1.47605
1.46627
1.48582
1.51515
1.56402
1.59824
1.65200
1.65200
1.68132
1.67155
1.65689
1.64222
1.62756
1.60312
1.55913
1.52492
1.50048
1.46138
1.42717
1.40273
1.38318
1.37341
1.32453
1.30498
1.29521
1.28054
1.29521
1.25122
1.24633
1.23655
1.22189
1.22189
1.23655
1.20234
1.18768
1.18768
1.21212
1.27077
1.38318
1.57869
1.80840
2.05767
2.24828
2.39980
2.48778
2.51221
2.45845
2.38514
2.29227
2.19941
2.08211
1.97947
1.92570
1.81818
1.72043
1.64222
1.57380
1.51515
1.45650
1.42228
1.38318
1.38807
1.38807
1.40762
1.43206
1.46627
1.49071
1.50537
1.53958
1.53470
1.51515
1.48093
1.45650
1.43695
1.40273
1.36852
1.33919
1.31964
1.30987
1.24633
1.22189
1.20234
1.17790
1.15347
1.13391
1.13391
1.14369
1.08993
1.08015
1.08015
1.07038
1.05083
1.04594
1.04105
1.04105
1.05083
1.03128
1.06060
1.14369
1.27077
1.45650
1.67644
1.90127
2.01368
2.12121
2.17497
2.17986
2.13098
2.06256
1.97947
1.89638
1.79374
1.71554
1.63734
1.56891
1.48582
1.41739
1.36363
1.32453
1.26588
1.23167
1.21700
1.23167
1.24144
1.29032
1.28543
1.31476
1.32942
1.34408
1.34897
1.35386
1.34408
1.32453
1.30987
1.29521
1.27077
1.23655
1.21212
1.18768
1.15835
1.13880
1.11925
1.12414
1.08993
1.06060
1.04105
1.03128
1.01661
1.00684
1.01173
1.00195
0.99706
0.98240
0.97262
0.96285
0.96774
0.97262
1.02150
1.05083
1.16324
1.29521
1.47116
1.64222
1.79863
1.86705
1.92570
1.95503
1.95014
1.91104
1.84261
1.78885
1.72043
1.64222
1.61290
1.52492
1.46138
1.40762
1.34897
1.30987
1.27565
1.25122
1.25610
1.23655
1.25610
1.26588
1.28543
1.30498
1.32453
1.32942
1.32942
1.34408
1.36363
1.32453
1.30498
1.30009
1.29521
1.29032
1.23655
1.22678
1.23167
1.18768
1.16813
1.16324
1.14858
1.13880
1.12414
1.11925
1.10459
1.09970
1.11436
1.08504
1.08015
1.09481
1.06549
1.06060
1.10459
1.08993
1.13391
1.24144
1.35386
1.49071
1.63734
1.73509
1.83284
1.90615
1.92082
1.92082
1.93059
1.87683
1.82306
1.76930
1.71554
1.70087
1.61779
1.58357
1.52492
1.48093
1.43206
1.40273
1.37341
1.36363
1.35386
1.35386
1.37341
1.37829
1.38318
1.38807
1.41739
1.41251
1.40273
1.39296
1.38807
1.37829
1.36363
1.34897
1.35386
1.32453
1.30498
1.29521
1.27565
1.26588
1.25122
1.25610
1.22678
1.21700
1.21212
1.23167
1.19257
1.18768
1.19745
1.17790
1.17302
1.17790
1.16324
1.15347
1.18279
1.16324
1.19257
1.25122
1.35386
1.48093
1.59824
1.68621
1.79374
1.82306
1.86705
1.86217
1.88172
1.83773
1.81329
1.76930
1.72531
1.72043
1.65689
1.63245
1.56891
1.53470
1.51026
1.46138
1.43695
1.42228
1.41739
1.41739
1.40762
1.42228
1.43695
1.45161
1.44183
1.44672
1.48093
1.44672
1.43206
1.42228
1.42717
1.40762
1.38807
1.38318
1.36852
1.34897
1.32942
1.34897
1.30987
1.29521
1.28543
1.27565
1.27077
1.26588
1.24633
1.24144
1.25122
1.24144
1.23655
1.24144
1.24144
1.24144
1.23167
1.23167
1.23655
1.24144
1.24144
1.27565
1.37829
1.44672
1.54936
1.65200
1.74486
1.81818
1.86217
1.88172
1.89638
1.88660
1.87194
1.82795
1.79374
1.76930
1.72043
1.69110
1.65689
1.63245
1.58846
1.55913
1.53470
1.52003
1.50048
1.50048
1.50048
1.51515
1.52981
1.53470
1.54936
1.58357
1.55913
1.55425
1.55913
1.57869
1.54447
1.52981
1.51515
1.51515
1.49560
1.47605
1.46627
1.46627
1.44672
1.42228
1.41251
1.41739
1.43206
1.38318
1.37341
1.37341
1.36852
1.35386
1.34897
1.34897
1.35386
1.33431
1.32453
1.32942
1.33431
1.32942
1.35386
1.40762
1.51515
1.61290
1.73020
1.84750
1.93548
1.99413
2.03812
2.07233
2.08699
2.08211
2.04301
2.02346
1.99902
1.96969
1.91104
1.91104
1.85239
1.80351
1.75953
1.75953
1.71554
1.68132
1.66177
1.66177
1.69110
1.68621
1.68621
1.70087
1.72043
1.72043
1.72531
1.72043
1.72531
1.71554
1.69599
1.68621
1.67644
1.65689
1.63734
1.62756
1.60801
1.59335
1.56891
1.55425
1.54936
1.53958
1.53958
1.50048
1.49560
1.48093
1.46627
1.45650
1.45650
1.45650
1.43695
1.42717
1.42228
1.41251
1.40273
1.42228
1.44672
1.52981
1.63734
1.76930
1.91104
2.05767
2.13587
2.21896
2.28738
2.33626
2.33137
2.33137
2.29716
2.26783
2.22385
2.17008
2.13098
2.09188
2.03323
1.98435
1.93548
1.89638
1.85239
1.81818
1.79863
1.79863
1.79374
1.79863
1.82795
1.82306
1.82795
1.82795
1.82795
1.83773
1.82795
1.84261
1.79863
1.78885
1.76930
1.73998
1.72043
1.70576
1.69599
1.64222
1.62267
1.60801
1.58846
1.55425
1.54447
1.55913
1.51026
1.48582
1.47116
1.46138
1.45161
1.43206
1.42228
1.40762
1.40762
1.38807
1.40273
1.42717
1.45161
1.53470
1.66666
1.82306
1.99902
2.09677
2.19941
2.28250
2.33626
2.34604
2.33626
2.30694
2.27761
2.21407
2.14565
2.09188
2.04301
1.97947
1.91593
1.86217
1.81818
1.77419
1.71554
1.68621
1.67644
1.67155
1.67155
1.70087
1.69599
1.70087
1.70576
1.71065
1.73020
1.73998
1.70576
1.70087
1.69599
1.68132
1.65689
1.63245
1.62267
1.60801
1.57380
1.54936
1.53470
1.51515
1.49071
1.47605
1.46627
1.46627
1.42228
1.41251
1.39784
1.39784
1.40762
1.36363
1.35874
1.35386
1.33919
1.33431
1.35874
1.40762
1.47116
1.57380
1.72531
1.89149
2.02834
2.14076
2.26783
2.32649
2.32160
2.32160
2.29716
2.27761
2.19452
2.13098
2.07233
2.01857
1.94525
1.87683
1.84261
1.76441
1.70576
1.65689
1.63245
1.61779
1.61290
1.63245
1.61779
1.63734
1.65200
1.66177
1.67644
1.70576
1.72043
1.68621
1.68621
1.68132
1.67155
1.64222
1.63245
1.63245
1.60312
1.56402
1.54447
1.52492
1.52003
1.51515
1.47116
1.46138
1.44183
1.42228
1.41739
1.41251
1.40762
1.38807
1.39296
1.36363
1.35874
1.34897
1.36852
1.43695
1.58846
1.70087
1.87194
2.04789
2.19941
2.30694
2.38025
2.45356
2.45845
2.41935
2.39491
2.30694
2.25317
2.17497
2.09677
2.03323
1.96969
1.90615
1.82795
1.77419
1.72531
1.68621
1.65689
1.63245
1.63245
1.63734
1.64222
1.65689
1.68621
1.70087
1.73020
1.71065
1.72043
1.71554
1.69599
1.69110
1.68621
1.66666
1.65200
1.63734
1.59824
1.56891
1.53958
1.52003
1.50048
1.48582
1.46138
1.45650
1.44672
1.42228
1.39784
1.38807
1.37829
1.36852
1.35386
1.35386
1.33431
1.34408
1.37829
1.47116
1.62267
1.81329
2.00391
2.15542
2.29716
2.40957
2.45356
2.46823
2.45845
2.42424
2.35092
2.27761
2.19941
2.13587
2.05278
1.96969
1.90127
1.83773
1.76930
1.71065
1.67644
1.63245
1.59824
1.58357
1.58846
1.60801
1.62267
1.63245
1.64711
1.67155
1.68132
1.68132
1.68621
1.68132
1.67155
1.64711
1.63245
1.62756
1.62267
1.56402
1.53958
1.52003
1.50048
1.46627
1.44672
1.44672
1.45161
1.38807
1.37829
1.36852
1.35874
1.33919
1.32942
1.32453
1.31964
1.30987
1.30009
1.31964
1.38807
1.50048
1.68621
1.85728
2.05767
2.20430
2.33137
2.41935
2.47800
2.47800
2.41446
2.35092
2.28738
2.19452
2.13098
2.02834
1.96480
1.87683
1.80351
1.72531
1.66666
1.60801
1.56402
1.54447
1.54447
1.52981
1.53958
1.56402
1.59335
1.61290
1.65200
1.64222
1.66177
1.66666
1.65689
1.65200
1.65200
1.63734
1.63734
1.58357
1.56891
1.54447
1.51515
1.50048
1.50537
1.46627
1.43695
1.42228
1.41739
1.41251
1.39784
1.39296
1.39784
1.37341
1.35386
1.34897
1.34408
1.35386
1.40273
1.52981
1.66177
1.86217
2.04789
2.22385
2.37536
2.47800
2.51710
2.51710
2.48289
2.43890
2.34604
2.25806
2.17497
2.12609
2.00391
1.91593
1.84261
1.77419
1.69599
1.62756
1.58357
1.56402
1.53958
1.53958
1.56402
1.61290
1.60801
1.62756
1.65689
1.68132
1.69110
1.69599
1.71065
1.69110
1.68132
1.65200
1.63245
1.61290
1.58846
1.55913
1.53470
1.51515
1.49560
1.46138
1.44672
1.43206
1.42228
1.41251
1.38318
1.37341
1.36363
1.33919
1.32942
1.32453
1.32942
1.36363
1.40762
1.54447
1.73509
1.94037
2.14565
2.32649
2.48778
2.52199
2.54154
2.53176
2.50733
2.43890
2.31671
2.23362
2.15542
2.06256
1.97458
1.89638
1.83284
1.76441
1.67644
1.62756
1.59335
1.56402
1.54447
1.56402
1.61779
1.63734
1.62267
1.65200
1.68621
1.70087
1.72531
1.70576
1.70576
1.69599
1.66666
1.65200
1.63734
1.62267
1.59335
1.54447
1.52492
1.50537
1.47605
1.48093
1.46627
1.43206
1.39296
1.38318
1.37341
1.36363
1.34408
1.32942
1.32942
1.32942
1.33919
1.31964
1.36852
1.47605
1.63734
1.83773
2.05767
2.25806
2.39491
2.49266
2.54154
2.54643
2.50244
2.44379
2.33137
2.25317
2.16520
2.05767
1.99902
1.90615
1.80840
1.73020
1.66177
1.60801
1.56402
1.53958
1.51515
1.52492
1.53470
1.55425
1.57869
1.61779
1.64222
1.66177
1.69599
1.67644
1.67155
1.65689
1.64222
1.62267
1.60312
1.57380
1.53958
1.52492
1.50048
1.47116
1.44183
1.42228
1.40762
1.37829
1.36852
1.35874
1.34897
1.32942
1.31964
1.32453
1.30009
1.28543
1.28054
1.29521
1.35874
1.46138
1.63245
1.86705
2.05278
2.22873
2.37536
2.46334
2.51221
2.48289
2.42424
2.35092
2.27272
2.17008
2.07722
1.99413
1.91104
1.82306
1.74486
1.69110
1.59824
1.53958
1.50048
1.48093
1.48582
1.49560
1.51515
1.54447
1.58357
1.61290
1.63245
1.65689
1.67644
1.68132
1.66177
1.65200
1.64222
1.61290
1.61290
1.55913
1.53958
1.51026
1.48093
1.45650
1.44183
1.42717
1.40273
1.40273
1.37341
1.36363
1.34408
1.33919
1.32942
1.31964
1.30498
1.30009
1.30987
1.35386
1.44183
1.57869
1.78885
2.01368
2.20918
2.38514
2.49266
2.56109
2.54643
2.50244
2.43401
2.36070
2.25806
2.17986
2.06744
1.99902
1.90127
1.82306
1.73998
1.67644
1.60801
1.55913
1.53470
1.53470
1.54936
1.57869
1.57869
1.62267
1.65200
1.67644
1.70087
1.72043
1.72531
1.71065
1.71554
1.68621
1.66177
1.62756
1.59824
1.57869
1.55425
1.51515
1.48582
1.46627
1.45650
1.44672
1.40762
1.39296
1.38318
1.36363
1.34897
1.34897
1.33919
1.32453
1.34897
1.31476
1.32453
1.35874
1.45650
1.62756
1.84750
2.09188
2.26783
2.43890
2.55620
2.58553
2.57575
2.52688
2.45356
2.35092
2.24828
2.16520
2.07722
1.97947
1.89149
1.81818
1.75464
1.66666
1.60312
1.56402
1.54447
1.52981
1.52492
1.54447
1.58357
1.60801
1.63245
1.65689
1.68621
1.69599
1.68621
1.68132
1.68132
1.65689
1.63245
1.61779
1.57380
1.53958
1.50537
1.47605
1.45650
1.42717
1.40762
1.40762
1.36852
1.34897
1.32453
1.31476
1.30987
1.30009
1.29521
1.29032
1.30498
1.27077
1.25610
1.26588
1.31476
1.42228
1.58357
1.80351
2.04301
2.23851
2.39002
2.49266
2.54154
2.53665
2.46334
2.38025
2.29227
2.19941
2.09188
1.99413
1.90615
1.82795
1.73509
1.65200
1.59335
1.53958
1.49560
1.48582
1.45650
1.47116
1.49071
1.51515
1.54936
1.59335
1.61779
1.62267
1.63734
1.64711
1.63734
1.62267
1.60312
1.58846
1.57380
1.52003
1.49071
1.47116
1.44672
1.40762
1.39296
1.37829
1.37829
1.32453
1.30987
1.30498
1.29521
1.28054
1.27565
1.27077
1.26588
1.27077
1.24144
1.25122
1.27565
1.32453
1.45650
1.66177
1.88172
2.09188
2.26783
2.40469
2.48778
2.49266
2.45845
2.39491
2.31671
2.21407
2.10166
2.01368
1.92570
1.83284
1.74975
1.67155
1.60312
1.53470
1.48093
1.45161
1.44672
1.45650
1.48093
1.53470
1.54447
1.57869
1.60801
1.63245
1.65689
1.66177
1.65200
1.67155
1.63245
1.60801
1.57380
1.54447
1.52492
1.50048
1.47605
1.43695
1.42228
1.39784
1.37829
1.37341
1.34897
1.33919
1.31964
1.30987
1.30498
1.30009
1.28543
1.28054
1.28054
1.28543
1.30987
1.39296
1.54936
1.76441
1.99413
2.19941
2.38514
2.51710
2.55620
2.55620
2.51710
2.44868
2.34115
2.26783
2.14076
2.05278
1.95014
1.86217
1.78885
1.71554
1.63734
1.57380
1.53470
1.50537
1.51026
1.48582
1.51026
1.54447
1.57380
1.60312
1.63245
1.66666
1.70087
1.66666
1.66666
1.66177
1.64222
1.60801
1.59335
1.58846
1.52981
1.49560
1.47116
1.45161
1.42717
1.39784
1.38807
1.38318
1.37341
1.32453
1.31476
1.30498
1.30498
1.28054
1.28543
1.30009
1.27077
1.26588
1.29521
1.38807
1.54447
1.76930
1.96969
2.19452
2.39002
2.50244
2.59042
2.58553
2.53665
2.44379
2.34604
2.24828
2.15542
2.04301
1.95014
1.86705
1.79374
1.70087
1.63245
1.56891
1.52492
1.48582
1.46627
1.47116
1.49560
1.51515
1.54447
1.58357
1.62267
1.63245
1.63734
1.64711
1.65689
1.63734
1.63245
1.62267
1.56891
1.53470
1.49560
1.46138
1.44672
1.42228
1.38318
1.36363
1.34897
1.32942
1.30987
1.30009
1.28543
1.28054
1.26099
1.25610
1.25122
1.24144
1.23167
1.24144
1.29521
1.35386
1.47605
1.67644
1.91104
2.14565
2.32160
2.45845
2.53176
2.53176
2.47311
2.39980
2.31182
2.21896
2.10166
1.99902
1.90615
1.82306
1.73020
1.64711
1.58357
1.54936
1.47605
1.43206
1.42717
1.44183
1.45650
1.49071
1.54447
1.56891
1.59335
1.61779
1.63734
1.64711
1.64222
1.62267
1.60312
1.58846
1.55913
1.52003
1.49560
1.47116
1.44672
1.41739
1.39784
1.37829
1.35874
1.33431
1.31964
1.31476
1.30987
1.28054
1.27077
1.26588
1.26588
1.25610
1.27565
1.31964
1.43695
1.59824
1.82306
2.05767
2.27272
2.40957
2.50244
2.54154
2.52688
2.44379
2.36070
2.26783
2.20430
2.06256
1.96480
1.88172
1.80351
1.71065
1.63245
1.58357
1.52981
1.49071
1.48093
1.48582
1.52003
1.53958
1.57380
1.63245
1.67155
1.69110
1.69110
1.69599
1.70087
1.68132
1.66666
1.65200
1.62756
1.58846
1.55425
1.52981
1.50537
1.48093
1.46138
1.43206
1.41739
1.39784
1.38318
1.36852
1.36363
1.35386
1.34897
1.32453
1.31964
1.32453
1.34897
1.44183
1.58357
1.79863
2.01857
2.24340
2.43401
2.56109
2.60508
2.60019
2.55620
2.47800
2.36559
2.26295
2.16031
2.07233
1.99902
1.88172
1.80840
1.73998
1.65689
1.60312
1.56402
1.54447
1.53958
1.52981
1.55425
1.59335
1.61779
1.64222
1.68132
1.73020
1.70087
1.69599
1.68621
1.67644
1.65200
1.62267
1.58846
1.55913
1.52981
1.49071
1.46627
1.45161
1.42717
1.40273
1.40273
1.37341
1.35874
1.33919
1.32453
1.31964
1.30987
1.32453
1.29032
1.31476
1.37341
1.48582
1.68132
1.94037
2.14565
2.33137
2.47800
2.56109
2.58064
2.52199
2.44379
2.35581
2.26295
2.14076
2.03812
1.95014
1.87683
1.77908
1.70087
1.63245
1.58357
1.51026
1.47605
1.46627
1.47605
1.48582
1.51515
1.54936
1.61779
1.60801
1.62267
1.63734
1.64711
1.63245
1.60801
1.59824
1.57869
1.55913
1.50048
1.47605
1.45650
1.42717
1.39784
1.38318
1.37829
1.32942
1.30987
1.29521
1.29032
1.28054
1.27565
1.25610
1.25610
1.24144
1.23655
1.25122
1.30987
1.43695
1.60312
1.82795
2.06744
2.27272
2.40957
2.49266
2.53176
2.50244
2.41935
2.29227
2.19941
2.10166
1.97947
1.88660
1.80351
1.72531
1.63734
1.56402
1.50537
1.47116
1.45161
1.41739
1.43206
1.45650
1.48582
1.52492
1.57869
1.59335
1.60801
1.61779
1.61779
1.62267
1.59824
1.59335
1.54936
1.52492
1.49071
1.46138
1.43695
1.41739
1.39784
1.36363
1.34408
1.33431
1.31476
1.29521
1.29521
1.28543
1.26588
1.25122
1.27077
1.26588
1.25610
1.29032
1.38318
1.54936
1.75953
1.99413
2.22873
2.39002
2.49755
2.52199
2.50244
2.44379
2.36070
2.25806
2.14076
2.05278
1.95992
1.85728
1.77419
1.70576
1.64711
1.59335
1.51515
1.48582
1.48093
1.47605
1.49560
1.53958
1.58846
1.61779
1.63734
1.66666
1.67644
1.67644
1.67155
1.68132
1.64222
1.60801
1.57380
1.54936
1.52981
1.51026
1.46138
1.43695
1.42228
1.39296
1.37829
1.36852
1.36852
1.36852
1.32453
1.31964
1.31476
1.30498
1.29032
1.30009
1.31964
1.37341
1.49071
1.68132
1.92570
2.16520
2.39002
2.51221
2.60508
2.61485
2.56109
2.50244
2.39002
2.28738
2.17008
2.07722
1.98924
1.91104
1.81818
1.74975
1.69599
1.61779
1.55913
1.52492
1.51515
1.52003
1.52981
1.54936
1.58357
1.62756
1.67644
1.65689
1.67155
1.67644
1.65689
1.64711
1.62756
1.61779
1.58846
1.52981
1.50048
1.47605
1.44183
1.41739
1.40273
1.41251
1.35874
1.33431
1.32453
1.31476
1.30009
1.29032
1.30987
1.27565
1.26099
1.25122
1.25610
1.30009
1.39296
1.53958
1.76441
2.00879
2.23362
2.40469
2.50733
2.55620
2.53176
2.45356
2.36559
2.26783
2.16031
2.04789
1.95014
1.86705
1.78396
1.69599
1.64711
1.55425
1.50048
1.45161
1.42717
1.42717
1.43695
1.45650
1.50537
1.52492
1.55913
1.57380
1.58846
1.60312
1.60312
1.58357
1.56891
1.56891
1.52003
1.48093
1.45161
1.42228
1.40273
1.38318
1.34408
1.32453
1.30987
1.28543
1.26588
1.25610
1.26099
1.25122
1.22189
1.21700
1.21212
1.20234
1.20723
1.22678
1.30009
1.43206
1.62267
1.86217
2.12121
2.32649
2.41446
2.48289
2.49266
2.44379
2.34604
2.26295
2.14565
2.03812
1.94037
1.83773
1.75464
1.67155
1.58357
1.51515
1.46138
1.42717
1.39784
1.42717
1.41739
1.44672
1.47605
1.52003
1.57380
1.59824
1.61290
1.61779
1.62267
1.61779
1.59824
1.56891
1.54936
1.52003
1.49071
1.45650
1.44183
1.42717
1.42228
1.36363
1.34897
1.33431
1.31476
1.30009
1.30009
1.29521
1.28543
1.26099
1.25610
1.25610
1.25610
1.29032
1.38807
1.55425
1.76930
2.00879
2.23851
2.42913
2.54643
2.60508
2.56598
2.51221
2.41935
2.30205
2.20918
2.09677
1.99413
1.89149
1.80840
1.73020
1.65200
1.57380
1.52003
1.48093
1.46138
1.44183
1.45161
1.49071
1.52492
1.57869
1.58357
1.61290
1.64222
1.63734
1.63734
1.62756
1.61779
1.58357
1.55425
1.52492
1.50537
1.47116
1.45650
1.41251
1.39296
1.36363
1.33919
1.32453
1.31476
1.31964
1.28054
1.26588
1.25610
1.25122
1.23167
1.26099
1.23167
1.24144
1.29521
1.42228
1.62756
1.88660
2.10654
2.32649
2.49266
2.58064
2.59042
2.55131
2.48778
2.38514
2.26783
2.18475
2.05767
1.97947
1.86217
1.76930
1.69599
1.61290
1.53958
1.50048
1.45161
1.43695
1.42717
1.44183
1.47605
1.52003
1.53470
1.56402
1.59335
1.61290
1.60801
1.60801
1.60801
1.60801
1.54936
1.52003
1.49071
1.47116
1.42717
1.40762
1.38807
1.35874
1.32942
1.30498
1.29032
1.27565
1.26099
1.26099
1.23655
1.22678
1.20723
1.19745
1.19257
1.21212
1.25610
1.34408
1.52003
1.75464
2.00391
2.22385
2.40469
2.53176
2.56598
2.52199
2.45845
2.37536
2.26295
2.15053
2.03323
1.94037
1.87194
1.73998
1.65200
1.57869
1.50537
1.44183
1.42228
1.38807
1.39296
1.40273
1.43206
1.48582
1.52492
1.55425
1.58846
1.64222
1.62267
1.61290
1.59824
1.58846
1.57380
1.54936
1.50537
1.48093
1.45650
1.41739
1.39296
1.37829
1.36363
1.33919
1.31476
1.30009
1.29521
1.27565
1.26099
1.26099
1.27565
1.27077
1.23655
1.25610
1.31964
1.44672
1.63245
1.88172
2.14076
2.34604
2.48778
2.57575
2.60508
2.56598
2.47311
2.38025
2.27761
2.16520
2.04789
1.95503
1.86217
1.77419
1.68621
1.62756
1.55425
1.50537
1.47116
1.46627
1.48582
1.51026
1.54447
1.59824
1.66666
1.66666
1.68132
1.69599
1.70087
1.69599
1.68621
1.63734
1.61779
1.58846
1.54936
1.51515
1.49071
1.47116
1.44672
1.41739
1.39784
1.38807
1.36363
1.34897
1.34408
1.33919
1.34408
1.30009
1.29521
1.29521
1.28543
1.30498
1.37829
1.54936
1.72531
1.96969
2.21896
2.43890
2.58064
2.64907
2.65884
2.64907
2.53665
2.42913
2.30694
2.20430
2.10166
1.99413
1.90615
1.82795
1.73998
1.66177
1.59824
1.56402
1.54936
1.49560
1.50048
1.52981
1.56402
1.58357
1.62756
1.65689
1.68132
1.68132
1.67644
1.67155
1.66177
1.64222
1.62267
1.56891
1.53958
1.49560
1.46138
1.43695
1.42228
1.39784
1.36363
1.34408
1.33431
1.30498
1.30009
1.30009
1.30987
1.27077
1.25610
1.25122
1.25122
1.25122
1.28054
1.37341
1.52003
1.73509
1.97947
2.22385
2.42913
2.55620
2.62952
2.59042
2.54643
2.44379
2.32160
2.20918
2.11143
2.00391
1.89638
1.81329
1.73998
1.65200
1.56891
1.50537
1.46138
1.44672
1.43206
1.46138
1.47116
1.50537
1.52981
1.56891
1.60801
1.62756
1.65200
1.61779
1.61290
1.59335
1.56402
1.52492
1.50537
1.48093
1.43695
1.41251
1.38807
1.36852
1.33919
1.32453
1.30009
1.29032
1.27077
1.26099
1.25610
1.25610
1.24633
1.25122
1.22189
1.22189
1.22189
1.25122
1.33431
1.51026
1.73998
1.96480
2.20430
2.40957
2.52199
2.56598
2.56109
2.50733
2.40957
2.29716
2.18475
2.08211
1.97458
1.87194
1.78396
1.70576
1.62756
1.57869
1.49071
1.46138
1.44183
1.43206
1.45161
1.49071
1.53470
1.56891
1.60801
1.66666
1.65200
1.65200
1.64711
1.64222
1.62756
1.59335
1.56891
1.55425
1.51026
1.47116
1.44183
1.42228
1.40762
1.37829
1.38318
1.34408
1.33431
1.30987
1.30498
1.30009
1.29521
1.29032
1.29032
1.26099
1.26588
1.26588
1.30987
1.40762
1.60312
1.85239
2.08211
2.31671
2.51221
2.60997
2.64418
2.61485
2.55620
2.44868
2.32649
2.21896
2.12121
2.01857
1.91593
1.83773
1.78885
1.71065
1.59824
1.54447
1.51026
1.48582
1.48093
1.49560
1.53470
1.57380
1.62267
1.63245
1.66177
1.68132
1.67155
1.66666
1.66177
1.64711
1.59824
1.56891
1.53958
1.51026
1.46627
1.44183
1.42228
1.40762
1.36363
1.34408
1.33431
1.32453
1.30009
1.29032
1.29032
1.30009
1.29521
1.26099
1.26099
1.26099
1.25122
1.25122
1.28054
1.36852
1.51026
1.72531
1.97458
2.23851
2.43401
2.57086
2.63440
2.63929
2.57575
2.47311
2.37047
2.26295
2.14565
2.03323
1.93548
1.85239
1.76441
1.67644
1.62267
1.54447
1.49071
1.44672
1.43206
1.44672
1.47605
1.50048
1.53470
1.57869
1.61290
1.62756
1.63734
1.64711
1.63734
1.60801
1.58846
1.55913
1.52981
1.49071
1.46138
1.43206
1.40762
1.36852
1.34408
1.34897
1.30987
1.28054
1.26588
1.25610
1.25122
1.23655
1.26099
1.22678
1.22678
1.21212
1.20723
1.20234
1.21700
1.22189
1.27565
1.39784
1.59335
1.83773
2.10654
2.29716
2.46823
2.55131
2.56598
2.53176
2.45356
2.34604
2.26295
2.11632
2.01368
1.91104
1.80840
1.72531
1.66177
1.56402
1.49071
1.44183
1.41251
1.39296
1.40273
1.42717
1.47605
1.50048
1.53470
1.57380
1.60312
1.62267
1.61779
1.61779
1.63245
1.57869
1.54447
1.51515
1.49071
1.46138
1.42717
1.39784
1.39784
1.34897
1.32453
1.30498
1.29032
1.28054
1.26099
1.25122
1.25610
1.26099
1.25610
1.23167
1.23167
1.23167
1.22678
1.23655
1.28054
1.39784
1.58357
1.79374
2.04789
2.29227
2.46334
2.56598
2.63440
2.59530
2.51710
2.41446
2.31182
2.24340
2.09677
1.98924
1.89638
1.81329
1.72531
1.63734
1.57380
1.52003
1.49071
1.45161
1.45650
1.48093
1.51515
1.54447
1.59335
1.63734
1.66177
1.67155
1.68132
1.68132
1.67155
1.65689
1.61290
1.58846
1.55913
1.51515
1.48582
1.46627
1.46627
1.40273
1.38318
1.36852
1.35874
1.33919
1.35386
1.31476
1.30987
1.30009
1.29032
1.29032
1.29032
1.27077
1.26588
1.27565
1.32942
1.42717
1.61290
1.85239
2.12121
2.35092
2.53176
2.64907
2.69794
2.65884
2.58553
2.48778
2.39002
2.29716
2.15053
2.05278
1.96480
1.87194
1.78885
1.71065
1.65200
1.59335
1.53958
1.51026
1.51026
1.52003
1.53470
1.56891
1.61290
1.65200
1.68621
1.67644
1.69110
1.68621
1.66177
1.64222
1.62267
1.59824
1.54936
1.51515
1.49071
1.46138
1.42717
1.39784
1.38318
1.37829
1.33431
1.31964
1.30498
1.30009
1.29032
1.28054
1.27565
1.27565
1.25610
1.25122
1.25610
1.26588
1.29521
1.39784
1.52492
1.75464
1.99902
2.23362
2.43890
2.58064
2.65395
2.60997
2.55620
2.47311
2.38025
2.23362
2.12609
2.03323
1.92570
1.83284
1.75464
1.71554
1.60312
1.52981
1.48093
1.45650
1.43695
1.44183
1.47605
1.50048
1.53470
1.55913
1.59335
1.61779
1.62756
1.62267
1.63245
1.61290
1.57380
1.53470
1.50048
1.47605
1.44672
1.41251
1.39784
1.36363
1.33919
1.30987
1.29032
1.27565
1.26588
1.25122
1.24144
1.23167
1.23167
1.21700
1.21212
1.21212
1.21700
1.22678
1.23655
1.31476
1.47116
1.67644
1.92570
2.17497
2.40469
2.50733
2.54154
2.54154
2.49266
2.39002
2.28250
2.17497
2.07233
1.95992
1.87683
1.76930
1.69599
1.60312
1.52981
1.46627
1.43206
1.41739
1.39296
1.40273
1.44183
1.48093
1.51026
1.55425
1.59824
1.62756
1.65689
1.62267
1.62267
1.59824
1.56891
1.54447
1.52003
1.49071
1.47605
1.42228
1.39784
1.37829
1.34897
1.32942
1.31476
1.30498
1.28543
1.28054
1.27565
1.26588
1.25122
1.25122
1.24144
1.24633
1.24144
1.25122
1.32453
1.46138
1.66666
1.91593
2.16520
2.38025
2.51710
2.59042
2.60508
2.57086
2.47800
2.37047
2.26295
2.18475
2.04789
1.97458
1.87194
1.79374
1.69599
1.61779
1.54936
1.50537
1.47116
1.46138
1.46138
1.49071
1.52003
1.54936
1.59335
1.63245
1.65689
1.68132
1.65689
1.65689
1.64222
1.60801
1.58357
1.55913
1.54936
1.48093
1.45161
1.43206
1.39784
1.37341
1.37829
1.33431
1.31964
1.29521
1.28543
1.27565
1.28054
1.26099
1.26099
1.24633
1.24633
1.23167
1.22678
1.24633
1.30009
1.41251
1.60312
1.86217
2.12121
2.33137
2.49266
2.59530
2.62952
2.58064
2.50244
2.40957
2.31182
2.20430
2.08699
2.01857
1.92082
1.83284
1.74486
1.66666
1.59824
1.52981
1.48582
1.47116
1.46138
1.46627
1.48093
1.51515
1.54936
1.57869
1.59335
1.62756
1.64711
1.60801
1.58357
1.56402
1.54447
1.51515
1.48582
1.46627
1.41251
1.38318
1.34408
1.31476
1.29521
1.27565
1.25122
1.24144
1.23167
1.24144
1.19745
1.18768
1.18768
1.18279
1.16324
1.16813
1.18279
1.20234
1.20723
1.30987
1.48582
1.71554
1.94525
2.15053
2.31671
2.43890
2.43890
2.40957
2.34604
2.27272
2.15053
2.04789
1.94037
1.85239
1.77908
1.66177
1.58357
1.51515
1.44672
1.39296
1.37829
1.35874
1.32942
1.33919
1.35874
1.39784
1.42717
1.45161
1.50048
1.49071
1.49560
1.48093
1.47605
1.46627
1.44183
1.41739
1.40762
1.35386
1.32942
1.29521
1.26588
1.25122
1.23655
1.21700
1.18768
1.16813
1.15835
1.13880
1.13391
1.12414
1.12414
1.11436
1.08993
1.08993
1.08993
1.11925
1.19257
1.33919
1.55425
1.73509
1.94037
2.11143
2.23362
2.28738
2.27761
2.23851
2.19452
2.08211
1.98435
1.89638
1.81818
1.72043
1.64222
1.57380
1.51026
1.45650
1.38318
1.34408
1.32942
1.32453
1.32942
1.35874
1.39784
1.43695
1.46138
1.46627
1.49560
1.50048
1.49071
1.48582
1.48582
1.47605
1.43206
1.40762
1.39296
1.36363
1.32942
1.31476
1.30498
1.30009
1.25610
1.24144
1.23167
1.22189
1.20723
1.20723
1.20234
1.20234
1.18768
1.16813
1.16813
1.17790
1.19745
1.29032
1.44672
1.64711
1.86705
2.02346
2.17986
2.29227
2.33137
2.33626
2.32160
2.23851
2.14565
2.05767
1.97947
1.92082
1.82306
1.74975
1.71065
1.62267
1.55425
1.50537
1.46627
1.44672
1.43695
1.46138
1.45161
1.47605
1.50048
1.52003
1.54447
1.56402
1.57380
1.56891
1.56891
1.55425
1.52981
1.50537
1.48093
1.46138
1.43695
1.40762
1.40762
1.37341
1.34897
1.32453
1.30987
1.29521
1.29521
1.27565
1.26099
1.25610
1.25122
1.22678
1.21700
1.22189
1.23655
1.26588
1.38318
1.50048
1.69110
1.88172
2.07233
2.25317
2.34604
2.39002
2.39491
2.36070
2.30694
2.21896
2.13098
2.05278
1.98435
1.89638
1.81329
1.74975
1.69599
1.62756
1.57869
1.52003
1.50048
1.48093
1.47116
1.49071
1.52003
1.53958
1.58357
1.57380
1.59335
1.59824
1.59335
1.58846
1.57869
1.55913
1.52981
1.51026
1.49560
1.47605
1.43206
1.40762
1.39296
1.37341
1.34408
1.32942
1.31964
1.30009
1.28054
1.27565
1.27565
1.30009
1.25122
1.24144
1.23655
1.23655
1.24633
1.28543
1.38318
1.52492
1.70087
1.90127
2.08699
2.24828
2.34115
2.41446
2.39002
2.36070
2.28738
2.21896
2.12121
2.04789
1.95014
1.87194
1.79863
1.73020
1.65689
1.58846
1.53470
1.51515
1.48582
1.49560
1.48582
1.51026
1.53470
1.55425
1.58846
1.62756
1.62756
1.62756
1.62756
1.62267
1.60801
1.57869
1.57869
1.53958
1.51026
1.47605
1.45650
1.44183
1.42228
1.38807
1.37341
1.36363
1.34408
1.32942
1.31964
1.31964
1.31476
1.32453
1.28543
1.28054
1.28054
1.27077
1.29521
1.38318
1.47605
1.63734
1.84261
2.04789
2.24340
2.38025
2.45356
2.48289
2.47311
2.40469
2.33137
2.25317
2.20430
2.07722
1.99413
1.92082
1.88660
1.77419
1.70576
1.65200
1.60801
1.56891
1.55425
1.55913
1.57380
1.59335
1.61779
1.64711
1.68132
1.69110
1.71554
1.70576
1.70576
1.69110
1.66666
1.64711
1.62756
1.60312
1.56402
1.54936
1.53958
1.49071
1.46138
1.44183
1.43206
1.41251
1.38807
1.37829
1.37829
1.36852
1.36363
1.33431
1.32942
1.32453
1.30498
1.31964
1.37341
1.47605
1.63734
1.82795
2.04789
2.25317
2.39980
2.50733
2.58064
2.56109
2.49266
2.42424
2.33626
2.24828
2.14565
2.06744
1.97947
1.91104
1.82795
1.77419
1.69110
1.64222
1.59335
1.56402
1.54936
1.56402
1.58357
1.60801
1.61779
1.65200
1.66666
1.67644
1.68132
1.69110
1.71065
1.65200
1.62756
1.61290
1.58357
1.54447
1.52492
1.51026
1.47116
1.43695
1.41739
1.40273
1.38318
1.35386
1.34897
1.35386
1.34408
1.30987
1.30498
1.30009
1.29032
1.28054
1.27565
1.30009
1.29521
1.34408
1.46138
1.64222
1.86705
2.07722
2.30205
2.42424
2.52199
2.54154
2.51710
2.45845
2.38514
2.27761
2.18475
2.08699
2.00879
1.92082
1.86217
1.75464
1.69110
1.61779
1.56402
1.52492
1.51026
1.49071
1.50537
1.52492
1.55913
1.59824
1.59824
1.62267
1.64222
1.64222
1.63245
1.62267
1.60801
1.58846
1.55425
1.52492
1.51026
1.47605
1.46627
1.41251
1.39296
1.36852
1.34408
1.32453
1.30987
1.29521
1.28543
1.27077
1.27077
1.26099
1.25122
1.24144
1.23655
1.23167
1.23167
1.27077
1.30498
1.42228
1.59335
1.81329
2.03812
2.24340
2.37047
2.48778
2.49266
2.47311
2.39491
2.31182
2.22385
2.12609
2.01857
1.92082
1.83284
1.75953
1.67644
1.60312
1.54936
1.49560
1.45161
1.43206
1.43695
1.46138
1.48093
1.51515
1.55425
1.60312
1.62267
1.62267
1.62267
1.62756
1.61290
1.58846
1.56891
1.54936
1.52492
1.49071
1.48582
1.47116
1.41739
1.38318
1.36363
1.35386
1.33431
1.31964
1.33431
1.29521
1.29032
1.27565
1.26588
1.26099
1.25610
1.25122
1.27077
1.28543
1.36363
1.50048
1.69599
1.93059
2.15542
2.33137
2.45356
2.52688
2.54154
2.48778
2.41446
2.32649
2.23851
2.12609
2.02834
1.97458
1.86705
1.79863
1.69599
1.63245
1.57869
1.52492
1.49560
1.52003
1.53470
1.52492
1.55425
1.59335
1.64222
1.66666
1.68621
1.69110
1.70576
1.69110
1.67155
1.67644
1.63245
1.60312
1.56891
1.54447
1.54447
1.49560
1.46138
1.44183
1.42228
1.40762
1.38318
1.36852
1.36852
1.38318
1.33431
1.32453
1.31476
1.31476
1.29521
1.29521
1.31964
1.39784
1.52981
1.71554
1.95503
2.19941
2.38514
2.53665
2.62463
2.64907
2.59530
2.53176
2.46334
2.34115
2.22385
2.12609
2.03323
1.95992
1.86705
1.78396
1.71554
1.66177
1.60312
1.57380
1.53958
1.53958
1.54936
1.56891
1.59824
1.63734
1.66177
1.68132
1.70087
1.72531
1.69599
1.67644
1.65689
1.64222
1.61290
1.59335
1.53958
1.52003
1.49071
1.45161
1.43206
1.41739
1.39784
1.39784
1.35386
1.34408
1.33431
1.31476
1.30987
1.30009
1.30009
1.28054
1.27077
1.27077
1.28054
1.30498
1.39784
1.56891
1.80351
2.01368
2.24340
2.43401
2.56598
2.60997
2.60019
2.55131
2.47800
2.36559
2.27272
2.15542
2.06256
1.98435
1.87194
1.78885
1.71554
1.64222
1.57380
1.52981
1.51026
1.50048
1.48582
1.50537
1.53958
1.56891
1.59824
1.62756
1.64711
1.66177
1.65689
1.65689
1.64711
1.64711
1.57869
1.55425
1.52981
1.49560
1.45650
1.43695
1.41739
1.39296
1.36852
1.35874
1.32942
1.31476
1.29032
1.27565
1.27077
1.27077
1.27077
1.24633
1.24144
1.24144
1.22678
1.23655
1.29521
1.38807
1.54936
1.77908
2.01857
2.24828
2.40469
2.50733
2.55131
2.54154
2.46334
2.37536
2.27761
2.17986
2.06256
1.95992
1.87194
1.78396
1.69110
1.60801
1.53958
1.49071
1.44672
1.42717
1.42717
1.44672
1.47116
1.51515
1.52981
1.57380
1.59824
1.60801
1.62267
1.63245
1.61779
1.60801
1.57380
1.55425
1.52003
1.48582
1.45650
1.44672
1.43206
1.40273
1.35874
1.34408
1.32453
1.30498
1.28543
1.28054
1.27565
1.25610
1.26099
1.26099
1.25610
1.26099
1.23655
1.24144
1.27077
1.32942
1.46627
1.69599
1.95014
2.14565
2.34115
2.48778
2.57575
2.57086
2.52688
2.45356
2.36559
2.24828
2.15542
2.03812
1.95992
1.85239
1.79374
1.68621
1.61779
1.54936
1.49560
1.47605
1.47605
1.49071
1.51515
1.53470
1.57869
1.61290
1.64222
1.67155
1.69599
1.69599
1.68621
1.69599
1.65200
1.62756
1.59335
1.56402
1.54447
1.52003
1.50537
1.44672
1.43206
1.41251
1.38807
1.37341
1.36363
1.34408
1.32942
1.31964
1.31964
1.31476
1.29521
1.28054
1.28054
1.29521
1.32453
1.43695
1.61779
1.86705
2.08699
2.31182
2.49266
2.61485
2.63929
2.61974
2.57086
2.48289
2.36559
2.24828
2.14565
2.05278
1.95014
1.85728
1.77419
1.70087
1.62756
1.56402
1.52981
1.52981
1.49560
1.49560
1.51515
1.55913
1.58846
1.61779
1.64711
1.67155
1.68132
1.67155
1.66666
1.66666
1.62267
1.58846
1.56402
1.53470
1.50537
1.47605
1.46627
1.41739
1.39784
1.36852
1.34897
1.33431
1.32453
1.30009
1.29521
1.31476
1.28054
1.26588
1.25610
1.25122
1.25122
1.23655
1.25122
1.30987
1.45161
1.62267
1.84261
2.09677
2.33137
2.48778
2.59042
2.62463
2.60997
2.52688
2.42424
2.32160
2.22385
2.10166
1.99902
1.91104
1.85728
1.73020
1.65200
1.58357
1.52981
1.48093
1.45650
1.46138
1.49071
1.50048
1.52003
1.55425
1.59824
1.62267
1.63245
1.64711
1.65200
1.64222
1.64222
1.59335
1.56891
1.53470
1.50048
1.47116
1.44183
1.41739
1.38807
1.36363
1.37829
1.32942
1.30498
1.29032
1.27565
1.27077
1.26099
1.27565
1.24633
1.24144
1.22189
1.21700
1.22189
1.25610
1.29032
1.41251
1.60312
1.85239
2.08699
2.31671
2.45356
2.54643
2.55131
2.51710
2.44868
2.36070
2.23851
2.12609
2.02346
1.94037
1.82795
1.73509
1.66666
1.60312
1.50537
1.44672
1.41739
1.41251
1.41251
1.42717
1.47116
1.52492
1.57380
1.59335
1.60801
1.63245
1.63245
1.62267
1.61779
1.63245
1.57380
1.53958
1.51515
1.49071
1.46138
1.42228
1.40762
1.39296
1.37341
1.37341
1.32942
1.31964
1.30987
1.29521
1.29032
1.28054
1.28054
1.26588
1.29032
1.25610
1.26099
1.27565
1.33919
1.47116
1.67155
1.90615
2.15053
2.39491
2.52199
2.59042
2.60508
2.57086
2.50244
2.39002
2.29227
2.17497
2.08211
1.96969
1.87683
1.79374
1.72043
1.63734
1.57380
1.52492
1.49560
1.48093
1.48582
1.51026
1.54936
1.58357
1.61290
1.65689
1.71554
1.69599
1.69110
1.68621
1.68132
1.64711
1.62267
1.61290
1.56402
1.53470
1.49560
1.47116
1.45161
1.42228
1.39296
1.37829
1.37829
1.36363
1.36363
1.32453
1.32453
1.31476
1.30009
1.29032
1.29032
1.28543
1.29032
1.29521
1.36852
1.51026
1.70576
1.95503
2.20918
2.44379
2.56109
2.63440
2.64907
2.61974
2.52688
2.42424
2.31182
2.21407
2.09677
1.99413
1.91104
1.83284
1.74486
1.65689
1.59335
1.54447
1.50537
1.48582
1.50048
1.53470
1.52492
1.55913
1.59335
1.62756
1.64711
1.65689
1.66666
1.69599
1.64711
1.61779
1.59824
1.57380
1.54447
1.51026
1.47116
1.44672
1.41739
1.38318
1.36852
1.35874
1.36852
1.31476
1.30009
1.29521
1.29032
1.27077
1.27565
1.26588
1.25610
1.24144
1.22678
1.23655
1.26099
1.31476
1.42228
1.62267
1.87194
2.11143
2.33137
2.49755
2.60019
2.61485
2.57086
2.49266
2.39980
2.28250
2.16031
2.05767
1.95992
1.85728
1.76441
1.68621
1.61290
1.54447
1.48582
1.47116
1.42717
1.41739
1.42717
1.45650
1.50048
1.52981
1.56402
1.59824
1.63734
1.62756
1.61290
1.60312
1.59335
1.56402
1.52492
1.50048
1.47605
1.44672
1.42717
1.38318
1.36363
1.33919
1.31476
1.29521
1.28543
1.28543
1.26099
1.25122
1.24144
1.24144
1.22678
1.22189
1.21700
1.22189
1.20234
1.21700
1.26588
1.37341
1.54447
1.77419
2.03323
2.27761
2.44379
2.51710
2.55620
2.54154
2.45845
2.36070
2.25806
2.16031
2.03323
1.93059
1.85728
1.78885
1.66177
1.57869
1.51026
1.46627
1.42228
1.42228
1.40762
1.43206
1.46627
1.50048
1.54936
1.59335
1.62267
1.64222
1.68132
1.65689
1.64222
1.61779
1.59824
1.57869
1.54936
1.51515
1.50048
1.46138
1.43206
1.40273
1.38318
1.37829
1.36363
1.35386
1.32453
1.31964
1.30987
1.30009
1.30498
1.28054
1.27565
1.26099
1.26099
1.28543
1.34897
1.47116
1.67155
1.92082
2.17986
2.38514
2.54643
2.62952
2.68328
2.60508
2.53176
2.43401
2.33626
2.22873
2.09677
1.99902
1.93548
1.81329
1.72531
1.64222
1.58846
1.54447
1.47605
1.45650
1.46627
1.47116
1.50048
1.54447
1.58846
1.62267
1.66177
1.65689
1.67155
1.66666
1.64711
1.63734
1.63245
1.57869
1.54447
1.51515
1.48582
1.45650
1.42228
1.40273
1.38318
1.36852
1.33919
1.32942
1.32453
1.31476
1.30009
1.28543
1.28543
1.27565
1.26099
1.26588
1.25610
1.25610
1.27565
1.35386
1.50537
1.72531
1.97458
2.22385
2.43890
2.61485
2.63440
2.63440
2.60508
2.51221
2.39491
2.27272
2.16520
2.06256
1.95014
1.85239
1.76930
1.70576
1.63734
1.53470
1.48093
1.45161
1.42717
1.43206
1.45161
1.48582
1.52003
1.55913
1.62267
1.62756
1.63734
1.64222
1.64222
1.63734
1.63734
1.57869
1.54936
1.52492
1.49071
1.45161
1.42228
1.40273
1.37829
1.34897
1.32942
1.31476
1.30009
1.27565
1.26588
1.26099
1.26099
1.25122
1.23655
1.23167
1.23167
1.22189
1.22678
1.23167
1.28054
1.38318
1.56402
1.81329
2.07233
2.29227
2.46823
2.57086
2.61485
2.57086
2.53176
2.40957
2.30694
2.18475
2.07722
1.96969
1.87683
1.76930
1.68621
1.62756
1.56891
1.47116
1.42717
1.40762
1.41251
1.42717
1.45650
1.50048
1.54936
1.60801
1.60801
1.63734
1.65689
1.65200
1.64222
1.63245
1.60801
1.57869
1.53958
1.51026
1.48582
1.45650
1.42717
1.40762
1.40273
1.39296
1.35386
1.34408
1.33431
1.31964
1.29521
1.29032
1.29032
1.28543
1.29521
1.25610
1.25610
1.25610
1.26588
1.32942
1.45650
1.66177
1.92082
2.14076
2.37047
2.54154
2.61485
2.63929
2.60997
2.54643
2.43401
2.32160
2.21407
2.14565
1.99902
1.89638
1.82306
1.73020
1.64222
1.56891
1.51026
1.47605
1.44672
1.45161
1.48582
1.49560
1.52981
1.56402
1.59824
1.63734
1.65200
1.65689
1.67155
1.65200
1.63245
1.59824
1.57380
1.55425
1.52492
1.47605
1.45161
1.43206
1.40273
1.37341
1.35874
1.34897
1.34408
1.33431
1.29521
1.29521
1.28543
1.27077
1.26099
1.26099
1.27565
1.23167
1.22678
1.23655
1.27565
1.36852
1.54447
1.79374
2.03323
2.26295
2.44868
2.58064
2.66373
2.61974
2.55620
2.46823
2.37536
2.27761
2.13587
2.03323
1.94037
1.83773
1.74486
1.67155
1.60312
1.52492
1.50048
1.43695
1.43206
1.43206
1.44672
1.48582
1.53470
1.57380
1.59335
1.61779
1.63734
1.63734
1.62267
1.61779
1.62267
1.56891
1.53470
1.50537
1.48093
1.44672
1.40762
1.39296
1.37341
1.35386
1.33431
1.30498
1.29521
1.28543
1.26588
1.25610
1.26099
1.25610
1.25610
1.23167
1.22678
1.22189
1.21212
1.24144
1.30009
1.43695
1.62756
1.87683
2.12609
2.35092
2.49755
2.57086
2.59042
2.56109
2.46823
2.36559
2.26295
2.16031
2.03812
1.94037
1.84261
1.78885
1.66666
1.58846
1.52003
1.47116
1.42717
1.41739
1.44672
1.47605
1.47605
1.51515
1.55913
1.60801
1.63734
1.64711
1.66177
1.67155
1.65689
1.64222
1.60312
1.58357
1.55425
1.51515
1.48582
1.46627
1.43695
1.41251
1.41739
1.36852
1.34897
1.33431
1.31476
1.31476
1.30498
1.29521
1.30987
1.30987
1.27565
1.26099
1.25610
1.26588
1.30498
1.37341
1.52492
1.74975
2.01368
2.24828
2.44868
2.59042
2.67350
2.65395
2.60019
2.52199
2.42913
2.30205
2.20918
2.08211
1.99413
1.89149
1.79863
1.71554
1.64711
1.57380
1.51026
1.48582
1.48582
1.47116
1.48093
1.51515
1.55425
1.59335
1.62756
1.68132
1.67644
1.67644
1.66666
1.65200
1.63734
1.62267
1.57380
1.53958
1.51515
1.48582
1.45161
1.43695
1.40273
1.37829
1.34897
1.32942
1.31964
1.31476
1.29521
1.30987
1.28054
1.27565
1.26588
1.26099
1.25610
1.27565
1.23655
1.24144
1.27077
1.34408
1.47605
1.68621
1.95503
2.21896
2.44379
2.58064
2.66373
2.68817
2.62952
2.54643
2.44379
2.34115
2.21896
2.10166
2.02346
1.92082
1.82306
1.73998
1.67644
1.61779
1.56402
1.52981
1.52003
1.54447
1.54447
1.56891
1.61290
1.65200
1.68132
1.69110
1.71554
1.73020
1.71554
1.69110
1.67155
1.65200
1.61779
1.56402
1.52981
1.49560
1.47116
1.39784
1.36363
1.33919
1.31476
1.28543
1.27565
1.27565
1.27565
1.23167
1.22678
1.22678
1.22678
1.21700
1.22189
1.22189
1.22189
1.22678
1.24144
1.23655
1.30498
1.42717
1.62756
1.88660
2.15542
2.36559
2.50733
2.60019
2.63440
2.58553
2.50733
2.40957
2.31182
2.18475
2.06744
1.96969
1.88172
1.78885
1.70087
1.62267
1.56402
1.50537
1.47116
1.46627
1.44183
1.45650
1.48093
1.51515
1.56891
1.60312
1.62756
1.64222
1.66177
1.65689
1.63734
1.61779
1.59824
1.57380
1.52981
1.49560
1.47116
1.44183
1.40762
1.38318
1.36852
1.35874
1.34408
1.33919
1.29521
1.28543
1.26588
1.26099
1.25610
1.25122
1.24144
1.24144
1.25122
1.26588
1.22678
1.24633
1.29521
1.42717
1.61290
1.84261
2.09677
2.32649
2.47311
2.56598
2.59530
2.57086
2.48289
2.37536
2.27272
2.17497
2.05278
1.94525
1.84750
1.76441
1.67644
1.58846
1.52492
1.48093
1.46627
1.40762
1.41739
1.44183
1.47605
1.51515
1.55913
1.63245
1.66177
1.64711
1.65689
1.66177
1.65200
1.63734
1.59335
1.57380
1.54447
1.50537
1.48093
1.46138
1.45650
1.39296
1.37341
1.35874
1.34408
1.31476
1.30987
1.32942
1.33431
1.29032
1.28054
1.27565
1.27565
1.26099
1.26099
1.28054
1.33431
1.46627
1.62267
1.86217
2.12121
2.33626
2.50733
2.61485
2.68328
2.61974
2.54154
2.44868
2.35092
2.23362
2.11632
2.04789
1.93548
1.84261
1.76441
1.67155
1.60801
1.54447
1.49071
1.47605
1.48093
1.52003
1.51026
1.54447
1.58846
1.62267
1.64711
1.67155
1.70576
1.67644
1.65689
1.63734
1.61779
1.58846
1.54447
1.52003
1.49560
1.47605
1.43206
1.40762
1.38807
1.36852
1.34408
1.32942
1.31964
1.31476
1.30009
1.30987
1.28054
1.28054
1.26099
1.25610
1.25122
1.25610
1.26099
1.31964
1.45161
1.66177
1.88660
2.14076
2.37047
2.55131
2.63929
2.65884
2.62952
2.56598
2.45356
2.33626
2.23362
2.12609
2.05278
1.92570
1.83773
1.76441
1.68132
1.60801
1.54936
1.52492
1.49071
1.46627
1.48093
1.51026
1.53470
1.56402
1.60312
1.63734
1.66177
1.67155
1.65200
1.64711
1.62756
1.59335
1.56402
1.53470
1.51026
1.47605
1.44183
1.41251
1.39296
1.35874
1.33919
1.32942
1.31476
1.30987
1.30987
1.27077
1.26588
1.25122
1.25122
1.25122
1.23655
1.24144
1.23655
1.25610
1.31476
1.41739
1.60801
1.85239
2.12121
2.34115
2.52199
2.61974
2.66373
2.62952
2.56109
2.45845
2.39002
2.23851
2.12121
2.02346
1.94037
1.84750
1.75953
1.68621
1.62756
1.56402
1.51515
1.50048
1.52492
1.52492
1.52981
1.56891
1.61290
1.64222
1.65200
1.66666
1.67155
1.66666
1.63734
1.61290
1.59824
1.56891
1.52981
1.52492
1.46627
1.44183
1.40273
1.37829
1.35874
1.34897
1.32453
1.33431
1.29521
1.29032
1.28054
1.27565
1.26588
1.27077
1.25610
1.26099
1.24633
1.27565
1.33431
1.45650
1.66666
1.92570
2.16520
2.38514
2.54643
2.64907
2.64907
2.59042
2.50733
2.40957
2.29716
2.17008
2.06256
1.97947
1.88172
1.79374
1.72043
1.65689
1.58846
1.52492
1.49071
1.48093
1.48582
1.50048
1.52981
1.57869
1.62267
1.66666
1.65689
1.67644
1.67644
1.66177
1.65689
1.62756
1.59824
1.55913
1.52492
1.50048
1.47116
1.43695
1.41739
1.41251
1.40273
1.34897
1.33431
1.32453
1.31476
1.29521
1.28054
1.28054
1.28054
1.28054
1.25610
1.25610
1.25610
1.25610
1.27565
1.36363
1.54936
1.74975
1.97947
2.23362
2.44868
2.57086
2.62952
2.63440
2.59042
2.49266
2.37536
2.26783
2.18475
2.08699
1.95503
1.87683
1.81818
1.71065
1.63245
1.56891
1.52492
1.48093
1.46138
1.46627
1.49560
1.52492
1.54936
1.58846
1.65200
1.63734
1.64222
1.64222
1.64222
1.62756
1.59335
1.58357
1.56402
1.52492
1.46627
1.43695
1.40762
1.38807
1.35874
1.33431
1.31476
1.30498
1.28054
1.27077
1.26099
1.27077
1.27077
1.23655
1.24144
1.23655
1.22678
1.22678
1.22678
1.25610
1.26099
1.29032
1.41251
1.61290
1.84750
2.09188
2.32160
2.50733
2.56598
2.57575
2.53665
2.46823
2.36070
2.24340
2.13587
2.03323
1.93059
1.82795
1.74486
1.66666
1.58846
1.51515
1.47605
1.46138
1.41251
1.41251
1.43206
1.47605
1.51026
1.54936
1.60801
1.61779
1.63734
1.63245
1.63245
1.62756
1.63245
1.56891
1.53958
1.51026
1.48093
1.44672
1.41251
1.39784
1.37829
1.37341
1.32453
1.31476
1.30498
1.28543
1.28054
1.27565
1.28054
1.26099
1.25610
1.25122
1.25122
1.23655
1.24144
1.27077
1.35874
1.52003
1.71065
1.96480
2.21896
2.41446
2.54643
2.61974
2.62463
2.56598
2.46823
2.36559
2.26783
2.15053
2.03812
1.94525
1.86217
1.77908
1.69599
1.62267
1.56891
1.52003
1.50048
1.47605
1.49071
1.51026
1.53958
1.57380
1.61779
1.65200
1.69110
1.67644
1.68621
1.67644
1.64711
1.62267
1.60801
1.58357
1.54447
1.50048
1.47605
1.45161
1.41251
1.39784
1.39784
1.36363
1.33919
1.32453
1.31476
1.30987
1.29032
1.28054
1.28054
1.28543
1.29521
1.25610
1.25610
1.26588
1.29032
1.39296
1.53470
1.76441
2.01368
2.25317
2.45356
2.61974
2.64418
2.62952
2.57086
2.48778
2.37536
2.25806
2.15053
2.05767
1.96480
1.87683
1.78885
1.72043
1.64711
1.57380
1.53470
1.51026
1.49071
1.48582
1.50537
1.53958
1.57380
1.59824
1.62267
1.65200
1.67155
1.67644
1.64222
1.62756
1.60801
1.56891
1.53958
1.51026
1.48582
1.44672
1.41739
1.39784
1.39784
1.33919
1.31964
1.30498
1.29521
1.28054
1.26588
1.28054
1.26588
1.24144
1.23655
1.23167
1.23167
1.22189
1.24144
1.22189
1.26588
1.35386
1.50537
1.73509
1.99413
2.23362
2.39002
2.51221
2.56598
2.54154
2.46334
2.37536
2.29227
2.16031
2.04789
1.94525
1.85728
1.76930
1.68621
1.62756
1.58357
1.49071
1.44672
1.42228
1.42717
1.44183
1.46138
1.50048
1.54447
1.58846
1.59824
1.62267
1.63245
1.63734
1.61779
1.59335
1.58357
1.56402
1.54936
1.49071
1.46627
1.44183
1.41251
1.38318
1.36852
1.35386
1.32942
1.31964
1.30987
1.30498
1.30987
1.27565
1.27077
1.27565
1.26588
1.25610
1.26588
1.28543
1.32942
1.32942
1.41251
1.56891
1.76930
2.00391
2.24340
2.47311
2.60019
2.61485
2.60508
2.56598
2.46823
2.34115
2.22873
2.15542
2.02834
1.92082
1.83773
1.77419
1.72531
1.61779
1.55913
1.52492
1.50537
1.48582
1.51515
1.55425
1.59335
1.63245
1.67644
1.72043
1.75464
1.75953
1.77908
1.75464
1.73998
1.70087
1.66666
1.63734
1.60801
1.56891
1.52981
1.52003
1.51026
1.45650
1.43695
1.41739
1.40762
1.38807
1.37341
1.35386
1.34408
1.32453
1.31964
1.31964
1.33431
1.31476
1.30009
1.30009
1.31476
1.34897
1.43206
1.60801
1.84750
2.12121
2.31182
2.50244
2.62463
2.66373
2.62463
2.54643
2.44868
2.33626
2.20430
2.09188
1.99413
1.90615
1.81818
1.75464
1.69110
1.65200
1.59335
1.51515
1.48582
1.47605
1.47116
1.48582
1.52003
1.58357
1.60801
1.60801
1.62756
1.64222
1.62756
1.62267
1.60801
1.59824
1.57380
1.54447
1.48093
1.45650
1.41739
1.37829
1.34897
1.32942
1.30987
1.30009
1.26588
1.25122
1.22678
1.22189
1.22189
1.23655
1.19257
1.18279
1.18279
1.18279
1.16813
1.16324
1.15835
1.17790
1.22189
1.30498
1.49560
1.74486
1.96969
2.18963
2.37536
2.50244
2.55131
2.52688
2.47800
2.38514
2.25806
2.13098
2.05767
1.96480
1.84750
1.75464
1.68132
1.60312
1.53470
1.46627
1.42228
1.39784
1.40273
1.41739
1.46138
1.46627
1.52003
1.54447
1.57869
1.60312
1.62756
1.64222
1.60312
1.59335
1.57869
1.53958
1.51515
1.49560
1.50048
1.43695
1.40762
1.38807
1.37341
1.34897
1.32942
1.31476
1.32453
1.28543
1.27077
1.26588
1.26588
1.25610
1.24144
1.24633
1.23655
1.23167
1.22678
1.25610
1.32942
1.47605
1.67155
1.93059
2.17008
2.38514
2.51221
2.59042
2.60019
2.55131
2.47311
2.35092
2.24828
2.14565
2.02834
1.93059
1.84261
1.77419
1.69110
1.61779
1.55913
1.52003
1.48582
1.48093
1.49560
1.53470
1.57380
1.62267
1.67644
1.73509
1.74975
1.76441
1.77419
1.77908
1.76441
1.75464
1.69599
1.67155
1.62756
1.58357
1.54936
1.52003
1.47605
1.43695
1.40762
1.40273
1.33919
1.30987
1.29032
1.27565
1.25610
1.24144
1.23167
1.22189
1.21212
1.19745
1.19257
1.21700
1.18768
1.20723
1.29032
1.45161
1.68621
1.94037
2.21407
2.39491
2.54154
2.59042
2.59042
2.54154
2.45845
2.33626
2.22385
2.11632
2.01857
1.91593
1.82306
1.74486
1.67155
1.58846
1.52492
1.48582
1.45650
1.44183
1.45161
1.44672
1.48093
1.51026
1.54447
1.58846
1.62756
1.65689
1.62756
1.62756
1.62267
1.59335
1.56402
1.54447
1.52003
1.48582
1.47116
1.41251
1.39296
1.36363
1.33431
1.31476
1.29521
1.28543
1.27565
1.24633
1.24144
1.22678
1.20723
1.20234
1.20723
1.20234
1.20723
1.17302
1.17790
1.19745
1.25122
1.37829
1.59335
1.86705
2.09188
2.31671
2.47800
2.57575
2.58553
2.54154
2.46334
2.37047
2.25317
2.13098
2.02834
1.93059
1.82306
1.73509
1.67155
1.57869
1.50048
1.44183
1.40762
1.39296
1.38807
1.40762
1.45161
1.46627
1.50048
1.53958
1.56891
1.60312
1.62267
1.60801
1.59824
1.59335
1.56402
1.52981
1.50537
1.48582
1.46138
1.42228
1.39784
1.37341
1.34897
1.31964
1.30987
1.30009
1.28054
1.26099
1.25610
1.27565
1.23655
1.22189
1.21212
1.20723
1.20723
1.19745
1.20723
1.27077
1.33919
1.50048
1.73509
1.99902
2.25317
2.43890
2.56109
2.61485
2.62952
2.54154
2.45356
2.35092
2.25806
2.11632
2.00879
1.91593
1.82795
1.73020
1.64222
1.57380
1.54936
1.46138
1.43206
1.42228
1.44183
1.46627
1.50048
1.54936
1.62267
1.61779
1.64222
1.66177
1.67644
1.67155
1.65689
1.63245
1.61290
1.58357
1.54936
1.51515
1.50048
1.47116
1.43695
1.41251
1.39784
1.37829
1.35386
1.34408
1.33919
1.33919
1.33431
1.29032
1.29032
1.28054
1.26588
1.26099
1.25610
1.28054
1.27565
1.35386
1.51515
1.74486
2.00391
2.26295
2.47800
2.62952
2.68328
2.68328
2.64418
2.56109
2.43890
2.32649
2.20430
2.10654
1.99413
1.90127
1.81818
1.73998
1.65689
1.61290
1.52981
1.50537
1.47605
1.47116
1.49560
1.53470
1.57869
1.62756
1.63734
1.67155
1.68621
1.68621
1.68621
1.68621
1.69599
1.64222
1.63245
1.62267
1.59824
1.57380
1.55913
1.54936
1.54447
1.50537
1.49560
1.48582
1.47605
1.44672
1.43695
1.45161
1.40762
1.39296
1.39784
1.40762
1.40762
1.39296
1.41251
1.37829
1.40273
1.47605
1.62756
1.84261
2.08699
2.30205
2.49266
2.57575
2.61974
2.58064
2.49755
2.39980
2.29716
2.15053
2.03323
1.92570
1.82795
1.72531
1.63734
1.55425
1.48582
1.41739
1.36852
1.34897
1.34897
1.35386
1.37341
1.42228
1.48093
1.53470
1.53958
1.57380
1.59824
1.59824
1.59335
1.58357
1.57380
1.54447
1.53958
1.48093
1.45650
1.42717
1.39296
1.37341
1.35874
1.34897
1.30987
1.29521
1.28543
1.28543
1.27565
1.27077
1.27077
1.27077
1.25610
1.25122
1.26099
1.26099
1.25610
1.28543
1.33919
1.42228
1.59335
1.82795
2.07722
2.30694
2.46334
2.55620
2.58553
2.57086
2.47800
2.38025
2.26295
2.16031
2.04789
1.92570
1.82306
1.73998
1.64711
1.58357
1.48093
1.42717
1.37341
1.34408
1.34897
1.37829
1.41739
1.43206
1.47605
1.52492
1.56402
1.57380
1.59824
1.61290
1.59824
1.57869
1.55913
1.53958
1.51026
1.48093
1.45650
1.44183
1.41251
1.38318
1.36363
1.35386
1.34408
1.31476
1.30987
1.30498
1.29521
1.29521
1.26099
1.25610
1.25122
1.23167
1.22189
1.22189
1.26099
1.30498
1.44672
1.65689
1.92082
2.16520
2.37047
2.53176
2.64418
2.64418
2.57575
2.50244
2.40957
2.29227
2.17008
2.06256
1.96969
1.86705
1.76930
1.69110
1.62756
1.56402
1.48582
1.45161
1.44183
1.44183
1.46138
1.50537
1.53958
1.57869
1.61290
1.64222
1.67155
1.67644
1.69599
1.65689
1.66177
1.61290
1.57380
1.54447
1.52003
1.49071
1.45161
1.42717
1.42228
1.41251
1.35874
1.33919
1.32942
1.30987
1.29521
1.28543
1.28543
1.30498
1.25610
1.24633
1.24144
1.24144
1.22678
1.24633
1.30498
1.45161
1.62756
1.88172
2.15053
2.39980
2.56109
2.65884
2.68817
2.66373
2.59042
2.49755
2.35581
2.25317
2.13587
2.01857
1.92570
1.84750
1.76441
1.67644
1.59824
1.54447
1.49560
1.46627
1.46138
1.48093
1.50537
1.53470
1.57869
1.62756
1.65689
1.67155
1.69599
1.69110
1.67644
1.64711
1.62267
1.59824
1.56891
1.53470
1.50048
1.48093
1.47605
1.41251
1.38807
1.37341
1.35874
1.33431
1.32453
1.30498
1.30009
1.28054
1.27077
1.27077
1.27077
1.27565
1.23655
1.23655
1.24633
1.27565
1.36852
1.55425
1.78396
2.03812
2.28250
2.48289
2.63929
2.65884
2.63929
2.57086
2.48289
2.36559
2.23851
2.13098
2.02834
1.92570
1.82795
1.75953
1.67155
1.59335
1.52003
1.47116
1.45650
1.44672
1.44672
1.48093
1.53958
1.55913
1.58846
1.62756
1.65689
1.67155
1.67155
1.66666
1.64222
1.62267
1.57869
1.54936
1.51515
1.49560
1.45650
1.45161
1.39296
1.37341
1.34408
1.32453
1.30987
1.30009
1.28054
1.27077
1.27565
1.25610
1.24144
1.23655
1.23167
1.23167
1.22189
1.21700
1.23167
1.28543
1.39784
1.58357
1.82795
2.09188
2.31182
2.47800
2.60997
2.61974
2.58553
2.49755
2.39980
2.30694
2.17008
2.05278
1.94525
1.85239
1.75953
1.66666
1.58846
1.52981
1.47605
1.41251
1.39296
1.40273
1.42228
1.44672
1.49560
1.54936
1.57869
1.60312
1.62267
1.64222
1.64222
1.62267
1.60801
1.61779
1.55913
1.52003
1.48582
1.46138
1.43695
1.39784
1.37829
1.35386
1.33919
1.30987
1.29521
1.28543
1.27565
1.26588
1.27077
1.25122
1.25610
1.23655
1.22678
1.22678
1.23655
1.27077
1.34408
1.50537
1.72531
1.97458
2.21407
2.41935
2.57086
2.64418
2.61485
2.55620
2.47800
2.36559
2.26783
2.13587
2.03323
1.93059
1.82795
1.74975
1.67644
1.59335
1.52492
1.48093
1.46138
1.45161
1.46138
1.49560
1.55913
1.60312
1.60801
1.64711
1.67644
1.68621
1.68132
1.67644
1.66666
1.64711
1.59824
1.56891
1.53470
1.51026
1.46627
1.43695
1.41739
1.41739
1.36363
1.33919
1.32942
1.30987
1.30009
1.28054
1.27565
1.27565
1.26588
1.25122
1.25610
1.25610
1.25610
1.24633
1.29032
1.39784
1.57380
1.81329
2.11143
2.34115
2.52688
2.63440
2.67839
2.66862
2.60019
2.49266
2.37047
2.26783
2.15053
2.03323
1.93548
1.85239
1.76930
1.68132
1.63734
1.55425
1.50537
1.47116
1.46627
1.48582
1.51515
1.52981
1.56891
1.61290
1.63734
1.64711
1.65689
1.65200
1.64711
1.62267
1.59824
1.57380
1.55425
1.52003
1.50537
1.45650
1.44183
1.40762
1.38318
1.37341
1.35386
1.33431
1.31964
1.30987
1.30009
1.28543
1.26588
1.26588
1.25610
1.25122
1.24633
1.27565
1.25122
1.26099
1.31964
1.46138
1.68132
1.94037
2.21407
2.42424
2.59530
2.67839
2.67839
2.62952
2.54643
2.42913
2.30205
2.19452
2.10654
1.97947
1.88172
1.79863
1.74486
1.64711
1.56891
1.51515
1.48093
1.46627
1.46627
1.47605
1.51026
1.55425
1.57869
1.61290
1.65200
1.69599
1.65689
1.65689
1.64222
1.63734
1.61779
1.55913
1.52981
1.50048
1.46627
1.43695
1.42228
1.38807
1.35386
1.33431
1.31964
1.30498
1.28054
1.27077
1.28543
1.25122
1.23655
1.22678
1.21700
1.22189
1.21212
1.22189
1.21700
1.23655
1.31476
1.46627
1.70087
1.96969
2.21407
2.42913
2.53176
2.60019
2.59530
2.51710
2.42424
2.32160
2.20918
2.08211
1.96969
1.87194
1.77419
1.67644
1.59335
1.53470
1.49071
1.40273
1.37829
1.37341
1.39296
1.41251
1.45161
1.50537
1.55913
1.60801
1.63245
1.62756
1.63734
1.62267
1.60801
1.58846
1.56402
1.52492
1.49560
1.46138
1.43695
1.40273
1.36363
1.34897
1.32942
1.30987
1.31476
1.27565
1.26588
1.25122
1.23655
1.23167
1.23167
1.22189
1.23655
1.20234
1.20723
1.21212
1.25122
1.35874
1.55425
1.81329
2.03323
2.26295
2.44868
2.55131
2.57575
2.55131
2.48778
2.39002
2.28250
2.15053
2.04301
1.94037
1.83284
1.73509
1.65689
1.57380
1.50048
1.45650
1.44183
1.43206
1.39784
1.42228
1.46138
1.51026
1.54447
1.59824
1.63245
1.65689
1.66177
1.66177
1.65689
1.65200
1.63245
1.58357
1.55425
1.52981
1.49071
1.46138
1.46627
1.41251
1.38318
1.35874
1.34897
1.34408
1.31476
1.30009
1.29521
1.29032
1.28054
1.26588
1.27565
1.25610
1.25122
1.26099
1.31964
1.46138
1.68132
1.92570
2.18475
2.41935
2.58553
2.65884
2.67350
2.64907
2.55620
2.43890
2.32160
2.21896
2.12121
1.99902
1.90615
1.82306
1.74975
1.66177
1.58846
1.53470
1.49560
1.46138
1.46138
1.48093
1.51515
1.54447
1.60801
1.62267
1.65200
1.66177
1.66666
1.66177
1.66177
1.63245
1.62267
1.59335
1.54447
1.50048
1.47116
1.44183
1.41739
1.38807
1.37341
1.34408
1.33431
1.30987
1.28543
1.27565
1.27077
1.26588
1.25122
1.27077
1.24144
1.22678
1.22189
1.22189
1.25610
1.32942
1.47605
1.73020
1.97458
2.23362
2.43401
2.58064
2.65884
2.65884
2.58553
2.49266
2.39491
2.27761
2.14076
2.03323
1.96480
1.84261
1.74975
1.67155
1.59824
1.53958
1.47605
1.44672
1.44672
1.47116
1.47116
1.50537
1.55425
1.60312
1.63734
1.66177
1.67155
1.68132
1.66177
1.64222
1.62756
1.61290
1.55913
1.52492
1.49560
1.47116
1.43206
1.40762
1.38318
1.39296
1.33919
1.31964
1.30009
1.29521
1.30987
1.26588
1.25610
1.25610
1.25122
1.24144
1.23655
1.23655
1.26099
1.22678
1.26099
1.35874
1.52003
1.75464
2.03323
2.27272
2.47311
2.58553
2.63440
2.62463
2.55620
2.44379
2.33137
2.21896
2.10166
2.00879
1.88172
1.81818
1.70576
1.61290
1.53958
1.48582
1.44672
1.41739
1.41251
1.45650
1.45650
1.48582
1.52981
1.57380
1.61779
1.62756
1.64222
1.65200
1.66177
1.64711
1.58846
1.55913
1.53958
1.50048
1.47116
1.44183
1.42228
1.38807
1.36852
1.33919
1.32453
1.30009
1.28054
1.26588
1.26099
1.25610
1.27077
1.23655
1.23655
1.22678
1.21700
1.21700
1.22678
1.27565
1.37341
1.58846
1.80351
2.05767
2.28250
2.45845
2.58553
2.60508
2.59042
2.49266
2.39980
2.31671
2.15542
2.04789
1.94037
1.84750
1.74975
1.66177
1.59824
1.51515
1.45161
1.41739
1.40273
1.42228
1.43695
1.48093
1.54936
1.57869
1.61290
1.64711
1.67155
1.69110
1.68132
1.69599
1.64711
1.62756
1.58846
1.55425
1.52492
1.50537
1.48582
1.43695
1.41251
1.39296
1.37341
1.34408
1.33919
1.32942
1.32453
1.29521
1.28543
1.28543
1.27077
1.25610
1.25122
1.26099
1.28054
1.32453
1.46138
1.68132
1.94525
2.19941
2.42913
2.60019
2.68817
2.68817
2.63929
2.55620
2.44868
2.31671
2.20918
2.09188
2.01857
1.89149
1.80351
1.72531
1.65689
1.57869
1.52492
1.48093
1.46627
1.46138
1.47605
1.51515
1.56402
1.59335
1.64711
1.65689
1.68132
1.67644
1.66666
1.65200
1.64222
1.60801
1.56891
1.53470
1.50537
1.47116
1.43695
1.40762
1.38807
1.36852
1.34408
1.33431
1.31476
1.29521
1.28054
1.27077
1.27077
1.26099
1.26099
1.23655
1.24144
1.22678
1.22189
1.23655
1.29521
1.41739
1.61290
1.85728
2.13587
2.37536
2.53665
2.63440
2.66373
2.62952
2.52688
2.41935
2.30205
2.18963
2.06744
1.95503
1.86217
1.77908
1.68621
1.61290
1.54936
1.49071
1.44183
1.42228
1.42228
1.45650
1.48093
1.52981
1.55913
1.60801
1.62756
1.64222
1.65689
1.66177
1.65200
1.61779
1.59335
1.56891
1.52981
1.49560
1.46627
1.47116
1.40273
1.37341
1.34897
1.33431
1.31476
1.29521
1.28054
1.27565
1.26588
1.27077
1.23167
1.23167
1.22678
1.21700
1.21212
1.21212
1.21212
1.21700
1.26588
1.38807
1.59335
1.79374
2.06256
2.30694
2.48778
2.58064
2.60997
2.57575
2.50244
2.38025
2.26295
2.14076
2.03323
1.91104
1.80840
1.71554
1.64222
1.54447
1.47605
1.42228
1.40762
1.36852
1.36852
1.39296
1.43695
1.47116
1.52003
1.59335
1.61290
1.62756
1.63734
1.63734
1.63734
1.61779
1.58357
1.55425
1.52981
1.49560
1.46138
1.43206
1.41251
1.38807
1.36363
1.35386
1.35874
1.30987
1.29032
1.28054
1.27565
1.27077
1.25610
1.25122
1.25122
1.24144
1.23655
1.26099
1.26099
1.34408
1.48582
1.71065
1.99902
2.27761
2.45356
2.58553
2.65884
2.67350
2.59042
2.49266
2.39002
2.28250
2.14565
2.03323
1.93548
1.84750
1.74486
1.66177
1.58846
1.53470
1.48093
1.46138
1.43206
1.45161
1.47116
1.51026
1.55425
1.60801
1.64222
1.66177
1.68621
1.69599
1.68132
1.65689
1.63734
1.61290
1.57869
1.53470
1.50537
1.48093
1.44672
1.41739
1.41739
1.37341
1.34897
1.32453
1.31476
1.30498
1.29521
1.28543
1.27077
1.26588
1.26099
1.25122
1.24144
1.24144
1.25122
1.28054
1.34408
1.51515
1.74975
2.01368
2.28250
2.50733
2.65395
2.69794
2.68817
2.62952
2.53665
2.40469
2.27761
2.16031
2.08699
1.94525
1.85239
1.76930
1.69599
1.61779
1.54936
1.50048
1.48093
1.47605
1.45650
1.48582
1.52492
1.56402
1.60312
1.64222
1.67644
1.68132
1.67644
1.67155
1.66177
1.63734
1.60312
1.59824
1.54447
1.50537
1.46627
1.43695
1.41251
1.38807
1.35874
1.33919
1.33919
1.33919
1.29032
1.28054
1.27565
1.26588
1.25610
1.27077
1.24633
1.24144
1.22678
1.22678
1.25122
1.31964
1.44672
1.65200
1.92082
2.19452
2.40957
2.57086
2.65884
2.67839
2.60997
2.51710
2.40469
2.29227
2.16520
2.05767
1.94037
1.85239
1.76930
1.66666
1.59335
1.52981
1.47116
1.42717
1.41739
1.44183
1.44183
1.47116
1.52003
1.56891
1.59824
1.62267
1.64711
1.66177
1.67155
1.65689
1.60312
1.57869
1.54447
1.51026
1.47605
1.46627
1.44672
1.38318
1.35874
1.34408
1.31964
1.30009
1.30009
1.26588
1.25610
1.23655
1.23167
1.22678
1.22189
1.21212
1.21212
1.21700
1.22189
1.21700
1.28054
1.41251
1.63734
1.91104
2.13587
2.36070
2.52199
2.58064
2.58553
2.54154
2.45845
2.33626
2.21407
2.09188
1.98435
1.88172
1.76441
1.67644
1.59824
1.51515
1.44183
1.39784
1.37341
1.36852
1.37829
1.42228
1.49071
1.53470
1.54447
1.58846
1.62756
1.64222
1.64222
1.66177
1.63245
1.61290
1.57869
1.54936
1.52492
1.49560
1.47605
1.43206
1.40762
1.38807
1.35874
1.33919
1.33919
1.32942
1.30009
1.29032
1.28543
1.28054
1.27077
1.26588
1.26588
1.27565
1.26099
1.30009
1.39784
1.57869
1.81329
2.08699
2.32649
2.53176
2.63440
2.67839
2.65884
2.60019
2.47800
2.36559
2.23851
2.13098
2.01368
1.91104
1.82306
1.74486
1.65689
1.57869
1.52492
1.48582
1.46138
1.48582
1.47605
1.51515
1.54936
1.58846
1.63734
1.68132
1.70087
1.71065
1.71065
1.69110
1.67155
1.63245
1.59824
1.57380
1.53470
1.50048
1.46627
1.45650
1.44672
1.38318
1.36363
1.34897
1.33431
1.30987
1.30498
1.31964
1.30009
1.27565
1.26588
1.25610
1.25610
1.24144
1.25122
1.29521
1.40762
1.55425
1.79863
2.07233
2.34115
2.53665
2.63929
2.68817
2.70283
2.59530
2.48289
2.38025
2.25806
2.13098
2.01857
1.92570
1.84750
1.75953
1.68132
1.63245
1.58357
1.53470
1.47116
1.46627
1.48582
1.51026
1.53958
1.58357
1.63245
1.66666
1.67644
1.70087
1.69110
1.67644
1.64711
1.62267
1.60312
1.56891
1.54936
1.49071
1.46138
1.43206
1.39784
1.37829
1.37341
1.36852
1.33431
1.30498
1.29521
1.28543
1.26588
1.26099
1.26588
1.26099
1.25122
1.23655
1.22678
1.23167
1.24144
1.30498
1.44672
1.66177
1.94037
2.17008
2.39980
2.56598
2.63440
2.63929
2.59042
2.50733
2.38514
2.25806
2.14076
2.03323
1.93059
1.86217
1.73998
1.66666
1.58357
1.51026
1.46138
1.43206
1.42228
1.42717
1.46627
1.49071
1.52981
1.56891
1.60801
1.64222
1.65200
1.65200
1.66177
1.64711
1.60801
1.57380
1.54447
1.52003
1.48582
1.45161
1.44183
1.43206
1.38318
1.35386
1.33919
1.32942
1.31476
1.29521
1.29032
1.29032
1.29032
1.26588
1.25610
1.25122
1.24144
1.23167
1.23655
1.30498
1.37341
1.53958
1.77908
2.04301
2.29716
2.46823
2.60997
2.61974
2.60019
2.52688
2.40957
2.29716
2.18963
2.06256
1.96969
1.85728
1.78396
1.70576
1.59824
1.52492
1.47605
1.43206
1.41251
1.42228
1.45161
1.48582
1.52981
1.58357
1.62267
1.64711
1.66177
1.66666
1.67155
1.65689
1.62267
1.59824
1.58846
1.56891
1.49560
1.46627
1.44183
1.41251
1.38807
1.35874
1.34408
1.32942
1.30498
1.29032
1.27565
1.27565
1.26099
1.24633
1.23655
1.23167
1.21700
1.23167
1.29032
1.41251
1.60801
1.88172
2.11143
2.34604
2.49755
2.58553
2.60508
2.57086
2.47800
2.36559
2.25317
2.14565
2.02346
1.94037
1.82306
1.73998
1.65200
1.57380
1.51026
1.47116
1.44183
1.40273
1.41251
1.43695
1.47116
1.51026
1.55425
1.59824
1.62756
1.62756
1.63245
1.63734
1.61779
1.58846
1.56402
1.53958
1.51515
1.48582
1.43206
1.40762
1.38318
1.35386
1.32942
1.30987
1.30009
1.29521
1.27077
1.26099
1.25122
1.23167
1.21700
1.22678
1.23655
1.22189
1.26588
1.37341
1.56402
1.79374
2.04789
2.27761
2.45356
2.53665
2.55620
2.52688
2.45845
2.34604
2.22385
2.11632
2.01857
1.90127
1.80351
1.72043
1.65200
1.56891
1.52492
1.44672
1.42228
1.41251
1.41739
1.45161
1.51026
1.54447
1.57869
1.61779
1.65200
1.66177
1.66177
1.68132
1.64222
1.61779
1.57869
1.54447
1.52492
1.49560
1.46138
1.43206
1.42228
1.41251
1.38807
1.33919
1.32453
1.31476
1.29521
1.29032
1.30987
1.27565
1.25610
1.25122
1.25122
1.26588
1.30498
1.42228
1.61779
1.86217
2.10654
2.31671
2.48289
2.58553
2.61485
2.54154
2.46334
2.36559
2.25317
2.12609
2.02346
1.93548
1.84261
1.75464
1.68132
1.61779
1.54936
1.52003
1.45650
1.44672
1.44672
1.46138
1.49071
1.53470
1.56891
1.58846
1.60312
1.61290
1.60801
1.57869
1.56402
1.54447
1.51515
1.45650
1.42717
1.39784
1.36363
1.32942
1.29521
1.28054
1.26588
1.22678
1.20723
1.19745
1.18768
1.16813
1.15347
1.15835
1.15347
1.13880
1.11436
1.10948
1.09970
1.09481
1.12414
1.20234
1.34897
1.54447
1.74486
1.95503
2.13098
2.22873
2.27272
2.26783
2.21896
2.13098
2.03323
1.93548
1.85239
1.75953
1.67644
1.61290
1.57380
1.50537
1.41251
1.36363
1.32453
1.29521
1.27565
1.28543
1.32453
1.32453
1.32453
1.34897
1.36363
1.36363
1.36363
1.34897
1.35386
1.32942
1.29521
1.26588
1.24144
1.21212
1.18768
1.17790
1.12903
1.10459
1.07526
1.05083
1.03616
1.02639
1.01173
0.98240
0.97262
0.96285
0.94819
0.94819
0.96285
0.93352
0.92375
0.91397
0.90909
0.90420
0.89931
0.91397
0.95796
1.04594
1.17302
1.33919
1.53470
1.65689
1.75464
1.82306
1.84750
1.85239
1.80840
1.75953
1.66177
1.59824
1.52492
1.46627
1.40273
1.34897
1.29521
1.23655
1.20723
1.16813
1.13880
1.11925
1.10948
1.12414
1.13880
1.14369
1.16324
1.18279
1.19257
1.21212
1.19257
1.18768
1.17790
1.15347
1.14858
1.15835
1.10948
1.08504
1.06060
1.04594
1.04105
1.04105
0.99217
0.98240
0.97751
0.97751
0.94819
0.93841
0.94330
0.95307
0.92375
0.91886
0.93352
0.91397
0.91397
0.90909
0.92375
0.90909
0.91886
0.95796
1.02639
1.11436
1.22678
1.35874
1.45161
1.52003
1.59824
1.59335
1.60312
1.60801
1.53958
1.50537
1.49560
1.42228
1.37829
1.34897
1.31476
1.27565
1.24144
1.20723
1.18768
1.17302
1.15835
1.15835
1.17790
1.18768
1.19745
1.21212
1.22678
1.23655
1.24633
1.24633
1.25610
1.25122
1.23167
1.19745
1.18279
1.17302
1.15835
1.14858
1.14369
1.13391
1.11925
1.11436
1.11925
1.10459
1.09481
1.09481
1.09481
1.09481
1.08993
1.08504
1.08504
1.08993
1.08504
1.07526
1.07038
1.07526
1.09970
1.08993
1.12414
1.18768
1.28054
1.36852
1.45650
1.53470
1.55913
1.56891
1.57869
1.59824
1.56402
1.52492
1.50048
1.48093
1.48093
1.42717
1.40762
1.38807
1.36852
1.35874
1.32453
1.31476
1.30498
1.31964
1.31964
1.30987
1.32453
1.32942
1.34408
1.35386
1.35386
1.34408
1.34408
1.37341
1.33919
1.31964
1.30987
1.32942
1.30009
1.27565
1.26588
1.26099
1.27565
1.25122
1.22678
1.22678
1.22189
1.21700
1.20723
1.20723
1.20723
1.20234
1.18768
1.19745
1.21700
1.19257
1.19257
1.19257
1.20234
1.19257
1.18768
1.21700
1.18279
1.17790
1.19257
1.24633
1.32942
1.43206
1.55425
1.59335
1.63734
1.65200
1.65200
1.63245
1.61290
1.58846
1.55425
1.52003
1.50537
1.50537
1.45650
1.43695
1.42228
1.41251
1.37341
1.35874
1.36363
1.34897
1.34408
1.35386
1.37829
1.39296
1.40762
1.42717
1.43695
1.44183
1.46627
1.43206
1.42228
1.42228
1.43206
1.39296
1.38318
1.37341
1.38318
1.35386
1.34408
1.34408
1.33431
1.32453
1.31964
1.32453
1.30498
1.30498
1.33431
1.30987
1.30498
1.29521
1.31964
1.29521
1.30009
1.29521
1.30498
1.30498
1.30498
1.30498
1.30987
1.30987
1.30009
1.30009
1.30498
1.32942
1.40762
1.46138
1.56402
1.69599
1.73509
1.75953
1.76930
1.77419
1.75953
1.73998
1.69599
1.66666
1.64222
1.59824
1.57869
1.55425
1.53958
1.51515
1.49071
1.48093
1.50048
1.45161
1.44672
1.45161
1.47605
1.48093
1.50537
1.55913
1.55913
1.55913
1.56402
1.56402
1.58846
1.55425
1.53958
1.52981
1.52492
1.51515
1.49560
1.48582
1.48093
1.46138
1.46627
1.45161
1.44672
1.43206
1.41739
1.44672
1.42228
1.40762
1.40762
1.40273
1.40273
1.40273
1.38807
1.39296
1.41739
1.40273
1.39296
1.39296
1.39296
1.40273
1.38807
1.40273
1.44183
1.52492
1.64222
1.76930
1.87683
1.95503
1.96969
1.98435
1.98924
1.97947
1.95014
1.92570
1.90127
1.87194
1.83284
1.80351
1.78396
1.76930
1.72531
1.70576
1.68132
1.66666
1.64222
1.64222
1.64222
1.65689
1.66177
1.68621
1.70087
1.72531
1.73998
1.74486
1.73998
1.74486
1.73509
1.71554
1.72531
1.70576
1.68621
1.66666
1.65200
1.65689
1.63245
1.61290
1.60801
1.61290
1.58846
1.57380
1.56402
1.57869
1.54936
1.53958
1.52981
1.53470
1.53470
1.51515
1.51515
1.51515
1.51515
1.51026
1.50048
1.50048
1.50048
1.49071
1.51515
1.59335
1.69599
1.81329
1.94037
2.04301
2.12609
2.14565
2.17008
2.18963
2.19452
2.16520
2.15053
2.12121
2.09677
2.05278
2.02346
2.00391
1.97947
1.96480
1.91104
1.88172
1.86217
1.83284
1.82306
1.81818
1.83284
1.83284
1.85239
1.89149
1.88660
1.88660
1.88172
1.91104
1.88660
1.87194
1.85728
1.84261
1.83773
1.81818
1.78885
1.77419
1.76441
1.73509
1.71065
1.69110
1.68132
1.68132
1.63245
1.62267
1.60801
1.60312
1.59824
1.56402
1.55913
1.54936
1.52981
1.52492
1.52492
1.52492
1.53470
1.50048
1.49560
1.49560
1.48582
1.50537
1.56402
1.68132
1.80351
1.90615
2.02346
2.12121
2.17497
2.21407
2.24828
2.26295
2.24340
2.21896
2.20918
2.16520
2.12121
2.07722
2.04789
2.02346
1.96969
1.93059
1.89638
1.86705
1.82795
1.80840
1.82795
1.80351
1.80351
1.80351
1.81329
1.83773
1.84261
1.84750
1.83773
1.84261
1.83773
1.81818
1.81329
1.82306
1.78885
1.76441
1.74975
1.73998
1.72531
1.71554
1.67155
1.66177
1.64711
1.61779
1.60312
1.59335
1.58846
1.58846
1.53958
1.52981
1.52492
1.50537
1.49560
1.49071
1.51026
1.46138
1.45650
1.46138
1.49560
1.56402
1.67644
1.81329
1.95503
2.05767
2.15053
2.21896
2.27272
2.28250
2.28250
2.30205
2.25317
2.21407
2.17008
2.12609
2.10654
2.04789
2.00391
1.95503
1.91104
1.86705
1.82795
1.79863
1.78885
1.77419
1.76441
1.76930
1.78885
1.80840
1.79374
1.80351
1.81818
1.81818
1.82306
1.79863
1.79863
1.78885
1.76441
1.75464
1.75953
1.72531
1.69599
1.67644
1.66666
1.65689
1.62756
1.61290
1.60312
1.59335
1.57380
1.54936
1.53958
1.53470
1.51026
1.50048
1.52003
1.48093
1.46138
1.45650
1.47605
1.52981
1.63245
1.77419
1.95014
2.07233
2.17986
2.26783
2.34604
2.38514
2.39002
2.38025
2.36070
2.33626
2.28738
2.22873
2.18475
2.14076
2.08699
2.03812
1.97947
1.94037
1.89638
1.84750
1.81818
1.80351
1.79374
1.78396
1.81818
1.80351
1.81329
1.81329
1.82306
1.83284
1.83284
1.81818
1.84261
1.80351
1.79374
1.76930
1.74975
1.73998
1.72531
1.71554
1.66666
1.65200
1.63734
1.60312
1.58846
1.57869
1.56891
1.56402
1.52003
1.51026
1.50048
1.47605
1.46627
1.45650
1.45161
1.43695
1.44672
1.49071
1.59335
1.72531
1.88660
2.07233
2.19452
2.28738
2.35581
2.39491
2.41935
2.39491
2.35581
2.31182
2.27272
2.20918
2.14076
2.08699
2.03812
1.98435
1.91104
1.87194
1.81329
1.76930
1.72531
1.70576
1.70087
1.70087
1.69599
1.73020
1.75953
1.73998
1.73509
1.74486
1.75464
1.75464
1.73509
1.73020
1.72531
1.71554
1.69110
1.67644
1.64711
1.62756
1.59824
1.57380
1.56402
1.56891
1.51515
1.50048
1.48582
1.47605
1.45161
1.44672
1.44183
1.46138
1.40762
1.39784
1.38318
1.39296
1.40762
1.46627
1.59824
1.73509
1.88660
2.03812
2.17497
2.29227
2.34604
2.36559
2.37047
2.35581
2.31671
2.23851
2.17986
2.14076
2.05278
1.97947
1.94037
1.87683
1.79863
1.73509
1.69110
1.66177
1.63734
1.63734
1.61290
1.63245
1.64711
1.65200
1.67155
1.70576
1.70576
1.70576
1.71065
1.71554
1.70576
1.69110
1.68132
1.67644
1.68132
1.61779
1.59824
1.57869
1.56402
1.54447
1.54447
1.50048
1.49071
1.46627
1.45161
1.44672
1.44672
1.41739
1.40273
1.39784
1.39296
1.38807
1.40762
1.50048
1.58846
1.73998
1.91593
2.08699
2.24340
2.34604
2.39980
2.43401
2.43890
2.39980
2.34115
2.30694
2.22385
2.15053
2.07233
2.00879
1.94525
1.88172
1.83773
1.75464
1.72043
1.68132
1.65200
1.65689
1.68621
1.66666
1.67644
1.70087
1.72531
1.75464
1.77419
1.75464
1.75953
1.75953
1.73998
1.73020
1.72043
1.70576
1.68132
1.64711
1.63245
1.61290
1.57869
1.55425
1.54447
1.52981
1.51026
1.48093
1.47116
1.45650
1.43695
1.42228
1.41739
1.42228
1.39296
1.39296
1.43206
1.52492
1.65689
1.83284
2.02346
2.21407
2.37047
2.45356
2.48778
2.51221
2.47800
2.42424
2.36559
2.30205
2.24828
2.13587
2.06256
2.00391
1.95503
1.85728
1.79863
1.75464
1.71065
1.68621
1.65200
1.65689
1.66177
1.66666
1.69110
1.72043
1.75953
1.73998
1.74975
1.75953
1.75464
1.73509
1.73020
1.73998
1.69599
1.66177
1.63734
1.61290
1.59824
1.58846
1.53470
1.52003
1.50048
1.47116
1.45650
1.44672
1.44183
1.42717
1.42228
1.39296
1.38807
1.36852
1.36363
1.37341
1.42228
1.51026
1.65200
1.83773
2.03323
2.19452
2.32649
2.44379
2.46334
2.45356
2.41446
2.35581
2.29716
2.21896
2.12609
2.05278
1.98435
1.90615
1.83284
1.76441
1.71065
1.66177
1.63734
1.57869
1.57380
1.57380
1.57869
1.60312
1.64222
1.64711
1.65689
1.67644
1.68621
1.69110
1.68132
1.68132
1.66177
1.64222
1.61290
1.58846
1.56891
1.54447
1.51515
1.50048
1.49560
1.45161
1.42228
1.40273
1.39784
1.38318
1.36852
1.36363
1.36852
1.34897
1.32453
1.31964
1.31964
1.32942
1.37829
1.47605
1.62756
1.82306
1.99902
2.16520
2.29716
2.41935
2.40957
2.39491
2.35581
2.29716
2.22873
2.12609
2.05278
2.00391
1.89638
1.81818
1.75464
1.68621
1.62267
1.57380
1.53958
1.53470
1.52492
1.53470
1.54936
1.58357
1.61290
1.62756
1.65200
1.67155
1.68621
1.67644
1.70087
1.67644
1.67155
1.61290
1.59335
1.57380
1.54936
1.51515
1.49560
1.50048
1.46138
1.43206
1.41251
1.40762
1.40273
1.37341
1.36363
1.35874
1.35386
1.32942
1.33431
1.32942
1.35874
1.41251
1.53470
1.71065
1.92082
2.13587
2.27272
2.39491
2.47311
2.48778
2.45845
2.40957
2.35092
2.25317
2.16520
2.08211
2.01368
1.93548
1.86705
1.78396
1.72531
1.66666
1.60801
1.58357
1.57869
1.58357
1.56402
1.58357
1.61779
1.64711
1.66177
1.68621
1.73998
1.73020
1.70087
1.69110
1.68132
1.66177
1.63245
1.61290
1.60801
1.55913
1.52003
1.49560
1.48582
1.46138
1.43695
1.41739
1.40273
1.38807
1.37341
1.37341
1.35386
1.34897
1.33431
1.32453
1.31476
1.32453
1.33919
1.42228
1.52003
1.70087
1.90127
2.10654
2.28738
2.43890
2.48778
2.50733
2.48778
2.43890
2.35092
2.26295
2.20430
2.10166
2.00879
1.93059
1.87194
1.79374
1.71554
1.65200
1.60312
1.57380
1.55425
1.56402
1.53958
1.55913
1.58357
1.60312
1.62756
1.66177
1.68132
1.69599
1.67155
1.66666
1.65200
1.61779
1.59335
1.57869
1.55425
1.52492
1.48582
1.46627
1.44183
1.41251
1.39296
1.37341
1.36363
1.34897
1.34408
1.31476
1.30987
1.29032
1.28054
1.29032
1.30987
1.26588
1.26588
1.30009
1.38318
1.51026
1.69599
1.90615
2.12121
2.27761
2.40469
2.44379
2.45845
2.41446
2.34604
2.26783
2.18475
2.08699
2.00391
1.91104
1.83773
1.76441
1.67644
1.61779
1.56891
1.51515
1.48093
1.47605
1.47605
1.48582
1.50537
1.53470
1.56891
1.59824
1.62756
1.62756
1.63734
1.63734
1.61779
1.60312
1.59335
1.56891
1.53470
1.51026
1.48582
1.46627
1.43695
1.41251
1.39296
1.37829
1.34897
1.33431
1.32942
1.32453
1.30498
1.30009
1.29032
1.29032
1.27077
1.26588
1.27077
1.29521
1.33919
1.46627
1.65689
1.87683
2.05767
2.23851
2.38514
2.47800
2.52688
2.47311
2.43401
2.34604
2.24828
2.15053
2.06256
2.00391
1.90615
1.82306
1.74486
1.68132
1.61290
1.55913
1.55425
1.51026
1.50537
1.51026
1.53958
1.57380
1.61290
1.62756
1.65200
1.67155
1.68132
1.67644
1.69599
1.66177
1.64222
1.60801
1.58357
1.56891
1.54447
1.53470
1.48093
1.46138
1.44183
1.40762
1.38807
1.38318
1.37341
1.34408
1.32453
1.32453
1.31476
1.30987
1.32942
1.29521
1.29521
1.28054
1.29032
1.33919
1.45161
1.60312
1.81329
2.04301
2.25806
2.40957
2.51710
2.56598
2.57086
2.51221
2.43401
2.35092
2.26295
2.16031
2.06256
1.97947
1.90615
1.81818
1.74486
1.68132
1.63734
1.57380
1.52981
1.52003
1.52003
1.53470
1.55913
1.59824
1.62756
1.65200
1.66666
1.67644
1.69110
1.69110
1.68132
1.68132
1.63734
1.61290
1.57869
1.55425
1.53470
1.52981
1.46138
1.44183
1.41739
1.40762
1.39296
1.35874
1.34897
1.33919
1.31476
1.30498
1.30498
1.30498
1.29032
1.27077
1.27077
1.27077
1.29032
1.35874
1.50048
1.72043
1.94525
2.12609
2.31671
2.45845
2.52199
2.53665
2.50733
2.45356
2.35581
2.27272
2.16520
2.07722
1.97947
1.88660
1.80840
1.73998
1.66666
1.61779
1.53470
1.50048
1.47605
1.46138
1.47605
1.50537
1.55913
1.55425
1.58846
1.61779
1.64222
1.64711
1.65689
1.64711
1.63245
1.60801
1.58357
1.56402
1.53958
1.51026
1.50537
1.45161
1.42717
1.39296
1.37341
1.35874
1.34408
1.31964
1.30987
1.30987
1.32453
1.27565
1.27077
1.26588
1.25610
1.23655
1.24633
1.27077
1.34897
1.46627
1.63245
1.85728
2.08699
2.26295
2.39980
2.47800
2.50244
2.46334
2.39980
2.32160
2.23851
2.13587
2.02834
1.94037
1.86705
1.76930
1.68621
1.60801
1.55425
1.50537
1.45161
1.43695
1.44183
1.45650
1.48093
1.52003
1.56891
1.62756
1.61779
1.64222
1.66177
1.66666
1.64711
1.63734
1.62756
1.60312
1.58846
1.54447
1.52003
1.49560
1.46138
1.44183
1.42717
1.43206
1.37341
1.36363
1.34897
1.33919
1.33431
1.31476
1.30987
1.30498
1.28543
1.28054
1.29521
1.34408
1.41251
1.56891
1.78396
2.02834
2.22873
2.41446
2.55131
2.58553
2.57575
2.52688
2.45356
2.37536
2.26295
2.16520
2.08211
1.98924
1.89638
1.80840
1.73509
1.68132
1.61779
1.54447
1.51515
1.50048
1.50537
1.52981
1.57869
1.58846
1.62267
1.64711
1.67155
1.70087
1.70576
1.70087
1.68132
1.67644
1.65200
1.61779
1.59335
1.56891
1.56891
1.50048
1.47605
1.45161
1.43206
1.40273
1.37829
1.37341
1.36363
1.34897
1.32453
1.31964
1.31476
1.30009
1.29521
1.31964
1.30009
1.32453
1.42228
1.58846
1.80840
2.03812
2.26783
2.43401
2.55620
2.59530
2.58553
2.54154
2.47311
2.36559
2.26783
2.17497
2.08211
1.98924
1.89638
1.83773
1.74486
1.66666
1.59824
1.55425
1.52981
1.51515
1.52003
1.52003
1.55425
1.58357
1.61290
1.64222
1.67644
1.68621
1.70576
1.67644
1.67155
1.65200
1.61779
1.59335
1.56891
1.53958
1.50048
1.48582
1.47605
1.42717
1.39784
1.37341
1.35386
1.33431
1.31964
1.30498
1.30009
1.28543
1.26588
1.26588
1.29521
1.25610
1.25122
1.27077
1.34897
1.49560
1.69110
1.95503
2.15053
2.34604
2.46334
2.52688
2.57086
2.52199
2.42913
2.33137
2.23362
2.14565
2.06256
1.93548
1.85239
1.79863
1.68621
1.61290
1.54936
1.50537
1.46627
1.47605
1.45161
1.47605
1.50048
1.52981
1.56891
1.61290
1.63734
1.65200
1.65689
1.65689
1.64711
1.62267
1.60312
1.61290
1.54936
1.51026
1.48093
1.46138
1.43206
1.40762
1.40762
1.36363
1.34408
1.31964
1.30498
1.30498
1.30498
1.27565
1.26588
1.26099
1.25610
1.25610
1.26588
1.31964
1.44183
1.60801
1.82795
2.07233
2.30205
2.41446
2.50244
2.53665
2.51710
2.43890
2.35092
2.26295
2.17008
2.05767
1.96480
1.88172
1.80351
1.71554
1.64222
1.58357
1.53958
1.50537
1.47605
1.47605
1.50537
1.52981
1.56402
1.62267
1.68621
1.67644
1.68621
1.70087
1.70576
1.69110
1.66666
1.66666
1.62756
1.59335
1.55425
1.52003
1.50537
1.48093
1.46627
1.42717
1.40762
1.39296
1.36852
1.35874
1.34897
1.35874
1.31964
1.30987
1.30498
1.30498
1.30498
1.30987
1.37341
1.50048
1.67644
1.90615
2.15053
2.38514
2.48778
2.57575
2.60508
2.60508
2.50244
2.40957
2.30694
2.21896
2.10654
2.01368
1.93059
1.85239
1.76930
1.70087
1.62756
1.57869
1.52981
1.51026
1.51026
1.53470
1.57869
1.57380
1.61290
1.64711
1.66666
1.68621
1.71554
1.69599
1.68132
1.65689
1.63245
1.61290
1.58357
1.54447
1.53958
1.49071
1.46138
1.42717
1.40273
1.38807
1.36852
1.35386
1.32942
1.31964
1.30987
1.29521
1.28543
1.28054
1.27077
1.26588
1.29032
1.27077
1.30498
1.37341
1.52492
1.73998
2.00391
2.19941
2.39002
2.52688
2.59042
2.57575
2.52199
2.44868
2.36070
2.24340
2.13587
2.06256
1.95503
1.85728
1.78396
1.70087
1.63245
1.56402
1.51026
1.48093
1.47605
1.47605
1.47605
1.51026
1.54936
1.57869
1.60312
1.63245
1.66177
1.67155
1.63734
1.62756
1.61290
1.58357
1.55425
1.55425
1.50048
1.46627
1.42717
1.40273
1.37829
1.35874
1.34897
1.30987
1.30009
1.28543
1.25610
1.25122
1.25610
1.26588
1.26588
1.22678
1.22678
1.22189
1.21700
1.23655
1.30009
1.43695
1.58357
1.80840
2.05278
2.26295
2.43401
2.49266
2.52688
2.50244
2.41935
2.32649
2.22873
2.13098
2.01368
1.91104
1.82306
1.74486
1.65200
1.58357
1.52492
1.49560
1.45650
1.40273
1.40762
1.42717
1.45161
1.48582
1.52492
1.59335
1.59824
1.61290
1.62267
1.62756
1.62267
1.60801
1.57380
1.55913
1.52492
1.49560
1.47116
1.46627
1.41739
1.38318
1.36363
1.34408
1.32942
1.30987
1.31476
1.30009
1.28543
1.26588
1.26588
1.25610
1.25610
1.24144
1.25610
1.30009
1.34897
1.47116
1.67644
1.91593
2.15542
2.34115
2.50244
2.55620
2.57575
2.51710
2.43890
2.35092
2.25806
2.14076
2.03323
1.94525
1.86705
1.76930
1.68621
1.61290
1.55913
1.49560
1.47116
1.48093
1.46627
1.48093
1.51026
1.55425
1.59824
1.63245
1.68132
1.66666
1.68132
1.67155
1.65689
1.64222
1.65200
1.59335
1.54936
1.52003
1.50048
1.46627
1.43695
1.41739
1.42717
1.37341
1.34897
1.33431
1.32453
1.31476
1.30009
1.31964
1.31964
1.28543
1.26588
1.26099
1.26099
1.26588
1.28054
1.36852
1.53958
1.73509
1.96969
2.20918
2.41446
2.56598
2.62463
2.62463
2.58553
2.51221
2.39980
2.29227
2.21896
2.09677
1.98924
1.90127
1.81818
1.74486
1.66177
1.59335
1.54936
1.53470
1.48582
1.48093
1.50048
1.53470
1.56402
1.59335
1.63734
1.69599
1.67644
1.68132
1.68132
1.67155
1.65200
1.63245
1.59335
1.56891
1.53470
1.49560
1.46627
1.47116
1.41251
1.38318
1.36363
1.34897
1.32942
1.30987
1.30009
1.28543
1.27565
1.26099
1.26099
1.25610
1.25122
1.23167
1.23167
1.25610
1.31476
1.42717
1.62756
1.87194
2.11143
2.30694
2.46823
2.56598
2.59530
2.58064
2.47800
2.39002
2.28738
2.16520
2.08699
1.96969
1.87683
1.79374
1.69599
1.62267
1.56402
1.49560
1.45650
1.43206
1.44183
1.45161
1.47116
1.51026
1.55425
1.58846
1.60801
1.63245
1.65200
1.65200
1.63734
1.63734
1.60312
1.57380
1.53470
1.50048
1.48093
1.45161
1.43206
1.38807
1.36852
1.34408
1.31964
1.30987
1.32942
1.31476
1.26588
1.26099
1.25610
1.25122
1.23167
1.23167
1.23655
1.25122
1.23655
1.28543
1.40273
1.58357
1.81329
2.04301
2.26783
2.43890
2.52688
2.56109
2.54154
2.48289
2.37536
2.30205
2.16520
2.07233
1.96480
1.86705
1.78396
1.70576
1.62267
1.54936
1.50048
1.46627
1.44183
1.43695
1.46138
1.49560
1.54447
1.56891
1.61290
1.64711
1.66666
1.67155
1.67644
1.67155
1.65200
1.62267
1.59824
1.57380
1.54447
1.51515
1.50048
1.45650
1.43206
1.40273
1.37829
1.36852
1.35874
1.32942
1.31964
1.31476
1.30498
1.29032
1.28543
1.29032
1.30498
1.29521
1.27077
1.30498
1.39296
1.52981
1.75464
2.03323
2.24340
2.42913
2.56109
2.62952
2.63929
2.57575
2.48778
2.39491
2.29716
2.17986
2.08699
1.97947
1.89638
1.80840
1.72531
1.65200
1.59335
1.53470
1.50048
1.48582
1.50048
1.52492
1.53958
1.57869
1.62267
1.65200
1.67155
1.69110
1.71065
1.71554
1.66666
1.64711
1.63245
1.60312
1.57380
1.56402
1.51026
1.47605
1.44183
1.41251
1.40273
1.38318
1.36852
1.33919
1.32942
1.31964
1.30009
1.29032
1.29032
1.29032
1.29032
1.26588
1.26588
1.26588
1.26588
1.29521
1.39296
1.56402
1.78885
2.01857
2.25806
2.45845
2.57086
2.63440
2.62463
2.58064
2.47311
2.36559
2.26295
2.18963
2.07722
1.95014
1.86705
1.78396
1.69599
1.61290
1.55425
1.50537
1.47116
1.47605
1.45650
1.48093
1.50537
1.53958
1.57869
1.61779
1.64222
1.67155
1.66666
1.65689
1.64222
1.61290
1.58846
1.56402
1.52981
1.49560
1.47605
1.43695
1.41251
1.37341
1.35386
1.33919
1.32453
1.29521
1.28054
1.27565
1.26588
1.25122
1.24633
1.26588
1.24144
1.22678
1.22189
1.22678
1.23167
1.25610
1.34897
1.49071
1.70576
1.93059
2.16520
2.36559
2.51221
2.56598
2.54643
2.49755
2.42424
2.31182
2.20430
2.09188
1.99413
1.89149
1.79374
1.71554
1.64711
1.58357
1.49071
1.44672
1.42228
1.40762
1.41251
1.44672
1.49071
1.52981
1.59335
1.59335
1.62756
1.64222
1.64222
1.64222
1.66177
1.63734
1.57380
1.54936
1.52492
1.49560
1.46627
1.46138
1.44183
1.42228
1.35874
1.34408
1.32942
1.31476
1.30009
1.30009
1.28543
1.28054
1.26588
1.26099
1.25610
1.25610
1.25122
1.27565
1.30498
1.41251
1.57380
1.80351
2.05767
2.30205
2.48289
2.57086
2.61974
2.61974
2.53665
2.44379
2.34115
2.24340
2.13098
2.02834
1.93059
1.85728
1.76441
1.68132
1.61290
1.55913
1.50537
1.47605
1.47605
1.50537
1.54447
1.54447
1.58846
1.62756
1.66177
1.68132
1.69110
1.70087
1.69110
1.66666
1.64222
1.63245
1.59335
1.55425
1.52003
1.50048
1.46627
1.44183
1.43206
1.39784
1.37829
1.35386
1.33431
1.33431
1.32942
1.33431
1.30009
1.29521
1.28543
1.27565
1.28054
1.28543
1.30498
1.36363
1.50048
1.71065
1.96480
2.21407
2.39980
2.55620
2.63929
2.63440
2.59042
2.52688
2.43890
2.30205
2.18963
2.09188
2.00391
1.90127
1.81329
1.73998
1.69110
1.63245
1.53958
1.51026
1.50048
1.49560
1.50537
1.53958
1.57869
1.62267
1.63734
1.66177
1.69110
1.69599
1.68621
1.66666
1.65200
1.62267
1.58846
1.55913
1.52981
1.50537
1.47605
1.43695
1.41739
1.39296
1.35874
1.34897
1.35874
1.31964
1.29521
1.28543
1.28054
1.27565
1.25610
1.25122
1.25122
1.25122
1.25122
1.30009
1.39296
1.52492
1.73020
1.97947
2.22385
2.43401
2.53176
2.58553
2.58553
2.55620
2.43401
2.35581
2.21896
2.12121
2.00391
1.90127
1.81329
1.76930
1.64711
1.56891
1.51026
1.46627
1.43695
1.43206
1.46138
1.46627
1.49560
1.52492
1.56891
1.61290
1.64711
1.66666
1.64222
1.63734
1.61779
1.58846
1.56402
1.54447
1.51515
1.48093
1.44183
1.41739
1.39296
1.35874
1.33919
1.32942
1.31476
1.30498
1.27565
1.27077
1.26099
1.25122
1.23655
1.23167
1.23655
1.23655
1.21700
1.23655
1.28543
1.38807
1.57380
1.81329
2.04789
2.24828
2.40957
2.51221
2.55131
2.50733
2.43890
2.37047
2.25317
2.13098
2.02346
1.93548
1.84750
1.77908
1.66177
1.59335
1.52981
1.47605
1.43206
1.42228
1.43695
1.45650
1.49071
1.52981
1.57869
1.61290
1.63245
1.65689
1.67644
1.69110
1.68132
1.63734
1.61779
1.58846
1.54936
1.52492
1.52003
1.47116
1.44183
1.41739
1.39784
1.37829
1.35874
1.35386
1.34408
1.32453
1.30498
1.30009
1.29032
1.29032
1.30009
1.27077
1.28054
1.30987
1.37341
1.52492
1.74486
2.01368
2.22385
2.41935
2.56598
2.64418
2.62463
2.58064
2.51710
2.41935
2.27761
2.16520
2.09677
1.97947
1.87683
1.80351
1.71065
1.64222
1.57380
1.52003
1.49071
1.48582
1.48582
1.50048
1.54447
1.57869
1.60801
1.63734
1.66177
1.68132
1.68621
1.66666
1.66177
1.64711
1.64222
1.57869
1.54447
1.52003
1.48582
1.45650
1.42717
1.40762
1.38318
1.35386
1.33431
1.33431
1.31476
1.29032
1.28543
1.28054
1.27077
1.26588
1.26588
1.25122
1.28054
1.25610
1.29521
1.40762
1.58846
1.80840
2.05767
2.29716
2.48289
2.60508
2.61485
2.60997
2.54154
2.42424
2.33137
2.20918
2.10654
1.98924
1.89149
1.80840
1.73509
1.64711
1.57380
1.51026
1.47605
1.44183
1.43206
1.44672
1.47605
1.50537
1.53958
1.57869
1.60801
1.62756
1.63245
1.63245
1.63734
1.61290
1.58846
1.59335
1.53958
1.50048
1.46138
1.43206
1.41739
1.38807
1.38318
1.33431
1.31964
1.30009
1.27565
1.26099
1.26099
1.28543
1.23655
1.23167
1.22678
1.22189
1.21212
1.21700
1.23167
1.29521
1.35874
1.52492
1.75464
2.00879
2.22385
2.40469
2.54154
2.56109
2.53176
2.46334
2.38025
2.27761
2.18475
2.04301
1.94525
1.85239
1.74486
1.66177
1.58846
1.52492
1.48093
1.40762
1.39296
1.39296
1.40762
1.43695
1.48093
1.53958
1.58357
1.59335
1.62267
1.64222
1.64222
1.63245
1.63734
1.59824
1.56891
1.53470
1.51026
1.48582
1.45650
1.41739
1.40273
1.39784
1.39296
1.33431
1.32453
1.31476
1.30009
1.29032
1.28543
1.28543
1.29521
1.25610
1.25122
1.25610
1.27077
1.30987
1.41739
1.59824
1.83284
2.07233
2.30205
2.48289
2.60508
2.61974
2.60019
2.53665
2.44868
2.32649
2.21407
2.11143
2.00879
1.90615
1.81329
1.73020
1.66177
1.58357
1.52981
1.48582
1.46627
1.45650
1.46627
1.49560
1.54447
1.58846
1.60801
1.64222
1.67155
1.67644
1.67155
1.66666
1.66177
1.62267
1.58846
1.56402
1.53470
1.50048
1.46627
1.44183
1.42717
1.40273
1.39296
1.37829
1.33919
1.31964
1.29521
1.29521
1.30498
1.29032
1.26588
1.25610
1.25610
1.25122
1.24633
1.27565
1.35874
1.48093
1.66177
1.91104
2.17008
2.39491
2.55131
2.63929
2.65884
2.61974
2.52688
2.42424
2.32160
2.20918
2.08699
1.98435
1.89638
1.81329
1.72043
1.64222
1.57380
1.52492
1.48093
1.45650
1.45650
1.48093
1.50537
1.55425
1.57869
1.62267
1.64222
1.65689
1.66666
1.67155
1.65689
1.64222
1.62267
1.57869
1.54447
1.50048
1.47605
1.45161
1.42228
1.38318
1.35874
1.34408
1.32453
1.30009
1.28543
1.28543
1.27565
1.28543
1.24633
1.24633
1.23655
1.22678
1.21700
1.23167
1.25610
1.30498
1.43695
1.64711
1.89638
2.13587
2.36070
2.53665
2.59530
2.59530
2.55131
2.50733
2.40957
2.25806
2.14076
2.05767
1.94525
1.83773
1.74975
1.70087
1.63245
1.52492
1.46627
1.43206
1.42228
1.41251
1.43695
1.48093
1.51515
1.54936
1.57869
1.61290
1.64222
1.64222
1.63734
1.63734
1.64711
1.58357
1.55425
1.52492
1.50537
1.47605
1.46627
1.40762
1.38807
1.35874
1.33431
1.31476
1.30987
1.30009
1.28054
1.30009
1.27077
1.25610
1.24144
1.23655
1.23655
1.23655
1.25122
1.30009
1.41739
1.61290
1.84261
2.09188
2.32160
2.49266
2.60019
2.59042
2.56598
2.50733
2.41446
2.28250
2.17986
2.08211
1.96480
1.86705
1.79863
1.70087
1.61290
1.53958
1.49071
1.45650
1.43206
1.43695
1.46627
1.50537
1.54447
1.59824
1.61779
1.65689
1.67155
1.67644
1.68132
1.67644
1.65200
1.61779
1.59335
1.56891
1.52981
1.49560
1.47605
1.47116
1.42228
1.39296
1.37341
1.36363
1.34408
1.31964
1.31476
1.31964
1.32942
1.28054
1.27565
1.27565
1.26588
1.25610
1.28054
1.36363
1.48093
1.67644
1.92570
2.18475
2.40957
2.55131
2.63929
2.68817
2.62463
2.53176
2.42913
2.32649
2.21896
2.09677
1.99902
1.90615
1.82306
1.73020
1.65689
1.59335
1.54936
1.52492
1.47605
1.47605
1.50048
1.52003
1.56402
1.59335
1.63734
1.65689
1.67644
1.68132
1.69110
1.67155
1.65689
1.61779
1.59335
1.55425
1.52003
1.48582
1.48093
1.43695
1.40762
1.38318
1.36852
1.34897
1.32942
1.33919
1.30987
1.30009
1.28543
1.28054
1.28054
1.28543
1.26099
1.25610
1.26099
1.27077
1.30009
1.39784
1.57380
1.81329
2.04789
2.28738
2.48289
2.60997
2.66862
2.61974
2.56109
2.47311
2.35092
2.25317
2.12609
2.02834
1.95503
1.82795
1.74486
1.67644
1.59335
1.52981
1.49071
1.47605
1.48093
1.45650
1.48093
1.52003
1.54936
1.59335
1.62267
1.65200
1.65689
1.65200
1.65689
1.66666
1.60312
1.56891
1.53958
1.51515
1.48582
1.47116
1.41739
1.39784
1.36852
1.33919
1.33431
1.31476
1.30498
1.28054
1.27077
1.27077
1.26099
1.25122
1.24633
1.26099
1.25122
1.25610
1.22189
1.24633
1.29521
1.40762
1.59824
1.85728
2.08699
2.29227
2.45845
2.55620
2.59530
2.54154
2.46334
2.37047
2.27272
2.13587
2.02346
1.92570
1.83773
1.73509
1.64711
1.57380
1.51515
1.46627
1.41251
1.40273
1.41251
1.42717
1.46627
1.51515
1.58357
1.59335
1.61779
1.64222
1.65689
1.64711
1.63734
1.61290
1.59824
1.56402
1.52981
1.50048
1.47605
1.44672
1.41739
1.42228
1.37341
1.34897
1.32942
1.30987
1.31476
1.32942
1.28543
1.28054
1.27565
1.27077
1.26099
1.28054
1.25610
1.27565
1.31476
1.42717
1.62756
1.89638
2.12609
2.32649
2.50733
2.60997
2.62463
2.60019
2.55620
2.47311
2.31671
2.20918
2.11632
2.01368
1.90127
1.81818
1.76930
1.66177
1.58357
1.52003
1.48582
1.47116
1.46627
1.48093
1.52003
1.58357
1.58357
1.61779
1.65200
1.67644
1.67644
1.67155
1.66177
1.67644
1.61290
1.57869
1.54936
1.52492
1.49560
1.46138
1.44183
1.44183
1.38807
1.36363
1.34408
1.33919
1.32453
1.30498
1.30009
1.30987
1.31476
1.27077
1.26588
1.25610
1.26099
1.26588
1.27565
1.34408
1.48582
1.68132
1.94037
2.20430
2.41446
2.55620
2.63440
2.64907
2.60997
2.51710
2.40469
2.30205
2.19452
2.07722
1.96969
1.88660
1.80840
1.72043
1.63734
1.57380
1.52003
1.47605
1.45161
1.45650
1.48582
1.51515
1.54936
1.57869
1.62267
1.63734
1.65200
1.65689
1.66177
1.64222
1.61779
1.60801
1.59824
1.52981
1.49560
1.46138
1.43695
1.41251
1.38807
1.38318
1.33919
1.31964
1.29521
1.29032
1.28543
1.30009
1.29032
1.25122
1.25610
1.25122
1.23655
1.25610
1.23167
1.24144
1.26588
1.35874
1.52981
1.76441
2.02346
2.24340
2.43890
2.56598
2.60019
2.58553
2.53176
2.44379
2.31182
2.19941
2.10166
1.99902
1.88660
1.82306
1.71065
1.63734
1.55425
1.51026
1.45650
1.43695
1.42228
1.43695
1.47116
1.52492
1.55913
1.58357
1.61779
1.65200
1.65689
1.65200
1.65200
1.64711
1.62267
1.57869
1.54936
1.52003
1.48582
1.45650
1.42717
1.43695
1.37829
1.35874
1.33919
1.32942
1.30987
1.30009
1.30498
1.29032
1.28054
1.27077
1.26588
1.26099
1.26099
1.25122
1.27077
1.34897
1.42717
1.59824
1.83284
2.09677
2.33626
2.49266
2.60019
2.63929
2.62463
2.55620
2.45356
2.33626
2.23362
2.11143
2.01368
1.91593
1.83773
1.75953
1.65689
1.59335
1.53958
1.48582
1.46627
1.46627
1.49071
1.51026
1.56891
1.57869
1.62756
1.64711
1.66666
1.67644
1.68621
1.68621
1.63734
1.61779
1.59335
1.55913
1.54447
1.48582
1.46138
1.43206
1.39784
1.37829
1.35874
1.33919
1.32453
1.32942
1.30009
1.29032
1.27565
1.26588
1.27077
1.26588
1.27077
1.25122
1.25122
1.25122
1.26099
1.33431
1.48093
1.71065
1.93059
2.18963
2.40957
2.57086
2.63440
2.66862
2.60019
2.52688
2.40469
2.29227
2.20430
2.07722
1.97947
1.89638
1.78885
1.71554
1.62756
1.56402
1.51515
1.48582
1.47605
1.44672
1.46627
1.50048
1.53958
1.57380
1.61290
1.67155
1.64711
1.64711
1.64711
1.63245
1.61290
1.60801
1.54447
1.52003
1.48093
1.44672
1.42228
1.40762
1.39296
1.33919
1.31964
1.30498
1.29032
1.30009
1.26588
1.25610
1.25122
1.23655
1.23167
1.23655
1.23655
1.21212
1.20723
1.20723
1.23167
1.28054
1.41251
1.61779
1.88660
2.10654
2.32649
2.49755
2.59530
2.59042
2.57086
2.48289
2.38514
2.25317
2.14076
2.03812
1.93548
1.82795
1.73998
1.68132
1.57869
1.50048
1.44183
1.41739
1.40273
1.40273
1.42228
1.45161
1.49560
1.52981
1.56402
1.59824
1.62756
1.63734
1.62267
1.60801
1.60312
1.57869
1.53958
1.51026
1.48582
1.45161
1.41739
1.38807
1.37829
1.36852
1.32453
1.30498
1.29521
1.28054
1.26588
1.26099
1.25610
1.24633
1.23655
1.23167
1.22678
1.22678
1.22189
1.23655
1.31476
1.39296
1.56891
1.80351
2.06744
2.31182
2.46334
2.57575
2.61485
2.60019
2.53176
2.43890
2.32160
2.21407
2.10654
1.98924
1.89149
1.81329
1.72043
1.62756
1.55913
1.51026
1.46138
1.43695
1.43695
1.46627
1.49071
1.55913
1.56891
1.61779
1.64222
1.66666
1.68132
1.69110
1.67155
1.64711
1.62756
1.60312
1.56891
1.53958
1.52981
1.47605
1.44183
1.41251
1.38318
1.37829
1.36363
1.32942
1.31964
1.31476
1.30009
1.29032
1.28054
1.28054
1.28054
1.27565
1.24144
1.24144
1.25122
1.27565
1.37341
1.53958
1.78885
2.04301
2.29227
2.49266
2.62952
2.66862
2.67350
2.60508
2.52199
2.39491
2.30694
2.16520
2.06744
1.95014
1.85239
1.76930
1.69599
1.63734
1.54447
1.49560
1.47116
1.45161
1.46627
1.49560
1.56402
1.55913
1.59824
1.62756
1.66177
1.67155
1.69110
1.65689
1.64711
1.62267
1.58357
1.55913
1.53470
1.50537
1.48582
1.42717
1.40762
1.37829
1.35386
1.33431
1.32942
1.33919
1.29032
1.28054
1.27565
1.27077
1.26099
1.26099
1.24633
1.24144
1.23167
1.24144
1.28054
1.39784
1.52003
1.74975
2.01857
2.27272
2.45356
2.58064
2.63929
2.63440
2.56598
2.46334
2.35092
2.24340
2.12121
2.00879
1.91104
1.82306
1.73020
1.67644
1.57380
1.52003
1.46138
1.43206
1.43206
1.46138
1.48093
1.50537
1.54447
1.59335
1.62267
1.64711
1.66666
1.68132
1.69110
1.63734
1.61290
1.59335
1.56402
1.52003
1.49071
1.47116
1.44183
1.40273
1.37829
1.35874
1.33431
1.31964
1.30987
1.32453
1.29521
1.27077
1.26588
1.27077
1.26099
1.25122
1.27077
1.23655
1.24144
1.25122
1.31476
1.44672
1.65200
1.90127
2.15053
2.37536
2.54643
2.60997
2.63929
2.58553
2.50244
2.38025
2.26295
2.14565
2.04301
1.92570
1.82306
1.73998
1.66177
1.58357
1.50048
1.45161
1.42717
1.40762
1.40762
1.43695
1.49560
1.51026
1.54936
1.58846
1.63245
1.64222
1.66177
1.64222
1.63734
1.61290
1.57869
1.54936
1.52981
1.50048
1.48582
1.42228
1.40273
1.37341
1.34897
1.33919
1.34408
1.30987
1.28543
1.27565
1.27077
1.26588
1.25610
1.24144
1.23655
1.22678
1.20723
1.21212
1.23167
1.29032
1.40273
1.58357
1.83284
2.09677
2.31182
2.48289
2.59530
2.61974
2.57575
2.49755
2.40469
2.30205
2.16520
2.05278
1.94525
1.84750
1.74975
1.68621
1.57380
1.51026
1.45161
1.41251
1.39784
1.40762
1.42717
1.46627
1.50048
1.54936
1.58357
1.60801
1.63245
1.65200
1.67155
1.62267
1.60312
1.58357
1.54936
1.51515
1.49071
1.49560
1.43695
1.40273
1.38318
1.36852
1.34897
1.35386
1.31476
1.30498
1.30009
1.29032
1.28543
1.30009
1.29032
1.25610
1.25122
1.25610
1.28543
1.33919
1.48582
1.71554
1.94525
2.17986
2.39002
2.55131
2.63440
2.62952
2.58064
2.50733
2.40957
2.28250
2.17986
2.06744
1.97947
1.87683
1.78885
1.71065
1.64711
1.56891
1.52492
1.49560
1.50537
1.49071
1.51026
1.54936
1.59824
1.63245
1.66666
1.69599
1.74486
1.70576
1.69110
1.67644
1.66177
1.62756
1.58846
1.55425
1.52492
1.49560
1.46138
1.43206
1.42228
1.40762
1.36852
1.35874
1.34897
1.33431
1.31964
1.30987
1.31476
1.30498
1.31476
1.27565
1.27565
1.27565
1.29032
1.37341
1.52492
1.73998
1.97947
2.23362
2.44868
2.60019
2.65884
2.65884
2.60997
2.53176
2.40469
2.29227
2.21407
2.08699
1.98924
1.90615
1.81818
1.74486
1.66666
1.60801
1.57869
1.52492
1.50048
1.50537
1.52492
1.56402
1.58846
1.62756
1.66666
1.68621
1.69110
1.68621
1.67644
1.66177
1.63734
1.63245
1.56891
1.53958
1.50537
1.46627
1.44183
1.41739
1.39784
1.37341
1.36363
1.33919
1.32942
1.30987
1.29521
1.30498
1.30498
1.27565
1.27077
1.26588
1.26099
1.25610
1.29032
1.37829
1.51026
1.71065
1.95992
2.21407
2.42424
2.56598
2.60508
2.60508
2.54643
2.43890
2.32649
2.21896
2.13587
2.02346
1.90615
1.82795
1.77908
1.66666
1.59335
1.53470
1.49071
1.46138
1.45161
1.47605
1.51026
1.52003
1.55425
1.58846
1.62756
1.63245
1.64711
1.65200
1.66177
1.61290
1.58357
1.55425
1.52492
1.50537
1.48093
1.43206
1.40273
1.37829
1.34408
1.32942
1.32453
1.31964
1.28543
1.27565
1.27077
1.26099
1.25122
1.25122
1.27565
1.23655
1.22678
1.22189
1.23167
1.25610
1.30498
1.41739
1.61290
1.84750
2.08211
2.29227
2.43401
2.51710
2.49755
2.44379
2.35581
2.27272
2.17008
2.09677
2.02834
1.99413
1.89149
1.81818
1.73998
1.67155
1.60312
1.56402
1.55913
1.54936
1.56402
1.59824
1.64711
1.70087
1.73509
1.76930
1.79863
1.79863
1.76441
1.71554
1.68132
1.64222
1.60312
1.56891
1.52492
1.49560
1.45650
1.41251
1.37341
1.35386
1.33431
1.30498
1.30009
1.30009
1.29521
1.29032
1.29032
1.30009
1.30009
1.31476
1.28054
1.28054
1.28543
1.29521
1.38318
1.47605
1.67155
1.89149
2.13098
2.34604
2.51710
2.56109
2.54643
2.53176
2.43890
2.33137
2.18963
2.09188
1.99413
1.88172
1.79863
1.74486
1.64711
1.56891
1.50537
1.46138
1.44183
1.42717
1.43206
1.47116
1.52981
1.56402
1.57869
1.61290
1.64222
1.65200
1.65200
1.64222
1.62756
1.59824
1.56402
1.52981
1.50537
1.48093
1.44672
1.41251
1.39296
1.36852
1.34408
1.32942
1.31476
1.30009
1.30009
1.27565
1.27077
1.26588
1.25610
1.25122
1.26099
1.25610
1.25122
1.23655
1.24633
1.27565
1.33919
1.49560
1.72043
1.98924
2.21407
2.42424
2.57086
2.63929
2.61485
2.55620
2.46823
2.36559
2.23362
2.15053
2.02346
1.94037
1.86705
1.75953
1.69110
1.62756
1.55913
1.51515
1.48093
1.47605
1.49560
1.48582
1.52003
1.56402
1.58357
1.61290
1.64222
1.66177
1.66177
1.63245
1.61779
1.59824
1.56402
1.52981
1.52492
1.47116
1.43695
1.39784
1.37341
1.35386
1.32942
1.30987
1.31964
1.28054
1.26588
1.25122
1.24144
1.23167
1.23167
1.22678
1.22678
1.22189
1.21700
1.20234
1.20723
1.23167
1.25122
1.27077
1.38318
1.57380
1.81818
2.05767
2.28250
2.47800
2.55131
2.56109
2.52199
2.44379
2.34604
2.21407
2.10166
1.99902
1.90127
1.79863
1.71065
1.63245
1.56891
1.49560
1.46627
1.44183
1.40273
1.39784
1.41739
1.45161
1.50537
1.53958
1.59824
1.60801
1.64711
1.62756
1.61779
1.60312
1.58846
1.56402
1.52981
1.52981
1.47116
1.43695
1.40273
1.37341
1.35874
1.32942
1.30987
1.30987
1.28543
1.27077
1.25610
1.25122
1.25122
1.25122
1.26099
1.22189
1.22189
1.21700
1.21212
1.22189
1.27565
1.39784
1.52492
1.75464
2.00879
2.24828
2.41935
2.52688
2.57575
2.56109
2.49755
2.39491
2.27272
2.17008
2.05278
1.95503
1.86705
1.78396
1.69599
1.61779
1.55913
1.51026
1.47116
1.45161
1.46138
1.47605
1.50048
1.53470
1.57869
1.61779
1.64222
1.66177
1.67644
1.66666
1.64711
1.61779
1.59824
1.57869
1.53958
1.50048
1.47116
1.45161
1.41739
1.38807
1.36852
1.35874
1.33919
1.31476
1.30498
1.29521
1.29032
1.27565
1.28054
1.26099
1.25610
1.24144
1.23167
1.24144
1.26099
1.32942
1.41739
1.61290
1.85728
2.09188
2.31671
2.48778
2.58064
2.58064
2.54154
2.46334
2.38514
2.23851
2.13098
2.03812
1.95503
1.85239
1.80840
1.70576
1.64222
1.56891
1.51515
1.47605
1.46138
1.44672
1.45650
1.48582
1.52492
1.54936
1.57869
1.60801
1.62756
1.62756
1.62267
1.63734
1.59335
1.56402
1.52492
1.50048
1.48582
1.46138
1.40762
1.38318
1.35386
1.33919
1.33919
1.29032
1.28543
1.27077
1.25122
1.24144
1.24144
1.26099
1.21212
1.20723
1.20723
1.19745
1.18768
1.19257
1.21212
1.28543
1.37829
1.55913
1.80351
2.05278
2.25806
2.44379
2.50733
2.53176
2.47311
2.39491
2.30205
2.19941
2.07233
1.98435
1.87194
1.78396
1.69599
1.62756
1.53958
1.48093
1.42228
1.38807
1.37829
1.42228
1.40273
1.43695
1.48093
1.52981
1.56402
1.59335
1.64222
1.62756
1.61779
1.59824
1.58357
1.56891
1.53470
1.53470
1.47605
1.45161
1.42228
1.39296
1.40273
1.35386
1.33431
1.31476
1.30498
1.30009
1.29032
1.28054
1.26099
1.26099
1.25610
1.24144
1.24144
1.25610
1.25610
1.23655
1.27077
1.35874
1.52492
1.76441
1.98924
2.23362
2.43890
2.55131
2.60508
2.60508
2.55131
2.44868
2.34115
2.23851
2.13098
2.00879
1.92570
1.85239
1.75464
1.66177
1.59335
1.53470
1.49560
1.46138
1.46138
1.45161
1.48093
1.50537
1.53958
1.58357
1.63245
1.67155
1.65200
1.65689
1.65689
1.63734
1.61290
1.59824
1.55913
1.53470
1.49071
1.46138
1.43695
1.40762
1.37829
1.37341
1.33919
1.31476
1.29521
1.28543
1.28054
1.26099
1.26588
1.24633
1.24144
1.24144
1.22678
1.22189
1.22678
1.23655
1.23655
1.30498
1.44672
1.66177
1.91104
2.17008
2.40469
2.57086
2.61974
2.63929
2.60508
2.52688
2.40469
2.29227
2.17497
2.07233
1.95992
1.86705
1.78885
1.72043
1.63734
1.58846
1.51026
1.48093
1.44672
1.44672
1.46138
1.49560
1.52492
1.57869
1.60312
1.63734
1.65200
1.65689
1.66177
1.68621
1.62756
1.59824
1.56891
1.55425
1.51515
1.48582
1.48582
1.43206
1.40273
1.36852
1.34897
1.33431
1.31476
1.30009
1.27565
1.26588
1.25610
1.23655
1.22678
1.23167
1.22678
1.21212
1.19745
1.20234
1.22189
1.28054
1.41251
1.63245
1.89149
2.15542
2.34115
2.50733
2.60019
2.60508
2.56109
2.48778
2.39491
2.27272
2.16031
2.05278
1.95992
1.85239
1.76441
1.68132
1.61290
1.55913
1.47605
1.45161
1.45650
1.48582
1.53958
1.61779
1.71554
1.75953
1.80351
1.84261
1.88172
1.89638
1.89638
1.90127
1.84261
1.77908
1.69599
1.61779
1.54936
1.47605
1.42228
1.34897
1.30498
1.26588
1.22678
1.20234
1.19257
1.17790
1.16324
1.17302
1.14858
1.14369
1.12903
1.13391
1.13391
1.13391
1.12903
1.13880
1.19745
1.31964
1.52003
1.80840
2.07722
2.33137
2.48778
2.57086
2.57575
2.47311
2.24828
1.97947
1.71554
1.48582
1.29032
1.16324
1.07038
0.99217
0.93352
0.85532
0.81622
0.80645
0.79667
0.82600
0.87976
0.97262
1.01661
1.10459
1.21212
1.34408
1.50048
1.66666
1.78885
1.68132
1.37341
0.93841
0.48875
0.10752
0.00000
0.00000
0.00000
0.00000
0.01955
0.00000
0.00000
0.00488
0.00000
0.00000
0.02443
0.00000
0.00000
0.00488
0.00000
0.10263
0.40566
0.71847
0.91886
1.11436
1.32453
1.58846
1.95014
2.28250
2.58553
2.75659
2.82502
2.79569
2.73704
2.57086
2.43401
2.30694
2.21407
2.04301
1.93059
1.84261
1.80351
1.76930
1.78396
1.76441
1.75953
1.72043
1.65689
1.58846
1.52003
1.46627
1.37829
1.35386
1.35386
1.34897
1.34897
1.35386
1.36852
1.38807
1.41739
1.46627
1.52003
1.55913
1.59824
1.66177
1.69599
1.68621
1.70087
1.72043
1.74975
1.75953
1.76441
1.77419
1.77419
1.76930
1.75953
1.75464
1.77908
1.73509
1.71554
1.70576
1.70576
1.72531
1.77908
1.92082
2.13098
2.38514
2.62952
2.84457
3.03030
3.08895
3.07917
3.04007
2.96187
2.85923
2.72238
2.62463
2.47311
2.36559
2.24340
2.13587
2.04301
1.95992
1.86705
1.79863
1.74486
1.72043
1.70087
1.71065
1.73020
1.76930
1.79374
1.82306
1.83773
1.85728
1.84750
1.83284
1.81818
1.79863
1.75953
1.73020
1.68621
1.65689
1.60801
1.56891
1.54447
1.54936
1.48093
1.45161
1.43206
1.41739
1.39296
1.37341
1.38807
1.35386
1.34408
1.32453
1.31476
1.30987
1.30498
1.33431
1.34897
1.46138
1.64222
1.87683
2.14565
2.41935
2.57086
2.66373
2.69794
2.67839
2.61485
2.50244
2.39002
2.27761
2.16520
2.03812
1.93059
1.83284
1.74486
1.65200
1.57380
1.51515
1.46627
1.43206
1.43206
1.44183
1.48582
1.52003
1.56891
1.60312
1.64222
1.65689
1.66666
1.66666
1.66177
1.64711
1.64222
1.59335
1.56891
1.52981
1.49071
1.46627
1.46627
1.44672
1.38807
1.36852
1.35874
1.33919
1.31476
1.31476
1.30987
1.30987
1.30987
1.27077
1.27077
1.26099
1.26099
1.28543
1.38807
1.55425
1.78885
2.05278
2.31182
2.52688
2.64907
2.71261
2.71261
2.67839
2.55620
2.47800
2.34115
2.23362
2.11143
2.00879
1.91593
1.83284
1.76441
1.65200
1.58846
1.54447
1.50537
1.49071
1.50537
1.54447
1.58357
1.60312
1.64711
1.68621
1.70087
1.72043
1.73998
1.71554
1.69110
1.66177
1.63734
1.60801
1.56891
1.53958
1.50048
1.47605
1.44183
1.41251
1.39784
1.38807
1.35874
1.33431
1.32453
1.31964
1.31476
1.31476
1.28543
1.28054
1.27077
1.26588
1.29521
1.38807
1.54447
1.79374
2.03323
2.30694
2.52199
2.64907
2.73704
2.71749
2.66862
2.56598
2.45845
2.35581
2.24828
2.15542
2.02834
1.94525
1.86217
1.78885
1.69599
1.63245
1.58846
1.53958
1.52981
1.54447
1.57380
1.59824
1.65689
1.66177
1.70087
1.71065
1.71554
1.71554
1.71554
1.69110
1.64711
1.61779
1.58846
1.54447
1.51515
1.51026
1.45650
1.42228
1.39784
1.37829
1.36852
1.36852
1.32942
1.31476
1.31476
1.30498
1.29032
1.28543
1.28543
1.29032
1.26099
1.27077
1.31964
1.41739
1.58357
1.83284
2.13098
2.33626
2.51221
2.61974
2.68328
2.63440
2.54643
2.44868
2.34604
2.26295
2.10654
2.00879
1.95503
1.83773
1.74486
1.66666
1.60312
1.55913
1.53470
1.48582
1.49071
1.51515
1.53470
1.56891
1.61290
1.65689
1.66666
1.67644
1.68132
1.68621
1.65200
1.63734
1.62267
1.57869
1.53958
1.50048
1.47116
1.44672
1.40762
1.38318
1.36852
1.33919
1.31476
1.29521
1.28543
1.27565
1.26099
1.25122
1.25122
1.27565
1.23655
1.22678
1.22189
1.22678
1.23167
1.26099
1.36852
1.51026
1.73020
1.98435
2.22873
2.43401
2.57575
2.59530
2.58553
2.52688
2.42913
2.30694
2.19941
2.08699
1.97947
1.88172
1.77908
1.70087
1.62267
1.55913
1.48582
1.45161
1.43695
1.42228
1.45161
1.48582
1.54447
1.55425
1.59335
1.62267
1.64711
1.64222
1.66177
1.63245
1.61290
1.57869
1.54936
1.52492
1.50537
1.47116
1.47116
1.42228
1.41251
1.38807
1.37829
1.37829
1.37341
1.36363
1.36363
1.34408
1.34897
1.33431
1.32453
1.32453
1.34897
1.31476
1.31476
1.33431
1.39784
1.52981
1.71065
1.92570
2.17497
2.39491
2.54643
2.64418
2.66862
2.62463
2.53176
2.42913
2.32160
2.21407
2.08699
1.98435
1.89149
1.80840
1.70576
1.63245
1.56891
1.52492
1.45650
1.43206
1.44183
1.46138
1.48093
1.52003
1.56891
1.61779
1.62756
1.63734
1.64711
1.64711
1.62267
1.61290
1.56891
1.54447
1.50048
1.47116
1.44183
1.41739
1.38318
1.37829
1.32942
1.31964
1.29521
1.28543
1.29521
1.26588
1.25610
1.24144
1.23655
1.25122
1.23655
1.23167
1.22189
1.22189
1.22678
1.25610
1.35386
1.53958
1.78396
2.03323
2.28738
2.50244
2.62952
2.66862
2.65395
2.59530
2.49755
2.36559
2.25317
2.16520
2.06744
1.94525
1.86705
1.79374
1.70576
1.62756
1.56891
1.52492
1.50048
1.48093
1.51515
1.51515
1.54936
1.57380
1.60801
1.63734
1.66177
1.66666
1.67644
1.64711
1.63245
1.59335
1.56402
1.53470
1.50537
1.49071
1.42717
1.39784
1.37829
1.34408
1.31964
1.30498
1.30498
1.27565
1.26099
1.25122
1.25122
1.23655
1.23167
1.24633
1.23655
1.22189
1.20723
1.20723
1.21700
1.23167
1.28054
1.43206
1.63245
1.89149
2.14565
2.38025
2.55620
2.65884
2.64418
2.60997
2.52688
2.41446
2.28738
2.17008
2.06256
1.95992
1.88660
1.76930
1.69110
1.62267
1.54447
1.50537
1.44672
1.43206
1.42228
1.43206
1.47605
1.52003
1.55425
1.57869
1.60801
1.63245
1.62756
1.62267
1.62756
1.58846
1.55913
1.52492
1.50048
1.47116
1.43206
1.39784
1.37341
1.37829
1.31964
1.29521
1.27565
1.26099
1.25122
1.22678
1.21700
1.21700
1.20723
1.19257
1.20234
1.22189
1.18768
1.17790
1.16813
1.18279
1.18768
1.22189
1.32942
1.52492
1.76441
2.01857
2.26295
2.46334
2.58064
2.61485
2.60019
2.53665
2.43401
2.30694
2.18963
2.07722
1.96480
1.85239
1.76441
1.69599
1.59335
1.50537
1.44183
1.40273
1.37829
1.36852
1.38318
1.44183
1.45650
1.49071
1.53470
1.57380
1.60312
1.61290
1.62267
1.60312
1.59335
1.56402
1.53470
1.50537
1.48093
1.45650
1.40273
1.37829
1.35386
1.32942
1.30009
1.29032
1.30009
1.26588
1.24144
1.23167
1.22678
1.21700
1.20234
1.20723
1.21212
1.22678
1.18768
1.18768
1.23167
1.32942
1.48582
1.71554
1.99902
2.25806
2.45845
2.59042
2.65884
2.65395
2.58553
2.49266
2.40469
2.27272
2.14565
2.06256
1.93548
1.84261
1.74486
1.67644
1.57380
1.51026
1.45161
1.41739
1.41251
1.41739
1.43695
1.50048
1.52003
1.57380
1.59824
1.62756
1.65200
1.68621
1.67644
1.63245
1.61290
1.59335
1.55425
1.52492
1.50537
1.46627
1.42717
1.39296
1.37341
1.35386
1.32942
1.30498
1.28543
1.28054
1.26099
1.25122
1.24144
1.24144
1.25122
1.21700
1.20723
1.20723
1.20234
1.20723
1.25122
1.33919
1.51026
1.75953
2.04789
2.35581
2.54643
2.67350
2.73704
2.73704
2.68328
2.58064
2.47311
2.35581
2.23851
2.10654
2.00879
1.91104
1.83773
1.72043
1.64222
1.57869
1.52003
1.47116
1.44183
1.44672
1.47605
1.50537
1.53470
1.57869
1.62267
1.63734
1.65689
1.67155
1.68132
1.68132
1.62756
1.60312
1.57869
1.53958
1.50048
1.47605
1.45650
1.41251
1.37829
1.35386
1.33431
1.30987
1.29521
1.30987
1.27077
1.25122
1.23655
1.22678
1.23167
1.22678
1.22678
1.20234
1.20723
1.20234
1.22189
1.30498
1.46627
1.71065
1.96969
2.24340
2.47800
2.63440
2.69794
2.72727
2.65395
2.56598
2.43890
2.32160
2.21896
2.08699
1.97458
1.89638
1.78396
1.69599
1.60312
1.52981
1.48093
1.44183
1.42717
1.41251
1.44183
1.48093
1.51026
1.54936
1.59824
1.64222
1.64222
1.65200
1.65689
1.64711
1.61779
1.58846
1.56402
1.55425
1.49560
1.46138
1.42717
1.40273
1.36852
1.34408
1.33919
1.30498
1.28054
1.26588
1.25122
1.24144
1.23655
1.21700
1.21700
1.21212
1.20234
1.19257
1.19257
1.20234
1.20234
1.24144
1.35386
1.56402
1.82306
2.09677
2.33626
2.53665
2.64907
2.67350
2.64907
2.59042
2.49266
2.39002
2.24340
2.13098
2.01368
1.89638
1.79863
1.74486
1.64222
1.53470
1.47116
1.42228
1.39784
1.38318
1.41739
1.42717
1.47116
1.50537
1.54936
1.58846
1.62756
1.63245
1.64222
1.63245
1.62267
1.58846
1.56402
1.53470
1.51515
1.47605
1.46627
1.40762
1.38318
1.34408
1.32942
1.30987
1.30498
1.28054
1.25610
1.25122
1.24144
1.23167
1.22189
1.21700
1.23655
1.20234
1.19745
1.20723
1.26588
1.39784
1.57380
1.83773
2.11632
2.35581
2.52199
2.62463
2.66373
2.63440
2.54643
2.44868
2.34115
2.22385
2.09188
1.97947
1.88172
1.78396
1.68132
1.59335
1.52492
1.46627
1.43695
1.38318
1.38807
1.41251
1.43206
1.47605
1.53470
1.58357
1.63245
1.63245
1.64711
1.65689
1.64222
1.62756
1.60801
1.59335
1.54447
1.51515
1.48582
1.45650
1.42228
1.39784
1.40273
1.38318
1.33431
1.30987
1.30009
1.29032
1.28054
1.26099
1.25122
1.25122
1.23655
1.21700
1.22189
1.24633
1.28054
1.38807
1.58846
1.86217
2.14565
2.39002
2.58064
2.70283
2.73704
2.70772
2.62463
2.53665
2.41935
2.28738
2.16520
2.06256
1.96969
1.84750
1.75464
1.68132
1.60312
1.52981
1.49071
1.45161
1.43695
1.43695
1.46138
1.49560
1.54936
1.60312
1.61290
1.64222
1.66666
1.66177
1.65689
1.63734
1.62267
1.57869
1.54936
1.51515
1.49560
1.45650
1.41739
1.39296
1.36852
1.33919
1.31476
1.30009
1.29032
1.27565
1.25610
1.25122
1.24144
1.22678
1.22189
1.21700
1.22678
1.23167
1.20723
1.24633
1.35386
1.52981
1.78396
2.07233
2.36559
2.53665
2.64907
2.70283
2.69305
2.62463
2.51710
2.40469
2.28738
2.17008
2.03812
1.93548
1.84261
1.75464
1.66177
1.60801
1.51515
1.46627
1.42228
1.40762
1.42228
1.45161
1.47605
1.54936
1.56402
1.60312
1.62267
1.63245
1.64711
1.65200
1.65689
1.59824
1.57869
1.55425
1.51026
1.48093
1.44672
1.42717
1.40762
1.35874
1.33919
1.31964
1.29521
1.27565
1.27077
1.26588
1.27565
1.23167
1.22189
1.21700
1.21212
1.21212
1.19745
1.21212
1.25122
1.35386
1.54447
1.83284
2.07233
2.30694
2.49266
2.61485
2.65395
2.61485
2.54154
2.45356
2.35092
2.20918
2.09677
1.98924
1.90615
1.77908
1.68621
1.60312
1.52492
1.46627
1.41739
1.39784
1.40273
1.41251
1.44672
1.50048
1.54936
1.61290
1.61290
1.64222
1.66177
1.65200
1.64222
1.62756
1.61779
1.58357
1.55425
1.54936
1.49071
1.45161
1.42228
1.39784
1.37341
1.35386
1.33919
1.31964
1.30987
1.28543
1.28054
1.30498
1.27077
1.25610
1.24633
1.24144
1.25122
1.25122
1.31476
1.45161
1.62756
1.88660
2.15542
2.40469
2.60019
2.69794
2.71749
2.68328
2.62463
2.51221
2.39980
2.26295
2.16031
2.04301
1.93059
1.83284
1.75464
1.67155
1.60312
1.55425
1.49071
1.46627
1.45650
1.47116
1.51026
1.54936
1.58846
1.63734
1.69110
1.69110
1.68621
1.68621
1.67644
1.66177
1.62756
1.58846
1.55913
1.52492
1.48093
1.44183
1.42228
1.39784
1.38318
1.33919
1.31964
1.30498
1.28543
1.27077
1.26588
1.26588
1.27077
1.23655
1.22678
1.22678
1.21212
1.22189
1.28543
1.36852
1.54936
1.79863
2.08211
2.35581
2.57086
2.64907
2.69794
2.68817
2.63929
2.51221
2.41446
2.27761
2.16031
2.03812
1.94037
1.85239
1.75953
1.68132
1.61290
1.57380
1.49071
1.45650
1.44672
1.46627
1.48582
1.52003
1.59335
1.60312
1.63734
1.65200
1.66666
1.67644
1.67644
1.63245
1.60801
1.58357
1.55425
1.51515
1.49071
1.44672
1.42228
1.38318
1.35874
1.33431
1.31964
1.30498
1.30987
1.27077
1.26588
1.25122
1.23655
1.24144
1.23655
1.22678
1.24633
1.21212
1.21700
1.23655
1.30498
1.46627
1.69599
1.96480
2.22873
2.45356
2.61974
2.70283
2.68817
2.62463
2.54154
2.42424
2.29716
2.17497
2.07233
1.97458
1.86705
1.76930
1.69110
1.61290
1.53470
1.48582
1.46138
1.44672
1.44672
1.45650
1.49560
1.53958
1.56891
1.60312
1.64222
1.68621
1.65200
1.64711
1.63245
1.60801
1.57869
1.55425
1.54447
1.51515
1.44183
1.40762
1.38318
1.35874
1.32942
1.31964
1.31476
1.27565
1.25610
1.24144
1.23167
1.23167
1.21700
1.24144
1.20723
1.20234
1.19257
1.19257
1.21212
1.21212
1.26588
1.39296
1.60801
1.88660
2.16520
2.37047
2.54154
2.63929
2.64907
2.60019
2.52199
2.42424
2.30205
2.17986
2.05767
1.95503
1.85239
1.75953
1.66177
1.58357
1.51026
1.44183
1.40762
1.40762
1.39296
1.40273
1.44183
1.48582
1.53470
1.56402
1.60312
1.65200
1.65200
1.62756
1.61779
1.60801
1.58357
1.54936
1.52003
1.49560
1.45650
1.41739
1.38318
1.35874
1.34408
1.32942
1.29521
1.28054
1.26588
1.25122
1.23655
1.23167
1.23655
1.22189
1.24633
1.23655
1.20723
1.20234
1.20723
1.27077
1.39784
1.59824
1.86217
2.12609
2.37536
2.54154
2.63440
2.66373
2.63440
2.55131
2.43890
2.32649
2.22385
2.10166
1.98435
1.88172
1.80351
1.70087
1.61779
1.54447
1.48582
1.44672
1.41739
1.42717
1.45650
1.47605
1.50537
1.55425
1.59824
1.63245
1.65200
1.66666
1.67644
1.66177
1.63245
1.60801
1.57869
1.54936
1.51515
1.48582
1.47116
1.42228
1.38807
1.35874
1.33919
1.33431
1.30987
1.30498
1.27565
1.27077
1.25122
1.25122
1.25122
1.27077
1.22189
1.20723
1.21212
1.22189
1.24144
1.35386
1.49560
1.74975
2.02834
2.29227
2.51710
2.66862
2.72727
2.73216
2.66862
2.58064
2.45845
2.33137
2.21407
2.13587
1.99902
1.89149
1.79863
1.72043
1.64222
1.56402
1.51026
1.47605
1.45650
1.46138
1.50537
1.51515
1.54936
1.57869
1.61779
1.65200
1.67155
1.67644
1.69110
1.65689
1.63734
1.59824
1.56402
1.53470
1.51026
1.48093
1.44183
1.41251
1.38807
1.35386
1.32942
1.31964
1.30987
1.30498
1.26588
1.26099
1.25610
1.23655
1.23655
1.23167
1.23167
1.22678
1.20723
1.21212
1.25122
1.31476
1.46627
1.73998
1.99413
2.25806
2.46823
2.62463
2.70283
2.69305
2.62952
2.54154
2.43890
2.31182
2.20918
2.06744
1.96480
1.87194
1.75953
1.67644
1.60312
1.52981
1.47116
1.44672
1.45161
1.42228
1.44183
1.48093
1.52492
1.56402
1.61290
1.62756
1.65689
1.65689
1.65200
1.64711
1.65200
1.59335
1.55913
1.52492
1.50048
1.47605
1.42717
1.39784
1.37341
1.35386
1.32453
1.31964
1.29032
1.28054
1.26099
1.25122
1.24144
1.24144
1.23167
1.25610
1.22189
1.21700
1.20723
1.19745
1.21212
1.25610
1.33431
1.50537
1.75953
2.04789
2.30694
2.50244
2.63929
2.70283
2.68328
2.61974
2.52199
2.43890
2.27761
2.15542
2.04301
1.93548
1.84261
1.73509
1.65200
1.58357
1.51515
1.46138
1.43206
1.45161
1.42717
1.44672
1.49071
1.53470
1.57869
1.60801
1.64222
1.67644
1.69599
1.65200
1.63734
1.62267
1.59335
1.56402
1.52492
1.50537
1.49071
1.42717
1.39784
1.37341
1.34897
1.31964
1.30009
1.30498
1.28543
1.26099
1.25122
1.25122
1.24144
1.23167
1.23167
1.25610
1.25610
1.20723
1.20723
1.21212
1.24144
1.32453
1.48093
1.71554
2.00391
2.25806
2.46334
2.60997
2.67839
2.66862
2.60997
2.51710
2.41446
2.29227
2.16031
2.04789
1.94525
1.84261
1.73998
1.65200
1.57869
1.50048
1.44672
1.41251
1.40762
1.41251
1.43206
1.47116
1.52492
1.57380
1.59335
1.62756
1.65689
1.66177
1.65689
1.67155
1.62756
1.60801
1.56891
1.53470
1.50537
1.48093
1.47116
1.40762
1.38318
1.35874
1.32942
1.31476
1.29521
1.28543
1.26099
1.25122
1.24633
1.26588
1.24144
1.21700
1.20723
1.21212
1.20234
1.22678
1.30987
1.44672
1.66177
1.92570
2.18963
2.42913
2.58553
2.62952
2.64418
2.62952
2.52199
2.42424
2.29716
2.18963
2.06744
1.95014
1.85239
1.76441
1.67155
1.57869
1.51026
1.45650
1.41739
1.39784
1.41251
1.44672
1.51026
1.51515
1.56891
1.61290
1.64222
1.65689
1.70087
1.67155
1.66177
1.63245
1.60312
1.59824
1.56891
1.52003
1.48582
1.46138
1.43206
1.39784
1.38318
1.37829
1.34897
1.33919
1.30498
1.29521
1.29032
1.27077
1.26099
1.26099
1.27565
1.24144
1.23655
1.25122
1.30009
1.42228
1.63245
1.88660
2.17497
2.41446
2.59530
2.70772
2.75171
2.70772
2.63929
2.55620
2.41446
2.28738
2.17008
2.05767
1.96480
1.86217
1.77419
1.72531
1.62756
1.55913
1.50537
1.48093
1.47605
1.48582
1.50537
1.55913
1.60801
1.62756
1.65200
1.67644
1.69110
1.69110
1.67155
1.67155
1.63245
1.60312
1.56402
1.52981
1.49560
1.47605
1.44183
1.41739
1.38318
1.36363
1.33431
1.31964
1.30987
1.30498
1.29032
1.27077
1.27077
1.26588
1.25122
1.24144
1.24144
1.24144
1.26588
1.24633
1.30498
1.43206
1.63245
1.92082
2.17497
2.42424
2.59042
2.68328
2.71261
2.68817
2.60019
2.51710
2.37047
2.26295
2.14076
2.03323
1.93059
1.86705
1.75464
1.66666
1.59824
1.53958
1.49560
1.47116
1.47116
1.51515
1.52003
1.55425
1.59824
1.64222
1.66666
1.68132
1.69599
1.69599
1.67644
1.64711
1.61779
1.59335
1.56402
1.52003
1.49071
1.46138
1.43695
1.39784
1.39296
1.35874
1.33919
1.31476
1.30009
1.29521
1.29032
1.29521
1.26099
1.26099
1.25122
1.24633
1.23655
1.23167
1.22678
1.22678
1.25610
1.34897
1.46627
1.67644
1.94525
2.20918
2.43890
2.58064
2.66373
2.65884
2.64418
2.52199
2.40957
2.32160
2.18475
2.06256
1.95014
1.85239
1.77419
1.69599
1.59824
1.53470
1.48582
1.44672
1.42717
1.43695
1.47605
1.49560
1.52981
1.57380
1.61290
1.64222
1.65200
1.66177
1.68621
1.65200
1.61290
1.58846
1.56402
1.52981
1.48582
1.49071
1.43206
1.40273
1.36363
1.34408
1.32942
1.31476
1.30009
1.30498
1.26588
1.26099
1.24633
1.23655
1.23655
1.23655
1.22189
1.24144
1.20723
1.22189
1.25122
1.33431
1.51515
1.75953
2.01857
2.28250
2.44868
2.58553
2.62463
2.60997
2.56109
2.48289
2.36559
2.24340
2.14565
2.01368
1.87683
1.78396
1.67644
1.60801
1.52003
1.45650
1.42717
1.43206
1.45650
1.52003
1.62756
1.75953
1.88172
1.98924
2.08211
2.15053
2.17497
2.14076
2.09188
2.01857
1.94525
1.78396
1.67155
1.60312
1.51515
1.45161
1.38807
1.32453
1.28543
1.25122
1.23167
1.23167
1.23167
1.23655
1.20234
1.20234
1.20234
1.18768
1.19257
1.19745
1.21700
1.21212
1.18279
1.20234
1.25610
1.36852
1.57869
1.88660
2.17497
2.44379
2.65884
2.79569
2.85434
2.82013
2.73216
2.61974
2.49755
2.35581
2.21896
2.11143
2.00391
1.89638
1.79863
1.71065
1.63734
1.55913
1.50537
1.46627
1.46138
1.47116
1.49071
1.53470
1.58846
1.65200
1.64711
1.67644
1.69599
1.69110
1.67644
1.68621
1.63245
1.59824
1.54936
1.51515
1.48582
1.48093
1.40273
1.37341
1.34897
1.31964
1.29521
1.29032
1.26099
1.25122
1.22678
1.21212
1.21700
1.23655
1.19257
1.18768
1.18279
1.18279
1.17302
1.20723
1.20234
1.30498
1.47116
1.73020
2.03812
2.36559
2.56109
2.71749
2.79081
2.79569
2.71749
2.60508
2.47800
2.35581
2.21407
2.09188
1.96969
1.88172
1.76441
1.66666
1.58357
1.51515
1.45650
1.41739
1.42717
1.42228
1.44672
1.48582
1.52981
1.58846
1.63734
1.64222
1.66177
1.67644
1.66666
1.64222
1.62267
1.62267
1.56891
1.51026
1.47116
1.44183
1.41251
1.37829
1.34408
1.32453
1.30498
1.27077
1.26099
1.26588
1.23655
1.21212
1.20234
1.19745
1.19257
1.18279
1.19257
1.17302
1.16813
1.15835
1.14858
1.15835
1.21212
1.31964
1.52003
1.80351
2.11632
2.39002
2.62952
2.74682
2.81036
2.77126
2.67839
2.57086
2.47800
2.29716
2.16031
2.03812
1.93548
1.81818
1.72043
1.65200
1.54936
1.47605
1.41739
1.38807
1.38807
1.41251
1.44183
1.48582
1.53958
1.58357
1.61779
1.64222
1.66177
1.66666
1.67155
1.62756
1.60801
1.57380
1.52492
1.50537
1.49560
1.43206
1.38807
1.35874
1.33431
1.30987
1.28054
1.27077
1.27077
1.23655
1.21700
1.20723
1.20234
1.19257
1.18768
1.18768
1.18279
1.18279
1.16813
1.16324
1.16813
1.18768
1.23655
1.35386
1.56402
1.85239
2.13587
2.39980
2.60997
2.74193
2.78103
2.72238
2.63929
2.55131
2.39002
2.25317
2.13098
2.01857
1.89638
1.78396
1.69599
1.63734
1.53470
1.44672
1.40273
1.39296
1.39296
1.42228
1.47116
1.51515
1.56891
1.60801
1.65200
1.68621
1.70576
1.68132
1.67155
1.65689
1.62756
1.58357
1.55913
1.52003
1.48582
1.44183
1.41251
1.38807
1.36852
1.34408
1.34408
1.30009
1.28543
1.26588
1.25122
1.25122
1.25122
1.24144
1.22678
1.22189
1.21700
1.20234
1.20234
1.24144
1.28543
1.41739
1.64222
1.93548
2.24828
2.50244
2.69794
2.80058
2.83968
2.78103
2.68817
2.57575
2.45356
2.32649
2.17986
2.09677
1.98924
1.86705
1.77419
1.69110
1.61779
1.53958
1.49071
1.46627
1.46627
1.50537
1.50048
1.53958
1.58846
1.63734
1.67644
1.68621
1.70576
1.70576
1.68621
1.66177
1.64222
1.60801
1.57869
1.51515
1.48093
1.44183
1.40273
1.36852
1.34408
1.31964
1.31476
1.26588
1.25122
1.24144
1.21700
1.21212
1.21212
1.22189
1.19257
1.18768
1.18768
1.18768
1.17790
1.18768
1.17790
1.20234
1.26588
1.40762
1.64711
1.95503
2.26295
2.49266
2.68328
2.79569
2.79569
2.74193
2.64907
2.53665
2.39491
2.25806
2.14565
2.02834
1.92082
1.81818
1.74486
1.67155
1.58846
1.50537
1.46138
1.44183
1.43695
1.44672
1.49071
1.55913
1.58357
1.61779
1.65200
1.67644
1.68621
1.67644
1.65689
1.64222
1.60801
1.56402
1.53470
1.52981
1.46627
1.42228
1.39296
1.36852
1.34408
1.32453
1.27565
1.26099
1.25122
1.22189
1.22189
1.22189
1.22189
1.18768
1.18279
1.18279
1.17790
1.17302
1.16813
1.16813
1.16813
1.16813
1.20234
1.30009
1.49560
1.76930
2.04301
2.33137
2.57575
2.71261
2.77614
2.77126
2.73704
2.59042
2.45845
2.32160
2.20430
2.06744
1.95014
1.84750
1.76930
1.66666
1.57380
1.50048
1.44672
1.41251
1.41739
1.40762
1.44183
1.48093
1.52492
1.56891
1.62267
1.65200
1.66177
1.66177
1.66177
1.64711
1.61290
1.57869
1.55425
1.53958
1.47116
1.43695
1.40762
1.37829
1.33919
1.33919
1.29032
1.27077
1.25122
1.22678
1.22678
1.24633
1.19745
1.19257
1.18768
1.18768
1.18279
1.19745
1.16813
1.16813
1.16813
1.20234
1.30498
1.49071
1.73998
2.03812
2.31671
2.55620
2.69305
2.78103
2.74682
2.68328
2.59042
2.45845
2.30205
2.18475
2.05278
1.93059
1.83284
1.77419
1.64222
1.54936
1.48093
1.43206
1.40762
1.39784
1.42228
1.47605
1.50048
1.54936
1.59824
1.65200
1.68132
1.69110
1.69599
1.69110
1.67644
1.64222
1.63734
1.57380
1.53958
1.49071
1.46138
1.43695
1.40762
1.37341
1.34408
1.32453
1.30498
1.27565
1.27565
1.27077
1.24633
1.23167
1.22678
1.22678
1.23167
1.20723
1.19745
1.19745
1.20723
1.23655
1.34897
1.56402
1.81818
2.11632
2.40469
2.63929
2.80547
2.84457
2.84946
2.75659
2.64907
2.51221
2.37047
2.24828
2.13098
2.01368
1.90615
1.81329
1.73509
1.65200
1.56891
1.51515
1.48582
1.47116
1.47116
1.49071
1.53958
1.57869
1.61779
1.66177
1.69599
1.73998
1.70087
1.68621
1.67644
1.64711
1.60801
1.57380
1.55913
1.50537
1.45161
1.41739
1.38807
1.36852
1.32453
1.30498
1.29032
1.27077
1.25122
1.25122
1.23167
1.22678
1.21212
1.20234
1.21212
1.20234
1.18768
1.18279
1.18279
1.19257
1.24633
1.31476
1.49560
1.76441
2.06256
2.34604
2.60997
2.75171
2.80547
2.80058
2.72238
2.64907
2.51221
2.34115
2.21407
2.10166
1.97947
1.86705
1.77908
1.71065
1.62756
1.52492
1.47116
1.44183
1.42717
1.42717
1.45650
1.50048
1.54447
1.59335
1.62756
1.66177
1.67644
1.67155
1.67155
1.65200
1.62267
1.58357
1.54936
1.51026
1.47605
1.43695
1.41251
1.37341
1.34408
1.30498
1.28543
1.27565
1.27565
1.23167
1.21700
1.21212
1.20723
1.20723
1.21212
1.18279
1.18279
1.17302
1.16324
1.16324
1.16813
1.17302
1.21212
1.30987
1.51026
1.76930
2.06256
2.34604
2.59530
2.70283
2.75171
2.73216
2.67350
2.55131
2.41935
2.28250
2.16031
2.02834
1.91104
1.80351
1.71554
1.62756
1.55913
1.46138
1.41739
1.38318
1.36852
1.38807
1.43695
1.50048
1.51515
1.56891
1.61779
1.64222
1.65689
1.66666
1.68621
1.63734
1.60312
1.56891
1.54447
1.51026
1.48093
1.44183
1.40273
1.37341
1.33431
1.30987
1.30498
1.31476
1.26099
1.25122
1.23655
1.23167
1.22678
1.22189
1.21212
1.21212
1.19745
1.18768
1.19257
1.20723
1.25122
1.36363
1.53958
1.81818
2.11143
2.38514
2.61485
2.76148
2.80547
2.77614
2.73216
2.60019
2.46823
2.31671
2.19452
2.08211
1.96480
1.85239
1.74975
1.67644
1.59335
1.53958
1.45650
1.42717
1.41739
1.42717
1.46627
1.52492
1.57380
1.59824
1.64222
1.67644
1.69110
1.68621
1.67155
1.65689
1.63245
1.58846
1.54936
1.51515
1.48582
1.45650
1.39784
1.36852
1.34408
1.30987
1.29521
1.27565
1.26099
1.24144
1.22678
1.21700
1.22189
1.21700
1.19745
1.19745
1.19745
1.17790
1.18279
1.18768
1.23167
1.27077
1.41739
1.66177
1.96969
2.26783
2.52688
2.73704
2.84457
2.83479
2.79081
2.68328
2.57575
2.43401
2.29227
2.17008
2.06256
1.95503
1.84261
1.75464
1.67644
1.59824
1.52003
1.47605
1.45650
1.45650
1.47605
1.52981
1.54447
1.58846
1.62267
1.65689
1.68621
1.70087
1.70576
1.67155
1.65200
1.62267
1.57380
1.53958
1.53958
1.48582
1.42717
1.39296
1.36852
1.33919
1.32453
1.28543
1.27077
1.25610
1.23655
1.22678
1.23167
1.21700
1.20234
1.19257
1.19745
1.19745
1.20723
1.17790
1.18279
1.20723
1.28054
1.43206
1.69110
2.02346
2.28250
2.52688
2.70772
2.80547
2.80058
2.73704
2.63440
2.52199
2.38514
2.23851
