2022-12-15 14:21:26.245348
2022-12-15 14:21:26.246343
2022-12-15 14:21:26.246343
2022-12-15 14:21:26.279254
2022-12-15 14:21:26.280255
2022-12-15 14:21:26.280255
2022-12-15 14:21:26.313163
2022-12-15 14:21:26.313163
2022-12-15 14:21:26.346081
2022-12-15 14:21:26.347073
2022-12-15 14:21:26.347073
2022-12-15 14:21:26.379990
2022-12-15 14:21:26.379990
2022-12-15 14:21:26.380981
2022-12-15 14:21:26.412935
2022-12-15 14:21:26.413894
2022-12-15 14:21:26.446808
2022-12-15 14:21:26.447840
2022-12-15 14:21:26.447840
2022-12-15 14:21:26.480717
2022-12-15 14:21:26.480717
2022-12-15 14:21:26.481721
2022-12-15 14:21:26.513666
2022-12-15 14:21:26.514624
2022-12-15 14:21:26.547536
2022-12-15 14:21:26.547536
2022-12-15 14:21:26.548534
2022-12-15 14:21:26.581447
2022-12-15 14:21:26.581447
2022-12-15 14:21:26.582443
2022-12-15 14:21:26.614359
2022-12-15 14:21:26.615357
2022-12-15 14:21:26.648269
2022-12-15 14:21:26.648269
2022-12-15 14:21:26.649264
2022-12-15 14:21:26.681215
2022-12-15 14:21:26.682177
2022-12-15 14:21:26.682177
2022-12-15 14:21:26.715089
2022-12-15 14:21:26.716086
2022-12-15 14:21:26.748998
2022-12-15 14:21:26.748998
2022-12-15 14:21:26.749998
2022-12-15 14:21:26.781913
2022-12-15 14:21:26.782908
2022-12-15 14:21:26.785901
2022-12-15 14:21:26.815821
2022-12-15 14:21:26.816818
2022-12-15 14:21:26.848732
2022-12-15 14:21:26.849729
2022-12-15 14:21:26.850726
2022-12-15 14:21:26.882641
2022-12-15 14:21:26.882641
2022-12-15 14:21:26.883638
2022-12-15 14:21:26.916550
2022-12-15 14:21:26.917548
2022-12-15 14:21:26.949462
2022-12-15 14:21:26.950461
2022-12-15 14:21:26.950461
2022-12-15 14:21:26.983371
2022-12-15 14:21:26.984369
2022-12-15 14:21:26.984369
2022-12-15 14:21:27.016284
2022-12-15 14:21:27.017283
2022-12-15 14:21:27.050193
2022-12-15 14:21:27.051190
2022-12-15 14:21:27.051190
2022-12-15 14:21:27.084107
2022-12-15 14:21:27.085101
2022-12-15 14:21:27.085101
2022-12-15 14:21:27.117017
2022-12-15 14:21:27.118014
2022-12-15 14:21:27.150926
2022-12-15 14:21:27.150926
2022-12-15 14:21:27.151923
2022-12-15 14:21:27.184835
2022-12-15 14:21:27.184835
2022-12-15 14:21:27.185831
2022-12-15 14:21:27.217753
2022-12-15 14:21:27.218743
2022-12-15 14:21:27.251654
2022-12-15 14:21:27.251654
2022-12-15 14:21:27.252652
2022-12-15 14:21:27.284608
2022-12-15 14:21:27.285566
2022-12-15 14:21:27.286564
2022-12-15 14:21:27.318509
2022-12-15 14:21:27.319473
2022-12-15 14:21:27.352393
2022-12-15 14:21:27.352393
2022-12-15 14:21:27.353383
2022-12-15 14:21:27.385808
2022-12-15 14:21:27.385808
2022-12-15 14:21:27.386804
2022-12-15 14:21:27.419260
2022-12-15 14:21:27.419260
2022-12-15 14:21:27.452824
2022-12-15 14:21:27.452824
2022-12-15 14:21:27.453822
2022-12-15 14:21:27.486231
2022-12-15 14:21:27.487185
2022-12-15 14:21:27.487185
2022-12-15 14:21:27.520634
2022-12-15 14:21:27.520977
2022-12-15 14:21:27.554198
2022-12-15 14:21:27.554437
2022-12-15 14:21:27.554894
2022-12-15 14:21:27.587863
2022-12-15 14:21:27.588157
2022-12-15 14:21:27.588735
2022-12-15 14:21:27.620838
2022-12-15 14:21:27.620838
2022-12-15 14:21:27.654756
2022-12-15 14:21:27.655780
2022-12-15 14:21:27.655780
2022-12-15 14:21:27.687866
2022-12-15 14:21:27.687866
2022-12-15 14:21:27.688873
2022-12-15 14:21:27.721359
2022-12-15 14:21:27.721359
2022-12-15 14:21:27.754912
2022-12-15 14:21:27.755235
2022-12-15 14:21:27.755687
2022-12-15 14:21:27.788155
2022-12-15 14:21:27.788155
2022-12-15 14:21:27.788155
2022-12-15 14:21:27.821192
2022-12-15 14:21:27.822189
2022-12-15 14:21:27.855100
2022-12-15 14:21:27.855100
2022-12-15 14:21:27.856096
2022-12-15 14:21:27.889008
2022-12-15 14:21:27.889008
2022-12-15 14:21:27.889008
2022-12-15 14:21:27.921930
2022-12-15 14:21:27.922929
2022-12-15 14:21:27.955589
2022-12-15 14:21:27.955589
2022-12-15 14:21:27.956590
2022-12-15 14:21:27.989499
2022-12-15 14:21:27.989499
2022-12-15 14:21:27.990496
2022-12-15 14:21:28.022530
2022-12-15 14:21:28.023371
2022-12-15 14:21:28.056901
2022-12-15 14:21:28.057167
2022-12-15 14:21:28.057795
2022-12-15 14:21:28.090327
2022-12-15 14:21:28.091150
2022-12-15 14:21:28.091344
2022-12-15 14:21:28.124217
2022-12-15 14:21:28.124608
2022-12-15 14:21:28.157712
2022-12-15 14:21:28.158256
2022-12-15 14:21:28.158256
2022-12-15 14:21:28.191329
2022-12-15 14:21:28.191623
2022-12-15 14:21:28.192093
2022-12-15 14:21:28.224833
2022-12-15 14:21:28.225225
2022-12-15 14:21:28.257777
2022-12-15 14:21:28.258053
2022-12-15 14:21:28.258515
2022-12-15 14:21:28.291811
2022-12-15 14:21:28.292685
2022-12-15 14:21:28.292685
2022-12-15 14:21:28.324671
2022-12-15 14:21:28.324671
2022-12-15 14:21:28.357986
2022-12-15 14:21:28.357986
2022-12-15 14:21:28.358986
2022-12-15 14:21:28.392167
2022-12-15 14:21:28.392167
2022-12-15 14:21:28.393169
2022-12-15 14:21:28.425807
2022-12-15 14:21:28.425807
2022-12-15 14:21:28.459453
2022-12-15 14:21:28.460276
2022-12-15 14:21:28.460276
2022-12-15 14:21:28.493008
2022-12-15 14:21:28.493523
2022-12-15 14:21:28.493523
2022-12-15 14:21:28.526671
2022-12-15 14:21:28.527673
2022-12-15 14:21:28.559738
2022-12-15 14:21:28.560096
2022-12-15 14:21:28.560096
2022-12-15 14:21:28.593723
2022-12-15 14:21:28.594246
2022-12-15 14:21:28.594246
2022-12-15 14:21:28.627046
2022-12-15 14:21:28.627510
2022-12-15 14:21:28.660738
2022-12-15 14:21:28.660738
2022-12-15 14:21:28.661760
2022-12-15 14:21:28.694354
2022-12-15 14:21:28.695384
2022-12-15 14:21:28.695384
2022-12-15 14:21:28.727397
2022-12-15 14:21:28.727397
2022-12-15 14:21:28.760857
2022-12-15 14:21:28.760857
2022-12-15 14:21:28.761865
2022-12-15 14:21:28.794633
2022-12-15 14:21:28.796636
2022-12-15 14:21:28.797620
2022-12-15 14:21:28.827994
2022-12-15 14:21:28.827994
2022-12-15 14:21:28.861079
2022-12-15 14:21:28.862086
2022-12-15 14:21:28.862086
2022-12-15 14:21:28.895187
2022-12-15 14:21:28.895480
2022-12-15 14:21:28.896066
2022-12-15 14:21:28.928704
2022-12-15 14:21:28.928704
2022-12-15 14:21:28.962459
2022-12-15 14:21:28.962725
2022-12-15 14:21:28.963344
2022-12-15 14:21:28.995961
2022-12-15 14:21:28.996295
2022-12-15 14:21:28.996755
2022-12-15 14:21:29.029643
2022-12-15 14:21:29.029643
2022-12-15 14:21:29.062083
2022-12-15 14:21:29.063080
2022-12-15 14:21:29.063080
2022-12-15 14:21:29.096586
2022-12-15 14:21:29.096881
2022-12-15 14:21:29.097426
2022-12-15 14:21:29.129581
2022-12-15 14:21:29.129905
2022-12-15 14:21:29.163573
2022-12-15 14:21:29.163811
2022-12-15 14:21:29.164397
2022-12-15 14:21:29.197093
2022-12-15 14:21:29.197384
2022-12-15 14:21:29.197384
2022-12-15 14:21:29.230614
2022-12-15 14:21:29.230963
2022-12-15 14:21:29.264188
2022-12-15 14:21:29.264429
2022-12-15 14:21:29.265031
2022-12-15 14:21:29.297696
2022-12-15 14:21:29.298035
2022-12-15 14:21:29.298499
2022-12-15 14:21:29.331119
2022-12-15 14:21:29.331811
2022-12-15 14:21:29.364180
2022-12-15 14:21:29.365197
2022-12-15 14:21:29.365397
2022-12-15 14:21:29.398164
2022-12-15 14:21:29.398457
2022-12-15 14:21:29.398457
2022-12-15 14:21:29.431828
2022-12-15 14:21:29.432213
2022-12-15 14:21:29.465322
2022-12-15 14:21:29.465559
2022-12-15 14:21:29.466106
2022-12-15 14:21:29.499003
2022-12-15 14:21:29.499298
2022-12-15 14:21:29.499872
2022-12-15 14:21:29.532498
2022-12-15 14:21:29.532843
2022-12-15 14:21:29.566016
2022-12-15 14:21:29.566257
2022-12-15 14:21:29.566719
2022-12-15 14:21:29.599487
2022-12-15 14:21:29.599783
2022-12-15 14:21:29.600364
2022-12-15 14:21:29.632829
2022-12-15 14:21:29.632829
2022-12-15 14:21:29.665944
2022-12-15 14:21:29.666951
2022-12-15 14:21:29.667208
2022-12-15 14:21:29.699117
2022-12-15 14:21:29.700116
2022-12-15 14:21:29.700116
2022-12-15 14:21:29.733538
2022-12-15 14:21:29.733883
2022-12-15 14:21:29.767104
2022-12-15 14:21:29.767341
2022-12-15 14:21:29.767972
2022-12-15 14:21:29.800725
2022-12-15 14:21:29.801018
2022-12-15 14:21:29.801018
2022-12-15 14:21:29.834380
2022-12-15 14:21:29.834726
2022-12-15 14:21:29.867799
2022-12-15 14:21:29.868037
2022-12-15 14:21:29.868497
2022-12-15 14:21:29.901364
2022-12-15 14:21:29.901658
2022-12-15 14:21:29.902245
2022-12-15 14:21:29.934900
2022-12-15 14:21:29.935277
2022-12-15 14:21:29.968469
2022-12-15 14:21:29.968759
2022-12-15 14:21:29.968759
2022-12-15 14:21:30.001991
2022-12-15 14:21:30.001991
2022-12-15 14:21:30.002946
2022-12-15 14:21:30.034671
2022-12-15 14:21:30.035680
2022-12-15 14:21:30.068349
2022-12-15 14:21:30.068349
2022-12-15 14:21:30.069330
2022-12-15 14:21:30.102042
2022-12-15 14:21:30.102333
2022-12-15 14:21:30.102333
2022-12-15 14:21:30.136048
2022-12-15 14:21:30.136388
2022-12-15 14:21:30.169659
2022-12-15 14:21:30.169898
2022-12-15 14:21:30.169898
2022-12-15 14:21:30.203246
2022-12-15 14:21:30.203537
2022-12-15 14:21:30.204116
2022-12-15 14:21:30.236859
2022-12-15 14:21:30.237245
2022-12-15 14:21:30.270332
2022-12-15 14:21:30.270571
2022-12-15 14:21:30.271122
2022-12-15 14:21:30.303786
2022-12-15 14:21:30.304107
2022-12-15 14:21:30.304107
2022-12-15 14:21:30.337226
2022-12-15 14:21:30.337989
2022-12-15 14:21:30.369852
2022-12-15 14:21:30.369852
2022-12-15 14:21:30.370859
2022-12-15 14:21:30.403574
2022-12-15 14:21:30.403574
2022-12-15 14:21:30.404572
2022-12-15 14:21:30.437673
2022-12-15 14:21:30.438068
2022-12-15 14:21:30.471279
2022-12-15 14:21:30.471279
2022-12-15 14:21:30.472281
2022-12-15 14:21:30.504851
2022-12-15 14:21:30.504851
2022-12-15 14:21:30.505795
2022-12-15 14:21:30.538329
2022-12-15 14:21:30.538329
2022-12-15 14:21:30.571691
2022-12-15 14:21:30.571691
2022-12-15 14:21:30.572694
2022-12-15 14:21:30.604913
2022-12-15 14:21:30.604913
2022-12-15 14:21:30.605924
2022-12-15 14:21:30.638185
2022-12-15 14:21:30.638942
2022-12-15 14:21:30.672296
2022-12-15 14:21:30.672296
2022-12-15 14:21:30.673298
2022-12-15 14:21:30.705638
2022-12-15 14:21:30.705638
2022-12-15 14:21:30.706642
2022-12-15 14:21:30.739194
2022-12-15 14:21:30.739614
2022-12-15 14:21:30.773132
2022-12-15 14:21:30.773417
2022-12-15 14:21:30.773417
2022-12-15 14:21:30.806099
2022-12-15 14:21:30.807101
2022-12-15 14:21:30.807101
2022-12-15 14:21:30.840245
2022-12-15 14:21:30.840632
2022-12-15 14:21:30.873666
2022-12-15 14:21:30.873903
2022-12-15 14:21:30.874450
2022-12-15 14:21:30.907261
2022-12-15 14:21:30.907551
2022-12-15 14:21:30.908008
2022-12-15 14:21:30.940735
2022-12-15 14:21:30.941120
2022-12-15 14:21:30.974411
2022-12-15 14:21:30.974411
2022-12-15 14:21:30.975413
2022-12-15 14:21:31.007648
2022-12-15 14:21:31.007648
2022-12-15 14:21:31.008655
2022-12-15 14:21:31.041335
2022-12-15 14:21:31.041680
2022-12-15 14:21:31.074941
2022-12-15 14:21:31.075181
2022-12-15 14:21:31.075181
2022-12-15 14:21:31.108413
2022-12-15 14:21:31.108706
2022-12-15 14:21:31.109286
2022-12-15 14:21:31.141928
2022-12-15 14:21:31.142276
2022-12-15 14:21:31.175479
2022-12-15 14:21:31.175745
2022-12-15 14:21:31.176416
2022-12-15 14:21:31.208505
2022-12-15 14:21:31.208505
2022-12-15 14:21:31.209536
2022-12-15 14:21:31.242469
2022-12-15 14:21:31.242469
2022-12-15 14:21:31.276099
2022-12-15 14:21:31.276368
2022-12-15 14:21:31.276889
2022-12-15 14:21:31.309479
2022-12-15 14:21:31.310124
2022-12-15 14:21:31.310124
2022-12-15 14:21:31.342009
2022-12-15 14:21:31.343016
2022-12-15 14:21:31.376632
2022-12-15 14:21:31.376632
2022-12-15 14:21:31.377633
2022-12-15 14:21:31.409832
2022-12-15 14:21:31.409832
2022-12-15 14:21:31.410867
2022-12-15 14:21:31.443586
2022-12-15 14:21:31.444415
2022-12-15 14:21:31.477283
2022-12-15 14:21:31.478015
2022-12-15 14:21:31.478015
2022-12-15 14:21:31.510786
2022-12-15 14:21:31.511559
2022-12-15 14:21:31.511559
2022-12-15 14:21:31.544448
2022-12-15 14:21:31.544913
2022-12-15 14:21:31.578064
2022-12-15 14:21:31.578064
2022-12-15 14:21:31.579068
2022-12-15 14:21:31.611509
2022-12-15 14:21:31.611509
2022-12-15 14:21:31.612559
2022-12-15 14:21:31.644692
2022-12-15 14:21:31.644692
2022-12-15 14:21:31.678236
2022-12-15 14:21:31.679240
2022-12-15 14:21:31.679240
2022-12-15 14:21:31.711913
2022-12-15 14:21:31.711913
2022-12-15 14:21:31.712941
2022-12-15 14:21:31.744878
2022-12-15 14:21:31.744878
2022-12-15 14:21:31.778806
2022-12-15 14:21:31.778806
2022-12-15 14:21:31.779815
2022-12-15 14:21:31.811872
2022-12-15 14:21:31.811872
2022-12-15 14:21:31.812870
2022-12-15 14:21:31.846084
2022-12-15 14:21:31.846429
2022-12-15 14:21:31.878919
2022-12-15 14:21:31.878919
2022-12-15 14:21:31.879883
2022-12-15 14:21:31.912899
2022-12-15 14:21:31.913228
2022-12-15 14:21:31.913228
2022-12-15 14:21:31.946440
2022-12-15 14:21:31.947249
2022-12-15 14:21:31.980124
2022-12-15 14:21:31.980362
2022-12-15 14:21:31.980949
2022-12-15 14:21:32.012350
2022-12-15 14:21:32.013438
2022-12-15 14:21:32.014008
2022-12-15 14:21:32.046868
2022-12-15 14:21:32.047292
2022-12-15 14:21:32.080452
2022-12-15 14:21:32.080773
2022-12-15 14:21:32.081233
2022-12-15 14:21:32.113893
2022-12-15 14:21:32.114271
2022-12-15 14:21:32.114717
2022-12-15 14:21:32.147798
2022-12-15 14:21:32.148141
2022-12-15 14:21:32.181283
2022-12-15 14:21:32.181521
2022-12-15 14:21:32.182067
2022-12-15 14:21:32.214731
2022-12-15 14:21:32.215737
2022-12-15 14:21:32.215737
2022-12-15 14:21:32.248321
2022-12-15 14:21:32.248663
2022-12-15 14:21:32.282034
2022-12-15 14:21:32.282272
2022-12-15 14:21:32.282817
2022-12-15 14:21:32.315399
2022-12-15 14:21:32.315691
2022-12-15 14:21:32.316274
2022-12-15 14:21:32.349117
2022-12-15 14:21:32.349460
2022-12-15 14:21:32.382553
2022-12-15 14:21:32.382794
2022-12-15 14:21:32.383255
2022-12-15 14:21:32.416167
2022-12-15 14:21:32.416506
2022-12-15 14:21:32.416506
2022-12-15 14:21:32.449634
2022-12-15 14:21:32.449983
2022-12-15 14:21:32.483453
2022-12-15 14:21:32.483453
2022-12-15 14:21:32.484456
2022-12-15 14:21:32.516526
2022-12-15 14:21:32.516825
2022-12-15 14:21:32.517409
2022-12-15 14:21:32.550211
2022-12-15 14:21:32.550561
2022-12-15 14:21:32.583770
2022-12-15 14:21:32.584010
2022-12-15 14:21:32.584562
2022-12-15 14:21:32.617411
2022-12-15 14:21:32.617701
2022-12-15 14:21:32.617701
2022-12-15 14:21:32.650809
2022-12-15 14:21:32.651155
2022-12-15 14:21:32.684399
2022-12-15 14:21:32.684640
2022-12-15 14:21:32.684640
2022-12-15 14:21:32.718030
2022-12-15 14:21:32.718322
2022-12-15 14:21:32.718782
2022-12-15 14:21:32.751670
2022-12-15 14:21:32.751670
2022-12-15 14:21:32.784306
2022-12-15 14:21:32.784306
2022-12-15 14:21:32.785338
2022-12-15 14:21:32.817587
2022-12-15 14:21:32.818582
2022-12-15 14:21:32.818582
2022-12-15 14:21:32.852061
2022-12-15 14:21:32.852406
2022-12-15 14:21:32.885779
2022-12-15 14:21:32.886017
2022-12-15 14:21:32.886610
2022-12-15 14:21:32.919289
2022-12-15 14:21:32.919621
2022-12-15 14:21:32.920209
2022-12-15 14:21:32.952640
2022-12-15 14:21:32.952987
2022-12-15 14:21:32.986244
2022-12-15 14:21:32.986527
2022-12-15 14:21:32.987114
2022-12-15 14:21:33.019751
2022-12-15 14:21:33.020072
2022-12-15 14:21:33.020579
2022-12-15 14:21:33.053283
2022-12-15 14:21:33.053283
2022-12-15 14:21:33.086822
2022-12-15 14:21:33.086822
2022-12-15 14:21:33.087825
2022-12-15 14:21:33.119737
2022-12-15 14:21:33.119737
2022-12-15 14:21:33.119737
2022-12-15 14:21:33.153410
2022-12-15 14:21:33.153833
2022-12-15 14:21:33.187370
2022-12-15 14:21:33.187609
2022-12-15 14:21:33.188193
2022-12-15 14:21:33.220868
2022-12-15 14:21:33.221159
2022-12-15 14:21:33.221159
2022-12-15 14:21:33.254359
2022-12-15 14:21:33.254359
2022-12-15 14:21:33.288128
2022-12-15 14:21:33.288369
2022-12-15 14:21:33.288830
2022-12-15 14:21:33.321602
2022-12-15 14:21:33.321894
2022-12-15 14:21:33.322439
2022-12-15 14:21:33.354981
2022-12-15 14:21:33.354981
2022-12-15 14:21:33.388102
2022-12-15 14:21:33.388102
2022-12-15 14:21:33.389131
2022-12-15 14:21:33.421161
2022-12-15 14:21:33.422161
2022-12-15 14:21:33.422161
2022-12-15 14:21:33.455608
2022-12-15 14:21:33.455608
2022-12-15 14:21:33.489219
2022-12-15 14:21:33.489458
2022-12-15 14:21:33.490045
2022-12-15 14:21:33.521672
2022-12-15 14:21:33.522669
2022-12-15 14:21:33.522669
2022-12-15 14:21:33.555484
2022-12-15 14:21:33.555484
2022-12-15 14:21:33.589492
2022-12-15 14:21:33.589731
2022-12-15 14:21:33.590278
2022-12-15 14:21:33.622936
2022-12-15 14:21:33.623554
2022-12-15 14:21:33.623554
2022-12-15 14:21:33.656253
2022-12-15 14:21:33.656253
2022-12-15 14:21:33.689828
2022-12-15 14:21:33.690049
2022-12-15 14:21:33.690510
2022-12-15 14:21:33.723753
2022-12-15 14:21:33.724044
2022-12-15 14:21:33.724044
2022-12-15 14:21:33.757423
2022-12-15 14:21:33.758060
2022-12-15 14:21:33.791087
2022-12-15 14:21:33.791329
2022-12-15 14:21:33.791786
2022-12-15 14:21:33.824754
2022-12-15 14:21:33.825079
2022-12-15 14:21:33.825668
2022-12-15 14:21:33.858134
2022-12-15 14:21:33.858134
2022-12-15 14:21:33.891552
2022-12-15 14:21:33.891552
2022-12-15 14:21:33.892553
2022-12-15 14:21:33.924220
2022-12-15 14:21:33.924220
2022-12-15 14:21:33.925226
2022-12-15 14:21:33.957863
2022-12-15 14:21:33.957863
2022-12-15 14:21:33.992100
2022-12-15 14:21:33.992367
2022-12-15 14:21:33.993025
2022-12-15 14:21:34.025604
2022-12-15 14:21:34.025923
2022-12-15 14:21:34.026568
2022-12-15 14:21:34.059074
2022-12-15 14:21:34.059546
2022-12-15 14:21:34.092741
2022-12-15 14:21:34.092980
2022-12-15 14:21:34.092980
2022-12-15 14:21:34.126295
2022-12-15 14:21:34.126587
2022-12-15 14:21:34.127046
2022-12-15 14:21:34.159539
2022-12-15 14:21:34.160115
2022-12-15 14:21:34.193303
2022-12-15 14:21:34.193303
2022-12-15 14:21:34.194307
2022-12-15 14:21:34.226436
2022-12-15 14:21:34.226436
2022-12-15 14:21:34.227464
2022-12-15 14:21:34.260201
2022-12-15 14:21:34.260928
2022-12-15 14:21:34.293888
2022-12-15 14:21:34.293888
2022-12-15 14:21:34.294889
2022-12-15 14:21:34.327496
2022-12-15 14:21:34.327496
2022-12-15 14:21:34.328497
2022-12-15 14:21:34.360506
2022-12-15 14:21:34.360506
2022-12-15 14:21:34.394532
2022-12-15 14:21:34.394532
2022-12-15 14:21:34.395502
2022-12-15 14:21:34.428186
2022-12-15 14:21:34.428186
2022-12-15 14:21:34.429188
2022-12-15 14:21:34.460947
2022-12-15 14:21:34.460947
2022-12-15 14:21:34.495193
2022-12-15 14:21:34.495646
2022-12-15 14:21:34.495646
2022-12-15 14:21:34.528017
2022-12-15 14:21:34.529024
2022-12-15 14:21:34.529024
2022-12-15 14:21:34.561771
2022-12-15 14:21:34.561771
2022-12-15 14:21:34.595481
2022-12-15 14:21:34.595481
2022-12-15 14:21:34.596488
2022-12-15 14:21:34.629034
2022-12-15 14:21:34.629034
2022-12-15 14:21:34.630018
2022-12-15 14:21:34.662086
2022-12-15 14:21:34.662086
2022-12-15 14:21:34.696186
2022-12-15 14:21:34.696574
2022-12-15 14:21:34.697163
2022-12-15 14:21:34.729362
2022-12-15 14:21:34.729362
2022-12-15 14:21:34.730371
2022-12-15 14:21:34.762758
2022-12-15 14:21:34.762758
2022-12-15 14:21:34.796579
2022-12-15 14:21:34.796949
2022-12-15 14:21:34.797455
2022-12-15 14:21:34.829911
2022-12-15 14:21:34.830296
2022-12-15 14:21:34.830296
2022-12-15 14:21:34.863766
2022-12-15 14:21:34.864568
2022-12-15 14:21:34.896247
2022-12-15 14:21:34.897248
2022-12-15 14:21:34.897248
2022-12-15 14:21:34.929678
2022-12-15 14:21:34.930714
2022-12-15 14:21:34.931254
2022-12-15 14:21:34.963345
2022-12-15 14:21:34.964348
2022-12-15 14:21:34.997366
2022-12-15 14:21:34.997726
2022-12-15 14:21:34.998205
2022-12-15 14:21:35.031220
2022-12-15 14:21:35.031566
2022-12-15 14:21:35.032020
2022-12-15 14:21:35.064568
2022-12-15 14:21:35.064969
2022-12-15 14:21:35.098512
2022-12-15 14:21:35.098789
2022-12-15 14:21:35.099260
2022-12-15 14:21:35.132020
2022-12-15 14:21:35.132314
2022-12-15 14:21:35.132314
2022-12-15 14:21:35.165605
2022-12-15 14:21:35.165993
2022-12-15 14:21:35.199004
2022-12-15 14:21:35.199004
2022-12-15 14:21:35.200005
2022-12-15 14:21:35.232662
2022-12-15 14:21:35.232958
2022-12-15 14:21:35.233528
2022-12-15 14:21:35.265452
2022-12-15 14:21:35.266448
2022-12-15 14:21:35.299731
2022-12-15 14:21:35.300027
2022-12-15 14:21:35.300027
2022-12-15 14:21:35.333189
2022-12-15 14:21:35.333189
2022-12-15 14:21:35.334208
2022-12-15 14:21:35.366814
2022-12-15 14:21:35.366814
2022-12-15 14:21:35.400242
2022-12-15 14:21:35.400242
2022-12-15 14:21:35.401244
2022-12-15 14:21:35.433520
2022-12-15 14:21:35.433520
2022-12-15 14:21:35.434472
2022-12-15 14:21:35.466785
2022-12-15 14:21:35.466785
2022-12-15 14:21:35.500213
2022-12-15 14:21:35.500862
2022-12-15 14:21:35.500862
2022-12-15 14:21:35.534414
2022-12-15 14:21:35.534706
2022-12-15 14:21:35.535294
2022-12-15 14:21:35.567904
2022-12-15 14:21:35.568248
2022-12-15 14:21:35.601542
2022-12-15 14:21:35.601782
2022-12-15 14:21:35.602369
2022-12-15 14:21:35.635099
2022-12-15 14:21:35.635390
2022-12-15 14:21:35.635974
2022-12-15 14:21:35.668544
2022-12-15 14:21:35.668891
2022-12-15 14:21:35.702227
2022-12-15 14:21:35.702492
2022-12-15 14:21:35.703142
2022-12-15 14:21:35.735558
2022-12-15 14:21:35.735853
2022-12-15 14:21:35.735853
2022-12-15 14:21:35.769162
2022-12-15 14:21:35.769558
2022-12-15 14:21:35.802262
2022-12-15 14:21:35.802262
2022-12-15 14:21:35.802262
2022-12-15 14:21:35.836223
2022-12-15 14:21:35.836522
2022-12-15 14:21:35.837065
2022-12-15 14:21:35.869812
2022-12-15 14:21:35.870198
2022-12-15 14:21:35.903484
2022-12-15 14:21:35.903764
2022-12-15 14:21:35.903764
2022-12-15 14:21:35.936860
2022-12-15 14:21:35.937153
2022-12-15 14:21:35.937702
2022-12-15 14:21:35.970245
2022-12-15 14:21:35.971089
2022-12-15 14:21:36.004115
2022-12-15 14:21:36.004383
2022-12-15 14:21:36.004891
2022-12-15 14:21:36.037315
2022-12-15 14:21:36.038322
2022-12-15 14:21:36.038322
2022-12-15 14:21:36.069741
2022-12-15 14:21:36.070748
2022-12-15 14:21:36.104404
2022-12-15 14:21:36.104645
2022-12-15 14:21:36.105240
2022-12-15 14:21:36.138055
2022-12-15 14:21:36.138347
2022-12-15 14:21:36.138347
2022-12-15 14:21:36.170844
2022-12-15 14:21:36.171875
2022-12-15 14:21:36.205174
2022-12-15 14:21:36.205415
2022-12-15 14:21:36.205873
2022-12-15 14:21:36.238779
2022-12-15 14:21:36.239072
2022-12-15 14:21:36.239660
2022-12-15 14:21:36.272242
2022-12-15 14:21:36.272619
2022-12-15 14:21:36.305687
2022-12-15 14:21:36.305687
2022-12-15 14:21:36.306696
2022-12-15 14:21:36.338317
2022-12-15 14:21:36.339327
2022-12-15 14:21:36.339327
2022-12-15 14:21:36.371622
2022-12-15 14:21:36.372635
2022-12-15 14:21:36.406325
2022-12-15 14:21:36.406563
2022-12-15 14:21:36.407111
2022-12-15 14:21:36.439954
2022-12-15 14:21:36.440245
2022-12-15 14:21:36.440790
2022-12-15 14:21:36.473561
2022-12-15 14:21:36.473905
2022-12-15 14:21:36.507092
2022-12-15 14:21:36.507332
2022-12-15 14:21:36.507796
2022-12-15 14:21:36.540713
2022-12-15 14:21:36.541049
2022-12-15 14:21:36.541631
2022-12-15 14:21:36.574036
2022-12-15 14:21:36.574426
2022-12-15 14:21:36.607486
2022-12-15 14:21:36.608126
2022-12-15 14:21:36.609146
2022-12-15 14:21:36.640922
2022-12-15 14:21:36.640922
2022-12-15 14:21:36.640922
2022-12-15 14:21:36.674475
2022-12-15 14:21:36.674845
2022-12-15 14:21:36.708101
2022-12-15 14:21:36.708369
2022-12-15 14:21:36.708984
2022-12-15 14:21:36.741614
2022-12-15 14:21:36.741904
2022-12-15 14:21:36.742489
2022-12-15 14:21:36.775203
2022-12-15 14:21:36.775548
2022-12-15 14:21:36.808771
2022-12-15 14:21:36.809010
2022-12-15 14:21:36.809479
2022-12-15 14:21:36.841351
2022-12-15 14:21:36.842086
2022-12-15 14:21:36.842693
2022-12-15 14:21:36.875722
2022-12-15 14:21:36.875722
2022-12-15 14:21:36.908506
2022-12-15 14:21:36.908506
2022-12-15 14:21:36.909517
2022-12-15 14:21:36.941679
2022-12-15 14:21:36.942680
2022-12-15 14:21:36.943112
2022-12-15 14:21:36.975946
2022-12-15 14:21:36.976272
2022-12-15 14:21:37.009956
2022-12-15 14:21:37.010196
2022-12-15 14:21:37.010792
2022-12-15 14:21:37.043523
2022-12-15 14:21:37.043815
2022-12-15 14:21:37.044357
2022-12-15 14:21:37.077109
2022-12-15 14:21:37.077454
2022-12-15 14:21:37.110712
2022-12-15 14:21:37.110950
2022-12-15 14:21:37.111411
2022-12-15 14:21:37.144195
2022-12-15 14:21:37.144195
2022-12-15 14:21:37.145230
2022-12-15 14:21:37.177499
2022-12-15 14:21:37.178506
2022-12-15 14:21:37.210606
2022-12-15 14:21:37.210606
2022-12-15 14:21:37.211604
2022-12-15 14:21:37.244577
2022-12-15 14:21:37.244577
2022-12-15 14:21:37.245578
2022-12-15 14:21:37.278185
2022-12-15 14:21:37.278185
2022-12-15 14:21:37.311544
2022-12-15 14:21:37.311783
2022-12-15 14:21:37.311783
2022-12-15 14:21:37.345286
2022-12-15 14:21:37.345610
2022-12-15 14:21:37.346612
2022-12-15 14:21:37.378713
2022-12-15 14:21:37.379226
2022-12-15 14:21:37.412270
2022-12-15 14:21:37.412866
2022-12-15 14:21:37.412866
2022-12-15 14:21:37.445763
2022-12-15 14:21:37.446794
2022-12-15 14:21:37.446794
2022-12-15 14:21:37.478652
2022-12-15 14:21:37.478652
2022-12-15 14:21:37.512774
2022-12-15 14:21:37.513089
2022-12-15 14:21:37.513089
2022-12-15 14:21:37.546543
2022-12-15 14:21:37.546794
2022-12-15 14:21:37.547796
2022-12-15 14:21:37.579583
2022-12-15 14:21:37.579583
2022-12-15 14:21:37.613358
2022-12-15 14:21:37.613709
2022-12-15 14:21:37.614381
2022-12-15 14:21:37.646544
2022-12-15 14:21:37.646945
2022-12-15 14:21:37.646945
2022-12-15 14:21:37.680055
2022-12-15 14:21:37.680428
2022-12-15 14:21:37.713373
2022-12-15 14:21:37.713373
2022-12-15 14:21:37.714408
2022-12-15 14:21:37.746642
2022-12-15 14:21:37.747648
2022-12-15 14:21:37.747648
2022-12-15 14:21:37.780407
2022-12-15 14:21:37.780407
2022-12-15 14:21:37.814331
2022-12-15 14:21:37.815136
2022-12-15 14:21:37.815136
2022-12-15 14:21:37.847663
2022-12-15 14:21:37.848668
2022-12-15 14:21:37.848668
2022-12-15 14:21:37.881038
2022-12-15 14:21:37.882044
2022-12-15 14:21:37.914327
2022-12-15 14:21:37.915331
2022-12-15 14:21:37.915331
2022-12-15 14:21:37.947787
2022-12-15 14:21:37.948788
2022-12-15 14:21:37.948788
2022-12-15 14:21:37.982191
2022-12-15 14:21:37.982535
2022-12-15 14:21:38.015666
2022-12-15 14:21:38.015955
2022-12-15 14:21:38.016417
2022-12-15 14:21:38.049269
2022-12-15 14:21:38.051268
2022-12-15 14:21:38.051268
2022-12-15 14:21:38.082655
2022-12-15 14:21:38.082655
2022-12-15 14:21:38.115905
2022-12-15 14:21:38.115905
2022-12-15 14:21:38.116903
2022-12-15 14:21:38.149496
2022-12-15 14:21:38.149876
2022-12-15 14:21:38.150401
2022-12-15 14:21:38.182999
2022-12-15 14:21:38.183321
2022-12-15 14:21:38.216968
2022-12-15 14:21:38.217207
2022-12-15 14:21:38.217799
2022-12-15 14:21:38.250486
2022-12-15 14:21:38.250779
2022-12-15 14:21:38.251364
2022-12-15 14:21:38.284058
2022-12-15 14:21:38.284403
2022-12-15 14:21:38.317559
2022-12-15 14:21:38.317800
2022-12-15 14:21:38.318393
2022-12-15 14:21:38.351066
2022-12-15 14:21:38.351358
2022-12-15 14:21:38.351823
2022-12-15 14:21:38.384603
2022-12-15 14:21:38.384958
2022-12-15 14:21:38.418136
2022-12-15 14:21:38.418136
2022-12-15 14:21:38.419137
2022-12-15 14:21:38.451556
2022-12-15 14:21:38.452593
2022-12-15 14:21:38.452970
2022-12-15 14:21:38.484773
2022-12-15 14:21:38.485181
2022-12-15 14:21:38.518736
2022-12-15 14:21:38.519016
2022-12-15 14:21:38.519635
2022-12-15 14:21:38.552383
2022-12-15 14:21:38.552676
2022-12-15 14:21:38.552676
2022-12-15 14:21:38.585934
2022-12-15 14:21:38.586280
2022-12-15 14:21:38.619455
2022-12-15 14:21:38.619693
2022-12-15 14:21:38.620244
2022-12-15 14:21:38.652876
2022-12-15 14:21:38.653167
2022-12-15 14:21:38.653626
2022-12-15 14:21:38.686412
2022-12-15 14:21:38.686763
2022-12-15 14:21:38.719858
2022-12-15 14:21:38.719858
2022-12-15 14:21:38.720860
2022-12-15 14:21:38.752467
2022-12-15 14:21:38.753526
2022-12-15 14:21:38.753526
2022-12-15 14:21:38.786941
2022-12-15 14:21:38.787314
2022-12-15 14:21:38.820502
2022-12-15 14:21:38.820741
2022-12-15 14:21:38.821293
2022-12-15 14:21:38.854212
2022-12-15 14:21:38.854502
2022-12-15 14:21:38.855049
2022-12-15 14:21:38.887657
2022-12-15 14:21:38.888004
2022-12-15 14:21:38.921182
2022-12-15 14:21:38.921461
2022-12-15 14:21:38.922053
2022-12-15 14:21:38.954838
2022-12-15 14:21:38.955156
2022-12-15 14:21:38.955667
2022-12-15 14:21:38.988421
2022-12-15 14:21:38.988421
2022-12-15 14:21:39.021313
2022-12-15 14:21:39.021529
2022-12-15 14:21:39.021529
2022-12-15 14:21:39.055181
2022-12-15 14:21:39.055473
2022-12-15 14:21:39.056097
2022-12-15 14:21:39.088568
2022-12-15 14:21:39.088568
2022-12-15 14:21:39.122410
2022-12-15 14:21:39.122695
2022-12-15 14:21:39.123345
2022-12-15 14:21:39.155946
2022-12-15 14:21:39.156237
2022-12-15 14:21:39.156706
2022-12-15 14:21:39.189452
2022-12-15 14:21:39.189797
2022-12-15 14:21:39.223165
2022-12-15 14:21:39.223429
2022-12-15 14:21:39.223933
2022-12-15 14:21:39.256566
2022-12-15 14:21:39.256566
2022-12-15 14:21:39.257595
2022-12-15 14:21:39.289099
2022-12-15 14:21:39.290085
2022-12-15 14:21:39.322386
2022-12-15 14:21:39.323383
2022-12-15 14:21:39.323383
2022-12-15 14:21:39.357248
2022-12-15 14:21:39.357541
2022-12-15 14:21:39.358119
2022-12-15 14:21:39.390736
2022-12-15 14:21:39.391083
2022-12-15 14:21:39.424390
2022-12-15 14:21:39.424672
2022-12-15 14:21:39.425131
2022-12-15 14:21:39.457697
2022-12-15 14:21:39.457990
2022-12-15 14:21:39.458537
2022-12-15 14:21:39.491168
2022-12-15 14:21:39.491635
2022-12-15 14:21:39.523605
2022-12-15 14:21:39.524613
2022-12-15 14:21:39.524613
2022-12-15 14:21:39.556917
2022-12-15 14:21:39.557919
2022-12-15 14:21:39.558532
2022-12-15 14:21:39.591451
2022-12-15 14:21:39.591845
2022-12-15 14:21:39.625433
2022-12-15 14:21:39.625718
2022-12-15 14:21:39.626262
2022-12-15 14:21:39.658827
2022-12-15 14:21:39.659117
2022-12-15 14:21:39.659703
2022-12-15 14:21:39.692631
2022-12-15 14:21:39.693016
2022-12-15 14:21:39.726113
2022-12-15 14:21:39.726350
2022-12-15 14:21:39.726940
2022-12-15 14:21:39.759431
2022-12-15 14:21:39.759431
2022-12-15 14:21:39.760391
2022-12-15 14:21:39.792357
2022-12-15 14:21:39.793382
2022-12-15 14:21:39.825989
2022-12-15 14:21:39.825989
2022-12-15 14:21:39.825989
2022-12-15 14:21:39.859072
2022-12-15 14:21:39.860072
2022-12-15 14:21:39.860072
2022-12-15 14:21:39.893630
2022-12-15 14:21:39.894008
2022-12-15 14:21:39.927137
2022-12-15 14:21:39.927375
2022-12-15 14:21:39.927968
2022-12-15 14:21:39.960714
2022-12-15 14:21:39.961007
2022-12-15 14:21:39.961465
2022-12-15 14:21:39.994283
2022-12-15 14:21:39.994659
2022-12-15 14:21:40.027660
2022-12-15 14:21:40.027660
2022-12-15 14:21:40.028662
2022-12-15 14:21:40.061124
2022-12-15 14:21:40.061124
2022-12-15 14:21:40.062132
2022-12-15 14:21:40.094010
2022-12-15 14:21:40.094010
2022-12-15 14:21:40.128313
2022-12-15 14:21:40.128581
2022-12-15 14:21:40.129583
2022-12-15 14:21:40.161716
2022-12-15 14:21:40.162724
2022-12-15 14:21:40.162724
2022-12-15 14:21:40.195309
2022-12-15 14:21:40.195309
2022-12-15 14:21:40.228816
2022-12-15 14:21:40.228816
2022-12-15 14:21:40.229818
2022-12-15 14:21:40.262210
2022-12-15 14:21:40.262210
2022-12-15 14:21:40.263211
2022-12-15 14:21:40.295897
2022-12-15 14:21:40.295897
2022-12-15 14:21:40.329156
2022-12-15 14:21:40.329913
2022-12-15 14:21:40.329913
2022-12-15 14:21:40.362285
2022-12-15 14:21:40.362285
2022-12-15 14:21:40.363322
2022-12-15 14:21:40.396276
2022-12-15 14:21:40.396276
2022-12-15 14:21:40.429144
2022-12-15 14:21:40.430087
2022-12-15 14:21:40.430087
2022-12-15 14:21:40.463592
2022-12-15 14:21:40.463592
2022-12-15 14:21:40.464596
2022-12-15 14:21:40.496851
2022-12-15 14:21:40.497310
2022-12-15 14:21:40.530460
2022-12-15 14:21:40.530752
2022-12-15 14:21:40.530752
2022-12-15 14:21:40.564066
2022-12-15 14:21:40.564066
2022-12-15 14:21:40.565036
2022-12-15 14:21:40.597259
2022-12-15 14:21:40.597636
2022-12-15 14:21:40.631007
2022-12-15 14:21:40.631345
2022-12-15 14:21:40.632346
2022-12-15 14:21:40.664174
2022-12-15 14:21:40.664174
2022-12-15 14:21:40.665174
2022-12-15 14:21:40.697525
2022-12-15 14:21:40.697525
2022-12-15 14:21:40.731231
2022-12-15 14:21:40.731511
2022-12-15 14:21:40.732512
2022-12-15 14:21:40.765222
2022-12-15 14:21:40.765222
2022-12-15 14:21:40.766224
2022-12-15 14:21:40.798775
2022-12-15 14:21:40.799777
2022-12-15 14:21:40.832101
2022-12-15 14:21:40.832101
2022-12-15 14:21:40.833108
2022-12-15 14:21:40.865505
2022-12-15 14:21:40.865889
2022-12-15 14:21:40.866474
2022-12-15 14:21:40.898970
2022-12-15 14:21:40.899317
2022-12-15 14:21:40.932972
2022-12-15 14:21:40.933211
2022-12-15 14:21:40.933756
2022-12-15 14:21:40.966439
2022-12-15 14:21:40.966732
2022-12-15 14:21:40.967191
2022-12-15 14:21:40.999534
2022-12-15 14:21:40.999534
2022-12-15 14:21:41.033376
2022-12-15 14:21:41.034206
2022-12-15 14:21:41.034206
2022-12-15 14:21:41.067002
2022-12-15 14:21:41.067292
2022-12-15 14:21:41.067885
2022-12-15 14:21:41.100252
2022-12-15 14:21:41.100675
2022-12-15 14:21:41.133686
2022-12-15 14:21:41.134007
2022-12-15 14:21:41.134464
2022-12-15 14:21:41.167216
2022-12-15 14:21:41.167590
2022-12-15 14:21:41.167590
2022-12-15 14:21:41.200890
2022-12-15 14:21:41.201382
2022-12-15 14:21:41.234722
2022-12-15 14:21:41.234962
2022-12-15 14:21:41.235421
2022-12-15 14:21:41.268428
2022-12-15 14:21:41.268760
2022-12-15 14:21:41.269312
2022-12-15 14:21:41.301866
2022-12-15 14:21:41.301866
2022-12-15 14:21:41.334604
2022-12-15 14:21:41.335612
2022-12-15 14:21:41.335612
2022-12-15 14:21:41.368049
2022-12-15 14:21:41.369047
2022-12-15 14:21:41.369047
2022-12-15 14:21:41.402552
2022-12-15 14:21:41.402945
2022-12-15 14:21:41.436002
2022-12-15 14:21:41.436242
2022-12-15 14:21:41.436831
2022-12-15 14:21:41.469462
2022-12-15 14:21:41.469761
2022-12-15 14:21:41.469761
2022-12-15 14:21:41.502986
2022-12-15 14:21:41.503333
2022-12-15 14:21:41.536538
2022-12-15 14:21:41.536822
2022-12-15 14:21:41.537469
2022-12-15 14:21:41.569972
2022-12-15 14:21:41.569972
2022-12-15 14:21:41.570974
2022-12-15 14:21:41.602577
2022-12-15 14:21:41.603692
2022-12-15 14:21:41.637092
2022-12-15 14:21:41.637331
2022-12-15 14:21:41.637918
2022-12-15 14:21:41.670704
2022-12-15 14:21:41.670998
2022-12-15 14:21:41.670998
2022-12-15 14:21:41.704333
2022-12-15 14:21:41.704680
2022-12-15 14:21:41.737744
2022-12-15 14:21:41.737984
2022-12-15 14:21:41.738452
2022-12-15 14:21:41.771316
2022-12-15 14:21:41.771611
2022-12-15 14:21:41.772208
2022-12-15 14:21:41.804858
2022-12-15 14:21:41.805228
2022-12-15 14:21:41.838557
2022-12-15 14:21:41.838557
2022-12-15 14:21:41.839562
2022-12-15 14:21:41.871266
2022-12-15 14:21:41.871266
2022-12-15 14:21:41.872268
2022-12-15 14:21:41.905436
2022-12-15 14:21:41.905780
2022-12-15 14:21:41.939092
2022-12-15 14:21:41.939381
2022-12-15 14:21:41.939928
2022-12-15 14:21:41.972613
2022-12-15 14:21:41.972907
2022-12-15 14:21:41.973453
2022-12-15 14:21:42.006071
2022-12-15 14:21:42.006418
2022-12-15 14:21:42.039580
2022-12-15 14:21:42.039817
2022-12-15 14:21:42.040410
2022-12-15 14:21:42.073315
2022-12-15 14:21:42.073636
2022-12-15 14:21:42.074139
2022-12-15 14:21:42.106680
2022-12-15 14:21:42.107066
2022-12-15 14:21:42.140239
2022-12-15 14:21:42.140631
2022-12-15 14:21:42.141634
2022-12-15 14:21:42.172419
2022-12-15 14:21:42.173430
2022-12-15 14:21:42.173430
2022-12-15 14:21:42.206573
2022-12-15 14:21:42.207218
2022-12-15 14:21:42.240719
2022-12-15 14:21:42.240956
2022-12-15 14:21:42.241545
2022-12-15 14:21:42.274453
2022-12-15 14:21:42.274786
2022-12-15 14:21:42.275374
2022-12-15 14:21:42.307908
2022-12-15 14:21:42.308294
2022-12-15 14:21:42.341494
2022-12-15 14:21:42.341736
2022-12-15 14:21:42.342286
2022-12-15 14:21:42.374821
2022-12-15 14:21:42.374821
2022-12-15 14:21:42.375823
2022-12-15 14:21:42.408055
2022-12-15 14:21:42.409082
2022-12-15 14:21:42.441383
2022-12-15 14:21:42.441383
2022-12-15 14:21:42.442380
2022-12-15 14:21:42.475445
2022-12-15 14:21:42.475738
2022-12-15 14:21:42.476331
2022-12-15 14:21:42.509080
2022-12-15 14:21:42.509430
2022-12-15 14:21:42.542651
2022-12-15 14:21:42.542894
2022-12-15 14:21:42.543444
2022-12-15 14:21:42.576295
2022-12-15 14:21:42.576631
2022-12-15 14:21:42.577094
2022-12-15 14:21:42.609693
2022-12-15 14:21:42.610042
2022-12-15 14:21:42.643110
2022-12-15 14:21:42.643863
2022-12-15 14:21:42.643863
2022-12-15 14:21:42.676201
2022-12-15 14:21:42.676201
2022-12-15 14:21:42.677232
2022-12-15 14:21:42.709218
2022-12-15 14:21:42.710224
2022-12-15 14:21:42.743154
2022-12-15 14:21:42.743481
2022-12-15 14:21:42.743938
2022-12-15 14:21:42.777340
2022-12-15 14:21:42.777676
2022-12-15 14:21:42.778223
2022-12-15 14:21:42.810706
2022-12-15 14:21:42.811056
2022-12-15 14:21:42.844442
2022-12-15 14:21:42.844684
2022-12-15 14:21:42.845274
2022-12-15 14:21:42.877707
2022-12-15 14:21:42.878002
2022-12-15 14:21:42.878465
2022-12-15 14:21:42.911642
2022-12-15 14:21:42.912089
2022-12-15 14:21:42.944881
2022-12-15 14:21:42.945574
2022-12-15 14:21:42.945574
2022-12-15 14:21:42.977856
2022-12-15 14:21:42.977856
2022-12-15 14:21:42.978857
2022-12-15 14:21:43.011861
2022-12-15 14:21:43.012209
2022-12-15 14:21:43.045560
2022-12-15 14:21:43.045829
2022-12-15 14:21:43.046468
2022-12-15 14:21:43.079087
2022-12-15 14:21:43.079408
2022-12-15 14:21:43.080410
2022-12-15 14:21:43.112707
2022-12-15 14:21:43.113084
2022-12-15 14:21:43.146189
2022-12-15 14:21:43.146459
2022-12-15 14:21:43.146459
2022-12-15 14:21:43.179624
2022-12-15 14:21:43.180376
2022-12-15 14:21:43.180376
2022-12-15 14:21:43.213169
2022-12-15 14:21:43.213169
2022-12-15 14:21:43.245688
2022-12-15 14:21:43.246689
2022-12-15 14:21:43.246689
2022-12-15 14:21:43.280183
2022-12-15 14:21:43.280183
2022-12-15 14:21:43.281184
2022-12-15 14:21:43.313570
2022-12-15 14:21:43.314095
2022-12-15 14:21:43.347162
2022-12-15 14:21:43.347587
2022-12-15 14:21:43.347587
2022-12-15 14:21:43.379993
2022-12-15 14:21:43.380943
2022-12-15 14:21:43.380943
2022-12-15 14:21:43.414463
2022-12-15 14:21:43.414463
2022-12-15 14:21:43.447970
2022-12-15 14:21:43.448183
2022-12-15 14:21:43.448769
2022-12-15 14:21:43.481520
2022-12-15 14:21:43.481520
2022-12-15 14:21:43.482526
2022-12-15 14:21:43.514464
2022-12-15 14:21:43.514464
2022-12-15 14:21:43.548051
2022-12-15 14:21:43.548051
2022-12-15 14:21:43.549059
2022-12-15 14:21:43.581854
2022-12-15 14:21:43.582471
2022-12-15 14:21:43.582471
2022-12-15 14:21:43.615032
2022-12-15 14:21:43.615385
2022-12-15 14:21:43.648820
2022-12-15 14:21:43.648820
2022-12-15 14:21:43.649828
2022-12-15 14:21:43.681932
2022-12-15 14:21:43.681932
2022-12-15 14:21:43.682931
2022-12-15 14:21:43.716159
2022-12-15 14:21:43.716669
2022-12-15 14:21:43.749576
2022-12-15 14:21:43.749576
2022-12-15 14:21:43.750634
2022-12-15 14:21:43.783096
2022-12-15 14:21:43.783483
2022-12-15 14:21:43.783997
2022-12-15 14:21:43.816514
2022-12-15 14:21:43.817419
2022-12-15 14:21:43.849238
2022-12-15 14:21:43.850239
2022-12-15 14:21:43.850239
2022-12-15 14:21:43.883272
2022-12-15 14:21:43.884276
2022-12-15 14:21:43.884276
2022-12-15 14:21:43.916664
2022-12-15 14:21:43.917667
2022-12-15 14:21:43.950168
2022-12-15 14:21:43.951170
2022-12-15 14:21:43.951170
2022-12-15 14:21:43.984261
2022-12-15 14:21:43.984596
2022-12-15 14:21:43.985182
2022-12-15 14:21:44.017743
2022-12-15 14:21:44.018096
2022-12-15 14:21:44.051287
2022-12-15 14:21:44.051553
2022-12-15 14:21:44.051553
2022-12-15 14:21:44.084668
2022-12-15 14:21:44.085448
2022-12-15 14:21:44.085448
2022-12-15 14:21:44.117803
2022-12-15 14:21:44.118806
2022-12-15 14:21:44.151625
2022-12-15 14:21:44.151949
2022-12-15 14:21:44.152399
2022-12-15 14:21:44.185124
2022-12-15 14:21:44.185497
2022-12-15 14:21:44.185955
2022-12-15 14:21:44.218554
2022-12-15 14:21:44.218975
2022-12-15 14:21:44.252510
2022-12-15 14:21:44.252757
2022-12-15 14:21:44.253225
2022-12-15 14:21:44.286011
2022-12-15 14:21:44.286306
2022-12-15 14:21:44.286890
2022-12-15 14:21:44.319582
2022-12-15 14:21:44.319934
2022-12-15 14:21:44.352588
2022-12-15 14:21:44.353614
2022-12-15 14:21:44.353614
2022-12-15 14:21:44.386618
2022-12-15 14:21:44.386914
2022-12-15 14:21:44.386914
2022-12-15 14:21:44.420284
2022-12-15 14:21:44.420634
2022-12-15 14:21:44.453651
2022-12-15 14:21:44.453651
2022-12-15 14:21:44.454542
2022-12-15 14:21:44.487373
2022-12-15 14:21:44.487669
2022-12-15 14:21:44.487669
2022-12-15 14:21:44.520749
2022-12-15 14:21:44.521097
2022-12-15 14:21:44.554357
2022-12-15 14:21:44.554597
2022-12-15 14:21:44.555061
2022-12-15 14:21:44.588067
2022-12-15 14:21:44.588389
2022-12-15 14:21:44.589392
2022-12-15 14:21:44.621490
2022-12-15 14:21:44.622106
2022-12-15 14:21:44.654785
2022-12-15 14:21:44.654785
2022-12-15 14:21:44.655791
2022-12-15 14:21:44.687096
2022-12-15 14:21:44.688172
2022-12-15 14:21:44.688575
2022-12-15 14:21:44.722092
2022-12-15 14:21:44.722445
2022-12-15 14:21:44.755642
2022-12-15 14:21:44.755884
2022-12-15 14:21:44.756480
2022-12-15 14:21:44.789207
2022-12-15 14:21:44.789500
2022-12-15 14:21:44.789500
2022-12-15 14:21:44.822602
2022-12-15 14:21:44.822955
2022-12-15 14:21:44.856199
2022-12-15 14:21:44.856491
2022-12-15 14:21:44.857099
2022-12-15 14:21:44.889823
2022-12-15 14:21:44.890150
2022-12-15 14:21:44.890150
2022-12-15 14:21:44.923411
2022-12-15 14:21:44.923411
2022-12-15 14:21:44.956708
2022-12-15 14:21:44.957494
2022-12-15 14:21:44.957494
2022-12-15 14:21:44.989325
2022-12-15 14:21:44.990334
2022-12-15 14:21:44.990334
2022-12-15 14:21:45.023356
2022-12-15 14:21:45.023674
2022-12-15 14:21:45.057427
2022-12-15 14:21:45.057723
2022-12-15 14:21:45.058309
2022-12-15 14:21:45.090841
2022-12-15 14:21:45.090841
2022-12-15 14:21:45.091844
2022-12-15 14:21:45.124313
2022-12-15 14:21:45.124313
2022-12-15 14:21:45.157993
2022-12-15 14:21:45.157993
2022-12-15 14:21:45.158913
2022-12-15 14:21:45.191245
2022-12-15 14:21:45.191245
2022-12-15 14:21:45.192263
2022-12-15 14:21:45.224549
2022-12-15 14:21:45.224549
2022-12-15 14:21:45.258347
2022-12-15 14:21:45.259346
2022-12-15 14:21:45.259639
2022-12-15 14:21:45.291351
2022-12-15 14:21:45.292343
2022-12-15 14:21:45.292343
2022-12-15 14:21:45.325483
2022-12-15 14:21:45.325868
2022-12-15 14:21:45.358981
2022-12-15 14:21:45.359222
2022-12-15 14:21:45.359773
2022-12-15 14:21:45.392499
2022-12-15 14:21:45.392795
2022-12-15 14:21:45.392795
2022-12-15 14:21:45.426106
2022-12-15 14:21:45.426456
2022-12-15 14:21:45.459648
2022-12-15 14:21:45.459888
2022-12-15 14:21:45.460481
2022-12-15 14:21:45.493093
2022-12-15 14:21:45.493093
2022-12-15 14:21:45.494093
2022-12-15 14:21:45.525703
2022-12-15 14:21:45.526705
2022-12-15 14:21:45.559837
2022-12-15 14:21:45.560060
2022-12-15 14:21:45.560519
2022-12-15 14:21:45.593786
2022-12-15 14:21:45.593786
2022-12-15 14:21:45.594788
2022-12-15 14:21:45.627424
2022-12-15 14:21:45.627772
2022-12-15 14:21:45.660980
2022-12-15 14:21:45.661218
2022-12-15 14:21:45.661811
2022-12-15 14:21:45.694424
2022-12-15 14:21:45.694786
2022-12-15 14:21:45.694786
2022-12-15 14:21:45.728126
2022-12-15 14:21:45.728517
2022-12-15 14:21:45.761279
2022-12-15 14:21:45.761279
2022-12-15 14:21:45.762264
2022-12-15 14:21:45.794106
2022-12-15 14:21:45.795114
2022-12-15 14:21:45.795114
2022-12-15 14:21:45.828035
2022-12-15 14:21:45.828459
2022-12-15 14:21:45.862143
2022-12-15 14:21:45.862382
2022-12-15 14:21:45.862979
2022-12-15 14:21:45.895720
2022-12-15 14:21:45.896017
2022-12-15 14:21:45.896017
2022-12-15 14:21:45.929288
2022-12-15 14:21:45.929641
2022-12-15 14:21:45.962701
2022-12-15 14:21:45.962941
2022-12-15 14:21:45.963408
2022-12-15 14:21:45.996255
2022-12-15 14:21:45.996890
2022-12-15 14:21:45.996890
2022-12-15 14:21:46.029707
2022-12-15 14:21:46.029707
2022-12-15 14:21:46.062578
2022-12-15 14:21:46.063586
2022-12-15 14:21:46.063586
2022-12-15 14:21:46.096117
2022-12-15 14:21:46.096117
2022-12-15 14:21:46.097067
2022-12-15 14:21:46.129612
2022-12-15 14:21:46.129612
2022-12-15 14:21:46.163255
2022-12-15 14:21:46.163255
2022-12-15 14:21:46.164234
2022-12-15 14:21:46.197433
2022-12-15 14:21:46.197433
2022-12-15 14:21:46.198439
2022-12-15 14:21:46.231044
2022-12-15 14:21:46.231044
2022-12-15 14:21:46.263769
2022-12-15 14:21:46.263769
2022-12-15 14:21:46.264805
2022-12-15 14:21:46.297817
2022-12-15 14:21:46.297817
2022-12-15 14:21:46.298843
2022-12-15 14:21:46.331022
2022-12-15 14:21:46.331022
2022-12-15 14:21:46.365091
2022-12-15 14:21:46.365330
2022-12-15 14:21:46.365881
2022-12-15 14:21:46.398201
2022-12-15 14:21:46.398201
2022-12-15 14:21:46.399243
2022-12-15 14:21:46.431941
2022-12-15 14:21:46.432409
2022-12-15 14:21:46.465745
2022-12-15 14:21:46.465745
2022-12-15 14:21:46.466754
2022-12-15 14:21:46.498690
2022-12-15 14:21:46.499088
2022-12-15 14:21:46.499088
2022-12-15 14:21:46.532707
2022-12-15 14:21:46.533105
2022-12-15 14:21:46.565878
2022-12-15 14:21:46.565878
2022-12-15 14:21:46.566964
2022-12-15 14:21:46.598676
2022-12-15 14:21:46.599684
2022-12-15 14:21:46.599684
2022-12-15 14:21:46.632779
2022-12-15 14:21:46.633216
2022-12-15 14:21:46.666705
2022-12-15 14:21:46.667711
2022-12-15 14:21:46.667711
2022-12-15 14:21:46.700342
2022-12-15 14:21:46.700631
2022-12-15 14:21:46.701208
2022-12-15 14:21:46.733764
2022-12-15 14:21:46.734153
2022-12-15 14:21:46.767253
2022-12-15 14:21:46.767253
2022-12-15 14:21:46.768132
2022-12-15 14:21:46.800709
2022-12-15 14:21:46.801139
2022-12-15 14:21:46.801783
2022-12-15 14:21:46.834287
2022-12-15 14:21:46.834287
2022-12-15 14:21:46.867063
2022-12-15 14:21:46.868066
2022-12-15 14:21:46.868066
2022-12-15 14:21:46.901142
2022-12-15 14:21:46.902177
2022-12-15 14:21:46.902177
2022-12-15 14:21:46.934522
2022-12-15 14:21:46.934522
2022-12-15 14:21:46.967833
2022-12-15 14:21:46.967833
2022-12-15 14:21:46.968838
2022-12-15 14:21:47.002068
2022-12-15 14:21:47.002397
2022-12-15 14:21:47.002990
2022-12-15 14:21:47.035561
2022-12-15 14:21:47.035909
2022-12-15 14:21:47.069129
2022-12-15 14:21:47.069369
2022-12-15 14:21:47.069917
2022-12-15 14:21:47.102462
2022-12-15 14:21:47.103375
2022-12-15 14:21:47.103745
2022-12-15 14:21:47.136158
2022-12-15 14:21:47.136504
2022-12-15 14:21:47.169451
2022-12-15 14:21:47.169773
2022-12-15 14:21:47.169773
2022-12-15 14:21:47.202877
2022-12-15 14:21:47.203146
2022-12-15 14:21:47.203601
2022-12-15 14:21:47.236338
2022-12-15 14:21:47.236765
2022-12-15 14:21:47.270337
2022-12-15 14:21:47.270575
2022-12-15 14:21:47.271033
2022-12-15 14:21:47.304034
2022-12-15 14:21:47.304355
2022-12-15 14:21:47.305007
2022-12-15 14:21:47.337592
2022-12-15 14:21:47.337962
2022-12-15 14:21:47.370977
2022-12-15 14:21:47.370977
2022-12-15 14:21:47.372019
2022-12-15 14:21:47.403351
2022-12-15 14:21:47.404351
2022-12-15 14:21:47.404351
2022-12-15 14:21:47.437169
2022-12-15 14:21:47.438167
2022-12-15 14:21:47.471505
2022-12-15 14:21:47.471742
2022-12-15 14:21:47.472331
2022-12-15 14:21:47.505151
2022-12-15 14:21:47.505441
2022-12-15 14:21:47.506023
2022-12-15 14:21:47.538578
2022-12-15 14:21:47.538925
2022-12-15 14:21:47.572348
2022-12-15 14:21:47.572625
2022-12-15 14:21:47.573213
2022-12-15 14:21:47.605792
2022-12-15 14:21:47.606110
2022-12-15 14:21:47.606110
2022-12-15 14:21:47.639220
2022-12-15 14:21:47.639778
2022-12-15 14:21:47.671477
2022-12-15 14:21:47.672486
2022-12-15 14:21:47.672486
2022-12-15 14:21:47.705947
2022-12-15 14:21:47.706256
2022-12-15 14:21:47.706668
2022-12-15 14:21:47.739799
2022-12-15 14:21:47.740143
2022-12-15 14:21:47.773521
2022-12-15 14:21:47.773785
2022-12-15 14:21:47.773785
2022-12-15 14:21:47.806866
2022-12-15 14:21:47.807162
2022-12-15 14:21:47.807624
2022-12-15 14:21:47.840449
2022-12-15 14:21:47.840803
2022-12-15 14:21:47.874144
2022-12-15 14:21:47.874412
2022-12-15 14:21:47.874412
2022-12-15 14:21:47.907549
2022-12-15 14:21:47.907549
2022-12-15 14:21:47.908590
2022-12-15 14:21:47.940452
2022-12-15 14:21:47.941460
2022-12-15 14:21:47.974200
2022-12-15 14:21:47.974200
2022-12-15 14:21:47.975153
2022-12-15 14:21:48.007970
2022-12-15 14:21:48.008264
2022-12-15 14:21:48.008808
2022-12-15 14:21:48.041805
2022-12-15 14:21:48.042192
2022-12-15 14:21:48.075202
2022-12-15 14:21:48.075441
2022-12-15 14:21:48.075903
2022-12-15 14:21:48.108735
2022-12-15 14:21:48.109070
2022-12-15 14:21:48.109070
2022-12-15 14:21:48.142411
2022-12-15 14:21:48.142782
2022-12-15 14:21:48.175578
2022-12-15 14:21:48.176587
2022-12-15 14:21:48.176923
2022-12-15 14:21:48.208241
2022-12-15 14:21:48.209250
2022-12-15 14:21:48.209250
2022-12-15 14:21:48.242666
2022-12-15 14:21:48.243008
2022-12-15 14:21:48.276333
2022-12-15 14:21:48.276570
2022-12-15 14:21:48.277111
2022-12-15 14:21:48.309890
2022-12-15 14:21:48.310184
2022-12-15 14:21:48.310184
2022-12-15 14:21:48.343458
2022-12-15 14:21:48.343807
2022-12-15 14:21:48.377012
2022-12-15 14:21:48.377290
2022-12-15 14:21:48.377881
2022-12-15 14:21:48.410552
2022-12-15 14:21:48.410552
2022-12-15 14:21:48.411554
2022-12-15 14:21:48.443160
2022-12-15 14:21:48.444169
2022-12-15 14:21:48.477144
2022-12-15 14:21:48.477520
2022-12-15 14:21:48.477972
2022-12-15 14:21:48.511010
2022-12-15 14:21:48.511305
2022-12-15 14:21:48.511305
2022-12-15 14:21:48.544649
2022-12-15 14:21:48.544997
2022-12-15 14:21:48.578226
2022-12-15 14:21:48.578464
2022-12-15 14:21:48.579056
2022-12-15 14:21:48.611865
2022-12-15 14:21:48.612197
2022-12-15 14:21:48.612663
2022-12-15 14:21:48.645428
2022-12-15 14:21:48.645816
2022-12-15 14:21:48.678763
2022-12-15 14:21:48.679046
2022-12-15 14:21:48.679046
2022-12-15 14:21:48.712189
2022-12-15 14:21:48.712874
2022-12-15 14:21:48.713878
2022-12-15 14:21:48.745777
2022-12-15 14:21:48.745777
2022-12-15 14:21:48.779222
2022-12-15 14:21:48.779491
2022-12-15 14:21:48.780139
2022-12-15 14:21:48.812813
2022-12-15 14:21:48.813134
2022-12-15 14:21:48.813785
2022-12-15 14:21:48.846385
2022-12-15 14:21:48.846732
2022-12-15 14:21:48.879916
2022-12-15 14:21:48.880159
2022-12-15 14:21:48.880748
2022-12-15 14:21:48.913544
2022-12-15 14:21:48.913867
2022-12-15 14:21:48.914413
2022-12-15 14:21:48.947050
2022-12-15 14:21:48.947447
2022-12-15 14:21:48.980472
2022-12-15 14:21:48.980472
2022-12-15 14:21:48.981474
2022-12-15 14:21:49.013557
2022-12-15 14:21:49.013557
2022-12-15 14:21:49.014585
2022-12-15 14:21:49.046645
2022-12-15 14:21:49.047641
2022-12-15 14:21:49.080957
2022-12-15 14:21:49.081197
2022-12-15 14:21:49.081749
2022-12-15 14:21:49.114572
2022-12-15 14:21:49.114572
2022-12-15 14:21:49.115592
2022-12-15 14:21:49.148140
2022-12-15 14:21:49.148140
2022-12-15 14:21:49.181699
2022-12-15 14:21:49.181699
2022-12-15 14:21:49.182701
2022-12-15 14:21:49.215174
2022-12-15 14:21:49.215678
2022-12-15 14:21:49.216077
2022-12-15 14:21:49.248723
2022-12-15 14:21:49.249342
2022-12-15 14:21:49.282254
2022-12-15 14:21:49.282682
2022-12-15 14:21:49.282682
2022-12-15 14:21:49.314903
2022-12-15 14:21:49.315904
2022-12-15 14:21:49.315904
2022-12-15 14:21:49.349130
2022-12-15 14:21:49.349270
2022-12-15 14:21:49.382343
2022-12-15 14:21:49.382343
2022-12-15 14:21:49.383373
2022-12-15 14:21:49.416292
2022-12-15 14:21:49.416674
2022-12-15 14:21:49.416674
2022-12-15 14:21:49.449855
2022-12-15 14:21:49.449855
2022-12-15 14:21:49.482963
2022-12-15 14:21:49.483267
2022-12-15 14:21:49.483267
2022-12-15 14:21:49.516867
2022-12-15 14:21:49.516867
2022-12-15 14:21:49.517955
2022-12-15 14:21:49.550135
2022-12-15 14:21:49.550135
2022-12-15 14:21:49.583388
2022-12-15 14:21:49.583388
2022-12-15 14:21:49.584395
2022-12-15 14:21:49.616343
2022-12-15 14:21:49.617360
2022-12-15 14:21:49.617793
2022-12-15 14:21:49.650669
2022-12-15 14:21:49.651287
2022-12-15 14:21:49.684542
2022-12-15 14:21:49.684781
2022-12-15 14:21:49.685781
2022-12-15 14:21:49.718148
2022-12-15 14:21:49.718442
2022-12-15 14:21:49.719012
2022-12-15 14:21:49.751610
2022-12-15 14:21:49.752050
2022-12-15 14:21:49.785091
2022-12-15 14:21:49.785425
2022-12-15 14:21:49.785926
2022-12-15 14:21:49.818722
2022-12-15 14:21:49.819041
2022-12-15 14:21:49.819682
2022-12-15 14:21:49.852246
2022-12-15 14:21:49.852623
2022-12-15 14:21:49.885620
2022-12-15 14:21:49.886659
2022-12-15 14:21:49.886659
2022-12-15 14:21:49.918515
2022-12-15 14:21:49.919512
2022-12-15 14:21:49.919512
2022-12-15 14:21:49.952341
2022-12-15 14:21:49.953343
2022-12-15 14:21:49.985734
2022-12-15 14:21:49.985734
2022-12-15 14:21:49.986735
2022-12-15 14:21:50.019037
2022-12-15 14:21:50.020039
2022-12-15 14:21:50.020039
2022-12-15 14:21:50.053237
2022-12-15 14:21:50.053237
2022-12-15 14:21:50.086550
2022-12-15 14:21:50.086550
2022-12-15 14:21:50.087552
2022-12-15 14:21:50.120053
2022-12-15 14:21:50.120345
2022-12-15 14:21:50.120345
2022-12-15 14:21:50.154020
2022-12-15 14:21:50.154369
2022-12-15 14:21:50.187211
2022-12-15 14:21:50.187772
2022-12-15 14:21:50.187772
2022-12-15 14:21:50.220978
2022-12-15 14:21:50.221271
2022-12-15 14:21:50.221851
2022-12-15 14:21:50.254574
2022-12-15 14:21:50.254917
2022-12-15 14:21:50.288221
2022-12-15 14:21:50.288459
2022-12-15 14:21:50.289051
2022-12-15 14:21:50.321599
2022-12-15 14:21:50.321896
2022-12-15 14:21:50.322449
2022-12-15 14:21:50.355191
2022-12-15 14:21:50.355565
2022-12-15 14:21:50.388779
2022-12-15 14:21:50.389043
2022-12-15 14:21:50.389684
2022-12-15 14:21:50.422418
2022-12-15 14:21:50.422741
2022-12-15 14:21:50.422741
2022-12-15 14:21:50.455770
2022-12-15 14:21:50.456627
2022-12-15 14:21:50.488344
2022-12-15 14:21:50.489354
2022-12-15 14:21:50.489354
2022-12-15 14:21:50.522895
2022-12-15 14:21:50.523186
2022-12-15 14:21:50.523769
2022-12-15 14:21:50.556539
2022-12-15 14:21:50.556885
2022-12-15 14:21:50.590053
2022-12-15 14:21:50.590294
2022-12-15 14:21:50.590893
2022-12-15 14:21:50.623483
2022-12-15 14:21:50.623777
2022-12-15 14:21:50.624286
2022-12-15 14:21:50.657086
2022-12-15 14:21:50.657477
2022-12-15 14:21:50.690586
2022-12-15 14:21:50.690865
2022-12-15 14:21:50.691325
2022-12-15 14:21:50.724154
2022-12-15 14:21:50.724154
2022-12-15 14:21:50.725175
2022-12-15 14:21:50.757642
2022-12-15 14:21:50.758644
2022-12-15 14:21:50.790123
2022-12-15 14:21:50.791116
2022-12-15 14:21:50.791116
2022-12-15 14:21:50.824622
2022-12-15 14:21:50.824916
2022-12-15 14:21:50.825457
2022-12-15 14:21:50.858238
2022-12-15 14:21:50.858586
2022-12-15 14:21:50.891707
2022-12-15 14:21:50.891948
2022-12-15 14:21:50.892539
2022-12-15 14:21:50.925338
2022-12-15 14:21:50.925633
2022-12-15 14:21:50.926095
2022-12-15 14:21:50.958870
2022-12-15 14:21:50.959267
2022-12-15 14:21:50.992552
2022-12-15 14:21:50.992842
2022-12-15 14:21:50.993305
2022-12-15 14:21:51.026022
2022-12-15 14:21:51.026022
2022-12-15 14:21:51.027024
2022-12-15 14:21:51.059508
2022-12-15 14:21:51.059508
2022-12-15 14:21:51.092208
2022-12-15 14:21:51.092208
2022-12-15 14:21:51.093209
2022-12-15 14:21:51.126066
2022-12-15 14:21:51.126437
2022-12-15 14:21:51.126884
2022-12-15 14:21:51.160080
2022-12-15 14:21:51.160426
2022-12-15 14:21:51.193645
2022-12-15 14:21:51.193884
2022-12-15 14:21:51.194514
2022-12-15 14:21:51.227200
2022-12-15 14:21:51.227493
2022-12-15 14:21:51.227493
2022-12-15 14:21:51.260654
2022-12-15 14:21:51.261004
2022-12-15 14:21:51.294293
2022-12-15 14:21:51.294532
2022-12-15 14:21:51.295077
2022-12-15 14:21:51.327748
2022-12-15 14:21:51.328072
2022-12-15 14:21:51.328569
2022-12-15 14:21:51.361266
2022-12-15 14:21:51.361266
2022-12-15 14:21:51.393719
2022-12-15 14:21:51.394715
2022-12-15 14:21:51.394715
2022-12-15 14:21:51.428288
2022-12-15 14:21:51.428581
2022-12-15 14:21:51.429126
2022-12-15 14:21:51.461791
2022-12-15 14:21:51.462136
2022-12-15 14:21:51.494267
2022-12-15 14:21:51.495263
2022-12-15 14:21:51.495263
2022-12-15 14:21:51.528902
2022-12-15 14:21:51.529242
2022-12-15 14:21:51.529703
2022-12-15 14:21:51.562556
2022-12-15 14:21:51.562903
2022-12-15 14:21:51.595969
2022-12-15 14:21:51.596265
2022-12-15 14:21:51.596265
2022-12-15 14:21:51.629400
2022-12-15 14:21:51.629400
2022-12-15 14:21:51.630440
2022-12-15 14:21:51.662398
2022-12-15 14:21:51.663408
2022-12-15 14:21:51.696422
2022-12-15 14:21:51.696689
2022-12-15 14:21:51.697344
2022-12-15 14:21:51.730075
2022-12-15 14:21:51.730392
2022-12-15 14:21:51.731026
2022-12-15 14:21:51.763685
2022-12-15 14:21:51.764057
2022-12-15 14:21:51.797139
2022-12-15 14:21:51.797378
2022-12-15 14:21:51.797842
2022-12-15 14:21:51.830708
2022-12-15 14:21:51.831057
2022-12-15 14:21:51.831673
2022-12-15 14:21:51.864279
2022-12-15 14:21:51.864279
2022-12-15 14:21:51.897645
2022-12-15 14:21:51.898655
2022-12-15 14:21:51.898888
2022-12-15 14:21:51.930911
2022-12-15 14:21:51.930911
2022-12-15 14:21:51.930911
2022-12-15 14:21:51.964581
2022-12-15 14:21:51.964931
2022-12-15 14:21:51.998321
2022-12-15 14:21:51.998560
2022-12-15 14:21:51.998560
2022-12-15 14:21:52.031825
2022-12-15 14:21:52.032157
2022-12-15 14:21:52.032157
2022-12-15 14:21:52.065350
2022-12-15 14:21:52.065732
2022-12-15 14:21:52.099003
2022-12-15 14:21:52.099734
2022-12-15 14:21:52.099734
2022-12-15 14:21:52.132568
2022-12-15 14:21:52.133362
2022-12-15 14:21:52.133362
2022-12-15 14:21:52.165676
2022-12-15 14:21:52.166571
2022-12-15 14:21:52.199105
2022-12-15 14:21:52.199105
2022-12-15 14:21:52.200114
2022-12-15 14:21:52.232440
2022-12-15 14:21:52.232440
2022-12-15 14:21:52.233440
2022-12-15 14:21:52.266426
2022-12-15 14:21:52.266426
2022-12-15 14:21:52.299113
2022-12-15 14:21:52.299113
2022-12-15 14:21:52.300110
2022-12-15 14:21:52.332459
2022-12-15 14:21:52.333457
2022-12-15 14:21:52.333457
2022-12-15 14:21:52.366160
2022-12-15 14:21:52.367156
2022-12-15 14:21:52.400359
2022-12-15 14:21:52.400719
2022-12-15 14:21:52.400719
2022-12-15 14:21:52.433609
2022-12-15 14:21:52.433609
2022-12-15 14:21:52.434645
2022-12-15 14:21:52.467728
2022-12-15 14:21:52.468735
2022-12-15 14:21:52.500810
2022-12-15 14:21:52.500810
2022-12-15 14:21:52.501816
2022-12-15 14:21:52.534280
2022-12-15 14:21:52.534280
2022-12-15 14:21:52.535277
2022-12-15 14:21:52.568014
2022-12-15 14:21:52.568630
2022-12-15 14:21:52.601682
2022-12-15 14:21:52.601922
2022-12-15 14:21:52.601922
2022-12-15 14:21:52.635290
2022-12-15 14:21:52.635583
2022-12-15 14:21:52.636128
2022-12-15 14:21:52.668924
2022-12-15 14:21:52.669295
2022-12-15 14:21:52.702445
2022-12-15 14:21:52.702682
2022-12-15 14:21:52.702682
2022-12-15 14:21:52.735996
2022-12-15 14:21:52.736289
2022-12-15 14:21:52.736769
2022-12-15 14:21:52.769577
2022-12-15 14:21:52.770084
2022-12-15 14:21:52.802964
2022-12-15 14:21:52.802964
2022-12-15 14:21:52.803812
2022-12-15 14:21:52.835246
2022-12-15 14:21:52.836247
2022-12-15 14:21:52.836247
2022-12-15 14:21:52.869269
2022-12-15 14:21:52.870266
2022-12-15 14:21:52.902596
2022-12-15 14:21:52.903555
2022-12-15 14:21:52.903555
2022-12-15 14:21:52.936526
2022-12-15 14:21:52.936526
2022-12-15 14:21:52.937514
2022-12-15 14:21:52.969469
2022-12-15 14:21:52.970424
2022-12-15 14:21:53.002789
2022-12-15 14:21:53.003789
2022-12-15 14:21:53.003789
2022-12-15 14:21:53.037178
2022-12-15 14:21:53.037178
2022-12-15 14:21:53.037178
2022-12-15 14:21:53.071104
2022-12-15 14:21:53.072102
2022-12-15 14:21:53.104665
2022-12-15 14:21:53.104907
2022-12-15 14:21:53.105493
2022-12-15 14:21:53.137875
2022-12-15 14:21:53.138070
2022-12-15 14:21:53.138571
2022-12-15 14:21:53.171378
2022-12-15 14:21:53.171378
2022-12-15 14:21:53.205005
2022-12-15 14:21:53.205205
2022-12-15 14:21:53.205205
2022-12-15 14:21:53.238540
2022-12-15 14:21:53.238913
2022-12-15 14:21:53.239376
2022-12-15 14:21:53.272377
2022-12-15 14:21:53.272750
2022-12-15 14:21:53.305983
2022-12-15 14:21:53.306263
2022-12-15 14:21:53.306263
2022-12-15 14:21:53.339413
2022-12-15 14:21:53.339986
2022-12-15 14:21:53.339986
2022-12-15 14:21:53.372911
2022-12-15 14:21:53.373255
2022-12-15 14:21:53.405434
2022-12-15 14:21:53.406430
2022-12-15 14:21:53.406430
2022-12-15 14:21:53.440113
2022-12-15 14:21:53.440404
2022-12-15 14:21:53.440948
2022-12-15 14:21:53.473612
2022-12-15 14:21:53.473954
2022-12-15 14:21:53.507191
2022-12-15 14:21:53.507430
2022-12-15 14:21:53.507430
2022-12-15 14:21:53.540674
2022-12-15 14:21:53.540968
2022-12-15 14:21:53.541482
2022-12-15 14:21:53.574143
2022-12-15 14:21:53.574143
2022-12-15 14:21:53.607637
2022-12-15 14:21:53.607637
2022-12-15 14:21:53.608639
2022-12-15 14:21:53.640559
2022-12-15 14:21:53.641584
2022-12-15 14:21:53.641843
2022-12-15 14:21:53.674715
2022-12-15 14:21:53.675060
2022-12-15 14:21:53.708371
2022-12-15 14:21:53.708610
2022-12-15 14:21:53.708610
2022-12-15 14:21:53.741992
2022-12-15 14:21:53.742285
2022-12-15 14:21:53.742862
2022-12-15 14:21:53.775389
2022-12-15 14:21:53.775733
2022-12-15 14:21:53.809002
2022-12-15 14:21:53.809245
2022-12-15 14:21:53.809245
2022-12-15 14:21:53.842543
2022-12-15 14:21:53.842894
2022-12-15 14:21:53.842894
2022-12-15 14:21:53.875947
2022-12-15 14:21:53.876523
2022-12-15 14:21:53.908400
2022-12-15 14:21:53.909407
2022-12-15 14:21:53.909407
2022-12-15 14:21:53.943032
2022-12-15 14:21:53.943350
2022-12-15 14:21:53.944002
2022-12-15 14:21:53.976602
2022-12-15 14:21:53.976946
2022-12-15 14:21:54.010151
2022-12-15 14:21:54.010390
2022-12-15 14:21:54.010390
2022-12-15 14:21:54.043672
2022-12-15 14:21:54.043965
2022-12-15 14:21:54.044428
2022-12-15 14:21:54.077262
2022-12-15 14:21:54.077634
2022-12-15 14:21:54.110720
2022-12-15 14:21:54.110720
2022-12-15 14:21:54.111723
2022-12-15 14:21:54.143807
2022-12-15 14:21:54.143807
2022-12-15 14:21:54.144814
2022-12-15 14:21:54.177390
2022-12-15 14:21:54.177787
2022-12-15 14:21:54.211379
2022-12-15 14:21:54.211379
2022-12-15 14:21:54.212381
2022-12-15 14:21:54.244842
2022-12-15 14:21:54.245131
2022-12-15 14:21:54.245714
2022-12-15 14:21:54.278629
2022-12-15 14:21:54.279022
2022-12-15 14:21:54.312085
2022-12-15 14:21:54.312324
2022-12-15 14:21:54.312324
2022-12-15 14:21:54.345499
2022-12-15 14:21:54.345847
2022-12-15 14:21:54.345847
2022-12-15 14:21:54.378916
2022-12-15 14:21:54.379754
2022-12-15 14:21:54.411623
2022-12-15 14:21:54.412629
2022-12-15 14:21:54.412880
2022-12-15 14:21:54.445921
2022-12-15 14:21:54.446212
2022-12-15 14:21:54.446795
2022-12-15 14:21:54.479575
2022-12-15 14:21:54.479919
2022-12-15 14:21:54.513139
2022-12-15 14:21:54.513378
2022-12-15 14:21:54.513378
2022-12-15 14:21:54.546718
2022-12-15 14:21:54.547010
2022-12-15 14:21:54.547471
2022-12-15 14:21:54.580349
2022-12-15 14:21:54.580690
2022-12-15 14:21:54.613752
2022-12-15 14:21:54.613752
2022-12-15 14:21:54.614754
2022-12-15 14:21:54.647220
2022-12-15 14:21:54.647994
2022-12-15 14:21:54.647994
2022-12-15 14:21:54.680193
2022-12-15 14:21:54.680193
2022-12-15 14:21:54.713985
2022-12-15 14:21:54.714210
2022-12-15 14:21:54.714707
2022-12-15 14:21:54.747773
2022-12-15 14:21:54.748062
2022-12-15 14:21:54.748640
2022-12-15 14:21:54.781498
2022-12-15 14:21:54.781498
2022-12-15 14:21:54.814984
2022-12-15 14:21:54.814984
2022-12-15 14:21:54.815879
2022-12-15 14:21:54.848505
2022-12-15 14:21:54.848505
2022-12-15 14:21:54.849507
2022-12-15 14:21:54.881882
2022-12-15 14:21:54.881882
2022-12-15 14:21:54.915727
2022-12-15 14:21:54.916734
2022-12-15 14:21:54.916734
2022-12-15 14:21:54.948717
2022-12-15 14:21:54.948717
2022-12-15 14:21:54.949659
2022-12-15 14:21:54.982054
2022-12-15 14:21:54.983097
2022-12-15 14:21:55.015572
2022-12-15 14:21:55.015799
2022-12-15 14:21:55.015799
2022-12-15 14:21:55.049537
2022-12-15 14:21:55.049537
2022-12-15 14:21:55.050538
2022-12-15 14:21:55.083056
2022-12-15 14:21:55.083056
2022-12-15 14:21:55.116566
2022-12-15 14:21:55.116566
2022-12-15 14:21:55.117569
2022-12-15 14:21:55.149918
2022-12-15 14:21:55.149918
2022-12-15 14:21:55.150920
2022-12-15 14:21:55.182683
2022-12-15 14:21:55.183680
2022-12-15 14:21:55.217035
2022-12-15 14:21:55.217836
2022-12-15 14:21:55.217836
2022-12-15 14:21:55.250640
2022-12-15 14:21:55.251314
2022-12-15 14:21:55.251314
2022-12-15 14:21:55.284145
2022-12-15 14:21:55.284540
2022-12-15 14:21:55.317568
2022-12-15 14:21:55.317568
2022-12-15 14:21:55.318318
2022-12-15 14:21:55.351216
2022-12-15 14:21:55.351596
2022-12-15 14:21:55.352256
2022-12-15 14:21:55.384345
2022-12-15 14:21:55.384345
2022-12-15 14:21:55.417799
2022-12-15 14:21:55.418446
2022-12-15 14:21:55.419440
2022-12-15 14:21:55.451497
2022-12-15 14:21:55.451893
2022-12-15 14:21:55.452341
2022-12-15 14:21:55.484878
2022-12-15 14:21:55.485887
2022-12-15 14:21:55.518918
2022-12-15 14:21:55.519155
2022-12-15 14:21:55.519739
2022-12-15 14:21:55.551405
2022-12-15 14:21:55.552386
2022-12-15 14:21:55.552386
2022-12-15 14:21:55.586016
2022-12-15 14:21:55.586364
2022-12-15 14:21:55.619479
2022-12-15 14:21:55.619762
2022-12-15 14:21:55.620408
2022-12-15 14:21:55.653065
2022-12-15 14:21:55.653386
2022-12-15 14:21:55.653888
2022-12-15 14:21:55.686437
2022-12-15 14:21:55.687240
2022-12-15 14:21:55.719437
2022-12-15 14:21:55.719437
2022-12-15 14:21:55.720437
2022-12-15 14:21:55.753426
2022-12-15 14:21:55.753720
2022-12-15 14:21:55.753720
2022-12-15 14:21:55.787338
2022-12-15 14:21:55.787905
2022-12-15 14:21:55.820738
2022-12-15 14:21:55.821189
2022-12-15 14:21:55.821189
2022-12-15 14:21:55.854322
2022-12-15 14:21:55.854704
2022-12-15 14:21:55.855254
2022-12-15 14:21:55.887895
2022-12-15 14:21:55.888419
2022-12-15 14:21:55.921337
2022-12-15 14:21:55.921730
2022-12-15 14:21:55.922278
2022-12-15 14:21:55.954683
2022-12-15 14:21:55.955067
2022-12-15 14:21:55.955528
2022-12-15 14:21:55.988098
2022-12-15 14:21:55.989102
2022-12-15 14:21:56.021277
2022-12-15 14:21:56.021277
2022-12-15 14:21:56.022282
2022-12-15 14:21:56.054734
2022-12-15 14:21:56.055739
2022-12-15 14:21:56.055739
2022-12-15 14:21:56.088059
2022-12-15 14:21:56.089061
2022-12-15 14:21:56.122496
2022-12-15 14:21:56.122737
2022-12-15 14:21:56.122737
2022-12-15 14:21:56.156116
2022-12-15 14:21:56.156414
2022-12-15 14:21:56.156870
2022-12-15 14:21:56.189672
2022-12-15 14:21:56.190056
2022-12-15 14:21:56.223260
2022-12-15 14:21:56.223260
2022-12-15 14:21:56.224261
2022-12-15 14:21:56.256351
2022-12-15 14:21:56.256351
2022-12-15 14:21:56.257382
2022-12-15 14:21:56.289839
2022-12-15 14:21:56.289839
2022-12-15 14:21:56.323693
2022-12-15 14:21:56.323931
2022-12-15 14:21:56.324525
2022-12-15 14:21:56.356897
2022-12-15 14:21:56.357166
2022-12-15 14:21:56.357621
2022-12-15 14:21:56.390722
2022-12-15 14:21:56.391065
2022-12-15 14:21:56.424368
2022-12-15 14:21:56.424608
2022-12-15 14:21:56.425070
2022-12-15 14:21:56.457986
2022-12-15 14:21:56.458320
2022-12-15 14:21:56.458966
2022-12-15 14:21:56.491512
2022-12-15 14:21:56.491512
2022-12-15 14:21:56.524965
2022-12-15 14:21:56.524965
2022-12-15 14:21:56.526019
2022-12-15 14:21:56.557284
2022-12-15 14:21:56.558292
2022-12-15 14:21:56.558292
2022-12-15 14:21:56.592099
2022-12-15 14:21:56.592482
2022-12-15 14:21:56.625664
2022-12-15 14:21:56.625903
2022-12-15 14:21:56.626506
2022-12-15 14:21:56.659174
2022-12-15 14:21:56.659464
2022-12-15 14:21:56.659464
2022-12-15 14:21:56.692642
2022-12-15 14:21:56.692987
2022-12-15 14:21:56.726144
2022-12-15 14:21:56.726383
2022-12-15 14:21:56.726932
2022-12-15 14:21:56.759666
2022-12-15 14:21:56.759957
2022-12-15 14:21:56.760461
2022-12-15 14:21:56.793121
2022-12-15 14:21:56.793121
2022-12-15 14:21:56.826028
2022-12-15 14:21:56.827036
2022-12-15 14:21:56.827371
2022-12-15 14:21:56.860169
2022-12-15 14:21:56.860459
2022-12-15 14:21:56.860996
2022-12-15 14:21:56.893787
2022-12-15 14:21:56.894133
2022-12-15 14:21:56.927351
2022-12-15 14:21:56.927589
2022-12-15 14:21:56.928184
2022-12-15 14:21:56.961011
2022-12-15 14:21:56.961302
2022-12-15 14:21:56.961302
2022-12-15 14:21:56.994421
2022-12-15 14:21:56.994764
2022-12-15 14:21:57.027973
2022-12-15 14:21:57.028212
2022-12-15 14:21:57.028796
2022-12-15 14:21:57.061533
2022-12-15 14:21:57.062100
2022-12-15 14:21:57.062100
2022-12-15 14:21:57.093951
2022-12-15 14:21:57.094976
2022-12-15 14:21:57.128138
2022-12-15 14:21:57.128361
2022-12-15 14:21:57.128815
2022-12-15 14:21:57.162142
2022-12-15 14:21:57.162435
2022-12-15 14:21:57.162979
2022-12-15 14:21:57.195801
2022-12-15 14:21:57.196185
2022-12-15 14:21:57.229178
2022-12-15 14:21:57.229448
2022-12-15 14:21:57.229912
2022-12-15 14:21:57.262664
2022-12-15 14:21:57.263001
2022-12-15 14:21:57.263001
2022-12-15 14:21:57.296358
2022-12-15 14:21:57.296358
2022-12-15 14:21:57.329867
2022-12-15 14:21:57.329867
2022-12-15 14:21:57.330869
2022-12-15 14:21:57.362639
2022-12-15 14:21:57.362639
2022-12-15 14:21:57.363640
2022-12-15 14:21:57.396673
2022-12-15 14:21:57.397059
2022-12-15 14:21:57.430348
2022-12-15 14:21:57.430590
2022-12-15 14:21:57.431173
2022-12-15 14:21:57.463899
2022-12-15 14:21:57.464222
2022-12-15 14:21:57.464765
2022-12-15 14:21:57.497574
2022-12-15 14:21:57.497923
2022-12-15 14:21:57.531100
2022-12-15 14:21:57.531339
2022-12-15 14:21:57.531339
2022-12-15 14:21:57.564419
2022-12-15 14:21:57.564419
2022-12-15 14:21:57.565301
2022-12-15 14:21:57.596964
2022-12-15 14:21:57.597931
2022-12-15 14:21:57.631547
2022-12-15 14:21:57.631818
2022-12-15 14:21:57.632410
2022-12-15 14:21:57.665113
2022-12-15 14:21:57.665404
2022-12-15 14:21:57.665404
2022-12-15 14:21:57.698693
2022-12-15 14:21:57.699036
2022-12-15 14:21:57.732268
2022-12-15 14:21:57.732506
2022-12-15 14:21:57.732964
2022-12-15 14:21:57.765891
2022-12-15 14:21:57.766227
2022-12-15 14:21:57.766227
2022-12-15 14:21:57.799187
2022-12-15 14:21:57.799187
2022-12-15 14:21:57.833074
2022-12-15 14:21:57.833074
2022-12-15 14:21:57.834078
2022-12-15 14:21:57.865019
2022-12-15 14:21:57.866028
2022-12-15 14:21:57.866572
2022-12-15 14:21:57.899694
2022-12-15 14:21:57.900041
2022-12-15 14:21:57.933252
2022-12-15 14:21:57.933492
2022-12-15 14:21:57.933492
2022-12-15 14:21:57.966830
2022-12-15 14:21:57.967121
2022-12-15 14:21:57.967121
2022-12-15 14:21:58.000404
2022-12-15 14:21:58.000750
2022-12-15 14:21:58.033890
2022-12-15 14:21:58.034625
2022-12-15 14:21:58.034851
2022-12-15 14:21:58.067382
2022-12-15 14:21:58.068134
2022-12-15 14:21:58.068134
2022-12-15 14:21:58.100940
2022-12-15 14:21:58.101947
2022-12-15 14:21:58.133898
2022-12-15 14:21:58.133898
2022-12-15 14:21:58.134896
2022-12-15 14:21:58.167804
2022-12-15 14:21:58.168284
2022-12-15 14:21:58.168913
2022-12-15 14:21:58.201736
2022-12-15 14:21:58.202011
2022-12-15 14:21:58.234974
2022-12-15 14:21:58.235371
2022-12-15 14:21:58.235936
2022-12-15 14:21:58.268747
2022-12-15 14:21:58.268747
2022-12-15 14:21:58.269461
2022-12-15 14:21:58.301742
2022-12-15 14:21:58.301742
2022-12-15 14:21:58.335547
2022-12-15 14:21:58.335838
2022-12-15 14:21:58.335838
2022-12-15 14:21:58.368593
2022-12-15 14:21:58.368593
2022-12-15 14:21:58.369599
2022-12-15 14:21:58.401606
2022-12-15 14:21:58.402615
2022-12-15 14:21:58.434899
2022-12-15 14:21:58.435897
2022-12-15 14:21:58.435897
2022-12-15 14:21:58.469653
2022-12-15 14:21:58.469987
2022-12-15 14:21:58.469987
2022-12-15 14:21:58.503265
2022-12-15 14:21:58.503638
2022-12-15 14:21:58.536721
2022-12-15 14:21:58.536962
2022-12-15 14:21:58.536962
2022-12-15 14:21:58.570242
2022-12-15 14:21:58.570532
2022-12-15 14:21:58.571080
2022-12-15 14:21:58.603317
2022-12-15 14:21:58.603317
2022-12-15 14:21:58.636960
2022-12-15 14:21:58.636960
2022-12-15 14:21:58.636960
2022-12-15 14:21:58.670520
2022-12-15 14:21:58.671131
2022-12-15 14:21:58.671131
2022-12-15 14:21:58.704532
2022-12-15 14:21:58.704877
2022-12-15 14:21:58.738176
2022-12-15 14:21:58.738176
2022-12-15 14:21:58.739178
2022-12-15 14:21:58.771494
2022-12-15 14:21:58.771785
2022-12-15 14:21:58.772786
2022-12-15 14:21:58.805151
2022-12-15 14:21:58.805151
2022-12-15 14:21:58.838578
2022-12-15 14:21:58.838877
2022-12-15 14:21:58.838877
2022-12-15 14:21:58.872062
2022-12-15 14:21:58.872390
2022-12-15 14:21:58.872847
2022-12-15 14:21:58.905660
2022-12-15 14:21:58.906006
2022-12-15 14:21:58.939086
2022-12-15 14:21:58.940089
2022-12-15 14:21:58.941084
2022-12-15 14:21:58.972219
2022-12-15 14:21:58.973225
2022-12-15 14:21:58.973225
2022-12-15 14:21:59.005099
2022-12-15 14:21:59.006100
2022-12-15 14:21:59.039199
2022-12-15 14:21:59.039199
2022-12-15 14:21:59.040203
2022-12-15 14:21:59.072611
2022-12-15 14:21:59.073612
2022-12-15 14:21:59.073612
2022-12-15 14:21:59.105887
2022-12-15 14:21:59.106891
2022-12-15 14:21:59.140398
2022-12-15 14:21:59.140636
2022-12-15 14:21:59.141099
2022-12-15 14:21:59.173398
2022-12-15 14:21:59.174392
2022-12-15 14:21:59.174392
2022-12-15 14:21:59.207369
2022-12-15 14:21:59.207369
2022-12-15 14:21:59.240691
2022-12-15 14:21:59.241288
2022-12-15 14:21:59.241288
2022-12-15 14:21:59.274011
2022-12-15 14:21:59.274011
2022-12-15 14:21:59.275008
2022-12-15 14:21:59.307644
2022-12-15 14:21:59.308063
2022-12-15 14:21:59.341049
2022-12-15 14:21:59.341373
2022-12-15 14:21:59.341817
2022-12-15 14:21:59.374710
2022-12-15 14:21:59.374977
2022-12-15 14:21:59.375424
2022-12-15 14:21:59.408496
2022-12-15 14:21:59.408842
2022-12-15 14:21:59.442123
2022-12-15 14:21:59.442364
2022-12-15 14:21:59.442822
2022-12-15 14:21:59.475715
2022-12-15 14:21:59.476056
2022-12-15 14:21:59.476661
2022-12-15 14:21:59.509219
2022-12-15 14:21:59.510058
2022-12-15 14:21:59.541869
2022-12-15 14:21:59.541869
2022-12-15 14:21:59.542897
2022-12-15 14:21:59.576164
2022-12-15 14:21:59.576454
2022-12-15 14:21:59.577101
2022-12-15 14:21:59.609011
2022-12-15 14:21:59.610009
2022-12-15 14:21:59.643438
2022-12-15 14:21:59.643676
2022-12-15 14:21:59.644314
2022-12-15 14:21:59.676862
2022-12-15 14:21:59.677154
2022-12-15 14:21:59.677630
2022-12-15 14:21:59.710597
2022-12-15 14:21:59.711016
2022-12-15 14:21:59.743963
2022-12-15 14:21:59.743963
2022-12-15 14:21:59.744965
2022-12-15 14:21:59.777845
2022-12-15 14:21:59.777845
2022-12-15 14:21:59.778848
2022-12-15 14:21:59.810673
2022-12-15 14:21:59.810673
2022-12-15 14:21:59.843909
2022-12-15 14:21:59.843909
2022-12-15 14:21:59.844823
2022-12-15 14:21:59.877541
2022-12-15 14:21:59.877541
2022-12-15 14:21:59.878531
2022-12-15 14:21:59.911013
2022-12-15 14:21:59.911013
2022-12-15 14:21:59.945050
2022-12-15 14:21:59.945288
2022-12-15 14:21:59.945750
2022-12-15 14:21:59.978545
2022-12-15 14:21:59.978839
2022-12-15 14:21:59.979428
2022-12-15 14:22:00.012202
2022-12-15 14:22:00.012547
2022-12-15 14:22:00.045451
2022-12-15 14:22:00.046207
2022-12-15 14:22:00.046207
2022-12-15 14:22:00.078968
2022-12-15 14:22:00.078968
2022-12-15 14:22:00.078968
2022-12-15 14:22:00.112339
2022-12-15 14:22:00.112670
2022-12-15 14:22:00.146499
2022-12-15 14:22:00.146788
2022-12-15 14:22:00.147341
2022-12-15 14:22:00.179934
2022-12-15 14:22:00.180228
2022-12-15 14:22:00.180811
2022-12-15 14:22:00.213319
2022-12-15 14:22:00.213661
2022-12-15 14:22:00.246879
2022-12-15 14:22:00.247119
2022-12-15 14:22:00.247119
2022-12-15 14:22:00.280583
2022-12-15 14:22:00.280583
2022-12-15 14:22:00.281584
2022-12-15 14:22:00.313990
2022-12-15 14:22:00.314670
2022-12-15 14:22:00.347069
2022-12-15 14:22:00.347283
2022-12-15 14:22:00.347778
2022-12-15 14:22:00.380977
2022-12-15 14:22:00.381325
2022-12-15 14:22:00.381904
2022-12-15 14:22:00.414675
2022-12-15 14:22:00.415021
2022-12-15 14:22:00.448260
2022-12-15 14:22:00.448500
2022-12-15 14:22:00.449095
2022-12-15 14:22:00.481614
2022-12-15 14:22:00.481906
2022-12-15 14:22:00.482360
2022-12-15 14:22:00.515290
2022-12-15 14:22:00.515638
2022-12-15 14:22:00.548595
2022-12-15 14:22:00.548595
2022-12-15 14:22:00.549598
2022-12-15 14:22:00.581085
2022-12-15 14:22:00.582087
2022-12-15 14:22:00.582087
2022-12-15 14:22:00.614721
2022-12-15 14:22:00.615722
2022-12-15 14:22:00.649292
2022-12-15 14:22:00.649530
2022-12-15 14:22:00.650121
2022-12-15 14:22:00.682780
2022-12-15 14:22:00.683070
2022-12-15 14:22:00.683651
2022-12-15 14:22:00.716371
2022-12-15 14:22:00.716371
2022-12-15 14:22:00.750043
2022-12-15 14:22:00.750282
2022-12-15 14:22:00.750745
2022-12-15 14:22:00.783062
2022-12-15 14:22:00.783062
2022-12-15 14:22:00.784115
2022-12-15 14:22:00.816921
2022-12-15 14:22:00.816921
2022-12-15 14:22:00.850572
2022-12-15 14:22:00.850572
2022-12-15 14:22:00.851408
2022-12-15 14:22:00.883012
2022-12-15 14:22:00.884019
2022-12-15 14:22:00.884019
2022-12-15 14:22:00.917095
2022-12-15 14:22:00.917411
2022-12-15 14:22:00.951163
2022-12-15 14:22:00.951400
2022-12-15 14:22:00.951400
2022-12-15 14:22:00.984604
2022-12-15 14:22:00.985372
2022-12-15 14:22:00.985372
2022-12-15 14:22:01.018195
2022-12-15 14:22:01.018977
2022-12-15 14:22:01.051718
2022-12-15 14:22:01.051718
2022-12-15 14:22:01.052512
2022-12-15 14:22:01.085300
2022-12-15 14:22:01.086009
2022-12-15 14:22:01.086009
2022-12-15 14:22:01.118256
2022-12-15 14:22:01.119264
2022-12-15 14:22:01.151528
2022-12-15 14:22:01.151528
2022-12-15 14:22:01.152501
2022-12-15 14:22:01.185801
2022-12-15 14:22:01.186052
2022-12-15 14:22:01.186642
2022-12-15 14:22:01.219322
2022-12-15 14:22:01.219322
2022-12-15 14:22:01.252943
2022-12-15 14:22:01.252943
2022-12-15 14:22:01.253971
2022-12-15 14:22:01.286043
2022-12-15 14:22:01.286043
2022-12-15 14:22:01.287050
2022-12-15 14:22:01.319913
2022-12-15 14:22:01.320258
2022-12-15 14:22:01.353162
2022-12-15 14:22:01.353162
2022-12-15 14:22:01.354171
2022-12-15 14:22:01.386689
2022-12-15 14:22:01.386827
2022-12-15 14:22:01.386827
2022-12-15 14:22:01.420522
2022-12-15 14:22:01.420868
2022-12-15 14:22:01.453520
2022-12-15 14:22:01.453801
2022-12-15 14:22:01.454449
2022-12-15 14:22:01.487603
2022-12-15 14:22:01.487895
2022-12-15 14:22:01.487895
2022-12-15 14:22:01.521133
2022-12-15 14:22:01.521513
2022-12-15 14:22:01.554657
2022-12-15 14:22:01.554898
2022-12-15 14:22:01.555357
2022-12-15 14:22:01.588209
2022-12-15 14:22:01.588540
2022-12-15 14:22:01.589126
2022-12-15 14:22:01.621523
2022-12-15 14:22:01.622053
2022-12-15 14:22:01.654499
2022-12-15 14:22:01.654499
2022-12-15 14:22:01.655494
2022-12-15 14:22:01.688667
2022-12-15 14:22:01.688958
2022-12-15 14:22:01.689538
2022-12-15 14:22:01.722374
2022-12-15 14:22:01.722715
2022-12-15 14:22:01.755745
2022-12-15 14:22:01.755985
2022-12-15 14:22:01.756986
2022-12-15 14:22:01.789500
2022-12-15 14:22:01.789834
2022-12-15 14:22:01.790429
2022-12-15 14:22:01.822573
2022-12-15 14:22:01.822924
2022-12-15 14:22:01.856496
2022-12-15 14:22:01.856496
2022-12-15 14:22:01.857499
2022-12-15 14:22:01.889872
2022-12-15 14:22:01.889872
2022-12-15 14:22:01.890885
2022-12-15 14:22:01.923095
2022-12-15 14:22:01.923542
2022-12-15 14:22:01.956937
2022-12-15 14:22:01.957327
2022-12-15 14:22:01.957327
2022-12-15 14:22:01.990333
2022-12-15 14:22:01.990775
2022-12-15 14:22:01.991353
2022-12-15 14:22:02.023838
2022-12-15 14:22:02.024197
2022-12-15 14:22:02.057201
2022-12-15 14:22:02.057468
2022-12-15 14:22:02.057970
2022-12-15 14:22:02.090785
2022-12-15 14:22:02.091103
2022-12-15 14:22:02.091764
2022-12-15 14:22:02.124723
2022-12-15 14:22:02.125094
2022-12-15 14:22:02.158116
2022-12-15 14:22:02.158116
2022-12-15 14:22:02.159121
2022-12-15 14:22:02.190918
2022-12-15 14:22:02.190918
2022-12-15 14:22:02.191919
2022-12-15 14:22:02.224805
2022-12-15 14:22:02.225269
2022-12-15 14:22:02.258490
2022-12-15 14:22:02.258812
2022-12-15 14:22:02.259270
2022-12-15 14:22:02.292010
2022-12-15 14:22:02.292352
2022-12-15 14:22:02.292799
2022-12-15 14:22:02.325397
2022-12-15 14:22:02.325819
2022-12-15 14:22:02.359320
2022-12-15 14:22:02.359559
2022-12-15 14:22:02.359559
2022-12-15 14:22:02.392858
2022-12-15 14:22:02.393153
2022-12-15 14:22:02.393740
2022-12-15 14:22:02.426429
2022-12-15 14:22:02.426429
2022-12-15 14:22:02.459773
2022-12-15 14:22:02.460200
2022-12-15 14:22:02.460847
2022-12-15 14:22:02.493424
2022-12-15 14:22:02.493715
2022-12-15 14:22:02.494301
2022-12-15 14:22:02.527067
2022-12-15 14:22:02.527425
2022-12-15 14:22:02.560496
2022-12-15 14:22:02.560737
2022-12-15 14:22:02.560737
2022-12-15 14:22:02.594121
2022-12-15 14:22:02.594413
2022-12-15 14:22:02.595015
2022-12-15 14:22:02.627615
2022-12-15 14:22:02.627962
2022-12-15 14:22:02.661159
2022-12-15 14:22:02.661397
2022-12-15 14:22:02.661397
2022-12-15 14:22:02.694607
2022-12-15 14:22:02.694607
2022-12-15 14:22:02.695609
2022-12-15 14:22:02.727408
2022-12-15 14:22:02.728443
2022-12-15 14:22:02.761674
2022-12-15 14:22:02.761916
2022-12-15 14:22:02.761916
2022-12-15 14:22:02.795271
2022-12-15 14:22:02.795565
2022-12-15 14:22:02.796111
2022-12-15 14:22:02.828775
2022-12-15 14:22:02.829119
2022-12-15 14:22:02.862311
2022-12-15 14:22:02.862555
2022-12-15 14:22:02.863009
2022-12-15 14:22:02.895764
2022-12-15 14:22:02.895764
2022-12-15 14:22:02.896807
2022-12-15 14:22:02.929612
2022-12-15 14:22:02.929982
2022-12-15 14:22:02.962846
2022-12-15 14:22:02.962846
2022-12-15 14:22:02.963861
2022-12-15 14:22:02.996259
2022-12-15 14:22:02.997268
2022-12-15 14:22:02.997268
2022-12-15 14:22:03.029891
2022-12-15 14:22:03.030236
2022-12-15 14:22:03.063271
2022-12-15 14:22:03.063271
2022-12-15 14:22:03.064286
2022-12-15 14:22:03.097096
2022-12-15 14:22:03.097390
2022-12-15 14:22:03.097935
2022-12-15 14:22:03.130612
2022-12-15 14:22:03.130961
2022-12-15 14:22:03.164181
2022-12-15 14:22:03.164466
2022-12-15 14:22:03.164965
2022-12-15 14:22:03.197711
2022-12-15 14:22:03.198040
2022-12-15 14:22:03.198634
2022-12-15 14:22:03.231181
2022-12-15 14:22:03.232186
2022-12-15 14:22:03.264270
2022-12-15 14:22:03.264270
2022-12-15 14:22:03.264270
2022-12-15 14:22:03.298187
2022-12-15 14:22:03.298479
2022-12-15 14:22:03.298479
2022-12-15 14:22:03.331797
2022-12-15 14:22:03.332145
2022-12-15 14:22:03.365386
2022-12-15 14:22:03.365626
2022-12-15 14:22:03.365626
2022-12-15 14:22:03.398878
2022-12-15 14:22:03.399168
2022-12-15 14:22:03.399746
2022-12-15 14:22:03.432439
2022-12-15 14:22:03.432785
2022-12-15 14:22:03.465966
2022-12-15 14:22:03.466208
2022-12-15 14:22:03.466208
2022-12-15 14:22:03.499566
2022-12-15 14:22:03.499940
2022-12-15 14:22:03.500943
2022-12-15 14:22:03.532624
2022-12-15 14:22:03.532624
2022-12-15 14:22:03.566431
2022-12-15 14:22:03.566672
2022-12-15 14:22:03.567227
2022-12-15 14:22:03.599996
2022-12-15 14:22:03.600287
2022-12-15 14:22:03.600833
2022-12-15 14:22:03.633574
2022-12-15 14:22:03.633918
2022-12-15 14:22:03.666039
2022-12-15 14:22:03.667037
2022-12-15 14:22:03.667037
2022-12-15 14:22:03.700673
2022-12-15 14:22:03.700964
2022-12-15 14:22:03.700964
2022-12-15 14:22:03.734242
2022-12-15 14:22:03.734636
2022-12-15 14:22:03.767824
2022-12-15 14:22:03.768064
2022-12-15 14:22:03.768064
2022-12-15 14:22:03.801196
2022-12-15 14:22:03.801196
2022-12-15 14:22:03.802076
2022-12-15 14:22:03.833928
2022-12-15 14:22:03.834938
2022-12-15 14:22:03.868203
2022-12-15 14:22:03.868441
2022-12-15 14:22:03.868441
2022-12-15 14:22:03.901721
2022-12-15 14:22:03.901721
2022-12-15 14:22:03.902722
2022-12-15 14:22:03.935344
2022-12-15 14:22:03.935344
2022-12-15 14:22:03.968905
2022-12-15 14:22:03.969146
2022-12-15 14:22:03.969146
2022-12-15 14:22:04.002333
2022-12-15 14:22:04.003084
2022-12-15 14:22:04.003084
2022-12-15 14:22:04.035920
2022-12-15 14:22:04.036692
2022-12-15 14:22:04.069481
2022-12-15 14:22:04.069796
2022-12-15 14:22:04.070440
2022-12-15 14:22:04.103019
2022-12-15 14:22:04.103019
2022-12-15 14:22:04.104073
2022-12-15 14:22:04.136556
2022-12-15 14:22:04.136556
2022-12-15 14:22:04.169078
2022-12-15 14:22:04.170075
2022-12-15 14:22:04.170075
2022-12-15 14:22:04.203601
2022-12-15 14:22:04.203895
2022-12-15 14:22:04.204898
2022-12-15 14:22:04.237004
2022-12-15 14:22:04.237004
2022-12-15 14:22:04.270207
2022-12-15 14:22:04.270443
2022-12-15 14:22:04.270443
2022-12-15 14:22:04.304016
2022-12-15 14:22:04.304016
2022-12-15 14:22:04.304974
2022-12-15 14:22:04.337118
2022-12-15 14:22:04.338119
2022-12-15 14:22:04.370772
2022-12-15 14:22:04.371000
2022-12-15 14:22:04.371461
2022-12-15 14:22:04.404766
2022-12-15 14:22:04.405089
2022-12-15 14:22:04.405089
2022-12-15 14:22:04.438177
2022-12-15 14:22:04.439056
2022-12-15 14:22:04.471113
2022-12-15 14:22:04.471113
2022-12-15 14:22:04.472114
2022-12-15 14:22:04.505297
2022-12-15 14:22:04.505587
2022-12-15 14:22:04.505587
2022-12-15 14:22:04.539008
2022-12-15 14:22:04.539397
2022-12-15 14:22:04.572529
2022-12-15 14:22:04.572857
2022-12-15 14:22:04.573485
2022-12-15 14:22:04.605995
2022-12-15 14:22:04.606340
2022-12-15 14:22:04.606800
2022-12-15 14:22:04.639475
2022-12-15 14:22:04.639475
2022-12-15 14:22:04.672978
2022-12-15 14:22:04.672978
2022-12-15 14:22:04.673980
2022-12-15 14:22:04.706480
2022-12-15 14:22:04.707488
2022-12-15 14:22:04.707488
2022-12-15 14:22:04.739693
2022-12-15 14:22:04.740011
2022-12-15 14:22:04.773053
2022-12-15 14:22:04.773053
2022-12-15 14:22:04.774056
2022-12-15 14:22:04.806784
2022-12-15 14:22:04.807093
2022-12-15 14:22:04.808095
2022-12-15 14:22:04.840186
2022-12-15 14:22:04.840186
2022-12-15 14:22:04.873053
2022-12-15 14:22:04.874023
2022-12-15 14:22:04.874023
2022-12-15 14:22:04.907589
2022-12-15 14:22:04.908003
2022-12-15 14:22:04.908513
2022-12-15 14:22:04.941229
2022-12-15 14:22:04.941601
2022-12-15 14:22:04.973942
2022-12-15 14:22:04.974972
2022-12-15 14:22:04.975970
2022-12-15 14:22:05.007800
2022-12-15 14:22:05.007800
2022-12-15 14:22:05.007800
2022-12-15 14:22:05.041437
2022-12-15 14:22:05.041437
2022-12-15 14:22:05.074790
2022-12-15 14:22:05.074790
2022-12-15 14:22:05.075826
2022-12-15 14:22:05.108988
2022-12-15 14:22:05.109282
2022-12-15 14:22:05.109871
2022-12-15 14:22:05.142528
2022-12-15 14:22:05.142982
2022-12-15 14:22:05.176063
2022-12-15 14:22:05.176329
2022-12-15 14:22:05.176329
2022-12-15 14:22:05.209568
2022-12-15 14:22:05.209894
2022-12-15 14:22:05.209894
2022-12-15 14:22:05.242955
2022-12-15 14:22:05.243537
2022-12-15 14:22:05.275798
2022-12-15 14:22:05.275798
2022-12-15 14:22:05.276800
2022-12-15 14:22:05.310148
2022-12-15 14:22:05.310440
2022-12-15 14:22:05.311028
2022-12-15 14:22:05.343373
2022-12-15 14:22:05.343768
2022-12-15 14:22:05.376654
2022-12-15 14:22:05.376979
2022-12-15 14:22:05.377430
2022-12-15 14:22:05.410114
2022-12-15 14:22:05.410114
2022-12-15 14:22:05.411114
2022-12-15 14:22:05.444279
2022-12-15 14:22:05.444279
2022-12-15 14:22:05.477774
2022-12-15 14:22:05.477774
2022-12-15 14:22:05.478775
2022-12-15 14:22:05.511391
2022-12-15 14:22:05.512396
2022-12-15 14:22:05.512396
2022-12-15 14:22:05.544678
2022-12-15 14:22:05.545023
2022-12-15 14:22:05.578307
2022-12-15 14:22:05.578548
2022-12-15 14:22:05.579137
2022-12-15 14:22:05.611957
2022-12-15 14:22:05.612250
2022-12-15 14:22:05.612834
2022-12-15 14:22:05.645455
2022-12-15 14:22:05.645798
2022-12-15 14:22:05.678919
2022-12-15 14:22:05.679159
2022-12-15 14:22:05.679617
2022-12-15 14:22:05.712480
2022-12-15 14:22:05.712773
2022-12-15 14:22:05.713314
2022-12-15 14:22:05.746037
2022-12-15 14:22:05.746410
2022-12-15 14:22:05.779431
2022-12-15 14:22:05.780169
2022-12-15 14:22:05.780169
2022-12-15 14:22:05.811931
2022-12-15 14:22:05.813032
2022-12-15 14:22:05.813486
2022-12-15 14:22:05.846530
2022-12-15 14:22:05.846879
2022-12-15 14:22:05.879546
2022-12-15 14:22:05.879885
2022-12-15 14:22:05.880374
2022-12-15 14:22:05.913654
2022-12-15 14:22:05.913946
2022-12-15 14:22:05.914531
2022-12-15 14:22:05.947307
2022-12-15 14:22:05.947649
2022-12-15 14:22:05.980787
2022-12-15 14:22:05.981056
2022-12-15 14:22:05.981559
2022-12-15 14:22:06.014326
2022-12-15 14:22:06.014326
2022-12-15 14:22:06.015327
2022-12-15 14:22:06.047037
2022-12-15 14:22:06.048065
2022-12-15 14:22:06.081228
2022-12-15 14:22:06.081467
2022-12-15 14:22:06.082063
2022-12-15 14:22:06.114883
2022-12-15 14:22:06.115176
2022-12-15 14:22:06.115724
2022-12-15 14:22:06.148422
2022-12-15 14:22:06.148768
2022-12-15 14:22:06.181966
2022-12-15 14:22:06.182206
2022-12-15 14:22:06.182668
2022-12-15 14:22:06.215540
2022-12-15 14:22:06.215869
2022-12-15 14:22:06.216460
2022-12-15 14:22:06.249200
2022-12-15 14:22:06.249570
2022-12-15 14:22:06.282629
2022-12-15 14:22:06.283341
2022-12-15 14:22:06.283341
2022-12-15 14:22:06.315229
2022-12-15 14:22:06.316238
2022-12-15 14:22:06.316238
2022-12-15 14:22:06.349120
2022-12-15 14:22:06.349599
2022-12-15 14:22:06.383262
2022-12-15 14:22:06.383548
2022-12-15 14:22:06.384141
2022-12-15 14:22:06.416780
2022-12-15 14:22:06.417071
2022-12-15 14:22:06.417620
2022-12-15 14:22:06.450370
2022-12-15 14:22:06.450716
2022-12-15 14:22:06.483737
2022-12-15 14:22:06.483978
2022-12-15 14:22:06.484563
2022-12-15 14:22:06.517303
2022-12-15 14:22:06.517597
2022-12-15 14:22:06.518055
2022-12-15 14:22:06.550214
2022-12-15 14:22:06.550214
2022-12-15 14:22:06.583161
2022-12-15 14:22:06.584162
2022-12-15 14:22:06.584162
2022-12-15 14:22:06.617770
2022-12-15 14:22:06.618104
2022-12-15 14:22:06.618649
2022-12-15 14:22:06.651394
2022-12-15 14:22:06.652024
2022-12-15 14:22:06.685132
2022-12-15 14:22:06.685412
2022-12-15 14:22:06.685879
2022-12-15 14:22:06.718616
2022-12-15 14:22:06.718907
2022-12-15 14:22:06.718907
2022-12-15 14:22:06.751929
2022-12-15 14:22:06.751929
2022-12-15 14:22:06.785516
2022-12-15 14:22:06.786524
2022-12-15 14:22:06.786524
2022-12-15 14:22:06.818360
2022-12-15 14:22:06.818360
2022-12-15 14:22:06.819360
2022-12-15 14:22:06.852204
2022-12-15 14:22:06.852819
2022-12-15 14:22:06.886128
2022-12-15 14:22:06.886718
2022-12-15 14:22:06.886718
2022-12-15 14:22:06.919696
2022-12-15 14:22:06.920255
2022-12-15 14:22:06.920255
2022-12-15 14:22:06.952565
2022-12-15 14:22:06.952565
2022-12-15 14:22:06.986601
2022-12-15 14:22:06.987328
2022-12-15 14:22:06.987328
2022-12-15 14:22:07.020174
2022-12-15 14:22:07.020527
2022-12-15 14:22:07.020527
2022-12-15 14:22:07.052977
2022-12-15 14:22:07.053984
2022-12-15 14:22:07.087217
2022-12-15 14:22:07.087217
2022-12-15 14:22:07.088227
2022-12-15 14:22:07.119610
2022-12-15 14:22:07.120645
2022-12-15 14:22:07.120645
2022-12-15 14:22:07.153949
2022-12-15 14:22:07.153949
2022-12-15 14:22:07.187665
2022-12-15 14:22:07.187971
2022-12-15 14:22:07.188556
2022-12-15 14:22:07.221460
2022-12-15 14:22:07.221752
2022-12-15 14:22:07.222331
2022-12-15 14:22:07.254613
2022-12-15 14:22:07.255248
2022-12-15 14:22:07.288271
2022-12-15 14:22:07.288271
2022-12-15 14:22:07.289220
2022-12-15 14:22:07.321997
2022-12-15 14:22:07.322289
2022-12-15 14:22:07.322749
2022-12-15 14:22:07.354967
2022-12-15 14:22:07.355620
2022-12-15 14:22:07.388925
2022-12-15 14:22:07.389586
2022-12-15 14:22:07.389586
2022-12-15 14:22:07.422622
2022-12-15 14:22:07.422913
2022-12-15 14:22:07.423499
2022-12-15 14:22:07.456153
2022-12-15 14:22:07.456499
2022-12-15 14:22:07.489595
2022-12-15 14:22:07.489836
2022-12-15 14:22:07.490382
2022-12-15 14:22:07.523109
2022-12-15 14:22:07.523428
2022-12-15 14:22:07.524042
2022-12-15 14:22:07.556622
2022-12-15 14:22:07.556966
2022-12-15 14:22:07.590121
2022-12-15 14:22:07.590366
2022-12-15 14:22:07.590826
2022-12-15 14:22:07.623715
2022-12-15 14:22:07.624037
2022-12-15 14:22:07.624037
2022-12-15 14:22:07.657157
2022-12-15 14:22:07.657801
2022-12-15 14:22:07.690388
2022-12-15 14:22:07.690388
2022-12-15 14:22:07.690388
2022-12-15 14:22:07.723746
2022-12-15 14:22:07.723746
2022-12-15 14:22:07.724700
2022-12-15 14:22:07.757857
2022-12-15 14:22:07.758231
2022-12-15 14:22:07.791534
2022-12-15 14:22:07.791774
2022-12-15 14:22:07.791774
2022-12-15 14:22:07.824902
2022-12-15 14:22:07.825194
2022-12-15 14:22:07.825866
2022-12-15 14:22:07.858391
2022-12-15 14:22:07.858768
2022-12-15 14:22:07.892011
2022-12-15 14:22:07.892365
2022-12-15 14:22:07.893019
2022-12-15 14:22:07.925451
2022-12-15 14:22:07.926458
2022-12-15 14:22:07.926458
2022-12-15 14:22:07.958514
2022-12-15 14:22:07.959050
2022-12-15 14:22:07.992447
2022-12-15 14:22:07.992834
2022-12-15 14:22:07.993381
2022-12-15 14:22:08.026007
2022-12-15 14:22:08.026448
2022-12-15 14:22:08.027031
2022-12-15 14:22:08.059216
2022-12-15 14:22:08.059699
2022-12-15 14:22:08.092871
2022-12-15 14:22:08.093137
2022-12-15 14:22:08.093650
2022-12-15 14:22:08.126336
2022-12-15 14:22:08.126652
2022-12-15 14:22:08.127282
2022-12-15 14:22:08.159646
2022-12-15 14:22:08.159646
2022-12-15 14:22:08.192595
2022-12-15 14:22:08.193571
2022-12-15 14:22:08.193571
2022-12-15 14:22:08.226507
2022-12-15 14:22:08.227468
2022-12-15 14:22:08.227468
2022-12-15 14:22:08.260457
2022-12-15 14:22:08.260890
2022-12-15 14:22:08.293970
2022-12-15 14:22:08.294273
2022-12-15 14:22:08.294713
2022-12-15 14:22:08.327554
2022-12-15 14:22:08.327908
2022-12-15 14:22:08.328303
2022-12-15 14:22:08.361074
2022-12-15 14:22:08.361495
2022-12-15 14:22:08.394908
2022-12-15 14:22:08.395146
2022-12-15 14:22:08.395611
2022-12-15 14:22:08.428474
2022-12-15 14:22:08.428794
2022-12-15 14:22:08.429438
2022-12-15 14:22:08.462025
2022-12-15 14:22:08.462397
2022-12-15 14:22:08.495340
2022-12-15 14:22:08.495340
2022-12-15 14:22:08.496368
2022-12-15 14:22:08.528562
2022-12-15 14:22:08.528562
2022-12-15 14:22:08.529544
2022-12-15 14:22:08.562629
2022-12-15 14:22:08.562970
2022-12-15 14:22:08.596238
2022-12-15 14:22:08.596477
2022-12-15 14:22:08.596477
2022-12-15 14:22:08.629585
2022-12-15 14:22:08.629876
2022-12-15 14:22:08.630459
2022-12-15 14:22:08.663239
2022-12-15 14:22:08.663580
2022-12-15 14:22:08.696732
2022-12-15 14:22:08.696971
2022-12-15 14:22:08.696971
2022-12-15 14:22:08.730179
2022-12-15 14:22:08.730179
2022-12-15 14:22:08.731181
2022-12-15 14:22:08.763550
2022-12-15 14:22:08.763550
2022-12-15 14:22:08.797299
2022-12-15 14:22:08.797538
2022-12-15 14:22:08.798128
2022-12-15 14:22:08.830929
2022-12-15 14:22:08.831224
2022-12-15 14:22:08.831224
2022-12-15 14:22:08.864527
2022-12-15 14:22:08.864880
2022-12-15 14:22:08.898063
2022-12-15 14:22:08.898301
2022-12-15 14:22:08.898896
2022-12-15 14:22:08.931477
2022-12-15 14:22:08.931770
2022-12-15 14:22:08.932232
2022-12-15 14:22:08.965024
2022-12-15 14:22:08.965418
2022-12-15 14:22:08.998490
2022-12-15 14:22:08.999066
2022-12-15 14:22:08.999066
2022-12-15 14:22:09.030849
2022-12-15 14:22:09.031856
2022-12-15 14:22:09.031856
2022-12-15 14:22:09.065487
2022-12-15 14:22:09.065838
2022-12-15 14:22:09.099126
2022-12-15 14:22:09.099368
2022-12-15 14:22:09.099962
2022-12-15 14:22:09.132712
2022-12-15 14:22:09.133012
2022-12-15 14:22:09.133554
2022-12-15 14:22:09.166266
2022-12-15 14:22:09.166612
2022-12-15 14:22:09.199792
2022-12-15 14:22:09.200068
2022-12-15 14:22:09.200716
2022-12-15 14:22:09.233488
2022-12-15 14:22:09.233488
2022-12-15 14:22:09.234490
2022-12-15 14:22:09.266763
2022-12-15 14:22:09.266763
2022-12-15 14:22:09.300271
2022-12-15 14:22:09.300511
2022-12-15 14:22:09.301097
2022-12-15 14:22:09.333809
2022-12-15 14:22:09.334101
2022-12-15 14:22:09.334647
2022-12-15 14:22:09.367399
2022-12-15 14:22:09.367744
2022-12-15 14:22:09.400937
2022-12-15 14:22:09.401175
2022-12-15 14:22:09.401810
2022-12-15 14:22:09.434523
2022-12-15 14:22:09.434812
2022-12-15 14:22:09.435372
2022-12-15 14:22:09.468037
2022-12-15 14:22:09.468444
2022-12-15 14:22:09.501489
2022-12-15 14:22:09.501489
2022-12-15 14:22:09.502388
2022-12-15 14:22:09.535181
2022-12-15 14:22:09.535622
2022-12-15 14:22:09.536625
2022-12-15 14:22:09.568311
2022-12-15 14:22:09.568311
2022-12-15 14:22:09.601777
2022-12-15 14:22:09.601777
2022-12-15 14:22:09.602778
2022-12-15 14:22:09.635195
2022-12-15 14:22:09.635195
2022-12-15 14:22:09.636196
2022-12-15 14:22:09.668764
2022-12-15 14:22:09.669112
2022-12-15 14:22:09.702638
2022-12-15 14:22:09.702877
2022-12-15 14:22:09.702877
2022-12-15 14:22:09.736262
2022-12-15 14:22:09.736561
2022-12-15 14:22:09.736561
2022-12-15 14:22:09.769652
2022-12-15 14:22:09.769652
2022-12-15 14:22:09.803041
2022-12-15 14:22:09.803775
2022-12-15 14:22:09.803775
2022-12-15 14:22:09.836406
2022-12-15 14:22:09.836707
2022-12-15 14:22:09.836707
2022-12-15 14:22:09.870383
2022-12-15 14:22:09.870383
2022-12-15 14:22:09.903751
2022-12-15 14:22:09.904226
2022-12-15 14:22:09.904226
2022-12-15 14:22:09.937237
2022-12-15 14:22:09.937716
2022-12-15 14:22:09.938216
2022-12-15 14:22:09.970768
2022-12-15 14:22:09.971200
2022-12-15 14:22:10.004316
2022-12-15 14:22:10.004799
2022-12-15 14:22:10.005411
2022-12-15 14:22:10.037882
2022-12-15 14:22:10.038429
2022-12-15 14:22:10.038880
2022-12-15 14:22:10.071485
2022-12-15 14:22:10.072532
2022-12-15 14:22:10.104069
2022-12-15 14:22:10.105077
2022-12-15 14:22:10.105077
2022-12-15 14:22:10.138549
2022-12-15 14:22:10.138876
2022-12-15 14:22:10.138876
2022-12-15 14:22:10.171885
2022-12-15 14:22:10.172281
2022-12-15 14:22:10.205641
2022-12-15 14:22:10.205908
2022-12-15 14:22:10.205908
2022-12-15 14:22:10.238800
2022-12-15 14:22:10.239181
2022-12-15 14:22:10.239181
2022-12-15 14:22:10.272660
2022-12-15 14:22:10.273003
2022-12-15 14:22:10.306122
2022-12-15 14:22:10.306406
2022-12-15 14:22:10.307019
2022-12-15 14:22:10.339753
2022-12-15 14:22:10.339753
2022-12-15 14:22:10.340754
2022-12-15 14:22:10.373090
2022-12-15 14:22:10.373737
2022-12-15 14:22:10.405651
2022-12-15 14:22:10.406646
2022-12-15 14:22:10.406646
2022-12-15 14:22:10.440293
2022-12-15 14:22:10.440629
2022-12-15 14:22:10.441215
2022-12-15 14:22:10.474021
2022-12-15 14:22:10.474407
2022-12-15 14:22:10.507495
2022-12-15 14:22:10.507734
2022-12-15 14:22:10.508324
2022-12-15 14:22:10.541076
2022-12-15 14:22:10.541419
2022-12-15 14:22:10.541419
2022-12-15 14:22:10.574630
2022-12-15 14:22:10.575017
2022-12-15 14:22:10.608146
2022-12-15 14:22:10.608386
2022-12-15 14:22:10.608975
2022-12-15 14:22:10.641709
2022-12-15 14:22:10.642034
2022-12-15 14:22:10.642034
2022-12-15 14:22:10.675085
2022-12-15 14:22:10.675085
2022-12-15 14:22:10.707930
2022-12-15 14:22:10.708938
2022-12-15 14:22:10.708938
2022-12-15 14:22:10.742233
2022-12-15 14:22:10.742525
2022-12-15 14:22:10.743103
2022-12-15 14:22:10.775747
2022-12-15 14:22:10.776091
2022-12-15 14:22:10.809329
2022-12-15 14:22:10.809568
2022-12-15 14:22:10.810205
2022-12-15 14:22:10.842789
2022-12-15 14:22:10.843114
2022-12-15 14:22:10.843660
2022-12-15 14:22:10.876287
2022-12-15 14:22:10.876741
2022-12-15 14:22:10.909705
2022-12-15 14:22:10.909705
2022-12-15 14:22:10.910753
2022-12-15 14:22:10.943232
2022-12-15 14:22:10.944271
2022-12-15 14:22:10.944271
2022-12-15 14:22:10.976012
2022-12-15 14:22:10.977020
2022-12-15 14:22:11.010359
2022-12-15 14:22:11.010359
2022-12-15 14:22:11.011365
2022-12-15 14:22:11.043568
2022-12-15 14:22:11.043568
2022-12-15 14:22:11.043568
2022-12-15 14:22:11.077187
2022-12-15 14:22:11.078189
2022-12-15 14:22:11.110247
2022-12-15 14:22:11.110247
2022-12-15 14:22:11.111246
2022-12-15 14:22:11.144161
2022-12-15 14:22:11.144161
2022-12-15 14:22:11.145159
2022-12-15 14:22:11.178028
2022-12-15 14:22:11.178400
2022-12-15 14:22:11.211542
2022-12-15 14:22:11.211805
2022-12-15 14:22:11.212310
2022-12-15 14:22:11.245060
2022-12-15 14:22:11.245907
2022-12-15 14:22:11.245907
2022-12-15 14:22:11.277816
2022-12-15 14:22:11.278817
2022-12-15 14:22:11.312202
2022-12-15 14:22:11.312443
2022-12-15 14:22:11.313042
2022-12-15 14:22:11.345307
2022-12-15 14:22:11.345653
2022-12-15 14:22:11.346106
2022-12-15 14:22:11.378946
2022-12-15 14:22:11.379365
2022-12-15 14:22:11.412740
2022-12-15 14:22:11.412978
2022-12-15 14:22:11.413444
2022-12-15 14:22:11.446391
2022-12-15 14:22:11.446725
2022-12-15 14:22:11.447324
2022-12-15 14:22:11.479767
2022-12-15 14:22:11.480333
2022-12-15 14:22:11.512036
2022-12-15 14:22:11.513038
2022-12-15 14:22:11.513038
2022-12-15 14:22:11.547016
2022-12-15 14:22:11.547357
2022-12-15 14:22:11.547902
2022-12-15 14:22:11.580427
2022-12-15 14:22:11.580774
2022-12-15 14:22:11.614025
2022-12-15 14:22:11.614265
2022-12-15 14:22:11.614858
2022-12-15 14:22:11.647467
2022-12-15 14:22:11.647765
2022-12-15 14:22:11.648270
2022-12-15 14:22:11.681170
2022-12-15 14:22:11.681512
2022-12-15 14:22:11.714596
2022-12-15 14:22:11.714596
2022-12-15 14:22:11.715600
2022-12-15 14:22:11.747551
2022-12-15 14:22:11.748554
2022-12-15 14:22:11.748554
2022-12-15 14:22:11.781157
2022-12-15 14:22:11.781157
2022-12-15 14:22:11.815316
2022-12-15 14:22:11.815580
2022-12-15 14:22:11.816237
2022-12-15 14:22:11.848729
2022-12-15 14:22:11.849023
2022-12-15 14:22:11.849609
2022-12-15 14:22:11.882316
2022-12-15 14:22:11.882657
2022-12-15 14:22:11.915793
2022-12-15 14:22:11.916032
2022-12-15 14:22:11.916541
2022-12-15 14:22:11.949434
2022-12-15 14:22:11.949724
2022-12-15 14:22:11.949724
2022-12-15 14:22:11.982747
2022-12-15 14:22:11.983418
2022-12-15 14:22:12.015287
2022-12-15 14:22:12.016288
2022-12-15 14:22:12.016288
2022-12-15 14:22:12.049883
2022-12-15 14:22:12.050173
2022-12-15 14:22:12.050173
2022-12-15 14:22:12.083565
2022-12-15 14:22:12.083906
2022-12-15 14:22:12.117060
2022-12-15 14:22:12.117297
2022-12-15 14:22:12.117891
2022-12-15 14:22:12.150513
2022-12-15 14:22:12.150803
2022-12-15 14:22:12.151263
2022-12-15 14:22:12.184031
2022-12-15 14:22:12.184423
2022-12-15 14:22:12.217773
2022-12-15 14:22:12.218039
2022-12-15 14:22:12.218039
2022-12-15 14:22:12.250426
2022-12-15 14:22:12.251428
2022-12-15 14:22:12.251428
2022-12-15 14:22:12.284460
2022-12-15 14:22:12.284803
2022-12-15 14:22:12.318169
2022-12-15 14:22:12.318458
2022-12-15 14:22:12.319076
2022-12-15 14:22:12.351670
2022-12-15 14:22:12.351962
2022-12-15 14:22:12.351962
2022-12-15 14:22:12.385261
2022-12-15 14:22:12.385605
2022-12-15 14:22:12.418638
2022-12-15 14:22:12.418878
2022-12-15 14:22:12.419341
2022-12-15 14:22:12.452416
2022-12-15 14:22:12.452706
2022-12-15 14:22:12.453290
2022-12-15 14:22:12.485930
2022-12-15 14:22:12.486304
2022-12-15 14:22:12.519395
2022-12-15 14:22:12.519664
2022-12-15 14:22:12.520276
2022-12-15 14:22:12.552946
2022-12-15 14:22:12.552946
2022-12-15 14:22:12.553948
2022-12-15 14:22:12.586327
2022-12-15 14:22:12.586758
2022-12-15 14:22:12.619533
2022-12-15 14:22:12.619803
2022-12-15 14:22:12.620807
2022-12-15 14:22:12.653392
2022-12-15 14:22:12.653685
2022-12-15 14:22:12.653685
2022-12-15 14:22:12.687059
2022-12-15 14:22:12.687436
2022-12-15 14:22:12.720534
2022-12-15 14:22:12.720775
2022-12-15 14:22:12.720775
2022-12-15 14:22:12.754097
2022-12-15 14:22:12.754396
2022-12-15 14:22:12.754396
2022-12-15 14:22:12.787609
2022-12-15 14:22:12.787609
2022-12-15 14:22:12.821113
2022-12-15 14:22:12.821351
2022-12-15 14:22:12.821351
2022-12-15 14:22:12.854610
2022-12-15 14:22:12.855646
2022-12-15 14:22:12.855646
2022-12-15 14:22:12.886933
2022-12-15 14:22:12.887934
2022-12-15 14:22:12.921775
2022-12-15 14:22:12.922021
2022-12-15 14:22:12.922609
2022-12-15 14:22:12.955327
2022-12-15 14:22:12.955683
2022-12-15 14:22:12.956260
2022-12-15 14:22:12.988745
2022-12-15 14:22:12.988745
2022-12-15 14:22:13.022261
2022-12-15 14:22:13.022486
2022-12-15 14:22:13.022486
2022-12-15 14:22:13.055871
2022-12-15 14:22:13.056233
2022-12-15 14:22:13.056233
2022-12-15 14:22:13.089459
2022-12-15 14:22:13.090465
2022-12-15 14:22:13.122677
2022-12-15 14:22:13.122677
2022-12-15 14:22:13.123659
2022-12-15 14:22:13.156273
2022-12-15 14:22:13.156273
2022-12-15 14:22:13.157313
2022-12-15 14:22:13.189648
2022-12-15 14:22:13.190657
2022-12-15 14:22:13.223051
2022-12-15 14:22:13.223289
2022-12-15 14:22:13.223878
2022-12-15 14:22:13.256823
2022-12-15 14:22:13.256823
2022-12-15 14:22:13.257824
2022-12-15 14:22:13.290412
2022-12-15 14:22:13.290754
2022-12-15 14:22:13.323289
2022-12-15 14:22:13.324330
2022-12-15 14:22:13.325287
2022-12-15 14:22:13.357277
2022-12-15 14:22:13.357277
2022-12-15 14:22:13.357277
2022-12-15 14:22:13.391148
2022-12-15 14:22:13.391494
2022-12-15 14:22:13.424088
2022-12-15 14:22:13.424088
2022-12-15 14:22:13.425041
2022-12-15 14:22:13.458247
2022-12-15 14:22:13.458537
2022-12-15 14:22:13.459126
2022-12-15 14:22:13.491703
2022-12-15 14:22:13.492046
2022-12-15 14:22:13.525311
2022-12-15 14:22:13.525552
2022-12-15 14:22:13.526015
2022-12-15 14:22:13.558770
2022-12-15 14:22:13.559061
2022-12-15 14:22:13.559061
2022-12-15 14:22:13.592255
2022-12-15 14:22:13.592595
2022-12-15 14:22:13.625828
2022-12-15 14:22:13.626077
2022-12-15 14:22:13.627056
2022-12-15 14:22:13.658289
2022-12-15 14:22:13.659290
2022-12-15 14:22:13.659570
2022-12-15 14:22:13.692836
2022-12-15 14:22:13.693179
2022-12-15 14:22:13.726543
2022-12-15 14:22:13.726782
2022-12-15 14:22:13.726782
2022-12-15 14:22:13.760027
2022-12-15 14:22:13.760366
2022-12-15 14:22:13.760913
2022-12-15 14:22:13.792571
2022-12-15 14:22:13.793569
2022-12-15 14:22:13.827174
2022-12-15 14:22:13.827413
2022-12-15 14:22:13.827926
2022-12-15 14:22:13.860766
2022-12-15 14:22:13.861059
2022-12-15 14:22:13.861059
2022-12-15 14:22:13.893965
2022-12-15 14:22:13.894699
2022-12-15 14:22:13.926715
2022-12-15 14:22:13.926715
2022-12-15 14:22:13.927753
2022-12-15 14:22:13.961194
2022-12-15 14:22:13.961194
2022-12-15 14:22:13.962199
2022-12-15 14:22:13.994584
2022-12-15 14:22:13.995587
2022-12-15 14:22:14.028386
2022-12-15 14:22:14.028625
2022-12-15 14:22:14.029211
2022-12-15 14:22:14.061839
2022-12-15 14:22:14.061839
2022-12-15 14:22:14.062827
2022-12-15 14:22:14.095190
2022-12-15 14:22:14.095564
2022-12-15 14:22:14.128488
2022-12-15 14:22:14.128727
2022-12-15 14:22:14.129187
2022-12-15 14:22:14.161875
2022-12-15 14:22:14.162190
2022-12-15 14:22:14.162190
2022-12-15 14:22:14.195836
2022-12-15 14:22:14.195836
2022-12-15 14:22:14.228404
2022-12-15 14:22:14.229435
2022-12-15 14:22:14.229435
2022-12-15 14:22:14.261832
2022-12-15 14:22:14.262840
2022-12-15 14:22:14.263401
2022-12-15 14:22:14.296014
2022-12-15 14:22:14.296014
2022-12-15 14:22:14.329430
2022-12-15 14:22:14.329430
2022-12-15 14:22:14.330428
2022-12-15 14:22:14.363112
2022-12-15 14:22:14.363458
2022-12-15 14:22:14.363947
2022-12-15 14:22:14.396951
2022-12-15 14:22:14.397341
2022-12-15 14:22:14.430566
2022-12-15 14:22:14.430566
2022-12-15 14:22:14.431578
2022-12-15 14:22:14.464095
2022-12-15 14:22:14.464453
2022-12-15 14:22:14.464453
2022-12-15 14:22:14.497443
2022-12-15 14:22:14.498210
2022-12-15 14:22:14.530749
2022-12-15 14:22:14.530749
2022-12-15 14:22:14.530749
2022-12-15 14:22:14.564572
2022-12-15 14:22:14.564864
2022-12-15 14:22:14.565411
2022-12-15 14:22:14.598262
2022-12-15 14:22:14.598609
2022-12-15 14:22:14.631646
2022-12-15 14:22:14.631890
2022-12-15 14:22:14.631890
2022-12-15 14:22:14.664514
2022-12-15 14:22:14.665500
2022-12-15 14:22:14.665500
2022-12-15 14:22:14.698722
2022-12-15 14:22:14.699116
2022-12-15 14:22:14.732401
2022-12-15 14:22:14.732638
2022-12-15 14:22:14.733097
2022-12-15 14:22:14.765682
2022-12-15 14:22:14.765682
2022-12-15 14:22:14.766683
2022-12-15 14:22:14.799149
2022-12-15 14:22:14.799149
2022-12-15 14:22:14.832576
2022-12-15 14:22:14.832936
2022-12-15 14:22:14.833431
2022-12-15 14:22:14.866611
2022-12-15 14:22:14.866898
2022-12-15 14:22:14.866898
2022-12-15 14:22:14.900118
2022-12-15 14:22:14.900461
2022-12-15 14:22:14.933488
2022-12-15 14:22:14.933714
2022-12-15 14:22:14.934185
2022-12-15 14:22:14.967093
2022-12-15 14:22:14.967429
2022-12-15 14:22:14.967429
2022-12-15 14:22:15.000790
2022-12-15 14:22:15.001175
2022-12-15 14:22:15.034307
2022-12-15 14:22:15.034307
2022-12-15 14:22:15.035308
2022-12-15 14:22:15.066438
2022-12-15 14:22:15.067433
2022-12-15 14:22:15.067433
2022-12-15 14:22:15.101280
2022-12-15 14:22:15.101652
2022-12-15 14:22:15.134820
2022-12-15 14:22:15.135097
2022-12-15 14:22:15.135641
2022-12-15 14:22:15.168411
2022-12-15 14:22:15.168706
2022-12-15 14:22:15.168706
2022-12-15 14:22:15.201829
2022-12-15 14:22:15.202178
2022-12-15 14:22:15.235387
2022-12-15 14:22:15.235659
2022-12-15 14:22:15.236326
2022-12-15 14:22:15.268780
2022-12-15 14:22:15.269510
2022-12-15 14:22:15.269510
2022-12-15 14:22:15.302556
2022-12-15 14:22:15.302556
2022-12-15 14:22:15.334677
2022-12-15 14:22:15.335714
2022-12-15 14:22:15.335714
2022-12-15 14:22:15.369373
2022-12-15 14:22:15.369713
2022-12-15 14:22:15.369713
2022-12-15 14:22:15.402992
2022-12-15 14:22:15.403334
2022-12-15 14:22:15.436676
2022-12-15 14:22:15.436914
2022-12-15 14:22:15.437495
2022-12-15 14:22:15.470091
2022-12-15 14:22:15.470385
2022-12-15 14:22:15.470844
2022-12-15 14:22:15.502709
2022-12-15 14:22:15.503695
2022-12-15 14:22:15.537318
2022-12-15 14:22:15.537557
2022-12-15 14:22:15.537557
2022-12-15 14:22:15.570602
2022-12-15 14:22:15.570602
2022-12-15 14:22:15.571636
2022-12-15 14:22:15.602995
2022-12-15 14:22:15.604047
2022-12-15 14:22:15.637621
2022-12-15 14:22:15.637860
2022-12-15 14:22:15.637860
2022-12-15 14:22:15.671208
2022-12-15 14:22:15.671504
2022-12-15 14:22:15.671504
2022-12-15 14:22:15.704783
2022-12-15 14:22:15.705131
2022-12-15 14:22:15.738265
2022-12-15 14:22:15.738265
2022-12-15 14:22:15.739061
2022-12-15 14:22:15.771780
2022-12-15 14:22:15.771780
2022-12-15 14:22:15.772664
2022-12-15 14:22:15.805465
2022-12-15 14:22:15.806287
2022-12-15 14:22:15.838889
2022-12-15 14:22:15.839291
2022-12-15 14:22:15.839291
2022-12-15 14:22:15.871926
2022-12-15 14:22:15.872936
2022-12-15 14:22:15.872936
2022-12-15 14:22:15.905548
2022-12-15 14:22:15.905548
2022-12-15 14:22:15.939516
2022-12-15 14:22:15.939516
2022-12-15 14:22:15.940524
2022-12-15 14:22:15.973046
2022-12-15 14:22:15.973046
2022-12-15 14:22:15.974066
2022-12-15 14:22:16.006617
2022-12-15 14:22:16.007038
2022-12-15 14:22:16.039737
2022-12-15 14:22:16.039737
2022-12-15 14:22:16.040666
2022-12-15 14:22:16.073704
2022-12-15 14:22:16.074052
2022-12-15 14:22:16.074052
2022-12-15 14:22:16.106848
2022-12-15 14:22:16.106848
2022-12-15 14:22:16.139692
2022-12-15 14:22:16.140727
2022-12-15 14:22:16.140727
2022-12-15 14:22:16.174233
2022-12-15 14:22:16.174552
2022-12-15 14:22:16.175193
2022-12-15 14:22:16.207655
2022-12-15 14:22:16.208028
2022-12-15 14:22:16.240852
2022-12-15 14:22:16.241116
2022-12-15 14:22:16.241769
2022-12-15 14:22:16.274698
2022-12-15 14:22:16.274989
2022-12-15 14:22:16.275566
2022-12-15 14:22:16.308253
2022-12-15 14:22:16.308600
2022-12-15 14:22:16.341820
2022-12-15 14:22:16.342088
2022-12-15 14:22:16.342730
2022-12-15 14:22:16.375322
2022-12-15 14:22:16.375322
2022-12-15 14:22:16.376323
2022-12-15 14:22:16.408883
2022-12-15 14:22:16.409913
2022-12-15 14:22:16.442076
2022-12-15 14:22:16.442412
2022-12-15 14:22:16.442412
2022-12-15 14:22:16.475578
2022-12-15 14:22:16.475985
2022-12-15 14:22:16.476396
2022-12-15 14:22:16.509486
2022-12-15 14:22:16.509864
2022-12-15 14:22:16.543029
2022-12-15 14:22:16.543301
2022-12-15 14:22:16.543944
2022-12-15 14:22:16.576628
2022-12-15 14:22:16.576948
2022-12-15 14:22:16.577608
2022-12-15 14:22:16.610073
2022-12-15 14:22:16.610424
2022-12-15 14:22:16.643637
2022-12-15 14:22:16.643903
2022-12-15 14:22:16.644549
2022-12-15 14:22:16.677089
2022-12-15 14:22:16.677922
2022-12-15 14:22:16.677922
2022-12-15 14:22:16.709410
2022-12-15 14:22:16.710447
2022-12-15 14:22:16.744362
2022-12-15 14:22:16.744602
2022-12-15 14:22:16.744602
2022-12-15 14:22:16.777740
2022-12-15 14:22:16.778033
2022-12-15 14:22:16.778577
2022-12-15 14:22:16.811321
2022-12-15 14:22:16.811695
2022-12-15 14:22:16.844855
2022-12-15 14:22:16.845123
2022-12-15 14:22:16.845639
2022-12-15 14:22:16.878403
2022-12-15 14:22:16.878740
2022-12-15 14:22:16.879760
2022-12-15 14:22:16.911912
2022-12-15 14:22:16.912290
2022-12-15 14:22:16.945004
2022-12-15 14:22:16.945004
2022-12-15 14:22:16.946032
2022-12-15 14:22:16.978633
2022-12-15 14:22:16.978633
2022-12-15 14:22:16.979588
2022-12-15 14:22:17.012457
2022-12-15 14:22:17.013459
2022-12-15 14:22:17.046035
2022-12-15 14:22:17.046035
2022-12-15 14:22:17.047069
2022-12-15 14:22:17.079456
2022-12-15 14:22:17.079456
2022-12-15 14:22:17.080462
2022-12-15 14:22:17.112861
2022-12-15 14:22:17.113336
2022-12-15 14:22:17.146203
2022-12-15 14:22:17.146574
2022-12-15 14:22:17.147038
2022-12-15 14:22:17.179572
2022-12-15 14:22:17.179572
2022-12-15 14:22:17.180659
2022-12-15 14:22:17.213533
2022-12-15 14:22:17.213533
2022-12-15 14:22:17.246240
2022-12-15 14:22:17.247246
2022-12-15 14:22:17.247532
2022-12-15 14:22:17.280527
2022-12-15 14:22:17.280527
2022-12-15 14:22:17.281525
2022-12-15 14:22:17.313899
2022-12-15 14:22:17.313899
2022-12-15 14:22:17.346714
2022-12-15 14:22:17.347664
2022-12-15 14:22:17.347664
2022-12-15 14:22:17.380447
2022-12-15 14:22:17.380447
2022-12-15 14:22:17.381442
2022-12-15 14:22:17.414779
2022-12-15 14:22:17.415131
2022-12-15 14:22:17.448320
2022-12-15 14:22:17.448606
2022-12-15 14:22:17.448606
2022-12-15 14:22:17.481739
2022-12-15 14:22:17.482493
2022-12-15 14:22:17.482493
2022-12-15 14:22:17.515392
2022-12-15 14:22:17.515738
2022-12-15 14:22:17.548940
2022-12-15 14:22:17.549178
2022-12-15 14:22:17.549754
2022-12-15 14:22:17.582524
2022-12-15 14:22:17.582817
2022-12-15 14:22:17.582817
2022-12-15 14:22:17.616064
2022-12-15 14:22:17.616410
2022-12-15 14:22:17.649550
2022-12-15 14:22:17.649787
2022-12-15 14:22:17.650250
2022-12-15 14:22:17.683217
2022-12-15 14:22:17.683217
2022-12-15 14:22:17.684217
2022-12-15 14:22:17.717087
2022-12-15 14:22:17.717087
2022-12-15 14:22:17.748828
2022-12-15 14:22:17.749828
2022-12-15 14:22:17.749828
2022-12-15 14:22:17.783769
2022-12-15 14:22:17.784106
2022-12-15 14:22:17.784693
2022-12-15 14:22:17.817328
2022-12-15 14:22:17.817671
2022-12-15 14:22:17.849500
2022-12-15 14:22:17.850495
2022-12-15 14:22:17.850495
2022-12-15 14:22:17.884332
2022-12-15 14:22:17.884674
2022-12-15 14:22:17.885174
2022-12-15 14:22:17.917822
2022-12-15 14:22:17.918169
2022-12-15 14:22:17.951469
2022-12-15 14:22:17.951469
2022-12-15 14:22:17.952473
2022-12-15 14:22:17.984419
2022-12-15 14:22:17.984687
2022-12-15 14:22:17.985133
2022-12-15 14:22:18.018338
2022-12-15 14:22:18.018692
2022-12-15 14:22:18.051969
2022-12-15 14:22:18.052208
2022-12-15 14:22:18.052208
2022-12-15 14:22:18.085548
2022-12-15 14:22:18.085840
2022-12-15 14:22:18.086427
2022-12-15 14:22:18.119024
2022-12-15 14:22:18.119370
2022-12-15 14:22:18.152461
2022-12-15 14:22:18.152700
2022-12-15 14:22:18.152700
2022-12-15 14:22:18.186177
2022-12-15 14:22:18.186935
2022-12-15 14:22:18.186935
2022-12-15 14:22:18.218657
2022-12-15 14:22:18.219665
2022-12-15 14:22:18.252609
2022-12-15 14:22:18.252928
2022-12-15 14:22:18.253379
2022-12-15 14:22:18.286736
2022-12-15 14:22:18.287027
2022-12-15 14:22:18.287566
2022-12-15 14:22:18.320354
2022-12-15 14:22:18.320704
2022-12-15 14:22:18.353779
2022-12-15 14:22:18.354018
2022-12-15 14:22:18.354478
2022-12-15 14:22:18.387440
2022-12-15 14:22:18.387734
2022-12-15 14:22:18.387734
2022-12-15 14:22:18.420873
2022-12-15 14:22:18.421219
2022-12-15 14:22:18.454731
2022-12-15 14:22:18.454731
2022-12-15 14:22:18.455605
2022-12-15 14:22:18.487587
2022-12-15 14:22:18.487744
2022-12-15 14:22:18.488192
2022-12-15 14:22:18.521357
2022-12-15 14:22:18.521700
2022-12-15 14:22:18.554910
2022-12-15 14:22:18.555149
2022-12-15 14:22:18.555149
2022-12-15 14:22:18.588536
2022-12-15 14:22:18.588828
2022-12-15 14:22:18.588828
2022-12-15 14:22:18.622071
2022-12-15 14:22:18.622414
2022-12-15 14:22:18.655611
2022-12-15 14:22:18.655851
2022-12-15 14:22:18.655851
2022-12-15 14:22:18.688991
2022-12-15 14:22:18.688991
2022-12-15 14:22:18.689993
2022-12-15 14:22:18.721678
2022-12-15 14:22:18.722707
2022-12-15 14:22:18.755658
2022-12-15 14:22:18.755658
2022-12-15 14:22:18.756545
2022-12-15 14:22:18.789662
2022-12-15 14:22:18.790068
2022-12-15 14:22:18.790752
2022-12-15 14:22:18.823626
2022-12-15 14:22:18.823791
2022-12-15 14:22:18.856706
2022-12-15 14:22:18.857210
2022-12-15 14:22:18.857210
2022-12-15 14:22:18.890354
2022-12-15 14:22:18.890784
2022-12-15 14:22:18.890784
2022-12-15 14:22:18.923699
2022-12-15 14:22:18.923699
2022-12-15 14:22:18.957343
2022-12-15 14:22:18.958352
2022-12-15 14:22:18.958567
2022-12-15 14:22:18.990382
2022-12-15 14:22:18.990673
2022-12-15 14:22:18.991250
2022-12-15 14:22:19.024396
2022-12-15 14:22:19.024681
2022-12-15 14:22:19.057401
2022-12-15 14:22:19.057401
2022-12-15 14:22:19.058482
2022-12-15 14:22:19.091295
2022-12-15 14:22:19.091592
2022-12-15 14:22:19.092179
2022-12-15 14:22:19.124460
2022-12-15 14:22:19.124871
2022-12-15 14:22:19.157789
2022-12-15 14:22:19.158289
2022-12-15 14:22:19.158886
2022-12-15 14:22:19.191335
2022-12-15 14:22:19.191335
2022-12-15 14:22:19.192347
2022-12-15 14:22:19.225476
2022-12-15 14:22:19.225658
2022-12-15 14:22:19.258529
2022-12-15 14:22:19.258529
2022-12-15 14:22:19.259526
2022-12-15 14:22:19.292504
2022-12-15 14:22:19.292504
2022-12-15 14:22:19.293505
2022-12-15 14:22:19.326080
2022-12-15 14:22:19.327083
2022-12-15 14:22:19.359576
2022-12-15 14:22:19.359576
2022-12-15 14:22:19.360578
2022-12-15 14:22:19.392857
2022-12-15 14:22:19.392857
2022-12-15 14:22:19.393859
2022-12-15 14:22:19.426185
2022-12-15 14:22:19.426185
2022-12-15 14:22:19.460213
2022-12-15 14:22:19.460455
2022-12-15 14:22:19.460455
2022-12-15 14:22:19.493634
2022-12-15 14:22:19.493634
2022-12-15 14:22:19.494636
2022-12-15 14:22:19.526738
2022-12-15 14:22:19.526738
2022-12-15 14:22:19.560508
2022-12-15 14:22:19.560768
2022-12-15 14:22:19.561157
2022-12-15 14:22:19.594412
2022-12-15 14:22:19.594700
2022-12-15 14:22:19.594700
2022-12-15 14:22:19.627957
2022-12-15 14:22:19.628304
2022-12-15 14:22:19.661569
2022-12-15 14:22:19.661852
2022-12-15 14:22:19.662442
2022-12-15 14:22:19.695091
2022-12-15 14:22:19.695418
2022-12-15 14:22:19.696012
2022-12-15 14:22:19.728641
2022-12-15 14:22:19.729027
2022-12-15 14:22:19.762181
2022-12-15 14:22:19.762451
2022-12-15 14:22:19.763044
2022-12-15 14:22:19.795739
2022-12-15 14:22:19.796077
2022-12-15 14:22:19.796077
2022-12-15 14:22:19.829108
2022-12-15 14:22:19.830138
2022-12-15 14:22:19.862495
2022-12-15 14:22:19.862738
2022-12-15 14:22:19.863325
2022-12-15 14:22:19.895654
2022-12-15 14:22:19.895654
2022-12-15 14:22:19.896652
2022-12-15 14:22:19.929701
2022-12-15 14:22:19.930048
2022-12-15 14:22:19.963331
2022-12-15 14:22:19.963673
2022-12-15 14:22:19.963673
2022-12-15 14:22:19.996734
2022-12-15 14:22:19.997072
2022-12-15 14:22:19.997533
2022-12-15 14:22:20.030354
2022-12-15 14:22:20.030354
2022-12-15 14:22:20.063724
2022-12-15 14:22:20.063724
2022-12-15 14:22:20.064757
2022-12-15 14:22:20.097141
2022-12-15 14:22:20.097141
2022-12-15 14:22:20.098151
2022-12-15 14:22:20.130377
2022-12-15 14:22:20.130377
2022-12-15 14:22:20.163983
2022-12-15 14:22:20.163983
2022-12-15 14:22:20.164989
2022-12-15 14:22:20.197344
2022-12-15 14:22:20.198346
2022-12-15 14:22:20.198346
2022-12-15 14:22:20.230703
2022-12-15 14:22:20.231706
2022-12-15 14:22:20.264911
2022-12-15 14:22:20.265152
2022-12-15 14:22:20.265152
2022-12-15 14:22:20.298549
2022-12-15 14:22:20.298843
2022-12-15 14:22:20.299303
2022-12-15 14:22:20.332067
2022-12-15 14:22:20.332414
2022-12-15 14:22:20.365519
2022-12-15 14:22:20.365519
2022-12-15 14:22:20.366520
2022-12-15 14:22:20.398322
2022-12-15 14:22:20.399324
2022-12-15 14:22:20.399324
2022-12-15 14:22:20.432669
2022-12-15 14:22:20.433017
2022-12-15 14:22:20.465787
2022-12-15 14:22:20.466111
2022-12-15 14:22:20.466557
2022-12-15 14:22:20.499421
2022-12-15 14:22:20.499791
2022-12-15 14:22:20.500243
2022-12-15 14:22:20.533173
2022-12-15 14:22:20.533517
2022-12-15 14:22:20.566771
2022-12-15 14:22:20.567053
2022-12-15 14:22:20.567660
2022-12-15 14:22:20.600480
2022-12-15 14:22:20.600480
2022-12-15 14:22:20.601482
2022-12-15 14:22:20.633871
2022-12-15 14:22:20.633871
2022-12-15 14:22:20.666460
2022-12-15 14:22:20.667458
2022-12-15 14:22:20.667458
2022-12-15 14:22:20.700332
2022-12-15 14:22:20.700332
2022-12-15 14:22:20.701332
2022-12-15 14:22:20.734361
2022-12-15 14:22:20.734708
2022-12-15 14:22:20.768046
2022-12-15 14:22:20.768286
2022-12-15 14:22:20.768835
2022-12-15 14:22:20.801481
2022-12-15 14:22:20.801773
2022-12-15 14:22:20.802237
2022-12-15 14:22:20.835062
2022-12-15 14:22:20.835452
2022-12-15 14:22:20.868459
2022-12-15 14:22:20.868459
2022-12-15 14:22:20.869327
2022-12-15 14:22:20.901110
2022-12-15 14:22:20.902119
2022-12-15 14:22:20.902119
2022-12-15 14:22:20.935542
2022-12-15 14:22:20.935887
2022-12-15 14:22:20.969033
2022-12-15 14:22:20.969270
2022-12-15 14:22:20.969270
2022-12-15 14:22:21.002697
2022-12-15 14:22:21.002988
2022-12-15 14:22:21.003534
2022-12-15 14:22:21.036349
2022-12-15 14:22:21.036692
2022-12-15 14:22:21.069781
2022-12-15 14:22:21.070023
2022-12-15 14:22:21.070023
2022-12-15 14:22:21.103303
2022-12-15 14:22:21.103594
2022-12-15 14:22:21.104057
2022-12-15 14:22:21.136890
2022-12-15 14:22:21.137270
2022-12-15 14:22:21.170447
2022-12-15 14:22:21.170447
2022-12-15 14:22:21.171449
2022-12-15 14:22:21.203265
2022-12-15 14:22:21.203265
2022-12-15 14:22:21.204291
2022-12-15 14:22:21.237109
2022-12-15 14:22:21.237551
2022-12-15 14:22:21.271090
2022-12-15 14:22:21.271373
2022-12-15 14:22:21.271973
2022-12-15 14:22:21.304677
2022-12-15 14:22:21.305005
2022-12-15 14:22:21.305593
2022-12-15 14:22:21.338201
2022-12-15 14:22:21.338588
2022-12-15 14:22:21.371623
2022-12-15 14:22:21.371865
2022-12-15 14:22:21.372323
2022-12-15 14:22:21.405257
2022-12-15 14:22:21.405552
2022-12-15 14:22:21.405552
2022-12-15 14:22:21.438665
2022-12-15 14:22:21.439058
2022-12-15 14:22:21.472070
2022-12-15 14:22:21.472521
2022-12-15 14:22:21.473524
2022-12-15 14:22:21.505162
2022-12-15 14:22:21.506172
2022-12-15 14:22:21.506172
2022-12-15 14:22:21.539098
2022-12-15 14:22:21.539447
2022-12-15 14:22:21.572725
2022-12-15 14:22:21.572966
2022-12-15 14:22:21.573512
2022-12-15 14:22:21.606179
2022-12-15 14:22:21.606474
2022-12-15 14:22:21.606474
2022-12-15 14:22:21.639812
2022-12-15 14:22:21.640159
2022-12-15 14:22:21.673435
2022-12-15 14:22:21.673435
2022-12-15 14:22:21.674436
2022-12-15 14:22:21.707039
2022-12-15 14:22:21.707039
2022-12-15 14:22:21.708040
2022-12-15 14:22:21.740431
2022-12-15 14:22:21.740431
2022-12-15 14:22:21.773868
2022-12-15 14:22:21.774182
2022-12-15 14:22:21.775185
2022-12-15 14:22:21.806205
2022-12-15 14:22:21.807234
2022-12-15 14:22:21.807234
2022-12-15 14:22:21.839863
2022-12-15 14:22:21.841001
2022-12-15 14:22:21.874479
2022-12-15 14:22:21.874479
2022-12-15 14:22:21.875380
2022-12-15 14:22:21.907304
2022-12-15 14:22:21.908260
2022-12-15 14:22:21.908260
2022-12-15 14:22:21.941258
2022-12-15 14:22:21.941258
2022-12-15 14:22:21.975199
2022-12-15 14:22:21.975199
2022-12-15 14:22:21.976222
2022-12-15 14:22:22.008090
2022-12-15 14:22:22.008090
2022-12-15 14:22:22.009097
2022-12-15 14:22:22.041897
2022-12-15 14:22:22.042905
2022-12-15 14:22:22.075198
2022-12-15 14:22:22.075198
2022-12-15 14:22:22.076196
2022-12-15 14:22:22.109117
