2.49266
2.49266
2.44868
2.42913
2.41446
2.39980
2.36559
2.33137
2.31182
2.31182
2.30694
2.25806
2.22385
2.22385
2.21407
2.22385
2.18475
2.17986
2.16520
2.15053
2.16520
2.23362
2.26295
2.29716
2.34115
2.36070
2.36559
2.35092
2.37047
2.33626
2.32649
2.29227
2.28250
2.25806
2.24340
2.20918
2.18475
2.17008
2.15053
2.12121
2.09677
2.08211
2.07722
2.07233
2.03323
2.03323
2.02346
1.97947
1.98924
1.94525
1.93548
1.91104
1.88172
1.89149
1.86217
1.82795
1.80840
1.79863
1.79374
1.77419
1.74975
1.73998
1.73020
1.71554
1.69110
1.69110
1.69110
1.68621
1.68621
1.70576
1.76930
1.80840
1.85239
1.89638
1.91593
1.93548
1.94037
1.94037
1.94525
1.94037
1.92570
1.92082
1.91593
1.91593
1.89149
1.88660
1.88660
1.87194
1.87194
1.84261
1.84261
1.84750
1.83773
1.84261
1.84261
1.84750
1.83284
1.82306
1.82306
1.81818
1.79863
1.78885
1.79374
1.76441
1.73998
1.72043
1.71065
1.70576
1.69110
1.67155
1.67155
1.67644
1.66666
1.64711
1.63245
1.62267
1.61290
1.60312
1.62267
1.65689
1.70087
1.73998
1.78396
1.83773
1.86705
1.88172
1.88660
1.88660
1.88172
1.85728
1.85239
1.84750
1.87683
1.83284
1.82306
1.81818
1.80840
1.79374
1.77419
1.79863
1.76441
1.75464
1.75464
1.76441
1.78396
1.77908
1.78396
1.78885
1.81329
1.77419
1.76441
1.75953
1.75464
1.75464
1.71554
1.70576
1.72043
1.69110
1.66177
1.65689
1.65200
1.66177
1.63245
1.63245
1.63734
1.62756
1.61290
1.60312
1.60801
1.61779
1.63245
1.68132
1.76441
1.82306
1.84750
1.89638
1.94037
1.97947
1.95992
1.96480
1.96480
1.96480
1.94525
1.94037
1.94525
1.94525
1.92570
1.92082
1.92082
1.90615
1.88660
1.87683
1.90615
1.88172
1.90127
1.87194
1.87194
1.87683
1.86217
1.85728
1.84750
1.85239
1.81818
1.80351
1.79374
1.78396
1.76930
1.74486
1.73509
1.74486
1.71065
1.69599
1.69110
1.68621
1.67644
1.66666
1.66177
1.67155
1.66177
1.61779
1.61290
1.62756
1.63245
1.60801
1.64222
1.69110
1.74486
1.79374
1.85239
1.90127
1.93059
1.93548
1.94525
1.95503
1.95014
1.93059
1.92570
1.92570
1.93548
1.90615
1.93059
1.89638
1.88660
1.86217
1.85239
1.85239
1.85239
1.84261
1.84261
1.86217
1.85239
1.84261
1.83284
1.83284
1.83284
1.84261
1.80351
1.82306
1.78885
1.76441
1.75464
1.73509
1.72531
1.69599
1.67644
1.66666
1.66666
1.66177
1.63245
1.62267
1.61779
1.60801
1.59335
1.57869
1.58357
1.56891
1.55425
1.57380
1.58846
1.61779
1.65689
1.71065
1.76441
1.80840
1.86217
1.85239
1.87194
1.87683
1.86705
1.86217
1.86705
1.85728
1.85239
1.84261
1.84750
1.84261
1.81818
1.80840
1.80351
1.79863
1.78885
1.77419
1.79374
1.78885
1.78885
1.79374
1.82795
1.80840
1.81818
1.78885
1.78885
1.77419
1.74975
1.72531
1.71554
1.71554
1.69110
1.67644
1.67155
1.67155
1.64711
1.63245
1.62756
1.62756
1.61290
1.59824
1.59335
1.59335
1.57380
1.56402
1.56402
1.57380
1.54936
1.55425
1.58846
1.63734
1.68132
1.72531
1.78396
1.83284
1.89638
1.87194
1.88172
1.88172
1.87683
1.85239
1.86705
1.83284
1.82306
1.82795
1.78885
1.77908
1.77419
1.76441
1.74975
1.74975
1.74975
1.74486
1.74975
1.74975
1.75464
1.74975
1.73509
1.73020
1.73020
1.70087
1.69110
1.68132
1.66666
1.66666
1.63734
1.62267
1.62756
1.63245
1.58846
1.57869
1.57869
1.56891
1.54447
1.53470
1.53470
1.52003
1.50537
1.49560
1.49560
1.49071
1.48582
1.51515
1.54447
1.58846
1.63734
1.69599
1.75464
1.78885
1.79863
1.80840
1.81329
1.81818
1.79374
1.78396
1.77908
1.76441
1.73998
1.73020
1.72043
1.74486
1.71554
1.67644
1.68621
1.68621
1.67155
1.67155
1.68132
1.69110
1.69599
1.68621
1.68621
1.71554
1.66177
1.64711
1.63734
1.63734
1.60312
1.58846
1.57869
1.57869
1.56402
1.54936
1.53958
1.53470
1.52003
1.50537
1.52981
1.50537
1.48093
1.46627
1.47116
1.50048
1.50048
1.49071
1.52492
1.57869
1.62267
1.67155
1.72531
1.79863
1.79863
1.80840
1.81329
1.80840
1.80351
1.78396
1.77419
1.76930
1.77419
1.73998
1.73020
1.73020
1.70576
1.68132
1.66666
1.66666
1.67155
1.68621
1.67155
1.67644
1.68621
1.67644
1.65689
1.65200
1.66177
1.61779
1.59824
1.57869
1.56891
1.54447
1.53958
1.52003
1.52003
1.50537
1.52492
1.49560
1.50537
1.50537
1.50537
1.50048
1.49560
1.47605
1.47116
1.46138
1.48093
1.50537
1.54936
1.60312
1.67155
1.73020
1.77419
1.83284
1.83284
1.83773
1.82306
1.81818
1.82306
1.79863
1.78396
1.77908
1.77908
1.76930
1.74975
1.73998
1.73509
1.75464
1.71554
1.70576
1.71065
1.71554
1.70576
1.70576
1.71554
1.72043
1.70576
1.71065
1.68621
1.68132
1.66177
1.64222
1.62756
1.62267
1.60801
1.59335
1.58846
1.58846
1.57380
1.56402
1.56402
1.56402
1.57380
1.52981
1.51515
1.51515
1.53470
1.52003
1.54936
1.60312
1.65200
1.71065
1.79374
1.82795
1.87194
1.88172
1.91104
1.89638
1.89149
1.86705
1.86705
1.84750
1.83773
1.82306
1.81329
1.80840
1.79863
1.77419
1.76930
1.75464
1.76441
1.73998
1.74486
1.77419
1.75464
1.74486
1.74486
1.73998
1.73509
1.71554
1.69110
1.68132
1.67155
1.64222
1.63245
1.62267
1.61290
1.60312
1.58357
1.57869
1.57380
1.56402
1.54936
1.53958
1.52981
1.52003
1.51026
1.54447
1.52981
1.55425
1.58846
1.64711
1.71065
1.76930
1.81818
1.88660
1.89638
1.93548
1.89638
1.89638
1.88172
1.86705
1.84261
1.83773
1.83284
1.82306
1.81818
1.78885
1.77908
1.77908
1.74975
1.73998
1.74975
1.74975
1.73998
1.74486
1.74486
1.74975
1.73509
1.73020
1.71554
1.70087
1.67644
1.66666
1.65200
1.64222
1.64222
1.60312
1.58846
1.62267
1.57380
1.56402
1.55913
1.54936
1.53958
1.52003
1.52003
1.54936
1.50048
1.50048
1.51026
1.54936
1.60801
1.63734
1.70576
1.78396
1.84750
1.86705
1.91593
1.91104
1.92570
1.89638
1.88660
1.88172
1.86705
1.87683
1.84750
1.84750
1.82795
1.82795
1.78396
1.77908
1.77419
1.75464
1.75464
1.75464
1.79374
1.75953
1.75953
1.78885
1.76441
1.74486
1.73020
1.74975
1.71554
1.69110
1.66666
1.65689
1.64222
1.62267
1.63245
1.60312
1.59824
1.58846
1.57380
1.57380
1.57869
1.56402
1.55425
1.56891
1.55913
1.56402
1.56891
1.60312
1.67644
1.70576
1.75464
1.83284
1.86705
1.90127
1.91593
1.95014
1.94037
1.92082
1.90615
1.89638
1.89149
1.88172
1.85728
1.85728
1.84750
1.84261
1.80351
1.78396
1.77908
1.76930
1.74975
1.75464
1.76930
1.77419
1.77419
1.77419
1.79374
1.78396
1.74975
1.73509
1.71554
1.70087
1.67644
1.65200
1.64222
1.63245
1.64222
1.60312
1.59335
1.58846
1.57380
1.58357
1.54936
1.54936
1.53958
1.53470
1.52003
1.52003
1.52003
1.53958
1.58357
1.64222
1.70087
1.76441
1.83284
1.88660
1.91104
1.92082
1.94037
1.92082
1.90615
1.88172
1.87194
1.86217
1.88172
1.82795
1.81329
1.80840
1.77908
1.75464
1.74486
1.74486
1.74486
1.73509
1.73998
1.75464
1.77419
1.73020
1.73509
1.71554
1.70576
1.70087
1.66666
1.68132
1.63734
1.62267
1.60312
1.59335
1.58846
1.56402
1.56402
1.57380
1.53958
1.52492
1.52003
1.51026
1.50537
1.48582
1.50537
1.48093
1.49071
1.51026
1.53958
1.59335
1.66666
1.73509
1.79374
1.84261
1.87683
1.87683
1.85728
1.82795
1.81818
1.80351
1.78885
1.77419
1.77419
1.75464
1.73509
1.71554
1.71065
1.69599
1.69110
1.66666
1.67155
1.67155
1.66666
1.67155
1.67644
1.68132
1.66177
1.67644
1.64222
1.63734
1.58846
1.56891
1.54936
1.52981
1.51026
1.52003
1.48093
1.47605
1.44672
1.47116
1.43695
1.43695
1.43206
1.41739
1.41739
1.42228
1.39296
1.38318
1.40273
1.42717
1.46138
1.51026
1.60801
1.65689
1.72043
1.78885
1.80840
1.83773
1.84261
1.82795
1.82306
1.81818
1.80840
1.78885
1.77908
1.77908
1.76441
1.75953
1.73509
1.72531
1.71065
1.69599
1.68621
1.68621
1.69599
1.68621
1.68621
1.69599
1.69110
1.68132
1.68621
1.65689
1.65200
1.62267
1.63245
1.58846
1.58846
1.55913
1.54447
1.54447
1.53470
1.51515
1.51515
1.51026
1.51026
1.50537
1.49560
1.48093
1.46627
1.44183
1.42717
1.41739
1.43695
1.46627
1.51515
1.59335
1.68132
1.78885
1.81818
1.87194
1.90615
1.92082
1.91104
1.90615
1.90127
1.87683
1.88660
1.84750
1.84750
1.83284
1.81818
1.79863
1.79374
1.77419
1.74975
1.74975
1.74486
1.74486
1.73020
1.74486
1.73509
1.72531
1.70576
1.69599
1.68621
1.67155
1.64222
1.62267
1.62756
1.58846
1.56402
1.57380
1.53470
1.52003
1.51026
1.50048
1.50048
1.50537
1.50048
1.49071
1.48093
1.48093
1.47116
1.45650
1.46138
1.46138
1.45650
1.45161
1.47116
1.50537
1.55425
1.61779
1.70087
1.77908
1.84261
1.92082
1.92570
1.94525
1.94037
1.92570
1.91593
1.92082
1.89149
1.85728
1.84261
1.83284
1.80840
1.76930
1.74975
1.73509
1.72531
1.73998
1.70576
1.71065
1.71554
1.69599
1.72043
1.69110
1.69110
1.65200
1.66177
1.62756
1.61779
1.62267
1.58357
1.59824
1.56891
1.55425
1.54447
1.53470
1.53470
1.52492
1.52003
1.53958
1.50537
1.49071
1.48582
1.47605
1.47116
1.47605
1.44183
1.43206
1.43695
1.43206
1.44183
1.47605
1.52981
1.59335
1.70087
1.74486
1.82306
1.87683
1.89638
1.94037
1.92082
1.90615
1.87683
1.86705
1.85728
1.85239
1.83284
1.84750
1.82306
1.80351
1.77419
1.75464
1.74975
1.76930
1.72043
1.71554
1.73020
1.73020
1.72043
1.72531
1.72531
1.71554
1.69110
1.67644
1.65200
1.64711
1.60801
1.61290
1.57380
1.57380
1.53958
1.52003
1.50537
1.51515
1.48093
1.47116
1.46627
1.48093
1.45650
1.45161
1.44672
1.44183
1.43206
1.42228
1.46138
1.45650
1.49071
1.56402
1.59824
1.66666
1.73998
1.78396
1.84261
1.85239
1.86705
1.86217
1.86217
1.86217
1.84750
1.82306
1.81329
1.80351
1.79374
1.76930
1.75953
1.73998
1.72531
1.70576
1.70576
1.71554
1.72043
1.72531
1.72531
1.72531
1.72531
1.70576
1.69599
1.68132
1.66666
1.62756
1.59335
1.56891
1.54447
1.52003
1.51026
1.50048
1.50048
1.50537
1.48093
1.48582
1.51026
1.46627
1.45650
1.44672
1.44183
1.43695
1.41739
1.41251
1.42717
1.44183
1.47605
1.53958
1.62267
1.70087
1.76930
1.83284
1.88172
1.88660
1.88172
1.86217
1.84750
1.82795
1.79374
1.76930
1.75464
1.73998
1.71554
1.72043
1.68132
1.67155
1.65200
1.64711
1.65200
1.65689
1.65200
1.66177
1.67155
1.67644
1.67644
1.65200
1.64222
1.64222
1.60801
1.59335
1.57869
1.56402
1.54447
1.54936
1.51515
1.51026
1.48582
1.47116
1.46627
1.46627
1.46138
1.43206
1.45650
1.42228
1.41739
1.41251
1.41739
1.44672
1.48582
1.55913
1.61779
1.71554
1.78885
1.84261
1.88172
1.91593
1.92082
1.90127
1.88172
1.86217
1.83773
1.80351
1.78396
1.76930
1.75464
1.72043
1.70576
1.69110
1.68621
1.67644
1.67644
1.67644
1.68621
1.68132
1.68621
1.70576
1.68621
1.67644
1.66177
1.64711
1.66666
1.60801
1.61290
1.56891
1.55425
1.52981
1.54936
1.51515
1.52003
1.50537
1.49071
1.49071
1.48582
1.46627
1.45650
1.47605
1.45161
1.46627
1.49071
1.55425
1.63734
1.72043
1.79374
1.86217
1.95014
1.96969
1.96969
1.93548
1.92570
1.90127
1.87194
1.85239
1.84261
1.82795
1.80351
1.81329
1.76441
1.76930
1.72043
1.72043
1.72531
1.73509
1.71065
1.71065
1.72043
1.72043
1.71065
1.69110
1.68132
1.67155
1.64222
1.62267
1.61290
1.60312
1.60801
1.56402
1.54936
1.54447
1.52981
1.50537
1.50537
1.51026
1.49071
1.47605
1.46627
1.46138
1.45161
1.46627
1.49560
1.56402
1.67155
1.71554
1.82306
1.90615
1.96969
1.99413
1.99902
2.00391
1.97458
1.93059
1.90615
1.89149
1.87194
1.85728
1.82795
1.83773
1.80351
1.77908
1.76441
1.76441
1.76441
1.75953
1.75464
1.76930
1.78396
1.77908
1.77908
1.77908
1.79374
1.76930
1.72043
1.70576
1.68621
1.65689
1.66666
1.62756
1.64711
1.59824
1.58846
1.57869
1.58357
1.55425
1.54447
1.53470
1.53470
1.52492
1.54936
1.53958
1.57869
1.62756
1.69599
1.77908
1.87194
1.94525
2.00391
2.03323
2.05767
2.04789
2.02346
2.00391
2.00391
1.98924
1.94525
1.92570
1.91104
1.89149
1.85728
1.83773
1.82795
1.81329
1.79374
1.78885
1.81329
1.79863
1.79863
1.79374
1.78885
1.79374
1.76441
1.75464
1.73509
1.72043
1.69110
1.67644
1.66177
1.65200
1.62756
1.61290
1.60801
1.59824
1.58357
1.57380
1.57380
1.56891
1.58357
1.54936
1.54936
1.54936
1.54936
1.57869
1.62756
1.70087
1.79863
1.85239
1.94037
1.99413
2.01857
2.02346
2.02346
2.01368
1.98924
1.95503
1.96480
1.92570
1.91104
1.88660
1.87194
1.85239
1.82306
1.78885
1.77419
1.76930
1.75953
1.75464
1.75464
1.76441
1.76930
1.75464
1.74486
1.73509
1.72043
1.69110
1.68132
1.66177
1.64711
1.62756
1.60801
1.59335
1.59335
1.56891
1.55913
1.56891
1.54936
1.54447
1.52003
1.51515
1.53958
1.49560
1.48093
1.47605
1.51026
1.48093
1.49560
1.56891
1.61290
1.69599
1.77908
1.89149
1.95014
2.00879
2.04301
2.03812
2.01857
2.00879
1.99902
1.95503
1.95992
1.91104
1.89149
1.86705
1.85728
1.83773
1.80840
1.79374
1.80840
1.79863
1.79374
1.76441
1.76441
1.76441
1.75464
1.77908
1.73509
1.75464
1.69110
1.66666
1.65200
1.62756
1.60312
1.57869
1.56891
1.59335
1.53958
1.53470
1.51515
1.51026
1.49071
1.48582
1.49560
1.48582
1.48582
1.47605
1.47605
1.48582
1.47116
1.47116
1.52003
1.52003
1.57380
1.62756
1.71065
1.81329
1.88660
1.96480
1.98924
2.01857
2.01368
1.99413
1.97458
1.95992
1.93548
1.91104
1.89638
1.88660
1.86705
1.83284
1.80840
1.79374
1.77908
1.75464
1.74975
1.75464
1.75464
1.77419
1.73509
1.73509
1.73020
1.69599
1.69599
1.65200
1.64711
1.60312
1.58357
1.56402
1.54936
1.53470
1.51515
1.50537
1.49560
1.48093
1.48582
1.46138
1.45650
1.44183
1.43695
1.42717
1.42228
1.41251
1.39784
1.39784
1.40762
1.41739
1.46138
1.50048
1.57869
1.69110
1.73998
1.81818
1.88172
1.93548
1.91593
1.90615
1.89638
1.87683
1.84261
1.83773
1.81329
1.81329
1.74975
1.73020
1.73509
1.70087
1.69110
1.65200
1.65689
1.65689
1.65200
1.65200
1.65689
1.66177
1.63734
1.66177
1.61779
1.63245
1.57869
1.55425
1.55913
1.52492
1.50048
1.48582
1.51026
1.47116
1.45650
1.45161
1.44183
1.44183
1.45650
1.42717
1.43206
1.42228
1.40762
1.39296
1.37829
1.38318
1.37829
1.38807
1.42717
1.49560
1.55913
1.64711
1.72043
1.79374
1.84261
1.86705
1.88172
1.88660
1.88660
1.83773
1.81818
1.83773
1.79374
1.76441
1.74486
1.73509
1.71065
1.67644
1.66177
1.65689
1.65200
1.64222
1.68132
1.66666
1.67644
1.69599
1.66177
1.65689
1.64711
1.64222
1.59335
1.57869
1.55913
1.53470
1.50537
1.49071
1.48093
1.48093
1.44672
1.44183
1.43695
1.45161
1.41251
1.40273
1.39784
1.38318
1.38318
1.37341
1.39296
1.44672
1.46138
1.55425
1.61290
1.72531
1.76930
1.84261
1.89638
1.91593
1.91104
1.90615
1.89638
1.88660
1.85239
1.83284
1.82306
1.81329
1.78885
1.77419
1.75464
1.74486
1.72043
1.71554
1.71065
1.71065
1.69599
1.70087
1.70576
1.70576
1.67155
1.65689
1.63245
1.61290
1.56891
1.56402
1.51515
1.49560
1.48093
1.45161
1.44672
1.41739
1.38807
1.36852
1.35386
1.36852
1.33431
1.33431
1.31964
1.32453
1.33919
1.37829
1.43695
1.52003
1.62756
1.68621
1.78885
1.82795
1.86217
1.87194
1.87194
1.87194
1.84750
1.83284
1.80840
1.78885
1.77419
1.74486
1.74486
1.73998
1.69110
1.66177
1.64222
1.64222
1.63734
1.62267
1.62756
1.64222
1.63245
1.63245
1.65200
1.61290
1.60801
1.57380
1.56402
1.53958
1.52003
1.50048
1.47605
1.46138
1.45161
1.46138
1.41251
1.41739
1.40273
1.39784
1.37829
1.37829
1.39296
1.41739
1.47116
1.54936
1.65689
1.72531
1.82306
1.85239
1.89149
1.93059
1.88660
1.87194
1.88660
1.82795
1.80840
1.78396
1.76930
1.74975
1.72043
1.69110
1.67155
1.65200
1.62756
1.61290
1.62267
1.61290
1.60312
1.60312
1.60801
1.60312
1.59335
1.56402
1.54936
1.52981
1.53470
1.48582
1.49560
1.45650
1.43695
1.45161
1.41739
1.40762
1.38318
1.38807
1.35874
1.35874
1.34897
1.35874
1.41251
1.45161
1.52981
1.59335
1.69110
1.77908
1.84750
1.89149
1.91104
1.92570
1.90127
1.87194
1.85239
1.83773
1.80840
1.78396
1.76441
1.74486
1.73020
1.69599
1.66177
1.66666
1.62267
1.60312
1.61290
1.61779
1.63245
1.61290
1.61290
1.61290
1.60801
1.57869
1.56891
1.55425
1.53958
1.53470
1.50048
1.49560
1.48582
1.47605
1.44672
1.44672
1.43206
1.42228
1.41739
1.41251
1.42228
1.41739
1.45161
1.50048
1.57869
1.66177
1.74975
1.83773
1.90615
1.96969
1.95992
1.98435
1.95503
1.92570
1.89638
1.88172
1.87683
1.81329
1.77908
1.74486
1.72531
1.68621
1.65689
1.64222
1.63734
1.63245
1.62756
1.62756
1.66666
1.62756
1.61779
1.64222
1.60801
1.59824
1.57380
1.55913
1.54447
1.52492
1.49560
1.47605
1.47116
1.45650
1.43206
1.41739
1.40762
1.39784
1.38807
1.36363
1.37341
1.38318
1.42228
1.44183
1.51515
1.61290
1.69599
1.78885
1.87683
1.92082
1.94037
1.94037
1.93059
1.92082
1.86705
1.82795
1.80840
1.77908
1.74486
1.71554
1.69599
1.67644
1.65200
1.63734
1.62756
1.63734
1.62267
1.61779
1.62756
1.62756
1.65200
1.60801
1.59824
1.59335
1.56891
1.54447
1.53958
1.51515
1.52492
1.47116
1.45650
1.44672
1.43695
1.41739
1.40762
1.39784
1.38807
1.37341
1.38318
1.37829
1.39784
1.43695
1.50048
1.59335
1.71065
1.77419
1.84750
1.91593
1.93059
1.93059
1.94525
1.89638
1.87683
1.85239
1.81329
1.79863
1.77419
1.73998
1.71065
1.68621
1.67644
1.65200
1.64222
1.67155
1.65200
1.64711
1.64222
1.64222
1.64711
1.63734
1.62267
1.60801
1.59824
1.58357
1.55913
1.54447
1.52981
1.50537
1.48093
1.46627
1.47116
1.44183
1.42717
1.42717
1.41251
1.43206
1.38807
1.39784
1.42228
1.47605
1.52492
1.61290
1.71065
1.80840
1.86705
1.91593
1.95014
1.95992
1.93548
1.92570
1.89149
1.86217
1.82306
1.79863
1.77908
1.75953
1.72531
1.70087
1.70087
1.67155
1.66177
1.65200
1.65689
1.66666
1.65689
1.65200
1.65200
1.65200
1.63245
1.61779
1.63734
1.59335
1.60312
1.54447
1.52981
1.52492
1.50537
1.48582
1.47605
1.47116
1.45650
1.44183
1.43695
1.43206
1.42228
1.41251
1.41251
1.43695
1.48582
1.53958
1.63245
1.74975
1.82306
1.89638
1.95992
2.00391
2.02346
2.01857
1.98435
1.96480
1.93548
1.90615
1.87683
1.85239
1.83284
1.79374
1.75953
1.73998
1.72043
1.70087
1.70087
1.69599
1.70087
1.70087
1.69110
1.69599
1.72043
1.68132
1.66177
1.67644
1.63734
1.60801
1.58357
1.56891
1.55425
1.52981
1.52981
1.50048
1.49560
1.47605
1.46138
1.45650
1.45650
1.44672
1.45650
1.41739
1.41739
1.40762
1.40273
1.42717
1.45650
1.52981
1.59335
1.68621
1.79374
1.87683
1.94525
1.96480
1.98435
1.99902
1.97947
1.93059
1.90615
1.91593
1.84750
1.81818
1.79863
1.77419
1.73509
1.71065
1.70087
1.68621
1.67155
1.66666
1.67155
1.68132
1.67644
1.70087
1.67155
1.66666
1.64222
1.62267
1.60801
1.58357
1.57869
1.52981
1.51515
1.50537
1.48582
1.47116
1.45650
1.45650
1.44183
1.42717
1.41739
1.41739
1.40273
1.38807
1.37829
1.37829
1.37341
1.38807
1.38318
1.43206
1.50537
1.56891
1.66666
1.75953
1.83773
1.87683
1.91104
1.92082
1.94525
1.88660
1.85728
1.84750
1.81329
1.77419
1.74975
1.72043
1.71554
1.69110
1.66177
1.62756
1.65200
1.60801
1.61290
1.61779
1.62756
1.64222
1.62267
1.61779
1.61290
1.59824
1.57869
1.55913
1.54447
1.51515
1.49560
1.48582
1.47116
1.45650
1.43695
1.43695
1.43206
1.44183
1.40762
1.40273
1.40762
1.40273
1.38318
1.38807
1.41739
1.38807
1.38807
1.43206
1.47116
1.53470
1.60801
1.69599
1.77908
1.85239
1.88660
1.90615
1.92082
1.92082
1.87194
1.84750
1.80840
1.78396
1.74975
1.72531
1.69110
1.66666
1.63734
1.60801
1.59824
1.61779
1.58357
1.57869
1.58357
1.58846
1.58357
1.57380
1.56891
1.59335
1.54936
1.52003
1.51026
1.49071
1.47116
1.45161
1.43695
1.42717
1.40273
1.38807
1.38807
1.37829
1.36363
1.35386
1.34897
1.34408
1.33919
1.34897
1.31964
1.32942
1.34408
1.37341
1.42717
1.51026
1.60312
1.68132
1.76441
1.82306
1.85728
1.88172
1.84750
1.83284
1.80351
1.76441
1.73998
1.71554
1.69599
1.65200
1.63245
1.60312
1.59335
1.57380
1.58846
1.57869
1.57869
1.57869
1.58846
1.58846
1.59335
1.60312
1.60801
1.59335
1.55425
1.53470
1.50537
1.49071
1.48093
1.46138
1.43695
1.44672
1.42228
1.41251
1.39784
1.39296
1.38807
1.36852
1.35386
1.35386
1.33919
1.35386
1.34897
1.38807
1.45161
1.52981
1.61779
1.71065
1.78396
1.84750
1.86217
1.87194
1.89149
1.85239
1.83773
1.78396
1.75953
1.73998
1.73020
1.67644
1.65689
1.63734
1.59824
1.57869
1.57380
1.57869
1.57380
1.57869
1.58357
1.60312
1.59335
1.57869
1.57869
1.56891
1.54936
1.52981
1.51515
1.50537
1.48093
1.45650
1.45161
1.44672
1.43695
1.41739
1.41251
1.40762
1.39296
1.38807
1.39296
1.38318
1.38318
1.41251
1.42717
1.48582
1.55425
1.63734
1.72043
1.81329
1.87683
1.92082
1.92570
1.94037
1.92570
1.89149
1.89149
1.85239
1.83284
1.82306
1.77908
1.76930
1.75953
1.70576
1.67644
1.66666
1.66177
1.67644
1.65200
1.65200
1.69110
1.65200
1.64222
1.64222
1.63245
1.61779
1.59824
1.58357
1.57380
1.56891
1.55913
1.51515
1.50537
1.49071
1.48582
1.46627
1.45650
1.44672
1.42717
1.42717
1.42717
1.41739
1.43206
1.43206
1.47605
1.53470
1.60801
1.73020
1.79863
1.87194
1.91593
1.94525
1.96969
1.95503
1.95992
1.90615
1.89149
1.86705
1.83284
1.83284
1.79374
1.76930
1.73998
1.71065
1.69599
1.68621
1.66666
1.66666
1.66666
1.67644
1.66666
1.66666
1.66666
1.66177
1.64711
1.62267
1.62267
1.58846
1.56402
1.53958
1.52492
1.52003
1.49560
1.48093
1.47116
1.48582
1.45650
1.43695
1.43206
1.46138
1.42717
1.41739
1.41251
1.42717
1.44183
1.47116
1.52981
1.61290
1.72531
1.76930
1.84750
1.91104
1.94525
1.94525
1.94037
1.95014
1.89638
1.86705
1.84750
1.84261
1.82306
1.78885
1.75464
1.73020
1.71065
1.68132
1.69599
1.66666
1.67155
1.66177
1.66666
1.67155
1.67155
1.65200
1.65689
1.62267
1.61290
1.58357
1.56402
1.55425
1.52981
1.51026
1.49560
1.48093
1.48582
1.45650
1.44672
1.47116
1.44183
1.43206
1.41251
1.40762
1.40762
1.38807
1.37829
1.41251
1.39296
1.42228
1.48093
1.52981
1.60801
1.66177
1.70576
1.73020
1.76441
1.78396
1.77908
1.77419
1.75464
1.73020
1.69599
1.67644
1.66177
1.64222
1.62267
1.62756
1.57869
1.56402
1.54447
1.53958
1.54447
1.55425
1.54936
1.54936
1.54936
1.55425
1.53470
1.52003
1.50537
1.49560
1.47116
1.45161
1.43206
1.45650
1.41251
1.39296
1.40273
1.38318
1.37341
1.35874
1.36852
1.35874
1.34408
1.33431
1.32942
1.32453
1.31476
1.31476
1.32942
1.36363
1.42717
1.49071
1.55913
1.65200
1.72043
1.76930
1.80840
1.83284
1.82795
1.80351
1.81818
1.77419
1.75953
1.72043
1.70576
1.69110
1.69599
1.63734
1.61290
1.60312
1.60312
1.56402
1.56891
1.56891
1.58846
1.60312
1.56891
1.56891
1.56891
1.54447
1.52981
1.51026
1.49560
1.47116
1.45161
1.43695
1.43206
1.41251
1.40273
1.39784
1.39784
1.40273
1.38318
1.37341
1.38318
1.38807
1.37341
1.35386
1.35874
1.35874
1.38807
1.38318
1.43206
1.48093
1.54936
1.63734
1.71554
1.78396
1.82306
1.84261
1.86217
1.88660
1.83284
1.81818
1.80840
1.79374
1.76930
1.78885
1.74486
1.74975
1.69599
1.68132
1.65689
1.64711
1.62756
1.65689
1.62267
1.63245
1.62267
1.61779
1.61779
1.61290
1.59824
1.57869
1.55913
1.55425
1.53470
1.53470
1.48582
1.51026
1.46627
1.45650
1.45650
1.43695
1.42228
1.41251
1.41251
1.40762
1.42228
1.40762
1.39296
1.38318
1.37829
1.36852
1.38318
1.40762
1.45161
1.51026
1.58846
1.67644
1.75464
1.81329
1.85239
1.87683
1.88660
1.89638
1.85239
1.83773
1.82795
1.79374
1.78885
1.77419
1.78885
1.72043
1.70087
1.67155
1.66666
1.63734
1.62267
1.62267
1.63245
1.62267
1.63734
1.62267
1.62267
1.60801
1.59335
1.57869
1.56891
1.54447
1.52003
1.51026
1.50048
1.49560
1.46627
1.45650
1.45650
1.44183
1.44672
1.42228
1.42717
1.42228
1.40762
1.40762
1.40273
1.42228
1.41251
1.40273
1.40762
1.42717
1.44672
1.50537
1.57380
1.65200
1.71065
1.77419
1.82795
1.87194
1.85728
1.85239
1.83284
1.84261
1.79374
1.77419
1.76930
1.74975
1.71554
1.70087
1.67644
1.65689
1.62756
1.60801
1.61290
1.61290
1.60312
1.60801
1.61290
1.64222
1.60312
1.59335
1.58357
1.57380
1.55425
1.52981
1.51515
1.50537
1.48582
1.46627
1.46138
1.45650
1.44183
1.42717
1.43206
1.42717
1.41739
1.43695
1.40762
1.39784
1.39296
1.37829
1.37341
1.37829
1.37829
1.38318
1.41739
1.47116
1.56891
1.60312
1.68132
1.74975
1.79863
1.81329
1.82795
1.81818
1.80840
1.77419
1.74975
1.72531
1.71065
1.71065
1.66177
1.64222
1.62756
1.59335
1.60801
1.57380
1.59335
1.58357
1.57380
1.58357
1.59335
1.61290
1.57380
1.57380
1.56891
1.54936
1.52981
1.51515
1.49560
1.47605
1.45650
1.44183
1.42717
1.42228
1.40762
1.39296
1.39296
1.38807
1.40273
1.36852
1.36363
1.35386
1.34897
1.35874
1.33919
1.34408
1.34897
1.37341
1.41739
1.47605
1.53958
1.61779
1.69110
1.74486
1.76930
1.78396
1.79374
1.79374
1.74975
1.73998
1.70576
1.69110
1.65689
1.63245
1.61779
1.59824
1.57380
1.55425
1.55425
1.55425
1.54447
1.54447
1.55913
1.56402
1.55913
1.54936
1.54447
1.53958
1.52003
1.50537
1.50048
1.48093
1.45650
1.43695
1.42228
1.41739
1.41251
1.39296
1.38318
1.38318
1.37341
1.36852
1.36852
1.35386
1.35386
1.34408
1.33919
1.34897
1.35386
1.40273
1.41251
1.50537
1.54936
1.62267
1.69599
1.75953
1.80840
1.82795
1.81818
1.80840
1.79374
1.75953
1.73998
1.75464
1.73020
1.69110
1.67644
1.65689
1.64711
1.62267
1.60801
1.60312
1.60801
1.60801
1.60312
1.61290
1.62267
1.61779
1.61290
1.60801
1.60801
1.58357
1.56402
1.55425
1.53958
1.52003
1.50048
1.49560
1.48093
1.46627
1.45650
1.45161
1.44183
1.43695
1.42717
1.42228
1.41739
1.41739
1.40273
1.40273
1.41739
1.44183
1.47605
1.55913
1.62267
1.70576
1.76930
1.83284
1.87683
1.89638
1.88660
1.87683
1.86217
1.84750
1.81329
1.79374
1.80351
1.76930
1.73998
1.71554
1.71065
1.68621
1.66666
1.65200
1.64711
1.65689
1.65200
1.65200
1.65689
1.65689
1.65200
1.63734
1.64711
1.61779
1.59824
1.57380
1.55425
1.54936
1.52981
1.50537
1.52492
1.51515
1.49071
1.48582
1.46138
1.45650
1.44672
1.43695
1.42717
1.42717
1.42717
1.41739
1.43206
1.45650
1.49560
1.54936
1.66177
1.71065
1.79374
1.84261
1.88660
1.94525
1.92082
1.90615
1.88660
1.88172
1.86217
1.82795
1.81329
1.79863
1.79374
1.76441
1.73998
1.72531
1.72043
1.70087
1.69599
1.70087
1.70576
1.70087
1.69599
1.70087
1.69599
1.68132
1.66666
1.64711
1.63245
1.61779
1.58846
1.57869
1.56402
1.54447
1.52492
1.51026
1.50537
1.49071
1.48093
1.47116
1.46627
1.48582
1.47116
1.43206
1.43695
1.44183
1.43695
1.46627
1.52492
1.58846
1.66177
1.74975
1.84261
1.89149
1.91104
1.91593
1.92082
1.90615
1.87194
1.84261
1.82306
1.80840
1.77419
1.75953
1.73509
1.71554
1.69110
1.67155
1.66666
1.67155
1.66666
1.69110
1.67155
1.70087
1.67644
1.66666
1.66177
1.65689
1.64222
1.61290
1.59824
1.58846
1.56891
1.54447
1.53470
1.52492
1.51026
1.49071
1.48582
1.49560
1.48093
1.45650
1.47116
1.45161
1.43695
1.43206
1.42717
1.44183
1.48093
1.52492
1.60801
1.68132
1.76441
1.84261
1.88172
1.92082
1.96480
1.94037
1.89638
1.87683
1.85728
1.82306
1.79863
1.78396
1.76930
1.73998
1.71554
1.69599
1.71065
1.67644
1.67644
1.67155
1.67644
1.67155
1.66666
1.67155
1.66666
1.66666
1.63734
1.61779
1.60801
1.58357
1.56402
1.56402
1.53470
1.51515
1.49560
1.48582
1.47605
1.46627
1.44183
1.43695
1.45650
1.42717
1.42228
1.41251
1.42717
1.40762
1.41739
1.44672
1.51026
1.58846
1.66177
1.74975
1.82795
1.89149
1.91593
1.92570
1.93059
1.91593
1.88172
1.86217
1.85728
1.83284
1.81329
1.78885
1.77908
1.75953
1.76441
1.71065
1.70087
1.69599
1.69110
1.68132
1.68132
1.69110
1.68132
1.67644
1.66177
1.66177
1.67644
1.61779
1.60312
1.59824
1.56891
1.54447
1.52981
1.52492
1.51515
1.49560
1.48582
1.48582
1.48093
1.46627
1.45650
1.46138
1.44672
1.46138
1.44183
1.44183
1.44672
1.47605
1.54447
1.60801
1.69599
1.77419
1.85239
1.94037
1.95014
1.95503
1.94525
1.93059
1.91593
1.88172
1.85728
1.86217
1.82795
1.79374
1.76441
1.74975
1.73020
1.73020
1.68621
1.67644
1.69110
1.67644
1.66666
1.69110
1.67644
1.67155
1.66177
1.65200
1.64711
1.62756
1.59824
1.57869
1.56891
1.54936
1.53470
1.52003
1.51026
1.50048
1.49071
1.47605
1.47116
1.49071
1.46627
1.44183
1.44183
1.43695
1.42228
1.41251
1.41251
1.42228
1.43206
1.46627
1.52981
1.60801
1.68621
1.77419
1.86705
1.93059
1.93059
1.93548
1.92570
1.91104
1.87194
1.85239
1.82795
1.80840
1.78396
1.77908
1.73998
1.72043
1.68621
1.67155
1.66666
1.66177
1.65689
1.65200
1.65689
1.66666
1.66177
1.64711
1.64711
1.63734
1.61779
1.60801
1.57869
1.56402
1.54936
1.52981
1.51026
1.50048
1.49071
1.47605
1.46627
1.46627
1.46138
1.44183
1.43695
1.43695
1.43206
1.41739
1.41739
1.42228
1.42228
1.45161
1.47116
1.52003
1.59335
1.67155
1.76441
1.82795
1.89149
1.91593
1.92082
1.92082
1.93059
1.87194
1.84750
1.82306
1.80351
1.77419
1.74975
1.73020
1.71554
1.68132
1.65689
1.64711
1.65200
1.64711
1.64222
1.64711
1.67644
1.65200
1.63734
1.63245
1.62756
1.60801
1.58357
1.56402
1.55425
1.52981
1.49560
1.48093
1.47116
1.46627
1.45161
1.44183
1.46627
1.43206
1.41739
1.40762
1.41251
1.42717
1.38318
1.37829
1.38318
1.38807
1.39296
1.41251
1.46627
1.53958
1.61290
1.70576
1.78885
1.85239
1.88660
1.89638
1.90615
1.89149
1.85239
1.82795
1.80351
1.78396
1.74975
1.73998
1.69599
1.68132
1.65200
1.63245
1.61290
1.62267
1.61290
1.64222
1.62267
1.65689
1.62756
1.61779
1.64711
1.61290
1.58846
1.56402
1.54936
1.53470
1.53470
1.49071
1.48093
1.48093
1.47116
1.44672
1.43695
1.43206
1.42717
1.40762
1.40762
1.40762
1.39784
1.39784
1.38318
1.38807
1.41251
1.44183
1.50537
1.58357
1.67155
1.74975
1.81818
1.86705
1.90127
1.89638
1.88172
1.86217
1.85728
1.79863
1.78885
1.75464
1.73509
1.71065
1.67644
1.65689
1.63734
1.61779
1.62756
1.58846
1.60312
1.59824
1.59824
1.60801
1.61779
1.61779
1.61290
1.59824
1.58846
1.57869
1.54936
1.53470
1.52492
1.51515
1.52003
1.48093
1.47605
1.46627
1.47605
1.44672
1.44183
1.43695
1.41739
1.41739
1.41251
1.41739
1.41739
1.43695
1.48582
1.55913
1.63245
1.73509
1.81818
1.90127
1.94037
1.96969
1.97458
1.97458
1.94037
1.90615
1.88660
1.86705
1.83284
1.80840
1.78396
1.76441
1.73020
1.70576
1.68621
1.68621
1.70087
1.66666
1.67644
1.69110
1.68132
1.67644
1.67155
1.67155
1.66177
1.64222
1.62267
1.60801
1.59335
1.57380
1.54936
1.53958
1.52492
1.50537
1.50048
1.50537
1.48582
1.46627
1.45650
1.45161
1.44183
1.42717
1.42717
1.43695
1.46138
1.48093
1.54936
1.65689
1.73998
1.80351
1.87683
1.93059
1.99413
1.96480
1.95503
1.94525
1.93059
1.89638
1.86705
1.85239
1.83284
1.80840
1.77419
1.76930
1.73020
1.71065
1.70576
1.69599
1.70576
1.70576
1.70576
1.70087
1.71554
1.70576
1.69599
1.69599
1.67155
1.64711
1.62267
1.59824
1.58846
1.56402
1.53958
1.52492
1.52003
1.51515
1.49560
1.48093
1.48093
1.47605
1.45650
1.45161
1.45161
1.45650
1.48093
1.47116
1.50048
1.56402
1.64222
1.71554
1.80840
1.88660
1.93548
1.98924
1.99902
2.02346
1.98924
1.94525
1.92570
1.90127
1.86705
1.83284
1.81329
1.79374
1.75953
1.74486
1.71554
1.71065
1.72043
1.69599
1.70087
1.70576
1.71065
1.70087
1.70087
1.71065
1.67644
1.64222
1.62756
1.60801
1.58846
1.56891
1.55425
1.56891
1.52492
1.51026
1.50537
1.49071
1.48582
1.49071
1.45161
1.44672
1.44183
1.42228
1.42717
1.44672
1.46138
1.49071
1.56402
1.67155
1.73509
1.81818
1.92082
1.95992
1.99902
1.99902
1.98435
1.96480
1.94037
1.90127
1.87194
1.83773
1.81329
1.76930
1.73998
1.71065
1.69110
1.66666
1.65200
1.67155
1.66177
1.66177
1.66666
1.69110
1.67644
1.66666
1.64711
1.66666
1.62756
1.60312
1.57380
1.55913
1.54447
1.53470
1.51026
1.49560
1.51515
1.50537
1.45161
1.44183
1.43695
1.42228
1.41739
1.40762
1.40762
1.40762
1.41251
1.44183
1.49560
1.57869
1.65200
1.75464
1.84750
1.94525
1.96969
2.00391
1.99902
1.99413
1.95503
1.92082
1.89149
1.87194
1.83284
1.79863
1.77419
1.75464
1.71554
1.68132
1.67155
1.66666
1.67155
1.66177
1.67155
1.68132
1.68132
1.70087
1.66177
1.66177
1.64711
1.61779
1.60801
1.58846
1.56891
1.54447
1.52492
1.51515
1.50048
1.51026
1.47605
1.47116
1.47605
1.44672
1.43695
1.43206
1.42228
1.40762
1.40273
1.41251
1.43695
1.46627
1.53958
1.62756
1.73509
1.83284
1.90615
1.97458
2.02346
2.01368
2.00391
1.97947
1.95992
1.91593
1.87683
1.86217
1.84261
1.80840
1.77419
1.74486
1.71554
1.68132
1.65689
1.66177
1.65200
1.64222
1.64222
1.65200
1.66177
1.67155
1.63734
1.62756
1.61290
1.59824
1.56402
1.54447
1.53470
1.52003
1.49560
1.49071
1.48582
1.47116
1.45161
1.44672
1.46138
1.46138
1.41739
1.43206
1.40762
1.40762
1.39296
1.40762
1.43695
1.48093
1.54936
1.64711
1.74975
1.85239
1.92570
1.97947
2.01857
2.06256
2.00879
1.98435
1.95503
1.92570
1.90127
1.85728
1.85728
1.81329
1.77419
1.76441
1.71554
1.70087
1.70087
1.67155
1.70087
1.67644
1.68621
1.67644
1.68132
1.70087
1.67155
1.64711
1.63245
1.61779
1.59824
1.57380
1.54936
1.53470
1.51026
1.49071
1.48093
1.50537
1.46627
1.45161
1.44183
1.44183
1.43206
1.41739
1.40762
1.40273
1.39784
1.38318
1.39784
1.40273
1.44183
1.52003
1.57380
1.67644
1.78885
1.86705
1.94037
1.99902
2.02346
2.01368
2.00391
1.96969
1.95503
1.90615
1.87194
1.83284
1.81329
1.77908
1.73509
1.71065
1.70087
1.67155
1.65689
1.66666
1.67155
1.69599
1.66666
1.68621
1.67155
1.66177
1.64222
1.62756
1.61779
1.58846
1.56402
1.53958
1.52981
1.51026
1.48582
1.47116
1.46138
1.46138
1.43695
1.44183
1.42717
1.43695
1.40273
1.40273
1.39296
1.39296
1.37341
1.36363
1.37829
1.38318
1.40762
1.45650
1.56402
1.63734
1.73509
1.82795
1.91593
1.97458
2.00879
1.98435
1.96480
1.97458
1.89638
1.86217
1.83284
1.80840
1.77419
1.73509
1.72043
1.68132
1.65200
1.63245
1.62756
1.63245
1.63245
1.66177
1.64222
1.64711
1.64222
1.62756
1.61779
1.61290
1.59824
1.56402
1.55425
1.52492
1.50048
1.47605
1.46138
1.45650
1.44672
1.44183
1.42228
1.41739
1.44672
1.39784
1.39296
1.39296
1.39296
1.40762
1.37341
1.39784
1.39296
1.41251
1.45650
1.53470
1.62756
1.72043
1.81818
1.90615
1.97947
1.99902
2.00391
1.99413
1.96969
1.92570
1.88660
1.85239
1.82795
1.78885
1.74975
1.72043
1.70087
1.67644
1.64222
1.63245
1.64222
1.64222
1.63734
1.64711
1.64711
1.64711
1.63245
1.65689
1.61779
1.60312
1.56402
1.54447
1.52981
1.50537
1.48093
1.46138
1.48093
1.44183
1.45650
1.41739
1.42228
1.40762
1.38807
1.37341
1.37341
1.37341
1.35386
1.34897
1.36363
1.38318
1.42228
1.49071
1.58846
1.69599
1.78885
1.87683
1.95014
1.98924
1.98924
1.96480
1.94037
1.90127
1.85239
1.81329
1.77908
1.74975
1.71065
1.67155
1.64222
1.62756
1.61779
1.60312
1.60801
1.62267
1.63245
1.65200
1.64222
1.65689
1.64711
1.62756
1.61779
1.60312
1.58357
1.54936
1.55913
1.51515
1.50048
1.48582
1.46138
1.46138
1.44183
1.42228
1.40762
1.40762
1.39784
1.39296
1.37341
1.36852
1.37829
1.39296
1.43206
1.50537
1.60801
1.70576
1.80840
1.90615
2.00879
2.01368
2.04789
2.03323
1.98435
1.93548
1.89149
1.85728
1.83284
1.79374
1.75464
1.73020
1.70576
1.67644
1.65200
1.64711
1.65200
1.65200
1.65200
1.67644
1.68132
1.69599
1.66666
1.65689
1.67155
1.63734
1.59824
1.60312
1.55913
1.53470
1.50537
1.49071
1.47116
1.46138
1.44183
1.42228
1.41739
1.40762
1.41739
1.37829
1.38318
1.38318
1.39296
1.44183
1.51515
1.61779
1.72043
1.82306
1.91593
1.98924
2.00879
2.01857
2.00879
1.99902
1.96480
1.93548
1.87683
1.86217
1.82795
1.79374
1.77419
1.75464
1.72531
1.70087
1.70087
1.70087
1.73020
1.70087
1.71065
1.72531
1.72043
1.71065
1.70087
1.69599
1.67644
1.64222
1.62267
1.60801
1.57869
1.55913
1.53958
1.53958
1.52003
1.50537
1.48582
1.48093
1.47116
1.45161
1.45161
1.44672
1.45161
1.46627
1.54447
1.59824
1.71065
1.80351
1.90615
2.01368
2.06256
2.10166
2.08211
2.07233
2.05278
2.00879
1.97458
1.95014
1.93548
1.90127
1.87194
1.84261
1.81329
1.80840
1.74975
1.73509
1.73998
1.73020
1.72043
1.73020
1.73509
1.73998
1.71554
1.73020
1.69599
1.67155
1.65200
1.62267
1.62756
1.57869
1.55425
1.53470
1.53958
1.51515
1.52003
1.48093
1.47605
1.46627
1.44183
1.46627
1.43206
1.42717
1.42717
1.45161
1.52981
1.57869
1.66666
1.77908
1.87683
1.97458
2.02346
2.05278
2.06744
2.05767
2.02346
1.98924
1.96480
1.94525
1.90615
1.88660
1.84750
1.82306
1.76930
1.73020
1.71065
1.69599
1.67644
1.67155
1.67644
1.68621
1.68132
1.67644
1.66177
1.65689
1.63734
1.60312
1.58357
1.56402
1.53470
1.53958
1.49560
1.47605
1.46138
1.44183
1.42717
1.42717
1.41251
1.40273
1.38318
1.37829
1.38318
1.36363
1.35874
1.36363
1.40273
1.38807
1.43206
1.51515
1.59335
1.68132
1.77419
1.85728
1.94037
1.92082
1.92082
1.91104
1.91593
1.84261
1.81329
1.79374
1.77419
1.73998
1.70576
1.67644
1.65689
1.63734
1.59824
1.58846
1.58357
1.57380
1.58846
1.58846
1.56891
1.55913
1.55425
1.52981
1.51515
1.50048
1.46138
1.44183
1.42717
1.40273
1.37829
1.36852
1.34408
1.34897
1.31476
1.33431
1.30009
1.29521
1.28054
1.27565
1.26588
1.26588
1.23655
1.23167
1.23167
1.26099
1.22678
1.25122
1.27077
1.32453
1.38807
1.49560
1.56891
1.65689
1.71065
1.74486
1.78396
1.76441
1.73509
1.70576
1.68132
1.65689
1.62756
1.59824
1.57869
1.56402
1.52492
1.50537
1.49071
1.48582
1.48093
1.47605
1.48093
1.49560
1.50537
1.49560
1.49560
1.49560
1.47605
1.45650
1.43695
1.42717
1.40762
1.38807
1.36852
1.36363
1.34408
1.32453
1.32453
1.31964
1.34408
1.30987
1.30009
1.32942
1.30009
1.27565
1.25610
1.25610
1.25122
1.25122
1.24144
1.25610
1.27077
1.30009
1.36363
1.44672
1.54447
1.63245
1.70576
1.77419
1.79863
1.78885
1.77419
1.75464
1.73509
1.70576
1.68132
1.66666
1.67644
1.61779
1.58357
1.56402
1.54936
1.55913
1.51515
1.51515
1.52003
1.52492
1.52003
1.52492
1.53470
1.52492
1.51515
1.49560
1.48093
1.46138
1.43695
1.41739
1.40762
1.38807
1.36852
1.39296
1.36363
1.35874
1.33919
1.33919
1.33919
1.33431
1.31964
1.31476
1.31476
1.30987
1.32453
1.29521
1.29032
1.29032
1.28543
1.30009
1.33919
1.38807
1.45161
1.53958
1.64222
1.73509
1.80351
1.83773
1.85728
1.85728
1.86217
1.80351
1.77908
1.76441
1.76441
1.72043
1.71065
1.70087
1.67644
1.64711
1.62756
1.61779
1.63245
1.59824
1.59824
1.60801
1.61290
1.60312
1.59824
1.60312
1.61290
1.59335
1.58846
1.55425
1.52492
1.49560
1.48093
1.47116
1.46138
1.43695
1.42228
1.42228
1.41739
1.39784
1.39296
1.38807
1.38807
1.37829
1.38318
1.36852
1.38807
1.33919
1.35386
1.32453
1.31964
1.30987
1.30987
1.31476
1.34897
1.38807
1.45650
1.54936
1.64711
1.73509
1.80351
1.88172
1.88660
1.87683
1.85239
1.83284
1.81818
1.79374
1.75464
1.73998
1.73020
1.71554
1.68621
1.67644
1.65689
1.64222
1.61779
1.64222
1.61779
1.62267
1.61290
1.61779
1.62267
1.61290
1.59824
1.60312
1.59335
1.56402
1.52492
1.51026
1.49560
1.48093
1.46138
1.43695
1.44183
1.42717
1.40762
1.39784
1.40273
1.37829
1.36852
1.35386
1.34897
1.34897
1.33919
1.35386
1.31964
1.31964
1.30498
1.29521
1.29032
1.29521
1.30009
1.32453
1.40762
1.47116
1.54447
1.65200
1.71554
1.79374
1.85239
1.87194
1.87683
1.87194
1.84750
1.81329
1.80840
1.76441
1.74486
1.72043
1.71554
1.68621
1.66666
1.64222
1.64711
1.62267
1.62267
1.61779
1.62267
1.63245
1.64222
1.63245
1.65689
1.63245
1.64711
1.59824
1.58357
1.56891
1.55425
1.52981
1.51026
1.49560
1.49071
1.46627
1.45161
1.43206
1.43206
1.43206
1.40273
1.39296
1.38807
1.37829
1.38807
1.36852
1.36852
1.35386
1.34408
1.35874
1.35386
1.35386
1.37829
1.42717
1.50048
1.58846
1.67644
1.76930
1.84750
1.90127
1.91593
1.93059
1.94525
1.89149
1.85728
1.82306
1.80351
1.77908
1.75953
1.72531
1.71554
1.69110
1.65689
1.65689
1.63734
1.64222
1.63734
1.64222
1.65689
1.67155
1.66177
1.65689
1.64711
1.64222
1.61290
1.59335
1.57869
1.56402
1.53958
1.51026
1.50048
1.49071
1.47116
1.45161
1.44672
1.43695
1.42717
1.41739
1.40762
1.40762
1.39296
1.38318
1.37341
1.38318
1.37341
1.36363
1.37341
1.39784
1.44183
1.50048
1.59335
1.69599
1.78885
1.86217
1.92082
1.95992
1.97458
1.97947
1.93548
1.91104
1.88172
1.84261
1.81329
1.79374
1.77908
1.74975
1.72043
1.70087
1.69110
1.67155
1.70087
1.67644
1.69110
1.69599
1.69599
1.70576
1.70576
1.69110
1.68132
1.66666
1.65200
1.62756
1.60312
1.57869
1.55913
1.53958
1.51515
1.50537
1.52003
1.48582
1.47116
1.47116
1.46627
1.45650
1.43206
1.42717
1.42717
1.42228
1.40762
1.41251
1.45650
1.46138
1.53958
1.59335
1.70087
1.80351
1.88660
1.95503
2.01368
2.03812
2.01857
1.99902
1.97947
1.94525
1.91104
1.87194
1.85728
1.83284
1.79863
1.77908
1.75464
1.73998
1.71065
1.70576
1.69599
1.70576
1.70087
1.70087
1.71554
1.72043
1.70576
1.69599
1.68621
1.67644
1.65200
1.64711
1.62267
1.59335
1.56891
1.54936
1.53470
1.54447
1.50537
1.48582
1.48093
1.48093
1.46138
1.45161
1.45650
1.43695
1.43206
1.43206
1.44183
1.47116
1.52492
1.59824
1.70087
1.81329
1.91104
1.98435
2.03812
2.06256
2.06744
2.02834
1.99413
1.96969
1.94525
1.90127
1.88172
1.87683
1.85728
1.82795
1.80351
1.79374
1.78396
1.75464
1.75464
1.75953
1.76441
1.77419
1.78885
1.76930
1.76930
1.74975
1.73509
1.72531
1.71065
1.68132
1.68621
1.64711
1.62267
1.60312
1.60801
1.60312
1.56891
1.54936
1.53470
1.52492
1.52492
1.51515
1.49071
1.48582
1.48582
1.48093
1.47605
1.51026
1.53470
1.61290
1.69110
1.79374
1.89638
1.97947
2.03323
2.06256
2.07722
2.07233
2.06744
2.00879
1.98435
1.96480
1.93548
1.90127
1.89149
1.88660
1.84750
1.82795
1.81818
1.77908
1.76930
1.75464
1.75953
1.76930
1.76441
1.76441
1.76441
1.77908
1.74486
1.72531
1.71065
1.69110
1.66177
1.63734
1.61779
1.61290
1.58846
1.56891
1.55913
1.54936
1.53470
1.52492
1.52003
1.52003
1.53958
1.49071
1.49071
1.49560
1.50537
1.49560
1.51026
1.56402
1.62267
1.70087
1.79863
1.90127
1.98435
2.03323
2.06744
2.08211
2.07722
2.04301
2.01857
1.98924
1.96480
1.93059
1.91104
1.88172
1.86217
1.82795
1.79374
1.77908
1.76930
1.76930
1.73998
1.74486
1.75464
1.74975
1.74486
1.74486
1.74486
1.74486
1.70087
1.68132
1.66666
1.63245
1.60801
1.58846
1.56891
1.57380
1.52981
1.52003
1.51026
1.49560
1.48582
1.47605
1.47116
1.45650
1.44183
1.43206
1.43206
1.43206
1.43206
1.45161
1.53470
1.57380
1.65200
1.74975
1.85239
1.92570
1.96969
2.01857
1.99902
1.98435
1.94525
1.91104
1.88172
1.87194
1.81818
1.79863
1.77419
1.76441
1.74486
1.71065
1.68132
1.67644
1.66666
1.65689
1.66177
1.66666
1.66666
1.66666
1.66177
1.65689
1.64222
1.63734
1.58846
1.57380
1.53958
1.51515
1.49560
1.48093
1.48093
1.45650
1.43206
1.43695
1.42228
1.40762
1.41739
1.41251
1.39296
1.36852
1.36852
1.36852
1.37341
1.38318
1.45161
1.48582
1.56891
1.66666
1.78396
1.86217
1.95992
1.95992
2.01368
1.97458
1.95992
1.92082
1.89149
1.87194
1.84750
1.81818
1.79863
1.77908
1.76441
1.74975
1.70087
1.68621
1.68132
1.67155
1.67155
1.69599
1.71554
1.71554
1.67644
1.70087
1.69110
1.67155
1.61779
1.59824
1.57869
1.55913
1.53470
1.51515
1.50537
1.49071
1.47605
1.49560
1.46138
1.44672
1.43206
1.42717
1.41739
1.41251
1.39784
1.41739
1.38807
1.39296
1.39296
1.41251
1.47116
1.53958
1.60801
1.72531
1.81818
1.91593
1.96480
1.98435
1.99413
1.98924
1.95503
1.95014
1.89638
1.87683
1.84261
1.84261
1.80351
1.78885
1.75464
1.72531
1.70576
1.69110
1.67644
1.66666
1.67644
1.68132
1.68132
1.68132
1.68132
1.67644
1.65689
1.62267
1.63734
1.60312
1.58846
1.52981
1.53470
1.52003
1.51515
1.47116
1.48582
1.46138
1.44672
1.43695
1.42717
1.42717
1.42228
1.41251
1.40762
1.40762
1.41739
1.39784
1.40273
1.42717
1.46627
1.52003
1.62756
1.70576
1.80840
1.88660
1.95503
1.99902
2.01368
2.00391
1.96480
1.93059
1.90615
1.85728
1.83284
1.80840
1.79863
1.75953
1.72531
1.70576
1.69110
1.66666
1.64222
1.64222
1.64711
1.64711
1.64222
1.64711
1.65200
1.64222
1.62756
1.61290
1.59824
1.57380
1.54447
1.52492
1.51026
1.48582
1.46138
1.44672
1.44183
1.43206
1.41251
1.41251
1.39784
1.39296
1.37829
1.37341
1.36852
1.38807
1.34897
1.34897
1.36363
1.38807
1.42228
1.49071
1.59335
1.69599
1.78396
1.86217
1.92570
1.96480
1.95014
1.93548
1.92570
1.87683
1.83284
1.81329
1.76930
1.74975
1.71554
1.69110
1.67155
1.65200
1.66177
1.61779
1.61290
1.61779
1.61779
1.62267
1.62756
1.63734
1.62756
1.61290
1.60801
1.59824
1.60312
1.54936
1.55425
1.51515
1.49560
1.46627
1.45161
1.45161
1.44183
1.43206
1.42717
1.41739
1.39784
1.39784
1.39296
1.37341
1.36852
1.35386
1.35874
1.37341
1.40273
1.45650
1.53470
1.65200
1.74975
1.83773
1.91593
1.96480
1.99413
1.97947
1.95014
1.92082
1.90615
1.83773
1.80351
1.78885
1.75953
1.72043
1.71554
1.68621
1.64222
1.61290
1.60312
1.60312
1.62267
1.62756
1.61779
1.63734
1.62267
1.61290
1.59824
1.58357
1.56891
1.54936
1.52003
1.50537
1.49071
1.47605
1.45650
1.44672
1.47116
1.44183
1.42717
1.41739
1.42228
1.41739
1.39296
1.38807
1.38318
1.37829
1.37829
1.37829
1.41251
1.44183
1.49560
1.57869
1.69110
1.80351
1.89149
1.96480
2.01857
2.04301
2.02834
2.00879
2.00391
1.95014
1.90615
1.90127
1.85728
1.84261
1.81818
1.81329
1.76441
1.74486
1.72043
1.70576
1.73020
1.70576
1.70576
1.70087
1.70576
1.71554
1.73020
1.68621
1.67155
1.66177
1.63734
1.60801
1.58846
1.57380
1.54936
1.52003
1.50537
1.49560
1.48582
1.46627
1.48582
1.46138
1.44672
1.46138
1.42228
1.41739
1.42717
1.39296
1.39296
1.40273
1.43206
1.46627
1.53958
1.63734
1.75464
1.84261
1.94037
2.03323
2.03812
2.04301
2.04789
1.99902
1.97458
1.93548
1.90127
1.88172
1.86705
1.86705
1.80351
1.78885
1.79374
1.73020
1.72043
1.70087
1.70087
1.69599
1.69599
1.70087
1.71065
1.71554
1.68621
1.67155
1.66177
1.64222
1.62756
1.59335
1.56402
1.54936
1.53958
1.50537
1.49071
1.48582
1.49071
1.46138
1.45161
1.43695
1.42717
1.41739
1.41251
1.40762
1.39296
1.38807
1.39296
1.40273
1.40762
1.45161
1.52492
1.61779
1.71554
1.81818
1.91104
1.98924
2.01368
2.01857
2.01368
1.98924
1.95014
1.90615
1.91104
1.85728
1.82795
1.80351
1.76930
1.74975
1.71554
1.68621
1.67155
1.66666
1.66177
1.66177
1.67155
1.69110
1.68621
1.68132
1.67644
1.66666
1.64711
1.61290
1.58846
1.56891
1.54936
1.51515
1.50537
1.52003
1.48093
1.46138
1.45650
1.46138
1.44672
1.42717
1.41739
1.41739
1.41251
1.40273
1.39784
1.39296
1.40273
1.40762
1.43206
1.47605
1.54936
1.66177
1.73509
1.84261
1.94037
1.99413
2.02346
2.03812
2.02834
1.99902
1.94525
1.91104
1.89149
1.84261
1.80840
1.77908
1.75953
1.73020
1.69110
1.67644
1.66666
1.65689
1.65200
1.65689
1.67155
1.67155
1.66666
1.66666
1.67155
1.67644
1.62267
1.60312
1.58846
1.56402
1.52981
1.51515
1.50048
1.48582
1.46627
1.45161
1.45161
1.45161
1.42717
1.41739
1.40762
1.40273
1.40273
1.37341
1.36852
1.36852
1.36363
1.37829
1.42228
1.49071
1.56891
1.67155
1.77908
1.88660
1.95014
2.01368
2.00391
2.00391
1.97458
1.93059
1.89149
1.85728
1.82306
1.78396
1.75464
1.73020
1.69599
1.66666
1.64711
1.64222
1.63734
1.63245
1.64222
1.68132
1.65689
1.65689
1.65689
1.65689
1.64711
1.61779
1.59824
1.58357
1.55425
1.52492
1.51515
1.50048
1.48093
1.46627
1.47605
1.44183
1.46138
1.41251
1.40762
1.40762
1.40273
1.37829
1.37829
1.37341
1.40273
1.37341
1.38807
1.42717
1.50537
1.58846
1.69110
1.80840
1.91104
1.96480
2.03323
2.01857
2.01368
1.96969
1.94525
1.89638
1.86217
1.83284
1.79374
1.76441
1.73998
1.70576
1.67155
1.64711
1.63734
1.62267
1.62267
1.62756
1.64222
1.64711
1.64222
1.67155
1.64222
1.63245
1.61290
1.59335
1.58846
1.55913
1.52492
1.51515
1.50048
1.48582
1.47116
1.46138
1.46138
1.45161
1.43206
1.42717
1.42228
1.41251
1.40273
1.39296
1.38807
1.38807
1.39784
1.42717
1.46627
1.54936
1.66666
1.74975
1.86217
1.96480
2.02834
2.06256
2.08211
2.08699
2.04301
2.00879
1.97458
1.95014
1.91593
1.88172
1.86217
1.84261
1.80840
1.77419
1.75464
1.74486
1.73020
1.72043
1.72531
1.73509
1.73509
1.73020
1.73020
1.72531
1.72531
1.68621
1.66666
1.64711
1.62267
1.60801
1.56891
1.54936
1.52492
1.50537
1.52003
1.48093
1.47116
1.45161
1.44672
1.43206
1.42717
1.41251
1.40762
1.40273
1.39784
1.40273
1.39784
1.43206
1.49071
1.57380
1.68132
1.80351
1.91593
1.99413
2.04789
2.08699
2.09188
2.06256
2.02834
1.99902
1.96969
1.94037
1.90615
1.88172
1.86705
1.83284
1.79374
1.79374
1.76441
1.73020
1.71554
1.71554
1.72043
1.72531
1.72043
1.72531
1.73998
1.70576
1.67644
1.66177
1.65200
1.61779
1.58846
1.56402
1.54936
1.54936
1.50537
1.49071
1.48093
1.47605
1.45650
1.45161
1.44672
1.43695
1.44183
1.41251
1.41251
1.40762
1.40273
1.40273
1.41739
1.45650
1.50048
1.58846
1.69110
1.81329
1.91104
2.00879
2.06744
2.07722
2.09188
2.04301
2.01368
1.99902
1.95014
1.91593
1.89638
1.87194
1.84261
1.81329
1.77908
1.75953
1.74486
1.71554
1.71554
1.72043
1.72531
1.73020
1.73020
1.74975
1.72531
1.70087
1.68621
1.69110
1.68132
1.61779
1.59335
1.57380
1.54936
1.52492
1.51026
1.50048
1.49560
1.47116
1.45650
1.45161
1.44672
1.43695
1.44672
1.40273
1.40273
1.38807
1.38318
1.38318
1.39784
1.42717
1.48093
1.56891
1.68132
1.79374
1.89149
2.00879
2.03812
2.06256
2.04789
2.02834
2.00879
1.95992
1.91104
1.88660
1.86217
1.82306
1.78885
1.76441
1.73509
1.71065
1.68621
1.68132
1.69110
1.71554
1.68621
1.69599
1.70087
1.71065
1.68621
1.67155
1.65689
1.64222
1.60801
1.59824
1.56402
1.55425
1.52003
1.49560
1.48582
1.47605
1.45161
1.44183
1.43206
1.42717
1.43206
1.39296
1.39296
1.38807
1.37341
1.38318
1.37829
1.40273
1.43695
1.50537
1.61290
1.71554
1.81818
1.91593
1.98924
2.06256
2.05278
2.03812
2.01368
1.98435
1.94037
1.89638
1.86705
1.85728
1.81818
1.79374
1.74975
1.73020
1.70576
1.68132
1.67644
1.68132
1.71065
1.68132
1.69110
1.70087
1.70087
1.69599
1.66666
1.65689
1.63245
1.60312
1.57869
1.57380
1.54936
1.50537
1.48582
1.47116
1.46627
1.44672
1.43206
1.42717
1.42228
1.40762
1.39296
1.38318
1.37341
1.37341
1.36363
1.36852
1.40762
1.45161
1.52492
1.63245
1.74975
1.85239
1.94037
2.00879
2.04789
2.04789
2.03812
2.00391
1.97458
1.95992
1.89638
1.87194
1.86217
1.82306
1.78885
1.75464
1.73020
1.70576
1.67644
1.67155
1.67155
1.67644
1.68621
1.67644
1.68621
1.68132
1.66666
1.65200
1.63734
1.62267
1.59335
1.57869
1.54936
1.52981
1.50537
1.49071
1.48582
1.47116
1.45161
1.44183
1.43695
1.43206
1.41251
1.41251
1.42717
1.39784
1.38807
1.38318
1.39296
1.40762
1.44672
1.51026
1.61290
1.73509
1.84261
1.94037
2.02346
2.07722
2.11632
2.08211
2.05767
2.05767
1.99902
1.95992
1.95014
1.92082
1.88660
1.85239
1.81329
1.78885
1.75464
1.72043
1.73509
1.70087
1.69599
1.69599
1.70576
1.70576
1.70576
1.69110
1.68621
1.67155
1.65200
1.61779
1.59335
1.57380
1.55425
1.52003
1.50048
1.49071
1.48093
1.45650
1.44672
1.43695
1.43206
1.42228
1.42228
1.40762
1.40273
1.38807
1.37341
1.37829
1.39784
1.37341
1.38318
1.41739
1.48093
1.56891
1.66666
1.80351
1.90615
1.98924
2.04301
2.07722
2.08211
2.05767
2.02346
1.98924
1.96480
1.94037
1.90127
1.86705
1.85239
1.80840
1.76441
1.73509
1.73998
1.69110
1.67644
1.68132
1.68132
1.68621
1.68132
1.68621
1.69110
1.67155
1.65200
1.63245
1.63734
1.58846
1.55425
1.52492
1.52003
1.49560
1.46627
1.45161
1.44183
1.43206
1.42228
1.41251
1.40273
1.40273
1.38807
1.38807
1.38318
1.37341
1.36363
1.35386
1.34897
1.36363
1.36852
1.39784
1.45650
1.55425
1.66666
1.75953
1.86705
1.95503
2.01368
2.02834
2.02834
2.00879
1.97947
1.93548
1.90127
1.88172
1.87194
1.81329
1.78396
1.75464
1.74975
1.71065
1.65200
1.64711
1.65200
1.63734
1.65200
1.66177
1.67155
1.66177
1.65689
1.64711
1.67155
1.60801
1.57869
1.56891
1.54447
1.51515
1.49071
1.47605
1.46627
1.46627
1.43206
1.42228
1.42717
1.41251
1.42228
1.39296
1.39296
1.38318
1.40273
1.39784
1.36852
1.35386
1.35874
1.34897
1.35874
1.38318
1.43695
1.52003
1.62267
1.73509
1.83773
1.93548
1.99413
2.01857
2.01368
1.99902
1.96480
1.92082
1.87194
1.83284
1.80351
1.77908
1.73509
1.70576
1.69599
1.67155
1.63245
1.62267
1.62267
1.64711
1.62756
1.63245
1.64222
1.65200
1.62756
1.61779
1.60801
1.59335
1.57380
1.53470
1.51026
1.49071
1.46627
1.46138
1.43206
1.42228
1.40762
1.38807
1.38318
1.37829
1.36852
1.35874
1.34897
1.34408
1.33431
1.31476
1.32453
1.35386
1.33919
1.37341
1.44183
1.54447
1.65200
1.77908
1.85728
1.93548
2.00879
1.99413
2.00391
1.96969
1.93548
1.88660
1.84261
1.80840
1.77419
1.73509
1.70576
1.71065
1.65689
1.61779
1.60801
1.60312
1.60801
1.60801
1.61779
1.62756
1.63734
1.63734
1.63245
1.61779
1.60801
1.57869
1.55425
1.55425
1.51026
1.48093
1.46138
1.44672
1.43206
1.41251
1.39296
1.39784
1.38318
1.36852
1.36363
1.34897
1.34408
1.33431
1.34897
1.32942
1.35386
1.39296
1.47116
1.55425
1.68132
1.79374
1.88660
1.95992
2.00879
2.01368
1.99413
1.99413
1.93059
1.88660
1.83773
1.80351
1.77908
1.76930
1.71554
1.68132
1.65689
1.65200
1.62267
1.61779
1.61779
1.63245
1.63245
1.64222
1.65200
1.65200
1.65200
1.63245
1.61779
1.60312
1.58357
1.54936
1.52981
1.51026
1.48582
1.49560
1.46627
1.44183
1.42228
1.41739
1.39784
1.39296
1.38318
1.36363
1.35386
1.35386
1.36363
1.36363
1.40273
1.48093
1.57869
1.68132
1.80351
1.92082
1.99902
2.04301
2.07233
2.06744
2.03812
2.02346
1.95014
1.91593
1.88660
1.84261
1.81818
1.79374
1.79374
1.72531
1.69599
1.68132
1.67155
1.65200
1.64711
1.66177
1.68621
1.65689
1.65689
1.66177
1.67155
1.62756
1.60312
1.58846
1.56891
1.54447
1.53470
1.49560
1.48093
1.45161
1.44183
1.42228
1.41739
1.40762
1.38807
1.40762
1.37829
1.35874
1.34897
1.34408
1.35386
1.37341
1.43206
1.51515
1.63245
1.74975
1.86705
1.95992
2.03323
2.06744
2.06256
2.03812
2.01857
1.99413
1.92570
1.89638
1.90127
1.84750
1.80840
1.77908
1.74975
1.72043
1.68621
1.67155
1.67155
1.66177
1.65200
1.65200
1.68621
1.66666
1.65200
1.64711
1.63734
1.62267
1.60801
1.56891
1.54447
1.52981
1.50537
1.48093
1.46627
1.45161
1.43695
1.43206
1.41251
1.41251
1.39296
1.38807
1.37829
1.37341
1.36852
1.37341
1.38318
1.42717
1.49071
1.56891
1.68621
1.80840
1.91104
1.97458
2.02834
2.05278
2.04301
2.00391
1.96969
1.94525
1.90127
1.85728
1.84261
1.80840
1.77908
1.73509
1.70576
1.71065
1.66177
1.64222
1.64711
1.65689
1.66177
1.66177
1.66177
1.66666
1.65689
1.63245
1.62756
1.59824
1.57869
1.54936
1.53470
1.50537
1.49560
1.46627
1.45650
1.46138
1.44183
1.42717
1.44672
1.40762
1.40762
1.38807
1.38807
1.37829
1.38807
1.41251
1.41251
1.47116
1.55425
1.66666
1.76930
1.88172
1.97458
2.06744
2.05767
2.05278
2.03812
2.00879
1.95014
1.91104
1.90127
1.84750
1.80840
1.77419
1.74486
1.71065
1.67644
1.65689
1.65200
1.67644
1.63734
1.65200
1.68132
1.66666
1.65689
1.66177
1.64222
1.63245
1.60312
1.57380
1.55913
1.53958
1.50537
1.48093
1.46627
1.47605
1.41739
1.40273
1.38807
1.38807
1.39296
1.36363
1.35874
1.36363
1.34897
1.33919
1.35386
1.37829
1.42717
1.50537
1.59824
1.72043
1.82306
1.90127
1.95503
1.99413
1.98924
1.97947
1.91104
1.88172
1.83773
1.79374
1.78396
1.74486
1.72531
1.67644
1.64711
1.62756
1.61290
1.59824
1.59335
1.59824
1.60801
1.63245
1.61779
1.61779
1.63734
1.60801
1.59335
1.58846
1.56891
1.53958
1.51515
1.49071
1.47605
1.45161
1.44183
1.42717
1.42228
1.40762
1.41739
1.38807
1.38807
1.38318
1.35874
1.35874
1.35874
1.36852
1.35386
1.37829
1.46138
1.52003
1.61290
1.72531
1.82795
1.90127
1.94525
1.97458
1.98924
1.96969
1.94037
1.91104
1.87194
1.83284
1.80351
1.76441
1.73509
1.70576
1.66666
1.64711
1.61779
1.60801
1.60312
1.59824
1.61290
1.62756
1.62267
1.62756
1.62756
1.62267
1.59335
1.57869
1.55425
1.53958
1.50537
1.49560
1.47116
1.45650
1.45650
1.42228
1.41251
1.40762
1.39296
1.37829
1.37341
1.37341
1.35386
1.34408
1.33919
1.33919
1.34408
1.36852
1.43206
1.52003
1.62756
1.73998
1.84261
1.93548
1.99413
2.00879
2.01368
2.01368
1.96969
1.92570
1.92570
1.86705
1.83284
1.81818
1.77419
1.75464
1.72043
1.68132
1.68132
1.65200
1.64222
1.64222
1.63734
1.64711
1.66177
1.67155
1.64711
1.64222
1.66666
1.60312
1.58357
1.59824
1.54447
1.50537
1.49071
1.47116
1.45650
1.44183
1.42228
1.41251
1.41251
1.39296
1.38318
1.37829
1.36852
1.34897
1.36852
1.33919
1.34408
1.34897
1.40273
1.43695
1.52492
1.62756
1.73998
1.85239
1.95014
2.03812
2.03323
2.03323
2.02834
1.98435
1.93548
1.91104
1.87194
1.83773
1.80840
1.77908
1.75464
1.72043
1.68132
1.66177
1.64222
1.63734
1.65200
1.62756
1.64222
1.64711
1.64711
1.63245
1.62756
1.63245
1.58846
1.56891
1.55425
1.56402
1.50048
1.48093
1.49071
1.44672
1.42228
1.42228
1.40762
1.40762
1.38807
1.38807
1.36852
1.36363
1.34897
1.33919
1.33919
1.33919
1.36852
1.35386
1.40273
1.48093
1.56891
1.67644
1.78885
1.89638
1.95503
1.98924
2.00391
1.98924
1.95992
1.92570
1.87194
1.84261
1.82306
1.77419
1.74486
1.72043
1.69110
1.64711
1.63245
1.61290
1.60801
1.60801
1.60312
1.61290
1.62756
1.62756
1.62267
1.62267
1.62267
1.58357
1.56402
1.57869
1.52492
1.49560
1.47605
1.45650
1.44672
1.42228
1.41739
1.40273
1.39784
1.38318
1.36852
1.36363
1.35874
1.38318
1.34408
1.34408
1.37829
1.35386
1.38318
1.45161
1.53958
1.63734
1.74975
1.85728
1.94525
1.99902
2.01368
2.02346
1.99902
1.95992
1.92570
1.86705
1.83773
1.82795
1.76441
1.73020
1.70087
1.66666
1.64222
1.62267
1.61779
1.61779
1.64222
1.61779
1.63245
1.66666
1.62756
1.62267
1.62267
1.60312
1.57869
1.58357
1.53470
1.51515
1.49071
1.46627
1.44672
1.44183
1.44183
1.40273
1.39296
1.38807
1.36363
1.35874
1.34897
1.37341
1.33431
1.33431
1.35386
1.37829
1.42228
1.50537
1.60801
1.72531
1.82795
1.90615
1.96480
1.99902
1.99902
1.96480
1.93059
1.90615
1.84750
1.79863
1.75464
1.72531
1.69110
1.65200
1.61779
1.59824
1.57869
1.58846
1.56891
1.58357
1.61290
1.59335
1.60312
1.63734
1.60801
1.58846
1.58846
1.55913
1.54447
1.54447
1.49071
1.47116
1.48093
1.43695
1.41739
1.43206
1.40762
1.38807
1.38318
1.37341
1.36363
1.34897
1.34897
1.33919
1.34408
1.35874
1.38318
1.45650
1.57869
1.66666
1.77908
1.89638
1.97458
2.01368
2.02346
2.01368
1.98924
1.95014
1.89149
1.85239
1.84261
1.76930
1.73020
1.69599
1.67155
1.63245
1.61290
1.59824
1.60801
1.60312
1.60312
1.62267
1.63245
1.63245
1.64711
1.62267
1.61290
1.60801
1.56891
1.54936
1.54447
1.51026
1.48093
1.46627
1.44183
1.43206
1.41739
1.42717
1.39784
1.39296
1.37829
1.36363
1.36363
1.38318
1.35386
1.36363
1.41251
1.46627
1.54936
1.65200
1.77419
1.88660
1.95992
1.99902
2.02834
2.03323
2.02834
1.95503
1.92570
1.89149
1.85239
1.83773
1.78885
1.76930
1.73509
1.69599
1.67155
1.66177
1.67644
1.64222
1.64711
1.66666
1.67155
1.67155
1.68132
1.67644
1.66666
1.64711
1.63245
1.61779
1.60312
1.55913
1.53958
1.52981
1.53958
1.48582
1.47605
1.46627
1.45650
1.43695
1.42717
1.41739
1.41251
1.39784
1.39784
1.40762
1.47116
1.50048
1.58357
1.69599
1.81818
1.91593
1.99902
2.05767
2.08699
2.09188
2.05278
2.01857
1.99902
1.94037
1.90127
1.87194
1.84750
1.80840
1.76930
1.73509
1.72043
1.69110
1.66666
1.68132
1.67644
1.68132
1.71065
1.69110
1.69599
1.68621
1.67155
1.65689
1.66666
1.61779
1.58846
1.57380
1.55425
1.53470
1.51026
1.49071
1.48093
1.46627
1.48093
1.43695
1.42717
1.44672
1.40273
1.39784
1.39784
1.40762
1.42717
1.46627
1.54447
1.64711
1.77908
1.85239
1.95503
2.03323
2.04789
2.05278
2.04301
2.01857
1.96969
1.93059
1.89638
1.86705
1.83284
1.79374
1.76441
1.73509
1.69599
1.67644
1.65689
1.65689
1.65200
1.65689
1.66666
1.68132
1.71065
1.67155
1.66177
1.65200
1.63734
1.61290
1.60801
1.56402
1.54447
1.51515
1.49560
1.49071
1.47116
1.45161
1.44672
1.43206
1.41739
1.41739
1.40273
1.39784
1.40273
1.38807
1.39784
1.46138
1.49560
1.56402
1.70087
1.77908
1.88660
1.95992
2.00879
2.03812
2.07233
2.00879
1.97947
1.94037
1.91593
1.88172
1.83773
1.80840
1.78396
1.73998
1.72531
1.67644
1.65689
1.67155
1.64222
1.65200
1.69110
1.66666
1.66177
1.67155
1.66666
1.65200
1.65200
1.60312
1.58357
1.55913
1.52492
1.50537
1.52003
1.47605
1.45161
1.44183
1.42717
1.41739
1.39784
1.38318
1.37829
1.36852
1.38318
1.34897
1.34897
1.36852
1.36852
1.41251
1.49071
1.58357
1.68621
1.79374
1.88172
1.95503
1.97947
1.98435
1.96480
1.94525
1.90127
1.84750
1.81818
1.78885
1.74486
1.70576
1.67644
1.65200
1.61779
1.58846
1.57869
1.59824
1.58846
1.58846
1.62756
1.61779
1.61290
1.62267
1.59335
1.58357
1.57380
1.53470
1.51026
1.51026
1.47116
1.44672
1.46138
1.41739
1.39784
1.38318
1.37341
1.36852
1.37341
1.33919
1.32942
1.33431
1.31476
1.30009
1.34408
1.33431
1.37341
1.45161
1.52492
1.64222
1.75953
1.83284
1.89638
1.96969
1.95014
1.93059
1.89638
1.86217
1.83284
1.80840
1.75464
1.72531
1.70576
1.66666
1.62756
1.59824
1.58846
1.56402
1.55913
1.58357
1.57869
1.58357
1.58357
1.59335
1.60801
1.58357
1.56891
1.56891
1.53958
1.51026
1.50048
1.47116
1.46138
1.43695
1.41251
1.43695
1.39784
1.38807
1.37341
1.36363
1.35874
1.34897
1.33431
1.32942
1.32453
1.31964
1.35874
1.35874
1.41739
1.50048
1.59335
1.71065
1.81818
1.90615
1.95992
1.99902
1.97947
1.96480
1.95503
1.88660
1.85239
1.82306
1.78396
1.76441
1.72531
1.70087
1.66177
1.63734
1.60801
1.60312
1.59824
1.58846
1.59824
1.60801
1.60801
1.60801
1.60312
1.60312
1.60312
1.55913
1.54447
1.55425
1.49560
1.47116
1.46138
1.44183
1.42717
1.41251
1.39296
1.38807
1.38318
1.36363
1.35386
1.36363
1.34408
1.32942
1.35386
1.33431
1.33919
1.35386
1.40273
1.48093
1.57380
1.66666
1.78885
1.87194
1.94525
1.96969
1.96969
1.95992
1.95992
1.88172
1.84750
1.81329
1.78885
1.75953
1.71554
1.68132
1.65689
1.61779
1.59335
1.57869
1.57869
1.57869
1.57869
1.59335
1.62267
1.60801
1.60312
1.62267
1.59824
1.57869
1.54936
1.52981
1.52003
1.49071
1.46627
1.45650
1.44672
1.42717
1.40762
1.40273
1.40273
1.39784
1.37829
1.37341
1.40273
1.36363
1.35386
1.34408
1.34408
1.35386
1.35386
1.38318
1.46138
1.53470
1.63245
1.76930
1.85728
1.94037
1.97458
1.99902
1.99902
1.97458
1.92082
1.90127
1.84261
1.80840
1.75953
1.72531
1.69110
1.66666
1.62756
1.60312
1.60801
1.58846
1.57869
1.58357
1.59335
1.60801
1.61779
1.60312
1.59824
1.60312
1.60801
1.55425
1.54447
1.52492
1.50048
1.47605
1.45161
1.44183
1.42717
1.40273
1.39296
1.41251
1.37341
1.35874
1.36852
1.34897
1.33919
1.32453
1.32453
1.32942
1.33919
1.35386
1.41251
1.49071
1.59824
1.70087
1.80351
1.89149
1.96969
1.97458
1.97458
1.95992
1.93059
1.88172
1.83284
1.79863
1.78396
1.71554
1.68132
1.65689
1.62756
1.59335
1.57869
1.56891
1.57380
1.59335
1.57869
1.59335
1.60801
1.60801
1.60801
1.59824
1.58846
1.56891
1.56891
1.52003
1.50537
1.47605
1.45161
1.43695
1.46138
1.41251
1.39784
1.38318
1.38318
1.37341
1.35386
1.34408
1.35874
1.33919
1.32942
1.34897
1.35386
1.39296
1.46627
1.54936
1.67155
1.78885
1.88172
1.97947
2.01368
2.03323
2.02346
1.98435
1.95014
1.90615
1.85239
1.84261
1.77908
1.74486
1.70087
1.67644
1.64222
1.61779
1.60801
1.58846
1.58846
1.63734
1.60801
1.61290
1.62267
1.62756
1.62267
1.63245
1.58846
1.57380
1.58357
1.52492
1.50048
1.51515
1.46627
1.44672
1.42717
1.41739
1.40762
1.38807
1.38318
1.37829
1.36852
1.35386
1.34897
1.34408
1.33919
1.36363
1.36852
1.41739
1.49560
1.58846
1.71554
1.83284
1.93548
2.01368
2.04301
2.06256
2.05767
2.00879
1.96969
1.95992
1.89638
1.85239
1.81818
1.78885
1.75953
1.72043
1.72043
1.67155
1.67155
1.65200
1.65200
1.66666
1.67155
1.67644
1.71065
1.67644
1.68132
1.66177
1.64222
1.63245
1.61290
1.57869
1.58846
1.53470
1.52492
1.50537
1.48582
1.47605
1.47116
1.45650
1.44672
1.43206
1.42717
1.44672
1.39784
1.39296
1.40762
1.40273
1.42717
1.50537
1.57869
1.69110
1.79374
1.90615
2.01368
2.06744
2.08699
2.10654
2.06744
2.03323
1.97947
1.94037
1.91104
1.87194
1.82306
1.79374
1.76930
1.76930
1.70087
1.68132
1.66666
1.66666
1.67644
1.67155
1.68132
1.71065
1.68621
1.68132
1.70576
1.66666
1.64222
1.61779
1.59824
1.57869
1.55425
1.52981
1.51515
1.50048
1.48582
1.48093
1.45161
1.44672
1.45161
1.42228
1.41739
1.41251
1.40762
1.41251
1.39784
1.42228
1.46138
1.52003
1.61779
1.73020
1.85239
1.95014
2.01368
2.06256
2.08211
2.05278
2.01857
1.99902
1.94037
1.88660
1.85239
1.82306
1.78885
1.74975
1.71554
1.68621
1.67644
1.64222
1.64222
1.64711
1.65689
1.66177
1.66666
1.67644
1.68621
1.67155
1.65689
1.64222
1.62267
1.59335
1.57869
1.54936
1.53470
1.52981
1.49071
1.47605
1.47116
1.45650
1.45650
1.43206
1.42717
1.42228
1.40762
1.40273
1.40273
1.40273
1.41251
1.44183
1.50537
1.61779
1.69599
1.80840
1.92570
2.00879
2.05767
2.07722
2.07722
2.05767
1.99902
1.95503
1.94525
1.88172
1.82795
1.80840
1.75953
1.72531
1.69110
1.65689
1.65200
1.64711
1.64222
1.65689
1.66666
1.67644
1.69599
1.67155
1.66666
1.69110
1.64222
1.61290
1.62267
1.57380
1.54447
1.53470
1.50537
1.49071
1.46627
1.44672
1.44183
1.43206
1.41251
1.40762
1.38807
1.37829
1.37341
1.36363
1.37341
1.39784
1.45161
1.52981
1.62756
1.74486
1.88660
1.94037
2.00879
2.04301
2.04789
2.01368
1.97458
1.93548
1.91593
1.83284
1.78885
1.78885
1.72043
1.67644
1.66666
1.62267
1.61290
1.59824
1.59824
1.62267
1.63245
1.63734
1.66666
1.64711
1.64711
1.65200
1.60801
1.59824
1.57869
1.54447
1.52003
1.52981
1.49071
1.47116
1.45161
1.44183
1.43695
1.41739
1.39784
1.39784
1.38318
1.36852
1.39296
1.36363
1.37341
1.43695
1.46138
1.55425
1.67155
1.78885
1.90615
1.98435
2.05278
2.10166
2.06256
2.04301
2.00879
1.96480
1.91593
1.86705
1.83284
1.80351
1.75953
1.71554
1.69110
1.66666
1.63245
1.62756
1.64222
1.63734
1.64222
1.68132
1.66177
1.66177
1.65200
1.64222
1.63734
1.60801
1.57380
1.54936
1.52981
1.51026
1.48093
1.46138
1.45650
1.43695
1.41251
1.42228
1.38807
1.38318
1.38807
1.35386
1.34897
1.35386
1.36363
1.40762
1.47116
1.57380
1.69599
1.79374
1.90615
1.98924
2.03812
2.04789
2.03323
2.00879
1.98435
1.92082
1.88172
1.85239
1.81818
1.77908
1.74975
1.72531
1.69110
1.65200
1.67155
1.63734
1.64222
1.63734
1.64222
1.66177
1.66666
1.65689
1.65689
1.64222
1.62756
1.61290
1.58357
1.56402
1.54447
1.51515
1.52003
1.48093
1.47116
1.44672
1.43206
1.43206
1.41739
1.39784
1.40273
1.37829
1.37829
1.39784
1.38318
1.42228
1.48582
1.57869
1.70576
1.81329
1.92570
2.04301
2.05278
2.07233
2.08211
2.03323
1.98435
1.94037
1.91104
1.89638
1.82306
1.79863
1.77419
1.76441
1.69110
1.66666
1.68621
1.64711
1.63245
1.63734
1.65200
1.66666
1.65689
1.65689
1.65689
1.64711
1.61779
1.60312
1.57869
1.56402
1.53958
1.50537
1.48582
1.48093
1.44672
1.43695
1.42717
1.41739
1.41739
1.38807
1.37341
1.39784
1.36363
1.35386
1.35874
1.38318
1.42228
1.48093
1.58357
1.73020
1.82795
1.92082
2.00391
2.05278
2.06256
2.03323
1.99902
1.97458
1.91104
1.86217
1.82795
1.80351
1.76930
1.73509
1.68621
1.65689
1.63734
1.60801
1.60312
1.64222
1.62267
1.62756
1.63734
1.64711
1.65200
1.62756
1.61779
1.63245
1.58846
1.54936
1.52492
1.51026
1.50537
1.46627
1.44672
1.43695
1.43206
1.42717
1.40273
1.39296
1.42228
1.37341
1.36852
1.37341
1.37341
1.38318
1.39784
1.45161
1.54936
1.63734
1.75464
1.87194
1.97458
2.04789
2.06256
2.06744
2.06744
2.00391
1.95503
1.90615
1.86705
1.85728
1.77908
1.74486
1.71065
1.68132
1.64222
1.62756
1.61779
1.62267
1.63245
1.62267
1.64222
1.68132
1.64222
1.64222
1.63734
1.61779
1.59824
1.57380
1.54936
1.55425
1.50048
1.47605
1.46627
1.45650
1.43206
1.41739
1.40762
1.40762
1.37829
1.36852
1.35874
1.35386
1.34408
1.33431
1.34897
1.38807
1.43695
1.52003
1.64711
1.76441
1.86705
1.95503
2.01857
2.05278
2.03812
2.00391
1.96969
1.91593
1.86705
1.81329
1.76930
1.73998
1.69599
1.65200
1.62267
1.60312
1.58846
1.60801
1.59335
1.60312
1.61779
1.61779
1.63245
1.63734
1.63245
1.62267
1.59824
1.57869
1.57869
1.52492
1.50537
1.48582
1.46627
1.44672
1.43206
1.42228
1.42228
1.38807
1.37829
1.36852
1.36363
1.35386
1.34408
1.34897
1.38807
1.38807
1.45650
1.55425
1.67644
1.80351
1.90127
1.98924
2.07233
2.05767
2.04789
2.02346
1.98924
1.94525
1.88660
1.84261
1.81329
1.76930
1.72531
1.69599
1.66666
1.63245
1.63245
1.60801
1.61290
1.61779
1.62756
1.64222
1.64711
1.64711
1.64222
1.61779
1.60312
1.60801
1.55425
1.53470
1.51026
1.49071
1.47116
1.44672
1.43206
1.44183
1.39784
1.38807
1.37341
1.36363
1.35386
1.33919
1.33919
1.34897
1.36363
1.42228
1.50537
1.62267
1.75953
1.85728
1.95503
2.03323
2.05767
2.05278
2.02834
1.99413
1.94525
1.88660
1.84261
1.80840
1.76441
1.72043
1.70087
1.66177
1.62756
1.60801
1.59335
1.59824
1.60312
1.60801
1.62267
1.63245
1.62756
1.65689
1.61779
1.61779
1.58846
1.56402
1.56891
1.52492
1.50537
1.47605
1.45650
1.45161
1.43206
1.41251
1.40762
1.39296
1.37829
1.36363
1.35386
1.35874
1.35874
1.36363
1.41251
1.47116
1.56891
1.71554
1.80840
1.93059
2.01857
2.06256
2.08211
2.07233
2.04789
2.01857
1.95014
1.90615
1.86705
1.82306
1.79374
1.74975
1.72043
1.68621
1.65200
1.63734
1.66177
1.62756
1.63245
1.64222
1.65689
1.66666
1.65200
1.64711
1.66666
1.62267
1.60312
1.57380
1.55425
1.56402
1.50048
1.48582
1.47116
1.45161
1.44672
1.42228
1.41739
1.40762
1.38318
1.38318
1.36852
1.36852
1.36363
1.35874
1.38318
1.45650
1.50048
1.60801
1.75464
1.86217
1.95503
2.06256
2.07722
2.09677
2.07722
2.02346
1.98435
1.94525
1.88660
1.87683
1.80840
1.77908
1.73020
1.69110
1.66177
1.64711
1.62267
1.61779
1.62756
1.64222
1.65200
1.64711
1.65200
1.65689
1.64711
1.62756
1.60312
1.58846
1.56402
1.52981
1.50537
1.52003
1.47116
1.45161
1.43206
1.42228
1.42717
1.39784
1.38807
1.40762
1.37341
1.35874
1.35386
1.35386
1.36852
1.37341
1.41739
1.51026
1.61290
1.72531
1.83284
1.94525
2.05278
2.04789
2.05278
2.03323
2.00391
1.95014
1.89149
1.85239
1.83773
1.77419
1.73509
1.71554
1.66177
1.62267
1.59824
1.59335
1.60312
1.60312
1.60801
1.65200
1.64711
1.64711
1.63734
1.63245
1.63245
1.59824
1.56402
1.54447
1.52981
1.51026
1.47605
1.45650
1.47116
1.43206
1.41739
1.40273
1.39784
1.39296
1.37341
1.36852
1.40273
1.36363
1.36852
1.38807
1.43695
1.51026
1.59824
1.71554
1.85239
1.95014
2.02346
2.07233
2.08699
2.08211
2.02834
1.98435
1.96969
1.90127
1.85239
1.81329
1.77419
1.73998
1.71554
1.65689
1.64222
1.63734
1.63734
1.64222
1.65200
1.66666
1.69110
1.67644
1.68132
1.67155
1.65200
1.63245
1.60801
1.58846
1.58846
1.53470
1.51515
1.50048
1.48093
1.46138
1.44183
1.43206
1.44183
1.39784
1.38807
1.38318
1.37829
1.37341
1.37341
1.40273
1.47605
1.52492
1.63734
1.75464
1.87683
1.97458
2.02834
2.07233
2.08699
2.04301
2.00391
1.96480
1.92082
1.86705
1.81818
1.77908
1.75464
1.69599
1.66177
1.66666
1.62756
1.61779
1.62267
1.63245
1.67155
1.65200
1.65689
1.69110
1.66177
1.64711
1.62756
1.60801
1.61290
1.55913
1.53470
1.51026
1.50048
1.48093
1.45650
1.44183
1.46138
1.42228
1.40762
1.39296
1.39296
1.40273
1.36852
1.36852
1.39296
1.43206
1.50048
1.58846
1.71065
1.83773
1.93059
2.01857
2.06744
2.08699
2.07233
2.03323
1.99413
1.95014
1.89149
1.86217
1.82306
1.78885
1.74975
1.70576
1.67644
1.67644
1.62756
1.62267
1.62267
1.63734
1.64711
1.64711
1.65200
1.67155
1.63734
1.62756
1.60312
1.58846
1.58357
1.52981
1.51026
1.52492
1.47116
1.45650
1.44183
1.43206
1.42228
1.39784
1.38807
1.41251
1.36852
1.36363
1.35874
1.37341
1.41739
1.44672
1.53958
1.66177
1.79374
1.91104
1.99902
2.07233
2.12609
2.08211
2.05767
2.02346
1.97947
1.93548
1.88660
1.85728
1.82795
1.78396
1.74975
1.71554
1.68621
1.65689
1.64222
1.64222
1.65689
1.64711
1.65200
1.66177
1.66666
1.66177
1.64711
1.63734
1.64222
1.59335
1.56891
1.53958
1.52003
1.51026
1.47605
1.46627
1.45161
1.43206
1.42228
1.39784
1.38807
1.37341
1.35874
1.35874
1.36363
1.36852
1.42228
1.46138
1.56402
1.67644
1.79374
1.93059
2.00391
2.05767
2.08211
2.06256
2.04301
1.99902
1.94525
1.91104
1.87194
1.83773
1.82306
1.76441
1.73020
1.69110
1.64711
1.63734
1.62267
1.62267
1.61290
1.61779
1.64222
1.64222
1.63245
1.66177
1.62267
1.61290
1.58357
1.55913
1.56402
1.52003
1.49071
1.46627
1.45161
1.45161
1.42228
1.40762
1.39296
1.38807
1.37829
1.35874
1.34897
1.38318
1.34408
1.35874
1.38318
1.44183
1.54936
1.62756
1.75953
1.87683
1.96480
2.02834
2.04789
2.05278
2.04301
1.96969
1.93059
1.89149
1.85239
1.83773
1.76930
1.73998
1.71554
1.66177
1.62756
1.62267
1.60312
1.58846
1.63245
1.61779
1.63245
1.64222
1.64711
1.65200
1.64711
1.62267
1.61779
1.58357
1.56402
1.52981
1.51026
1.50048
1.47605
1.45650
1.43695
1.42717
1.42717
1.40762
1.39296
1.39784
1.38318
1.36852
1.35874
1.36363
1.39296
1.41739
1.48582
1.60801
1.70576
1.82795
1.92082
1.99902
2.05767
2.05278
2.03323
2.03323
1.96480
1.91593
1.85728
1.81329
1.80351
1.73998
1.69599
1.67155
1.63245
1.61290
1.59824
1.59824
1.61290
1.61779
1.61779
1.65200
1.64222
1.64222
1.62756
1.61290
1.60312
1.57869
1.54936
1.55425
1.51026
1.49560
1.46138
1.44183
1.43695
1.42228
1.40762
1.39784
1.37829
1.37341
1.38318
1.34408
1.34408
1.34897
1.35874
1.42717
1.47116
1.58357
1.69599
1.80840
1.92082
1.99902
2.04301
2.07722
2.03323
2.00879
1.95992
1.90127
1.88172
1.82306
1.78396
1.76441
1.69110
1.66666
1.64711
1.59824
1.59335
1.59335
1.59824
1.60801
1.60801
1.62756
1.66666
1.62756
1.62267
1.61290
1.59335
1.57380
1.53958
1.51515
1.49560
1.46138
1.45161
1.42717
1.40762
1.39784
1.37341
1.36852
1.35874
1.33919
1.34408
1.31964
1.31964
1.31476
1.33431
1.39296
1.46627
1.56402
1.68621
1.81329
1.93059
1.99413
2.02834
2.06744
2.02834
1.98924
1.93548
1.88660
1.86217
1.80351
1.75953
1.71554
1.69110
1.65200
1.61290
1.59335
1.59335
1.57380
1.57380
1.58846
1.60312
1.61779
1.60801
1.60801
1.63734
1.59824
1.57380
1.54936
1.52981
1.53470
1.48093
1.46138
1.44183
1.42228
1.40762
1.38807
1.37829
1.37341
1.35386
1.34408
1.33431
1.33431
1.32942
1.31964
1.33431
1.38318
1.44183
1.54936
1.67155
1.80351
1.94525
1.98924
2.04301
2.06256
2.04301
2.02346
1.95992
1.91593
1.86705
1.81329
1.79374
1.74486
1.70087
1.65689
1.62267
1.60801
1.58357
1.56402
1.56891
1.58357
1.59824
1.59824
1.60312
1.61290
1.60801
1.59335
1.57380
1.55425
1.54936
1.50537
1.48093
1.46138
1.44183
1.44183
1.40762
1.39296
1.38318
1.35386
1.38318
1.34897
1.33919
1.32453
1.31476
1.32942
1.32942
1.34897
1.40273
1.49071
1.61779
1.72531
1.83773
1.94037
2.00879
2.04301
2.02346
1.99902
1.99413
1.91104
1.85728
1.80840
1.77908
1.74486
1.68621
1.65200
1.61779
1.57869
1.55913
1.54447
1.54936
1.59335
1.56402
1.58357
1.59824
1.60801
1.60801
1.58846
1.58357
1.57380
1.53470
1.51515
1.49071
1.47116
1.45161
1.42717
1.41739
1.40273
1.37829
1.37341
1.35874
1.35874
1.33919
1.33431
1.33431
1.33431
1.32942
1.37341
1.40273
1.48582
1.58357
1.70087
1.83284
1.93059
1.99902
2.05278
2.04301
2.03323
1.98924
1.93548
1.90127
1.84750
1.79863
1.74975
1.71065
1.68621
1.63734
1.60312
1.62267
1.58846
1.58846
1.58846
1.60801
1.66177
1.63734
1.63734
1.63734
1.63734
1.64711
1.59824
1.58357
1.56402
1.53958
1.51515
1.49071
1.47605
1.46138
1.43695
1.42717
1.41251
1.40762
1.38318
1.37341
1.36363
1.35874
1.35386
1.38807
1.39784
1.46627
1.53958
1.65200
1.80840
1.89638
1.97458
2.02834
2.05278
2.06256
2.01857
1.97458
1.95503
1.88660
1.82795
1.77419
1.73509
1.71065
1.66177
1.62267
1.60312
1.59824
1.59824
1.59335
1.60801
1.62756
1.63734
1.64222
1.64222
1.64222
1.64711
1.60801
1.59335
1.57869
1.55425
1.53470
1.50537
1.49560
1.48093
1.45650
1.44672
1.43695
1.42228
1.42717
1.38807
1.37829
1.37829
1.37341
1.40273
1.43695
1.50537
1.59824
1.71065
1.83773
1.93548
1.99902
2.06744
2.06256
2.05767
2.01368
1.96969
1.95992
1.89149
1.84261
1.79863
1.75953
1.73020
1.68132
1.64711
1.64222
1.61779
1.61290
1.61290
1.61779
1.65200
1.64222
1.64711
1.64222
1.63734
1.63734
1.59335
1.57380
1.55913
1.53470
1.50537
1.48093
1.46627
1.47605
1.42717
1.41739
1.40762
1.39784
1.39784
1.36852
1.36852
1.37341
1.37829
1.42717
1.48093
1.57380
1.68132
1.80351
1.92570
2.00391
2.04301
2.08211
2.04789
2.02834
1.97458
1.92570
1.88660
1.85239
1.81329
1.77419
1.73509
1.71065
1.66666
1.64222
1.62267
1.62267
1.61779
1.61779
1.63245
1.64711
1.64711
1.64711
1.64222
1.63245
1.64222
1.58846
1.57380
1.55425
1.52981
1.52003
1.48093
1.47605
1.45161
1.42228
1.42228
1.41251
1.39784
1.37829
1.37341
1.37829
1.37341
1.37829
1.42228
1.50048
1.60801
1.71065
1.83284
1.95992
2.01368
2.03812
2.04789
2.03812
2.00879
1.95014
1.90615
1.87194
1.83773
1.79863
1.75953
1.73020
1.70576
1.65689
1.62267
1.61290
1.61290
1.61290
1.61290
1.61779
1.66177
1.63245
1.62756
1.62267
1.61290
1.60801
1.56891
1.54447
1.53470
1.50537
1.48582
1.46138
1.45161
1.45650
1.41251
1.39784
1.39296
1.37829
1.38318
1.35874
1.35874
1.36363
1.37829
1.43695
1.50537
1.60312
1.71065
1.82306
1.93059
1.99902
2.01857
2.05278
2.01368
1.98924
1.93059
1.89149
1.86705
1.82306
1.77908
1.73998
1.70576
1.70087
1.63734
1.61779
1.61290
1.61290
1.62756
1.61779
1.63245
1.64711
1.64222
1.64222
1.63245
1.62267
1.59824
1.56891
1.55425
1.53470
1.50537
1.48093
1.46138
1.46138
1.43695
1.41251
1.42228
1.39784
1.38318
1.36363
1.35386
1.37829
1.34897
1.35874
1.38807
1.44183
1.53958
1.62756
1.73998
1.87194
1.93059
1.97947
2.00391
2.00391
2.00391
1.93059
1.89149
1.84750
1.80840
1.78885
1.71554
1.68621
1.65689
1.60801
1.58846
1.59824
1.58357
1.57380
1.58846
1.60312
1.62756
1.61290
1.61290
1.60801
1.59824
1.58846
1.55425
1.53470
1.52003
1.49071
1.47116
1.45650
1.44672
1.44672
1.40273
1.39784
1.38807
1.37341
1.38318
1.34897
1.34897
1.33919
1.33431
1.35874
1.39296
1.45650
1.53958
1.64711
1.76930
1.86217
1.93059
2.01857
2.00879
1.99902
1.99413
1.92570
1.89149
1.84261
1.79374
1.78396
1.72531
1.69110
1.66177
1.61290
1.59335
1.58357
1.56891
1.60312
1.58846
1.60801
1.60312
1.60801
1.64222
1.61290
1.59335
1.57380
1.55913
1.54936
1.51026
1.48582
1.46627
1.45161
1.43695
1.40273
1.39784
1.38807
1.36363
1.36363
1.34897
1.33919
1.32942
1.31964
1.32453
1.32942
1.35386
1.40273
1.49071
1.60801
1.72531
1.82306
1.93548
1.97947
2.00391
1.98435
1.96480
1.95992
1.88660
1.83284
1.78885
1.76441
1.75953
1.68621
1.65689
1.62756
1.59824
1.57380
1.55913
1.56891
1.59335
1.57869
1.59335
1.59824
1.60801
1.62267
1.58846
1.57869
1.55913
1.52981
1.53958
1.49071
1.47116
1.44183
1.42228
1.43695
1.40273
1.39296
1.37341
1.36852
1.38807
1.34897
1.33919
1.32942
1.32942
1.33431
1.32453
1.33919
1.39296
1.46627
1.56891
1.67644
1.80840
1.93548
1.97458
2.01857
2.03323
2.01368
1.99902
1.93059
1.89638
1.84261
1.79863
1.78396
1.73020
1.69110
1.65200
1.61779
1.61290
1.58357
1.57380
1.56891
1.57869
1.60312
1.59335
1.60312
1.60312
1.60801
1.58846
1.55913
1.54447
1.52981
1.50048
1.48093
1.45650
1.44672
1.42717
1.40273
1.39784
1.38318
1.36852
1.37829
1.34897
1.34897
1.33431
1.31964
1.34408
1.31964
1.31964
1.32453
1.36363
1.45161
1.52492
1.63245
1.75953
1.87683
1.96969
2.00391
2.02346
2.01857
1.98924
1.94525
1.88660
1.84750
1.79863
1.74975
1.73020
1.67644
1.64222
1.59824
1.57380
1.56402
1.55425
1.54447
1.55913
1.57869
1.59824
1.58846
1.58846
1.62756
1.58846
1.56891
1.54447
1.52492
1.52003
1.47116
1.45650
1.43206
1.42228
1.40762
1.38318
1.37341
1.39784
1.34897
1.34897
1.34408
1.33431
1.35874
1.31964
1.32453
1.32453
1.32942
1.39296
1.42717
1.52492
1.63245
1.74975
1.86217
1.95503
2.00391
2.03323
2.00879
1.98435
1.93548
1.87683
1.84750
1.78885
1.73998
1.68621
1.64711
1.61779
1.57869
1.53958
1.55913
1.53958
1.54936
1.54936
1.56891
1.59824
1.60312
1.59335
1.59335
1.58846
1.58846
1.54936
1.53470
1.51026
1.49071
1.47605
1.44672
1.43695
1.43206
1.41251
1.41739
1.39296
1.38807
1.37341
1.36363
1.36852
1.35874
1.34897
1.34897
1.36363
1.41251
1.45161
1.53470
1.64711
1.77419
1.88660
1.95992
2.02346
2.08211
2.04789
2.01368
1.97458
1.93059
1.89149
1.81329
1.76930
1.73020
1.68621
1.64222
1.60312
1.58357
1.56891
1.55425
1.56402
1.57380
1.58357
1.60801
1.60801
1.62267
1.61779
1.60312
1.61779
1.57869
1.56402
1.52981
1.51026
1.49560
1.47116
1.44672
1.43206
1.42228
1.42228
1.39296
1.37829
1.40762
1.36852
1.35386
1.34408
1.34408
1.37829
1.38807
1.45650
1.55425
1.68132
1.80840
1.89638
1.98435
2.04301
2.05278
2.04789
2.00879
1.97458
1.92082
1.86217
1.82795
1.77419
1.73020
1.68132
1.64222
1.62756
1.59335
1.57380
1.57380
1.58846
1.60801
1.60801
1.62267
1.63734
1.64222
1.63734
1.61779
1.61290
1.59335
1.56891
1.55425
1.52492
1.50537
1.48582
1.46138
1.45650
1.43695
1.41251
1.41739
1.39784
1.39296
1.37341
1.36852
1.39296
1.38318
1.42228
1.48093
1.58357
1.73998
1.82306
1.92570
2.00879
2.06744
2.10654
2.06744
2.04301
2.00879
1.95014
1.89638
1.85239
1.82306
1.77419
1.72531
1.72043
1.66177
1.63245
1.60801
1.60312
1.63245
1.61779
1.62267
1.63734
1.64711
1.66666
1.63734
1.63245
1.61779
1.59824
1.58357
1.54936
1.53470
1.52003
1.49071
1.48093
1.46627
1.45161
1.46627
1.42228
1.41739
1.40762
1.38318
1.40762
1.40273
1.44672
1.50048
1.58846
1.71554
1.83773
1.94037
2.03323
2.09677
2.13587
2.11632
2.08699
2.05278
2.00879
1.97458
1.90615
1.87194
1.84261
1.79863
1.77908
1.71554
1.70087
1.67155
1.65689
1.67155
1.66666
1.67155
1.67644
1.68621
1.71554
1.69599
1.68132
1.67155
1.65689
1.64711
1.60312
1.58357
1.56891
1.54936
1.52492
1.50537
1.49560
1.48093
1.45650
1.45161
1.44183
1.43206
1.44183
1.42228
1.45161
1.50537
1.57869
1.70576
1.80840
1.93548
2.01857
2.08211
2.12609
2.13098
2.10166
2.06256
2.02834
2.00879
1.94037
1.90127
1.86217
1.83773
1.81818
1.74486
1.72043
1.70087
1.68132
1.69599
1.67644
1.69110
1.69110
1.69110
1.73020
1.70576
1.69599
1.67155
1.65689
1.67155
1.61779
1.58846
1.56402
1.55425
1.53958
1.51026
1.49560
1.48093
1.46138
1.45650
1.43695
1.42717
1.42228
1.41251
1.43206
1.46138
1.52492
1.61290
1.72531
1.85239
1.95992
2.03323
2.09188
2.10654
2.10654
2.06256
2.01857
1.97947
1.94525
1.90615
1.85728
1.82306
1.79374
1.74975
1.71065
1.68132
1.66666
1.65200
1.64711
1.66177
1.67155
1.67644
1.71065
1.68132
1.68621
1.66666
1.64711
1.66177
1.61779
1.59824
1.56402
1.54447
1.56402
1.51515
1.49560
1.48093
1.47116
1.47605
1.44183
1.43695
1.42717
1.42228
1.42717
1.42228
1.44672
1.49560
1.56402
1.67155
1.78396
1.89638
1.97947
2.05278
2.10166
2.10166
2.07233
2.03812
1.99902
1.97458
1.90615
1.86705
1.82795
1.79374
1.74975
1.71065
1.68132
1.67644
1.64711
1.64222
1.65689
1.66666
1.67644
1.67155
1.67155
1.67644
1.66177
1.65200
1.62756
1.60312
1.57869
1.54936
1.53958
1.52003
1.49560
1.47605
1.46138
1.46627
1.44183
1.42717
1.41739
1.41251
1.40273
1.37829
1.37341
1.41251
1.39296
1.41739
1.47605
1.56402
1.70087
1.78396
1.89638
1.98924
2.04301
2.06744
2.04789
2.02346
1.98924
1.93059
1.91593
1.85239
1.81329
1.76441
1.72531
1.69599
1.66177
1.62756
1.64222
1.61290
1.62267
1.62267
1.63245
1.67155
1.65200
1.65200
1.63734
1.62756
1.63245
1.58357
1.55425
1.53470
1.52003
1.51515
1.47116
1.45650
1.44672
1.42228
1.42228
1.39296
1.38807
1.37341
1.35874
1.35386
1.34408
1.33919
1.36363
1.35874
1.40762
1.48582
1.57869
1.71065
1.82795
1.92570
1.99413
2.03323
2.05767
2.03323
1.98435
1.95014
1.90615
1.87194
1.81818
1.78396
1.75464
1.72531
1.69110
1.64711
1.62267
1.62267
1.59824
1.60801
1.61290
1.62756
1.65200
1.63245
1.63734
1.63245
1.60801
1.62267
1.57380
1.55913
1.52492
1.50048
1.50048
1.46627
1.44672
1.42228
1.41251
1.41251
1.39296
1.37341
1.36363
1.35874
1.34897
1.33431
1.33431
1.35874
1.35874
1.39784
1.47605
1.58357
1.73998
1.82306
1.93059
2.01368
2.05278
2.07722
2.03812
2.01368
1.96969
1.91593
1.90615
1.84261
1.81818
1.76930
1.73020
1.73020
1.66666
1.63245
1.60801
1.60312
1.63245
1.59824
1.60312
1.61290
1.61779
1.63245
1.60801
1.60312
1.58846
1.56402
1.54447
1.51515
1.49560
1.46627
1.44183
1.43695
1.41739
1.39784
1.37829
1.36363
1.37341
1.34897
1.33431
1.36363
1.32453
1.32453
1.31476
1.32453
1.37829
1.39784
1.47605
1.58357
1.71554
1.86217
1.92570
1.99413
2.03323
2.04301
2.02834
1.97458
1.93548
1.88660
1.83773
1.80840
1.76930
1.73509
1.68621
1.64711
1.65200
1.59824
1.57869
1.56891
1.57869
1.60801
1.59335
1.60312
1.61290
1.61779
1.61290
1.59335
1.58357
1.56402
1.53470
1.51515
1.49071
1.47605
1.44672
1.43206
1.43695
1.41251
1.39784
1.38318
1.38318
1.38318
1.35874
1.33919
1.33919
1.33431
1.34408
1.32942
1.35874
1.41251
1.49071
1.60312
1.71554
1.83773
1.93548
1.99902
2.04301
2.05278
2.03323
1.98435
1.94037
1.91593
1.84750
1.79863
1.75464
1.72043
1.69110
1.63245
1.60312
1.58357
1.57869
1.57869
1.57380
1.59335
1.60312
1.60312
1.63734
1.61290
1.61290
1.59335
1.57869
1.59335
1.54447
1.51515
1.49071
1.46627
1.48093
1.42717
1.41251
1.40273
1.39296
1.39784
1.35874
1.34897
1.34408
1.32942
1.33431
1.31476
1.32942
1.35874
1.41251
1.51515
1.62267
1.73998
1.85239
1.94525
2.03323
2.05278
2.04301
2.02346
1.98924
1.95992
1.88172
1.83773
1.79863
1.75464
1.72043
1.66177
1.63245
1.60801
1.57869
1.57869
1.57380
1.58357
1.58357
1.59335
1.61290
1.61779
1.60801
1.62756
1.58846
1.58357
1.55425
1.52981
1.51026
1.49071
1.47116
1.44672
1.43206
1.44672
1.40273
1.39296
1.37829
1.37341
1.35386
1.33919
1.33431
1.33431
1.32942
1.34897
1.39784
1.49071
1.58846
1.70087
1.85239
1.94037
2.01857
2.04789
2.05767
2.05278
2.01368
1.98435
1.90615
1.87194
1.82306
1.77419
1.75953
1.70087
1.66666
1.61779
1.58846
1.58846
1.57869
1.57869
1.58357
1.60312
1.63245
1.60801
1.61290
1.61779
1.61290
1.59824
1.56891
1.55425
1.53470
1.50048
1.49560
1.46627
1.45650
1.42717
1.41251
1.41251
1.39296
1.37829
1.35874
1.35386
1.35874
1.33919
1.33919
1.36363
1.41739
1.50048
1.60312
1.73020
1.86217
1.96480
2.04301
2.08699
2.10166
2.08211
2.04301
2.00879
1.95992
1.91104
1.86217
1.82306
1.81818
1.74975
1.71065
1.67155
1.64711
1.66177
1.61290
1.61779
1.62756
1.63734
1.65689
1.64222
1.65200
1.64711
1.62756
1.62756
1.60312
1.58357
1.54936
1.52492
1.52003
1.49071
1.46627
1.44672
1.43695
1.43695
1.40273
1.39784
1.39784
1.37829
1.36363
1.35386
1.35386
1.41251
1.42228
1.50537
1.61290
1.74486
1.88172
1.96480
2.04301
2.09188
2.09677
2.09677
2.03812
2.00391
1.95014
1.90127
1.88660
1.82795
1.78885
1.74486
1.70576
1.69599
1.64711
1.62267
1.61290
1.61779
1.63245
1.62756
1.63245
1.64711
1.65200
1.64222
1.63245
1.62267
1.63245
1.56891
1.54936
1.52981
1.51026
1.50537
1.46627
1.45650
1.44183
1.42228
1.42228
1.40273
1.39784
1.37829
1.37341
1.38318
1.38807
1.41739
1.47116
1.56402
1.68621
1.79374
1.90615
1.99902
2.06744
2.10166
2.08211
2.06256
2.02834
1.97458
1.92570
1.88172
1.85728
1.80351
1.75953
1.72043
1.69110
1.67644
1.63245
1.62267
1.63245
1.63734
1.64711
1.64711
1.66177
1.66177
1.65200
1.66666
1.63734
1.62267
1.58846
1.56891
1.55913
1.52492
1.49560
1.47605
1.46138
1.45650
1.42717
1.41739
1.40273
1.39296
1.38318
1.36852
1.36852
1.41251
1.40273
1.46138
1.54936
1.66666
1.80840
1.89149
1.98924
2.05278
2.07233
2.10166
2.04789
2.01857
1.95503
1.89638
1.85728
1.82306
1.77419
1.71554
1.68132
1.68132
1.62267
1.60312
1.59824
1.60801
1.62756
1.62267
1.64222
1.65200
1.64711
1.67644
1.63734
1.63245
1.60801
1.57869
1.58846
1.53958
1.52492
1.49560
1.47116
1.48582
1.45161
1.43206
1.41739
1.40762
1.43206
1.38318
1.37829
1.38318
1.40273
1.45161
1.51515
1.62756
1.75464
1.86705
1.98435
2.05278
2.10166
2.10654
2.09188
2.05767
2.01857
1.97947
1.91104
1.87194
1.83284
1.78396
1.74975
1.70087
1.67644
1.64711
1.62756
1.65200
1.63245
1.63734
1.63734
1.65200
1.69110
1.65200
1.64222
1.62756
1.61290
1.59335
1.56402
1.55425
1.52492
1.50537
1.47605
1.46627
1.46627
1.44183
1.41739
1.40762
1.39784
1.42228
1.37829
1.38318
1.39784
1.43695
1.52003
1.59824
1.73020
1.85239
1.95014
2.05767
2.09188
2.11632
2.08699
2.05278
2.01857
1.97947
1.92082
1.88172
1.84261
1.80840
1.77908
1.71554
1.69110
1.66666
1.64222
1.66177
1.63734
1.65200
1.65200
1.65689
1.69110
1.67155
1.66177
1.64222
1.62756
1.65689
1.59824
1.56891
1.54447
1.52981
1.53470
1.48093
1.46627
1.45650
1.43206
1.44183
1.40273
1.40273
1.38807
1.36852
1.37341
1.39296
1.44672
1.51026
1.61290
1.77419
1.86705
1.95992
2.03812
2.08211
2.12609
2.06744
2.03812
1.99413
1.95503
1.90127
1.86217
1.82795
1.79863
1.75464
1.70576
1.67644
1.65200
1.62267
1.63734
1.61779
1.63245
1.63245
1.64222
1.67155
1.65200
1.64222
1.62267
1.60801
1.62267
1.56891
1.53470
1.51515
1.50048
1.50048
1.45650
1.44672
1.43695
1.42228
1.42717
1.39296
1.38807
1.37829
1.36363
1.38318
1.36852
1.38807
1.42717
1.50048
1.64222
1.73020
1.84750
1.94525
2.02834
2.07722
2.07233
2.08211
2.02834
2.00391
1.93548
1.89149
1.85239
1.81818
1.76441
1.72531
1.69110
1.66177
1.62756
1.64711
1.61290
1.62756
1.62267
1.62756
1.65200
1.65200
1.64222
1.63245
1.62756
1.62756
1.58846
1.56402
1.53958
1.52492
1.52003
1.47605
1.46138
1.45161
1.43206
1.42717
1.40273
1.39784
1.37829
1.35874
1.36363
1.35386
1.35874
1.35874
1.39784
1.47116
1.55913
1.67155
1.79863
1.92082
2.03323
2.05767
2.08699
2.08211
2.04789
2.00879
1.94525
1.90127
1.85239
1.78885
1.74486
1.70576
1.67155
1.62756
1.60312
1.59824
1.60312
1.61290
1.60801
1.62267
1.64222
1.64222
1.63734
1.63734
1.63734
1.60312
1.58357
1.56402
1.54936
1.52981
1.49560
1.47605
1.46627
1.44183
1.43695
1.41739
1.40762
1.39784
1.37829
1.37341
1.36852
1.35386
1.36852
1.36363
1.40762
1.46627
1.55425
1.67644
1.80351
1.92570
1.99413
2.05278
2.08699
2.08211
2.04789
1.99902
1.95503
1.90127
1.84261
1.81329
1.75953
1.72043
1.68621
1.64222
1.62756
1.60801
1.59335
1.59824
1.61290
1.63245
1.62756
1.63734
1.66666
1.63734
1.62756
1.60312
1.58357
1.57380
1.53958
1.51515
1.49560
1.47116
1.46627
1.42717
1.42228
1.40762
1.38807
1.39296
1.35874
1.35874
1.33919
1.32942
1.36363
1.36363
1.41251
1.48582
1.59335
1.73998
1.84261
1.94037
2.01368
2.05767
2.07233
2.04789
2.02834
1.96969
1.92082
1.86217
1.81818
1.77908
1.73998
1.69599
1.65689
1.62267
1.60801
1.58357
1.58846
1.59335
1.60801
1.60801
1.61779
1.62756
1.62756
1.61779
1.60312
1.59335
1.59824
1.54936
1.52492
1.50537
1.48582
1.47605
1.44183
1.43206
1.41739
1.39784
1.39784
1.37341
1.36852
1.34897
1.33919
1.35874
1.35874
1.39784
1.46138
1.56402
1.71065
1.80840
1.90615
1.99413
2.05278
2.10166
2.05278
2.02346
1.98435
1.93059
1.90127
1.83284
1.79863
1.75464
1.70576
1.69599
1.63734
1.61290
1.58846
1.57869
1.61779
1.59335
1.59824
1.60312
1.60801
1.65200
1.60801
1.60801
1.59335
1.58357
1.55425
1.52981
1.52981
1.49560
1.47116
1.44672
1.42717
1.45161
1.39784
1.38318
1.37341
1.36363
1.37829
1.33431
1.33919
1.34408
1.37341
1.45650
1.52003
1.64711
1.75953
1.86705
1.98924
2.02834
2.05767
2.04301
2.01368
1.97947
1.93059
1.90615
1.82306
1.78885
1.74486
1.69110
1.68132
1.61779
1.59824
1.56891
1.56402
1.56891
1.58357
1.58357
1.59824
1.62756
1.61779
1.60801
1.59824
1.58357
1.57380
1.54447
1.52981
1.51026
1.49560
1.46627
1.44672
1.45650
1.42228
1.40762
1.38807
1.37829
1.38807
1.35386
1.34897
1.34408
1.35386
1.41739
1.43695
1.53470
1.65200
1.76441
1.90127
1.96969
2.04301
2.06256
2.04789
2.02346
1.98924
1.95503
1.87683
1.83773
1.79374
1.74975
1.69599
1.66177
1.66177
1.60801
1.58846
1.58846
1.59824
1.63734
1.61290
1.63245
1.64222
1.64711
1.66177
1.62267
1.61779
1.60312
1.56891
1.57869
1.53958
1.52492
1.49560
1.47605
1.49560
1.45161
1.43206
1.41251
1.40762
1.42228
1.38318
1.37829
1.37341
1.39296
1.45161
1.49560
1.60312
1.72531
1.83773
1.96480
2.00391
2.06256
2.06744
2.04301
2.00879
1.96969
1.94037
1.85239
1.81329
1.76930
1.72043
1.69599
1.63245
1.61779
1.59335
1.57869
1.59335
1.59824
1.61779
1.61779
1.62756
1.66177
1.63734
1.62756
1.61779
1.60801
1.62756
1.56402
1.54936
1.52981
1.51026
1.49071
1.47116
1.46627
1.44672
1.42228
1.40762
1.39784
1.42717
1.37829
1.38318
1.40762
1.45161
1.52492
1.63245
1.75953
1.88172
1.97458
2.04301
2.08699
2.10654
2.07722
2.06256
1.98924
1.96969
1.89149
1.86705
1.79374
1.76441
1.71554
1.66666
1.64222
1.62756
1.61779
1.60801
1.61779
1.64222
1.63734
1.64711
1.64711
1.65200
1.67644
1.62267
1.61290
1.59335
1.56891
1.56891
1.52003
1.51026
1.48582
1.45650
1.44183
1.43695
1.42717
1.40273
1.39296
1.38807
1.39296
1.39784
1.42228
1.49560
1.59335
1.70087
1.82795
1.93548
2.02834
2.06744
2.08699
2.09188
2.05767
2.01368
1.95992
1.91593
1.89638
1.83284
1.79374
1.75464
1.72043
1.70087
1.64711
1.63734
1.63245
1.62756
1.63734
1.64222
1.66177
1.66177
1.65200
1.65200
1.64711
1.64222
1.60801
1.59335
1.57380
1.55425
1.53958
1.51026
1.49560
1.47605
1.45161
1.46627
1.43206
1.42228
1.40273
1.39296
1.42717
1.42228
1.46138
1.53958
1.64711
1.76930
1.87194
1.97458
2.04301
2.09188
2.08699
2.06744
2.04789
1.99413
1.94525
1.89638
1.85728
1.85728
1.77908
1.73998
1.70087
1.67155
1.66666
1.61779
1.62267
1.62756
1.63245
1.63245
1.64222
1.65200
1.64711
1.64222
1.62267
1.61290
1.58846
1.56402
1.56402
1.52981
1.50537
1.48093
1.46138
1.47116
1.43695
1.41739
1.40762
1.39784
1.40273
1.37341
1.37829
1.38807
1.42228
1.48582
1.56891
1.69110
1.80840
1.90127
1.99413
2.04301
2.06744
2.04301
2.01368
1.99413
1.93059
1.89149
1.83284
1.80840
1.76441
1.71065
1.66666
1.63734
1.65200
1.59335
1.58846
1.59335
1.60312
1.61290
1.61290
1.63245
1.62756
1.61779
1.60312
1.58846
1.58846
1.55425
1.52492
1.51026
1.50048
1.49071
1.45650
1.44183
1.43206
1.41251
1.42228
1.38318
1.38807
1.37829
1.36852
1.39784
1.39784
1.44183
1.49560
1.59335
1.71554
1.83284
1.94037
1.99413
2.04301
2.05278
2.02346
1.99413
1.95992
1.91104
1.85728
1.81329
1.77419
1.73509
1.68621
1.64711
1.61290
1.59335
1.58357
1.57869
1.60312
1.60801
1.61290
1.61779
1.62267
1.62756
1.61290
1.60312
1.58846
1.57380
1.54936
1.52003
1.52003
1.49071
1.46627
1.44672
1.43206
1.45161
1.40273
1.39296
1.37829
1.37341
1.39296
1.35386
1.35874
1.37829
1.42228
1.49560
1.59335
1.71554
1.83284
1.92082
1.99902
2.03812
2.05278
2.02346
2.00391
1.94525
1.89638
1.82795
1.78396
1.73998
1.70087
1.64711
1.60312
1.58846
1.57380
1.55913
1.55913
1.57380
1.58846
1.59335
1.60801
1.60801
1.61290
1.59824
1.58357
1.57869
1.55913
1.52492
1.50537
1.48582
1.48093
1.45161
1.42717
1.41739
1.41251
1.40762
1.37341
1.36363
1.35386
1.34408
1.36852
1.34408
1.37341
1.41739
1.49071
1.62267
1.72531
1.85239
1.93548
2.01368
2.05278
2.06256
2.02834
1.99413
1.95014
1.90127
1.84261
1.79863
1.77908
1.72043
1.66666
1.62267
1.59335
1.58846
1.55913
1.57380
1.56402
1.57869
1.57869
1.59335
1.59824
1.60312
1.60801
1.57380
1.56402
1.55425
1.52492
1.52003
1.48093
1.48093
1.45650
1.43206
1.42228
1.41251
1.42228
1.37829
1.37341
1.36363
1.34897
1.33919
1.34408
1.36852
1.39784
1.46627
1.57380
1.69599
1.82306
1.91593
1.99902
2.06256
2.06744
2.05278
2.00879
1.97458
1.92570
1.86705
1.81818
1.77908
1.75464
1.68621
1.64711
1.60801
1.58357
1.55425
1.54447
1.57869
1.55913
1.56402
1.56891
1.58357
1.61290
1.58357
1.57869
1.56402
1.54936
1.56402
1.51026
1.50048
1.48582
1.45650
1.43206
1.42228
1.42717
1.40273
1.38318
1.36852
1.36852
1.38318
1.35874
1.37829
1.41739
1.47116
1.57380
1.66666
1.79374
1.89149
1.95992
2.02834
2.03323
2.02346
1.97947
1.96480
1.89638
1.84750
1.78396
1.73998
1.69599
1.65200
1.61290
1.56402
1.53958
1.51515
1.49560
1.49560
1.51026
1.55425
1.52492
1.53958
1.54936
1.54936
1.56891
1.52492
1.51515
1.50048
1.47116
1.47116
1.43695
1.43695
1.40273
1.38318
1.36363
1.35386
1.36363
1.31964
1.31964
1.31476
1.31964
1.34408
1.40762
1.51515
1.61290
1.72043
1.82795
1.92570
1.98924
1.98924
1.98435
1.96480
1.92082
1.86217
1.81329
1.76930
1.72043
1.66666
1.61779
1.59824
1.54936
1.51515
1.50048
1.50048
1.52981
1.51515
1.52492
1.53958
1.55425
1.56891
1.54936
1.54447
1.53470
1.51026
1.51026
1.47605
1.46138
1.42717
1.40762
1.41739
1.38318
1.35874
1.33919
1.32942
1.34408
1.31476
1.31964
1.34408
1.40762
1.51515
1.59335
1.73998
1.82795
1.91104
1.95503
1.97947
1.97947
1.95503
1.90127
1.85728
1.81329
1.76930
1.70087
1.65200
1.60801
1.56402
1.54447
1.49560
1.49071
1.48582
1.48582
1.53470
1.52003
1.53470
1.52981
1.53470
1.56891
1.52981
1.51026
1.49071
1.46627
1.45161
1.42228
1.40762
1.37829
1.35874
1.33431
1.31476
1.31964
1.30009
1.29032
1.28543
1.30498
1.38807
1.42228
1.52492
1.62756
1.73509
1.81329
1.86217
1.92570
1.91104
1.88660
1.84261
1.82795
1.74975
1.69599
1.64222
1.59335
1.54936
1.51026
1.46627
1.43695
1.43206
1.42228
1.44183
1.43206
1.44672
1.44672
1.44672
1.44672
1.45161
1.47116
1.42228
1.41251
1.39784
1.37829
1.34897
1.32942
1.30987
1.29032
1.28543
1.24144
1.22189
1.19745
1.17302
1.15835
1.15835
1.20723
1.22678
1.31964
1.40273
1.50537
1.58846
1.66177
1.73020
1.73509
1.72531
1.69599
1.66666
1.63245
1.56891
1.53958
1.46138
1.42717
1.36363
1.32453
1.29032
1.27565
1.29521
1.26099
1.28054
1.29032
1.30009
1.30009
1.29521
1.30498
1.29521
1.30009
1.26588
1.26588
1.23167
1.20723
1.18279
1.16813
1.14369
1.11925
1.11436
1.08993
1.08015
1.05083
1.04105
1.05571
1.08504
1.13880
1.21212
1.30009
1.40273
1.46627
1.52981
1.55913
1.57869
1.59335
1.54447
1.52003
1.48582
1.44183
1.42717
1.36363
1.32942
1.28054
1.23655
1.25610
1.20723
1.19745
1.18768
1.18768
1.22189
1.19745
1.19257
1.19257
1.18768
1.20234
1.15835
1.14858
1.13391
1.10948
1.10459
1.07038
1.06060
1.04105
1.01661
1.02639
0.98729
0.98240
0.96774
0.97751
1.01173
1.05083
1.12414
1.20234
1.29521
1.40762
1.42228
1.47116
1.50048
1.51026
1.50537
1.47116
1.45650
1.42717
1.38807
1.39784
1.33919
1.31964
1.28543
1.26588
1.28543
1.26099
1.25122
1.25610
1.26588
1.28543
1.28054
1.27565
1.30987
1.28054
1.27565
1.25610
1.25122
1.26099
1.21700
1.20234
1.18768
1.17790
1.17302
1.13880
1.12414
1.11925
1.10948
1.11925
1.11925
1.15347
1.20234
1.25610
1.33919
1.40762
1.46627
1.50048
1.52003
1.54936
1.53958
1.51026
1.50048
1.48093
1.46138
1.42717
1.40762
1.40273
1.36363
1.33431
1.31964
1.30987
1.34408
1.30498
1.31476
1.31964
1.32942
1.35386
1.32453
1.32942
1.32453
1.30987
1.32942
1.29032
1.28543
1.26588
1.25122
1.27077
1.22678
1.20723
1.18768
1.17790
1.19745
1.16324
1.15347
1.15835
1.17790
1.22678
1.25610
1.31964
1.39784
1.45161
1.51515
1.52981
1.55425
1.54936
1.53470
1.54936
1.51026
1.49560
1.46138
1.44183
1.44672
1.40273
1.38318
1.36852
1.36363
1.38318
1.34897
1.35874
1.36852
1.37829
1.38318
1.37341
1.37829
1.37341
1.35874
1.35874
1.33919
1.33919
1.31964
1.30498
1.30498
1.29032
1.28054
1.26588
1.26588
1.27077
1.25122
1.24144
1.24144
1.24144
1.25122
1.26099
1.29032
1.34897
1.40762
1.46627
1.52003
1.57380
1.60801
1.61779
1.63245
1.62756
1.62267
1.60312
1.58357
1.57869
1.55425
1.54447
1.51026
1.51515
1.49560
1.47605
1.47605
1.48582
1.50048
1.49071
1.49560
1.50048
1.50537
1.50048
1.48582
1.48582
1.48093
1.46138
1.46138
1.44183
1.43695
1.41251
1.40762
1.40762
1.38807
1.36852
1.35874
1.35386
1.35874
1.33919
1.32942
1.32942
1.33431
1.35386
1.37829
1.43206
1.53470
1.56402
1.61779
1.66666
1.70087
1.73998
1.71554
1.71065
1.71065
1.69110
1.66666
1.65200
1.65200
1.61779
1.58846
1.57869
1.57380
1.56891
1.55913
1.56891
1.57380
1.58357
1.61290
1.58846
1.60312
1.59824
1.58357
1.60801
1.57380
1.56891
1.54936
1.53958
1.54936
1.52003
1.49560
1.49071
1.48582
1.49560
1.46138
1.45161
1.44183
1.44183
1.44183
1.42717
1.43695
1.45650
1.48582
1.53958
1.60312
1.68132
1.74486
1.79374
1.87194
1.87683
1.88660
1.88660
1.88172
1.90615
1.86217
1.83773
1.83284
1.81329
1.79374
1.76930
1.75464
1.74975
1.73509
1.72531
1.73998
1.73509
1.73998
1.74486
1.73998
1.75464
1.74486
1.72531
1.73998
1.70576
1.70087
1.67155
1.66177
1.66177
1.63734
1.62756
1.60801
1.61779
1.59824
1.58357
1.57380
1.56891
1.59335
1.56402
1.56402
1.57380
1.60312
1.66177
1.71065
1.79863
1.88172
1.95503
2.01857
2.08699
2.10654
2.12121
2.11143
2.11632
2.11143
2.09677
2.07233
2.05767
2.04789
2.03812
1.99413
1.98924
1.96480
1.95014
1.93548
1.93548
1.97458
1.95014
1.94525
1.94525
1.95014
1.95992
1.92570
1.91593
1.90127
1.88660
1.86217
1.83773
1.81818
1.80351
1.77419
1.79374
1.74975
1.74975
1.71554
1.70576
1.69110
1.68132
1.66177
1.64711
1.67644
1.65689
1.67155
1.71065
1.77908
1.87194
1.95503
2.02834
2.10166
2.18963
2.18475
2.20430
2.18963
2.18475
2.16031
2.13587
2.12121
2.10166
2.07233
2.03812
2.01368
2.01368
1.96480
1.94037
1.92570
1.92570
1.95014
1.91104
1.94037
1.92082
1.93548
1.89638
1.89149
1.87194
1.86217
1.82795
1.80840
1.78885
1.76441
1.73509
1.71554
1.70576
1.68621
1.66177
1.64222
1.62756
1.64222
1.59335
1.58357
1.57380
1.56891
1.55425
1.54936
1.56891
1.59824
1.64222
1.71554
1.80351
1.89638
1.96969
2.04789
2.06744
2.10166
2.09677
2.09677
2.06744
2.08211
2.02834
2.01368
1.97947
1.98435
1.93059
1.90127
1.86705
1.84750
1.82795
1.80840
1.83773
1.81329
1.81818
1.80840
1.80840
1.81329
1.80351
1.78885
1.76930
1.75953
1.73509
1.70087
1.70087
1.66177
1.64711
1.61290
1.59335
1.58357
1.56402
1.54936
1.52003
1.50537
1.49560
1.47116
1.46138
1.45161
1.48093
1.44183
1.47116
1.51026
1.58357
1.65689
1.74486
1.83773
1.92082
1.97458
1.99413
2.01368
2.00879
1.98924
1.95014
1.91593
1.89638
1.86705
1.82306
1.81329
1.77908
1.74975
1.72043
1.70576
1.72531
1.69110
1.71065
1.69110
1.70576
1.70087
1.69599
1.68621
1.68132
1.67644
1.65200
1.63734
1.61290
1.62756
1.56402
1.54936
1.53958
1.53958
1.50048
1.49071
1.48093
1.46627
1.44672
1.43206
1.44672
1.41251
1.40762
1.38807
1.40762
1.43206
1.47116
1.53470
1.62756
1.75953
1.81818
1.92570
1.95503
2.00391
1.99902
2.00391
1.96480
1.94037
1.90615
1.86705
1.84261
1.83773
1.77419
1.75953
1.71554
1.70576
1.68132
1.66177
1.66666
1.67644
1.70087
1.67644
1.68621
1.68621
1.68132
1.66666
1.65689
1.64222
1.62267
1.61779
1.57380
1.58357
1.54447
1.52003
1.50048
1.48582
1.46627
1.44183
1.43695
1.41739
1.40762
1.38318
1.36852
1.36363
1.36852
1.36852
1.40273
1.49071
1.54936
1.64222
1.73509
1.83284
1.91104
1.95503
1.97458
1.98435
1.97947
1.97947
1.91593
1.88660
1.87683
1.83284
1.79374
1.76930
1.74486
1.71554
1.72043
1.67644
1.68132
1.67644
1.67644
1.68132
1.69599
1.69599
1.69599
1.68621
1.68621
1.67644
1.64711
1.63245
1.61290
1.62267
1.56891
1.56891
1.53470
1.52492
1.50048
1.48582
1.48093
1.47116
1.45650
1.43206
1.42717
1.42228
1.40762
1.41251
1.41739
1.46138
1.51026
1.58357
1.68621
1.79374
1.90127
1.95014
2.01368
2.03323
2.01857
1.99413
1.96969
1.96480
1.90127
1.86217
1.83284
1.81329
1.78396
1.74486
1.72531
1.70576
1.69110
1.67155
1.67644
1.68132
1.68621
1.70576
1.69110
1.70576
1.69110
1.67155
1.65689
1.64711
1.63245
1.59824
1.58846
1.56891
1.54936
1.52003
1.50537
1.49560
1.48093
1.48582
1.44183
1.43695
1.42228
1.40762
1.39296
1.38318
1.41251
1.37829
1.38807
1.41739
1.47116
1.55425
1.64711
1.78885
1.86705
1.94525
1.98924
2.01857
2.02346
1.99413
1.96969
1.92082
1.89149
1.86217
1.81818
1.81818
1.76930
1.74486
1.70576
1.68621
1.67155
1.65689
1.66177
1.65200
1.66666
1.66666
1.66177
1.66666
1.67155
1.67155
1.64711
1.64222
1.62756
1.61290
1.58357
1.56402
1.55425
1.53958
1.52981
1.50537
1.50048
1.48582
1.47116
1.45650
1.45161
1.45650
1.42717
1.42228
1.41251
1.41739
1.41251
1.43695
1.49560
1.57380
1.67155
1.75953
1.86217
1.95014
1.99413
2.01368
2.01857
2.00391
1.96969
1.92082
1.88660
1.85728
1.81818
1.78396
1.74975
1.73020
1.69110
1.65689
1.68132
1.64711
1.64711
1.64711
1.66177
1.67155
1.68132
1.67155
1.67155
1.67155
1.65689
1.63245
1.61779
1.60312
1.58357
1.56891
1.53958
1.54447
1.51515
1.49560
1.48093
1.47605
1.47116
1.45161
1.45650
1.44183
1.43695
1.42228
1.41251
1.42717
1.44672
1.51026
1.55425
1.66177
1.76441
1.86217
1.94037
2.01857
2.04789
2.07233
2.02834
1.99413
1.96969
1.91593
1.87683
1.83773
1.81329
1.76930
1.73509
1.70087
1.68621
1.66177
1.65200
1.65200
1.66177
1.67155
1.68132
1.71554
1.70576
1.71554
1.69110
1.68132
1.67644
1.68132
1.62756
1.61290
1.59824
1.58357
1.55425
1.53958
1.56402
1.52003
1.51026
1.50048
1.50048
1.49560
1.47605
1.47605
1.47116
1.50048
1.45650
1.47605
1.50537
1.57380
1.65200
1.75464
1.86705
1.96969
2.03323
2.07722
2.09677
2.10166
2.05767
2.01857
1.97458
1.93548
1.88660
1.85728
1.80351
1.77908
1.73998
1.70576
1.70576
1.69110
1.69599
1.68621
1.69110
1.71065
1.71554
1.71554
1.72043
1.74975
1.70576
1.69110
1.67155
1.66177
1.63734
1.61290
1.59335
1.57869
1.58846
1.53470
1.54447
1.52003
1.51026
1.48582
1.48093
1.47605
1.46627
1.45161
1.45161
1.48093
1.50048
1.57869
1.64222
1.75953
1.86705
1.95992
2.02834
2.08699
2.10654
2.09188
2.07233
2.03812
2.01368
1.95503
1.91593
1.88172
1.84750
1.80840
1.76441
1.73998
1.72531
1.70576
1.70087
1.71065
1.72043
1.73020
1.73509
1.74486
1.77419
1.74486
1.72531
1.71554
1.73020
1.67644
1.67155
1.62756
1.61779
1.59335
1.56402
1.55913
1.54447
1.53470
1.51026
1.51026
1.50048
1.49560
1.47605
1.47605
1.48582
1.51026
1.56402
1.64711
1.78885
1.87194
1.95992
2.04301
2.09677
2.12609
2.11632
2.09188
2.06256
2.03323
1.98435
1.94037
1.92570
1.87194
1.85728
1.78885
1.75953
1.73509
1.71065
1.70087
1.70087
1.71065
1.71554
1.74975
1.72531
1.73998
1.72531
1.71065
1.69599
1.68621
1.67644
1.63734
1.62756
1.60801
1.58846
1.55913
1.54936
1.54447
1.52981
1.51515
1.50048
1.49560
1.49071
1.48093
1.51026
1.52492
1.58846
1.65689
1.76441
1.88172
1.99413
2.06256
2.12121
2.15542
2.16031
2.12609
2.11143
2.06744
2.03812
1.98924
1.95014
1.94037
1.89149
1.84750
1.81329
1.79374
1.77908
1.75953
1.75464
1.75953
1.77419
1.77419
1.77908
1.77908
1.80840
1.75953
1.73998
1.72531
1.73998
1.68621
1.66666
1.64222
1.64711
1.59824
1.58846
1.56891
1.55913
1.53958
1.52492
1.51026
1.51026
1.50537
1.49560
1.52003
1.57869
1.65200
1.74486
1.86705
1.97947
2.07722
2.12609
2.16520
2.18475
2.17008
2.13587
2.09188
2.06744
2.02834
1.97947
1.97947
1.92082
1.89638
1.84750
1.81818
1.79863
1.78396
1.79374
1.76441
1.77419
1.78885
1.77908
1.77908
1.77419
1.77419
1.77908
1.72531
1.70576
1.68621
1.67644
1.62756
1.61290
1.59824
1.57380
1.55425
1.54447
1.53470
1.52003
1.50537
1.49560
1.52981
1.49560
1.50537
1.51515
1.55913
1.61779
1.69599
1.81818
1.92570
2.06256
2.10166
2.18475
2.18475
2.18475
2.17008
2.12121
2.08699
2.06256
2.00391
1.96969
1.97458
1.91104
1.87194
1.83284
1.80840
1.78885
1.76441
1.76441
1.76930
1.77419
1.76441
1.76930
1.76930
1.76441
1.73998
1.74486
1.70087
1.69110
1.65200
1.63734
1.60312
1.58846
1.55913
1.54447
1.52492
1.52003
1.49560
1.48582
1.47605
1.47116
1.49560
1.45650
1.48582
1.46138
1.50048
1.50048
1.56891
1.66177
1.76441
1.86705
1.96969
2.04789
2.09188
2.09677
2.09188
2.06744
2.03812
1.99413
1.95992
1.93548
1.91104
1.87194
1.84750
1.85239
1.79374
1.75953
1.73509
1.73998
1.73020
1.75953
1.73509
1.74486
1.74975
1.73998
1.73020
1.71554
1.70576
1.66666
1.64222
1.61779
1.59824
1.56891
1.54447
1.55425
1.51515
1.50048
1.47605
1.47116
1.46627
1.44672
1.43695
1.43206
1.44672
1.41739
1.41739
1.42717
1.45650
1.50048
1.59824
1.67155
1.81329
1.88660
1.97458
2.01857
2.04789
2.05278
2.01368
1.97458
1.94037
1.90615
1.85728
1.82795
1.80351
1.76441
1.72043
1.68132
1.65689
1.65200
1.61779
1.61779
1.62756
1.64222
1.64222
1.67155
1.64711
1.65200
1.62756
1.61290
1.59335
1.57380
1.54447
1.52492
1.53470
1.50048
1.48582
1.46138
1.46138
1.44672
1.43695
1.41739
1.41739
1.41251
1.39784
1.39296
1.38318
1.42228
1.39296
1.41251
1.43695
1.51026
1.58846
1.69110
1.80351
1.91593
1.98435
2.02346
2.03323
2.03323
1.99902
1.96969
1.91593
1.87683
1.84750
1.80351
1.77419
1.74486
1.71065
1.66666
1.64222
1.62267
1.61779
1.63245
1.61290
1.65200
1.63245
1.65200
1.62756
1.65689
1.61779
1.61290
1.57380
1.56402
1.53958
1.52003
1.48093
1.48093
1.45161
1.43695
1.42228
1.42228
1.40762
1.42228
1.38318
1.40273
1.37829
1.37341
1.35874
1.36852
1.35874
1.36852
1.38807
1.44183
1.52003
1.62267
1.72043
1.83773
1.93059
1.99413
2.00879
2.01857
1.99902
1.95992
1.93548
1.86705
1.84261
1.80351
1.75953
1.74486
1.70576
1.67644
1.64222
1.62267
1.61290
1.61290
1.60801
1.61290
1.62756
1.64222
1.63245
1.62756
1.62756
1.61290
1.58846
1.56891
1.54936
1.52981
1.51026
1.48093
1.46627
1.45161
1.45161
1.41251
1.42717
1.40762
1.42228
1.38318
1.39296
1.38318
1.37341
1.35386
1.35386
1.36363
1.36852
1.38318
1.42228
1.52492
1.60312
1.70576
1.81818
1.92082
1.98924
2.01368
2.02346
2.02834
1.98924
1.94037
1.90127
1.86705
1.84261
1.78885
1.75953
1.73998
1.70576
1.66177
1.63245
1.62267
1.61779
1.60801
1.61290
1.62267
1.63245
1.62756
1.66177
1.62756
1.63245
1.58846
1.56891
1.54447
1.52492
1.49560
1.47605
1.45161
1.43695
1.41739
1.40762
1.39784
1.39296
1.38318
1.37341
1.38807
1.36363
1.36363
1.34408
1.35386
1.33431
1.36852
1.35386
1.41739
1.50048
1.62267
1.72531
1.84261
1.94037
1.99413
2.01368
2.01857
2.00391
1.99413
1.91104
1.87194
1.84261
1.81329
1.77419
1.74975
1.72043
1.69599
1.65200
1.62756
1.61779
1.61290
1.60801
1.61779
1.61779
1.63245
1.62267
1.62756
1.62267
1.62756
1.58846
1.57869
1.54936
1.53958
1.50537
1.48582
1.46627
1.46138
1.43695
1.42717
1.41739
1.41251
1.43206
1.38807
1.38807
1.37829
1.37341
1.34897
1.34408
1.34408
1.33919
1.34408
1.38318
1.45650
1.56891
1.67155
1.79863
1.91104
1.98924
2.02834
2.04301
2.03323
2.03323
1.95992
1.91593
1.88172
1.84750
1.83284
1.78396
1.75953
1.73020
1.72043
1.66177
1.64222
1.62756
1.61290
1.61779
1.61779
1.63245
1.62267
1.62756
1.62756
1.62267
1.59824
1.58357
1.56891
1.54936
1.52003
1.51515
1.48093
1.47116
1.44672
1.46138
1.42228
1.44183
1.40273
1.39784
1.38318
1.40273
1.36852
1.35874
1.33919
1.34408
1.32942
1.33431
1.35874
1.41739
1.50048
1.61290
1.73998
1.86705
1.95014
2.01368
2.02834
2.03323
2.00879
1.98924
1.95014
1.88660
1.88172
1.83284
1.79863
1.75464
1.73020
1.68621
1.65689
1.63245
1.63245
1.60312
1.59824
1.60312
1.62267
1.61290
1.61779
1.64222
1.62267
1.63245
1.58846
1.57380
1.55913
1.52492
1.50048
1.49071
1.47116
1.46138
1.43695
1.43206
1.42228
1.40762
1.39784
1.38807
1.38807
1.37829
1.36363
1.35874
1.35386
1.34897
1.34897
1.37829
1.43206
1.54447
1.61779
1.77419
1.86217
1.97458
1.99413
2.01857
2.04789
2.00391
1.95014
1.91104
1.87194
1.83773
1.79374
1.75953
1.74975
1.70087
1.66177
1.63245
1.61290
1.60312
1.58357
1.57869
1.63245
1.61290
1.61290
1.62267
1.61779
1.61290
1.59335
1.57869
1.55913
1.54447
1.51515
1.49560
1.47605
1.47116
1.44672
1.43695
1.42228
1.42228
1.40273
1.38807
1.38318
1.38318
1.36363
1.35386
1.34897
1.34897
1.35874
1.38318
1.42228
1.52981
1.61779
1.73020
1.83773
1.95014
1.99902
2.02834
2.03812
2.00879
1.96480
1.91104
1.86705
1.82795
1.79374
1.74975
1.72531
1.69110
1.66666
1.61779
1.62267
1.58846
1.58846
1.60312
1.59335
1.60312
1.61290
1.61290
1.62267
1.60801
1.61779
1.57869
1.56402
1.53958
1.54447
1.49071
1.47116
1.45650
1.44672
1.42717
1.41739
1.40762
1.40273
1.39296
1.38318
1.38807
1.37341
1.35874
1.35386
1.38318
1.38318
1.46138
1.51515
1.62756
1.74975
1.86217
1.94037
1.99902
2.03323
2.02834
1.99902
1.99413
1.93059
1.88172
1.83284
1.80840
1.77419
1.74975
1.70576
1.70087
1.65200
1.63245
1.60801
1.60312
1.62267
1.62267
1.62756
1.63734
1.65200
1.65200
1.63734
1.63245
1.61779
1.60312
1.57380
1.58357
1.53470
1.53470
1.49071
1.47116
1.46627
1.45161
1.43695
1.43206
1.41739
1.42228
1.40273
1.39784
1.39296
1.43206
1.42228
1.46627
1.54447
1.65689
1.76930
1.86705
1.95992
2.05278
2.05767
2.04789
2.03323
2.00391
1.95992
1.90127
1.86217
1.83284
1.79374
1.74975
1.71554
1.70087
1.66666
1.63734
1.62756
1.63245
1.62756
1.62756
1.63734
1.65200
1.65689
1.64222
1.63734
1.63245
1.61779
1.59335
1.55913
1.55425
1.53470
1.52492
1.49071
1.47605
1.46627
1.45161
1.43695
1.43695
1.42717
1.41251
1.39784
1.39784
1.40762
1.40762
1.43695
1.50048
1.60312
1.70087
1.80840
1.91593
2.03323
2.04789
2.06744
2.06256
2.04789
2.00391
1.95503
1.91104
1.88172
1.87683
1.80351
1.76930
1.74486
1.71554
1.66666
1.67155
1.64222
1.64222
1.63734
1.64711
1.66177
1.67155
1.66666
1.65689
1.67644
1.63734
1.60801
1.58357
1.57380
1.55425
1.52492
1.50537
1.49560
1.48093
1.46138
1.44672
1.43695
1.43206
1.41251
1.40273
1.39296
1.40273
1.39784
1.42228
1.47605
1.57380
1.68132
1.77908
1.90127
1.98435
2.03323
2.05278
2.05767
2.04301
2.00391
1.95014
1.91104
1.88172
1.85239
1.81329
1.78396
1.75953
1.72531
1.69110
1.66666
1.65200
1.64222
1.63734
1.64711
1.65689
1.68132
1.65200
1.65200
1.64711
1.64222
1.61290
1.59824
1.58357
1.55913
1.52492
1.51026
1.49560
1.48582
1.45650
1.45161
1.44672
1.44183
1.42717
1.41251
1.40762
1.40273
1.40762
1.40762
1.44183
1.49560
1.56402
1.67155
1.78885
1.90615
1.98435
2.04301
2.07722
2.08699
2.05767
2.01857
1.98435
1.95503
1.92082
1.88172
1.85728
1.82795
1.79863
1.74975
1.71554
1.69110
1.66177
1.64711
1.66666
1.65200
1.65200
1.65200
1.65689
1.65200
1.64711
1.63245
1.61290
1.60312
1.57869
1.54447
1.52981
1.51515
1.49560
1.46627
1.45650
1.46138
1.44183
1.42717
1.41739
1.40762
1.40762
1.38318
1.37829
1.37829
1.38807
1.39784
1.43695
1.51515
1.61779
1.71554
1.82795
1.92570
2.00879
2.04301
2.04789
2.03812
2.01857
1.98435
1.93059
1.89638
1.87194
1.86705
1.79863
1.76441
1.73998
1.69599
1.65689
1.63734
1.63734
1.62756
1.61779
1.62267
1.63734
1.63734
1.63245
1.63245
1.62267
1.61290
1.57869
1.56402
1.53958
1.52003
1.48093
1.48093
1.45161
1.44672
1.42228
1.43206
1.40762
1.43206
1.38807
1.37829
1.37341
1.37829
1.36852
1.35874
1.36363
1.35874
1.38318
1.36852
1.40762
1.47605
1.56402
1.67155
1.78885
1.90615
1.96480
2.00879
2.03323
2.02834
1.99902
1.94525
1.90615
1.87683
1.83773
1.79863
1.76441
1.74975
1.71065
1.67644
1.64222
1.62756
1.61779
1.60312
1.61779
1.62267
1.64711
1.62756
1.64711
1.63734
1.63734
1.59824
1.58357
1.57380
1.54936
1.52003
1.50048
1.50048
1.47605
1.44672
1.43695
1.43206
1.42717
1.42228
1.40762
1.39784
1.39784
1.37829
1.37829
1.36363
1.36363
1.34897
1.36363
1.37829
1.43206
1.49560
1.58846
1.73020
1.81818
1.93059
1.96969
2.03812
2.03323
2.01368
1.96480
1.92570
1.88660
1.84261
1.79374
1.78885
1.73020
1.71065
1.65200
1.63245
1.60801
1.59335
1.58357
1.58357
1.61779
1.60801
1.63734
1.61290
1.62267
1.61779
1.59335
1.57869
1.56402
1.53958
1.51026
1.52492
1.47605
1.47116
1.43695
1.42717
1.42228
1.40762
1.39784
1.38318
1.37829
1.37341
1.35874
1.34897
1.34897
1.35874
1.33431
1.35386
1.38807
1.46138
1.54447
1.65200
1.76930
1.88172
1.95992
1.99902
2.01857
2.01368
1.99902
1.91593
1.87683
1.83284
1.78396
1.74486
1.71554
1.68132
1.64222
1.60312
1.59824
1.56891
1.55425
1.56402
1.55913
1.57869
1.58357
1.58357
1.59824
1.58846
1.57869
1.54936
1.53470
1.52003
1.49560
1.47116
1.44672
1.46627
1.42717
1.39784
1.39296
1.38807
1.37829
1.36363
1.36363
1.35386
1.34897
1.33431
1.33431
1.33431
1.33919
1.35386
1.38807
1.48582
1.56891
1.67644
1.78885
1.88660
1.96480
2.01368
2.00879
2.00391
1.98924
1.92570
1.89638
1.85239
1.80840
1.76930
1.73020
1.71065
1.67644
1.64222
1.59824
1.61779
1.58846
1.57869
1.57869
1.58357
1.61290
1.60312
1.59824
1.58846
1.58357
1.57380
1.55425
1.52981
1.51515
1.49071
1.46627
1.44183
1.42717
1.41251
1.39784
1.38807
1.37829
1.38318
1.35386
1.34897
1.35874
1.33919
1.32453
1.33431
1.33431
1.37341
1.41739
1.50537
1.62267
1.73998
1.83773
1.91593
1.96969
1.99902
1.98435
1.95503
1.94037
1.88660
1.83773
1.79374
1.76930
1.75464
1.70576
1.67155
1.63734
1.61290
1.58846
1.57869
1.56891
1.56891
1.58357
1.56891
1.57869
1.59335
1.58846
1.60312
1.56402
1.55913
1.55425
1.51026
1.49071
1.48093
1.46138
1.43695
1.42228
1.41739
1.40273
1.37829
1.37829
1.37341
1.36852
1.34408
1.34408
1.34408
1.34408
1.35386
1.37829
1.44183
1.53470
1.63245
1.74486
1.84261
1.93059
1.96969
1.99413
1.98924
1.96969
1.93059
1.89149
1.84261
1.81329
1.76930
1.73509
1.71065
1.69110
1.65689
1.62756
1.60801
1.61779
1.60312
1.59335
1.61779
1.62756
1.66177
1.63245
1.63245
1.63245
1.61779
1.59824
1.57869
1.58357
1.54447
1.51026
1.49560
1.49560
1.46627
1.45161
1.43695
1.43206
1.43206
1.41251
1.40762
1.40762
1.41251
1.40762
1.41739
1.45161
1.50537
1.57380
1.68132
1.82306
1.92082
1.98924
2.04301
2.08699
2.08211
2.06256
2.02346
1.97458
1.93548
1.88172
1.83773
1.80351
1.78396
1.72531
1.70087
1.66666
1.65689
1.64222
1.63734
1.65200
1.66666
1.66666
1.66666
1.67644
1.68132
1.66177
1.67155
1.62267
1.60801
1.58357
1.55913
1.57380
1.52981
1.53470
1.48582
1.47605
1.47116
1.45650
1.45161
1.43206
1.42717
1.42228
1.40762
1.43695
1.43695
1.48582
1.55425
1.64711
1.76930
1.87194
1.95014
2.01368
2.05767
2.06744
2.04301
2.00879
1.99902
1.93059
1.90127
1.86705
1.81818
1.77419
1.73020
1.69599
1.67155
1.65689
1.63734
1.63734
1.62756
1.64222
1.64222
1.64222
1.65200
1.65200
1.64222
1.63245
1.61290
1.61290
1.57869
1.57380
1.52492
1.52003
1.49560
1.47605
1.46627
1.45650
1.45161
1.42228
1.42717
1.40762
1.40273
1.41251
1.38318
1.40762
1.44672
1.50537
1.60801
1.71554
1.82306
1.91104
1.96969
2.01368
2.03323
2.00879
1.96969
1.93548
1.89638
1.84750
1.83284
1.78396
1.75953
1.71554
1.68132
1.65200
1.63734
1.60801
1.59824
1.60312
1.60801
1.61290
1.61290
1.61779
1.62267
1.61290
1.59824
1.58846
1.57380
1.54936
1.52492
1.50537
1.49560
1.47116
1.45161
1.46627
1.43695
1.44672
1.40762
1.40273
1.40273
1.38807
1.37829
1.39784
1.37829
1.40762
1.42228
1.48093
1.58357
1.69110
1.78885
1.89149
1.97947
2.00391
2.02346
1.99413
1.96969
1.93548
1.89149
1.85728
1.82306
1.82795
1.79374
1.73020
1.70087
1.67155
1.63245
1.61290
1.60312
1.60312
1.59824
1.59335
1.60801
1.61290
1.63734
1.60312
1.59824
1.58846
1.56402
1.53470
1.53958
1.50048
1.49560
1.45650
1.44672
1.43695
1.42717
1.40762
1.41251
1.39784
1.41739
1.37341
1.36363
1.38807
1.35874
1.34897
1.36852
1.40762
1.47116
1.54447
1.65200
1.75953
1.85728
1.91593
1.95992
1.97947
1.99902
1.93059
1.92570
1.86705
1.83284
1.79374
1.76930
1.74975
1.71554
1.67644
1.64222
1.63734
1.62756
1.58357
1.57869
1.61290
1.60312
1.59335
1.59824
1.60312
1.60801
1.58846
1.57380
1.55425
1.56891
1.51515
1.48582
1.47116
1.45650
1.44183
1.42717
1.41739
1.41739
1.40762
1.38807
1.38318
1.37829
1.37341
1.36363
1.37341
1.36852
1.37829
1.40762
1.44672
1.52492
1.61779
1.73509
1.81329
1.90127
1.95503
1.97458
1.96969
1.95992
1.93059
1.87194
1.84261
1.82306
1.78885
1.73998
1.71554
1.72043
1.66177
1.63734
1.59824
1.59335
1.60312
1.58357
1.58846
1.60312
1.61290
1.60801
1.63245
1.60312
1.58846
1.58357
1.53958
1.52003
1.51026
1.48582
1.46627
1.45650
1.45161
1.43695
1.42717
1.42228
1.41739
1.40762
1.39296
1.41251
1.38807
1.38807
1.37341
1.37829
1.40762
1.44672
1.50048
1.59335
1.70087
1.80351
1.89149
1.95503
1.99902
2.00879
1.99413
1.96480
1.95503
1.90127
1.85239
1.81818
1.78885
1.75953
1.71554
1.70087
1.65689
1.64222
1.61290
1.61779
1.61290
1.61779
1.63734
1.61779
1.62756
1.63734
1.61779
1.63245
1.59824
1.58357
1.55425
1.53470
1.51026
1.51515
1.48093
1.46138
1.45161
1.44672
1.42717
1.41739
1.41251
1.40273
1.41739
1.37829
1.37341
1.39296
1.37341
1.38318
1.42717
1.47116
1.55913
1.65689
1.75953
1.86217
1.95503
1.98435
2.00391
2.00879
1.98435
1.94037
1.90127
1.86217
1.81818
1.77908
1.74975
1.71065
1.68132
1.63734
1.61290
1.60312
1.60801
1.58846
1.59335
1.60801
1.62267
1.61779
1.61779
1.64222
1.61290
1.59335
1.59335
1.55425
1.53958
1.53958
1.49560
1.48093
1.46627
1.45161
1.43695
1.43206
1.43695
1.41739
1.39296
1.40273
1.38318
1.39784
1.37341
1.37829
1.40273
1.44672
1.51026
1.60801
1.72531
1.84750
1.91104
1.97458
2.01368
2.01857
1.98435
1.95503
1.92082
1.87194
1.82306
1.78885
1.75953
1.73020
1.71554
1.65689
1.63734
1.64711
1.59824
1.58357
1.58846
1.61290
1.60312
1.60801
1.61779
1.62756
1.61290
1.59824
1.58846
1.59824
1.54936
1.55913
1.51515
1.49560
1.49071
1.45650
1.44672
1.44183
1.41739
1.43206
1.39296
1.38318
1.37341
1.34897
1.34408
1.34897
1.35874
1.39784
1.50048
1.58357
1.70576
1.81329
1.93059
1.99413
2.01857
2.01368
1.99413
1.96969
1.93548
1.87683
1.84750
1.81818
1.78885
1.74486
1.71065
1.71065
1.65200
1.62267
1.61290
1.59824
1.59824
1.62267
1.59824
1.60801
1.64711
1.60312
1.59824
1.62267
1.58357
1.55913
1.53470
1.52003
1.50537
1.47605
1.46138
1.45161
1.43695
1.42228
1.40762
1.38318
1.38807
1.35386
1.33431
1.32453
1.31476
1.31476
1.32453
1.36852
1.44672
1.53470
1.63734
1.75464
1.85239
1.91593
1.94037
1.94525
1.93548
1.90615
1.85728
1.81818
1.79863
1.75464
1.72531
1.69110
1.66666
1.63245
1.59824
1.59824
1.59335
1.55425
1.54447
1.55425
1.56402
1.57380
1.56891
1.56891
1.56891
1.55913
1.53470
1.51515
1.50537
1.48582
1.45161
1.46138
1.41251
1.39784
1.37341
1.35386
1.33919
1.32453
1.30987
1.29521
1.28543
1.29032
1.28054
1.27565
1.29521
1.33919
1.43206
1.49560
1.59335
1.70576
1.79374
1.85239
1.89638
1.91104
1.89638
1.85728
1.82795
1.80351
1.76441
1.72531
1.70087
1.69599
1.64222
1.60312
1.57380
1.55913
1.53958
1.51515
1.50537
1.51026
1.51515
1.51026
1.50537
1.51026
1.51026
1.49071
1.49560
1.46627
1.44672
1.41739
1.40273
1.39784
1.38318
1.36852
1.37341
1.35386
1.34408
1.32942
1.31964
1.32453
1.31476
1.30498
1.30009
1.30987
1.37341
1.37829
1.43695
1.52981
1.63245
1.72043
1.80351
1.87683
1.90127
1.91104
1.89638
1.87683
1.85239
1.81329
1.77419
1.74486
1.73998
1.69110
1.64222
1.60801
1.59335
1.56402
1.54447
1.53470
1.53470
1.54447
1.54936
1.54936
1.54936
1.56402
1.53958
1.52492
1.51515
1.50048
1.47605
1.45650
1.43695
1.43206
1.40762
1.38318
1.37829
1.37829
1.34897
1.33919
1.33431
1.32942
1.30987
1.32942
1.30987
1.31476
1.32942
1.38807
1.44672
1.53958
1.63734
1.72043
1.79374
1.85239
1.88172
1.88172
1.87194
1.85239
1.81818
1.77419
1.73998
1.71554
1.68621
1.65200
1.61290
1.59335
1.55913
1.53958
1.53958
1.53958
1.53958
1.53470
1.54447
1.54936
1.55425
1.56891
1.53958
1.53470
1.52003
1.50048
1.51026
1.47116
1.45650
1.43206
1.41251
1.40762
1.39784
1.37829
1.36363
1.36363
1.35874
1.34897
1.32942
1.32942
1.33431
1.34408
1.37829
1.47116
1.52492
1.64711
1.71554
1.79863
1.86217
1.89638
1.92082
1.90615
1.90127
1.86217
1.82795
1.80840
1.77419
1.76441
1.70087
1.70576
1.64711
1.62756
1.58357
1.56402
1.56402
1.55913
1.54936
1.55913
1.59335
1.57869
1.56402
1.55913
1.54936
1.53958
1.51026
1.49560
1.47605
1.46138
1.46627
1.42228
1.40762
1.39784
1.37829
1.36852
1.36363
1.36363
1.33431
1.32942
1.32453
1.32942
1.32453
1.37341
1.40762
1.47605
1.56402
1.66666
1.77908
1.86217
1.91593
1.94525
1.98924
1.95992
1.93548
1.89638
1.87194
1.86217
1.81329
1.77908
1.77419
1.73020
1.70087
1.66666
1.64222
1.63734
1.64711
1.61290
1.61779
1.62267
1.62756
1.61779
1.62267
1.64711
1.61290
1.58846
1.57380
1.55425
1.53470
1.51026
1.50048
1.50048
1.46627
1.43695
1.42717
1.45161
1.41739
1.39296
1.38318
1.38318
1.36852
1.34897
1.37829
1.35386
1.37341
1.40762
1.47605
1.56402
1.67644
1.78885
1.86705
1.93059
1.96969
1.97458
1.95992
1.94037
1.91593
1.87683
1.84261
1.81329
1.79863
1.75953
1.72531
1.69599
1.66666
1.64711
1.61779
1.60801
1.61290
1.60801
1.60801
1.60801
1.62756
1.61779
1.60312
1.59335
1.58846
1.56402
1.53958
1.54936
1.50537
1.48582
1.45650
1.45161
1.42717
1.41739
1.39784
1.37829
1.37341
1.36852
1.35874
1.34408
1.33919
1.33919
1.33431
1.34897
1.38807
1.45650
1.52981
1.62756
1.73020
1.81329
1.86217
1.89149
1.90127
1.89638
1.87194
1.83773
1.80840
1.79863
1.74486
1.71554
1.67644
1.66666
1.61290
1.59824
1.56402
1.54936
1.53958
1.52981
1.53958
1.57869
1.56402
1.55425
1.55425
1.55425
1.53958
1.52981
1.50048
1.48582
1.46627
1.43695
1.43206
1.41739
1.39784
1.37829
1.36363
1.35386
1.34897
1.32942
1.32453
1.33431
1.31964
1.29521
1.30498
1.34897
1.35386
1.38807
1.46138
1.55425
1.65200
1.73509
1.79863
1.87194
1.87683
1.86705
1.84261
1.81818
1.78885
1.74975
1.73998
1.68132
1.65200
1.61290
1.57869
1.54936
1.53470
1.51515
1.49560
1.49560
1.49560
1.50048
1.52003
1.50537
1.51515
1.51026
1.49071
1.49560
1.47116
1.45161
1.42717
1.40762
1.39784
1.36852
1.33919
1.32942
1.32453
1.30987
1.28543
1.28054
1.27565
1.27077
1.25610
1.25122
1.25122
1.26099
1.27565
1.31964
1.39784
1.49071
1.59335
1.67155
1.75464
1.81818
1.83284
1.84261
1.83284
1.82306
1.78396
1.74486
1.72043
1.69110
1.65689
1.62267
1.59335
1.59824
1.54447
1.52492
1.51515
1.52003
1.51515
1.52003
1.52492
1.53958
1.53958
1.52981
1.52003
1.51515
1.49560
1.47605
1.45650
1.44672
1.42228
1.40762
1.38807
1.37341
1.36852
1.34897
1.33919
1.35874
1.31964
1.29521
1.28543
1.27565
1.27077
1.26588
1.29032
1.33919
1.41739
1.50048
1.59824
1.69110
1.76930
1.81329
1.87194
1.85239
1.84750
1.81329
1.77908
1.77419
1.72043
1.71065
1.64711
1.61779
1.59335
1.56402
1.53470
1.53958
1.52981
1.52492
1.52492
1.55425
1.53958
1.55913
1.52981
1.52981
1.52981
1.51515
1.49071
1.49071
1.46138
1.44672
1.41739
1.39784
1.38318
1.36363
1.35386
1.33919
1.32942
1.31476
1.30009
1.29032
1.29521
1.29521
1.31964
1.32942
1.39784
1.47605
1.56402
1.66666
1.78396
1.85728
1.90615
1.91593
1.93059
1.92082
1.89149
1.89149
1.83284
1.80840
1.76441
1.73509
1.71065
1.68132
1.64711
1.62267
1.60801
1.60801
1.60312
1.60801
1.61290
1.61779
1.61779
1.61290
1.63734
1.60312
1.57869
1.55913
1.53958
1.52981
1.50048
1.47605
1.45650
1.44672
1.44183
1.40762
1.39296
1.38807
1.37829
1.35874
1.35386
1.34897
1.34408
1.36363
1.40762
1.48093
1.58846
1.67155
1.80351
1.86705
1.95014
1.95503
1.96480
1.95992
1.95503
1.90127
1.87194
1.87683
1.81818
1.77908
1.74486
1.72531
1.71554
1.66666
1.67155
1.64222
1.64222
1.65200
1.62756
1.63734
1.64711
1.63734
1.63734
1.62756
1.62756
1.60801
1.61290
1.57869
1.55913
1.53470
1.51515
1.51515
1.48582
1.47116
1.45161
1.44183
1.43695
1.43206
1.41251
1.40762
1.41251
1.42717
1.45161
1.52492
1.59335
1.68621
1.77908
1.89149
1.94525
1.99413
2.00879
2.01368
2.00879
1.98435
1.94525
1.91593
1.89149
1.86705
1.82795
1.79863
1.77419
1.75464
1.72043
1.70576
1.70087
1.71554
1.69599
1.70087
1.70576
1.71065
1.72531
1.72043
1.69110
1.68132
1.65689
1.63734
1.61779
1.60801
1.58357
1.56891
1.55425
1.53470
1.51026
1.49560
1.51515
1.48582
1.46627
1.45650
1.45650
1.47605
1.48093
1.51515
1.58357
1.67644
1.79374
1.86217
1.95014
2.01857
2.04789
2.03812
2.04301
2.00391
2.00391
1.92570
1.90615
1.87683
1.84750
1.80840
1.77908
1.74975
1.72531
1.69599
1.68621
1.68132
1.68621
1.68132
1.69110
1.69599
1.69599
1.68132
1.67155
1.66177
1.65200
1.62267
1.60312
1.58846
1.57869
1.54936
1.52981
1.52492
1.54936
1.49560
1.50048
1.50048
1.47605
1.46138
1.45161
1.45161
1.46627
1.49071
1.54936
1.60801
1.70576
1.79863
1.88660
1.96480
2.01857
2.03812
2.04789
2.01368
1.98924
1.96480
1.90127
1.86705
1.84261
1.81329
1.77419
1.74486
1.72531
1.70576
1.68132
1.67155
1.67644
1.68132
1.68132
1.68621
1.69599
1.69599
1.68132
1.66666
1.65689
1.63734
1.61290
1.58846
1.57380
1.55425
1.53470
1.51026
1.50048
1.49560
1.47605
1.47116
1.45650
1.46627
1.43695
1.43206
1.43206
1.44672
1.46138
1.49071
1.56402
1.65200
1.76441
1.83773
1.93548
1.99413
1.99413
1.99902
1.96480
1.93548
1.89638
1.87683
1.82795
1.79374
1.75953
1.71554
1.69110
1.66177
1.64222
1.61779
1.60801
1.61290
1.61779
1.61779
1.62267
1.64222
1.64222
1.65689
1.62267
1.61779
1.59335
1.56891
1.55425
1.53958
1.52492
1.52981
1.49071
1.48093
1.47116
1.45161
1.43695
1.42228
1.44672
1.40762
1.39784
1.39784
1.40762
1.43695
1.46627
1.53958
1.62756
1.71554
1.79863
1.86705
1.91593
1.92570
1.94037
1.89638
1.87194
1.83284
1.79374
1.76441
1.74486
1.71554
1.68132
1.65200
1.66177
1.60801
1.60801
1.58846
1.59335
1.59824
1.59824
