101.7142857142857
101.7142857142857
102.2611367127496
102.2611367127496
101.7313748079877
100.6547619047619
101.20161290322581
101.7313748079877
101.21791326952616
100.67106227106225
100.14130036630036
100.6547619047619
101.20161290322581
102.27822580645162
103.35483870967742
102.80798771121351
101.7313748079877
100.14130036630036
99.61153846153846
100.14130036630036
100.6547619047619
99.16035891968727
98.63059701492537
99.16035891968727
101.1845238095238
100.67106227106225
99.12993672993672
98.08671328671328
98.60017482517482
100.68815136476427
101.7313748079877
102.2611367127496
101.1845238095238
100.14130036630036
99.61153846153846
99.61153846153846
100.125
99.61153846153846
98.60017482517482
97.10577184010019
97.10577184010019
97.10577184010019
98.08671328671328
97.58881118881118
97.58881118881118
97.58881118881118
98.08671328671328
99.09807692307692
99.09807692307692
98.60017482517482
97.10577184010019
96.1248303934871
96.6227324913892
97.60367393800229
98.08671328671328
98.08671328671328
97.58881118881118
97.58881118881118
97.58881118881118
98.60017482517482
99.09807692307692
98.60017482517482
96.63693953105717
96.13903743315507
96.13903743315507
97.09090909090908
97.58881118881118
98.08671328671328
98.58461538461538
98.58461538461538
99.09807692307692
99.61153846153846
100.125
99.11363636363636
97.61923337856173
97.10577184010019
97.60367393800229
99.09807692307692
98.60017482517482
98.60017482517482
98.08671328671328
98.58461538461538
99.62783882783881
100.14130036630036
100.14130036630036
99.09807692307692
98.58461538461538
99.62783882783881
99.62783882783881
99.12993672993672
97.58881118881118
96.60786974219809
96.1248303934871
95.64179104477613
96.12483039348712
96.1248303934871
95.65599808444408
94.70412642669008
94.70412642669008
95.1729587357331
95.64179104477613
95.64179104477613
95.64179104477613
95.64179104477613
96.6227324913892
98.11713547646383
99.09807692307692
99.09807692307692
98.08671328671328
97.58881118881118
97.58881118881118
98.08671328671328
97.60367393800229
96.6227324913892
96.6227324913892
98.11713547646383
99.61153846153846
100.125
100.125
100.125
100.125
100.125
99.61153846153846
98.11713547646383
96.15390018234618
95.1729587357331
95.1729587357331
96.12483039348712
97.10577184010019
97.58881118881118
96.18169656430524
95.20075511769217
95.20075511769217
96.60786974219809
97.58881118881118
97.58881118881118
97.58881118881118
97.58881118881118
98.08671328671328
99.62783882783881
100.67106227106225
101.1845238095238
100.14130036630036
98.60017482517482
98.08671328671328
98.60017482517482
99.09807692307692
99.61153846153846
100.14130036630036
100.6547619047619
101.1845238095238
101.7313748079877
103.37276825061065
103.91961924907456
103.37276825061065
102.2611367127496
101.7142857142857
102.2611367127496
102.80798771121351
103.35483870967742
102.27822580645162
101.7313748079877
100.14130036630036
100.14130036630036
100.14130036630036
101.1845238095238
101.7142857142857
101.7142857142857
101.7142857142857
101.1845238095238
100.6547619047619
100.6547619047619
102.29615534738485
102.82591725214675
103.37276825061066
102.2611367127496
101.7313748079877
100.6547619047619
101.20161290322581
102.27822580645162
103.35483870967742
102.80798771121351
101.7313748079877
101.1845238095238
100.6547619047619
101.7313748079877
102.27822580645162
102.27822580645162
101.20161290322581
99.61153846153846
99.09807692307692
98.08671328671328
98.08671328671328
98.08671328671328
98.58461538461538
98.58461538461538
98.58461538461538
99.62783882783881
100.14130036630036
100.6547619047619
99.11363636363636
98.60017482517482
97.58881118881118
97.58881118881118
97.09090909090908
97.09090909090908
97.09090909090908
96.13903743315507
96.63693953105717
96.63693953105717
97.58881118881118
98.10227272727272
98.60017482517482
98.60017482517482
96.63693953105717
95.65599808444408
96.15390018234618
98.11713547646383
100.14130036630036
101.1845238095238
102.2611367127496
101.7313748079877
102.27822580645162
102.27822580645162
102.80798771121351
102.2611367127496
100.67106227106225
99.12993672993672
98.08671328671328
98.60017482517482
99.61153846153846
99.61153846153846
99.61153846153846
99.61153846153846
100.125
100.125
100.125
100.6547619047619
100.6547619047619
100.14130036630036
98.60017482517482
98.60017482517482
99.11363636363636
99.61153846153846
99.61153846153846
98.60017482517482
99.64339826839826
100.17316017316016
101.7142857142857
102.2611367127496
101.7313748079877
101.7313748079877
100.6547619047619
101.7313748079877
101.7313748079877
102.80798771121351
102.80798771121351
103.35483870967742
103.35483870967742
103.35483870967742
103.35483870967742
103.35483870967742
102.80798771121351
101.7313748079877
100.14130036630036
99.09807692307692
99.09807692307692
99.61153846153846
100.6547619047619
101.1845238095238
101.7142857142857
102.2611367127496
103.37276825061065
104.4843997884717
105.04918032786884
104.4843997884717
103.37276825061065
101.7313748079877
100.14130036630036
98.60017482517482
98.08671328671328
98.08671328671328
97.60367393800229
98.11713547646383
98.63059701492537
99.11363636363636
99.11363636363636
98.60017482517482
99.61153846153846
99.09807692307692
98.11713547646383
96.15390018234618
96.15390018234618
97.13484162895926
98.58461538461538
98.58461538461538
98.08671328671328
97.58881118881118
97.09090909090908
97.58881118881118
98.60017482517482
99.09807692307692
98.60017482517482
96.63693953105717
94.73192280864913
94.24888345993816
94.71771576898118
96.12483039348712
96.60786974219809
96.60786974219809
96.1248303934871
96.12483039348712
97.10577184010019
98.60017482517482
100.14130036630036
101.1845238095238
101.1845238095238
100.14130036630036
99.09807692307692
99.09807692307692
99.61153846153846
100.6547619047619
101.1845238095238
101.7142857142857
101.1845238095238
101.1845238095238
100.6547619047619
100.6547619047619
99.61153846153846
98.11713547646383
96.15390018234618
94.70412642669008
95.18716577540107
96.13903743315507
96.60786974219809
96.60786974219809
96.60786974219809
97.58881118881118
99.12993672993672
100.14130036630036
100.6547619047619
98.16176470588235
96.1985294117647
93.78005115089513
95.22982490655124
96.18169656430524
96.18169656430524
94.27667984189722
92.42732919254657
92.42732919254658
93.8344438170525
95.68379446640316
97.58881118881118
98.08671328671328
98.08671328671328
98.60017482517482
99.11363636363636
100.6547619047619
101.1845238095238
101.7142857142857
100.17316017316016
97.6801629742806
95.65599808444408
96.15390018234618
98.11713547646383
99.09807692307692
99.09807692307692
98.58461538461538
98.08671328671328
97.58881118881118
98.10227272727272
99.64339826839826
101.1845238095238
100.17316017316016
98.63203463203462
97.09090909090908
97.09090909090908
96.60786974219809
95.20075511769215
94.24888345993816
94.24888345993816
96.15390018234618
97.60367393800229
99.62783882783881
100.67106227106225
101.1845238095238
101.1845238095238
101.1845238095238
102.2611367127496
102.80798771121351
102.80798771121351
102.2611367127496
100.67106227106225
100.14130036630036
99.61153846153846
90.48333333333332
110.50833333333333
109.0139303482587
117.64423337856172
97.61923337856173
99.64339826839826
101.7313748079877
103.37276825061065
103.91961924907456
103.37276825061065
102.2611367127496
101.1845238095238
100.14130036630036
99.09807692307692
98.08671328671328
97.58881118881118
97.09090909090908
98.10227272727272
100.19024926686217
102.27822580645162
102.80798771121351
102.2611367127496
101.7142857142857
101.7142857142857
101.1845238095238
101.7313748079877
101.20161290322581
100.68815136476427
99.09807692307692
98.58461538461538
98.58461538461538
98.58461538461538
97.60367393800229
97.60367393800229
97.10577184010019
97.10577184010019
97.61923337856173
99.16035891968727
100.6547619047619
100.14130036630036
98.11713547646383
96.6227324913892
95.64179104477613
96.12483039348712
96.60786974219809
96.60786974219809
96.1248303934871
95.64179104477613
96.12483039348712
97.10577184010019
99.12993672993672
99.62783882783881
99.62783882783881
98.58461538461538
99.09807692307692
100.14130036630036
100.6547619047619
101.1845238095238
100.6547619047619
99.64339826839826
98.10227272727272
98.63203463203462
99.64339826839826
101.7313748079877
101.7313748079877
101.7313748079877
99.64339826839826
99.11363636363636
99.64339826839826
100.6547619047619
100.6547619047619
99.61153846153846
98.60017482517482
98.08671328671328
98.60017482517482
99.61153846153846
100.125
99.11363636363636
97.15040106951871
96.13903743315507
96.13903743315507
97.58881118881118
98.08671328671328
97.60367393800229
97.10577184010019
96.60786974219809
97.58881118881118
98.60017482517482
99.61153846153846
100.125
99.61153846153846
98.11713547646383
96.6227324913892
96.6227324913892
97.10577184010019
98.08671328671328
98.08671328671328
98.08671328671328
97.10577184010019
96.60786974219809
96.60786974219809
97.58881118881118
97.10577184010019
96.15390018234618
93.80664743509344
93.80664743509344
95.25642119074953
97.60367393800229
98.08671328671328
97.10577184010019
95.20075511769215
94.71771576898118
95.69865721559427
98.11713547646383
99.09807692307692
99.09807692307692
98.08671328671328
97.10577184010019
96.60786974219809
96.60786974219809
97.09090909090908
97.09090909090908
96.60786974219809
95.20075511769215
94.71771576898118
95.20075511769217
97.10577184010019
97.58881118881118
96.63693953105717
95.18716577540106
94.70412642669008
96.15390018234618
98.11713547646383
100.68815136476427
100.68815136476427
99.67678772840063
97.58881118881118
97.09090909090908
97.09090909090908
98.10227272727272
99.11363636363636
100.125
99.61153846153846
100.14130036630036
100.67106227106225
102.2611367127496
102.80798771121351
102.80798771121351
101.21791326952616
99.12993672993672
97.58881118881118
97.58881118881118
97.58881118881118
98.08671328671328
97.10577184010019
97.10577184010019
96.60786974219809
97.58881118881118
99.12993672993672
101.21791326952616
102.2611367127496
101.21791326952616
99.62783882783881
98.08671328671328
98.08671328671328
98.08671328671328
98.08671328671328
97.10577184010019
95.65599808444408
94.70412642669008
95.18716577540107
96.13903743315507
97.58881118881118
97.58881118881118
97.58881118881118
96.60786974219809
95.65599808444408
95.1729587357331
95.1729587357331
96.6227324913892
96.6227324913892
96.6227324913892
96.12483039348712
96.1248303934871
96.60786974219809
96.60786974219809
97.09090909090908
96.60786974219809
95.65599808444408
93.80664743509344
92.44033613445377
92.44033613445377
94.28968678380443
96.13903743315507
97.58881118881118
98.08671328671328
97.13484162895926
96.63693953105717
96.13903743315507
97.09090909090908
96.60786974219809
95.20075511769215
94.24888345993816
92.88257215929849
93.80664743509344
94.27547974413646
96.6227324913892
97.10577184010019
97.58881118881118
97.58881118881118
99.12993672993672
100.14130036630036
101.1845238095238
99.16035891968727
97.66595593461264
94.71771576898118
95.20075511769217
96.18169656430524
99.12993672993672
99.12993672993672
98.63203463203462
97.09090909090908
97.58881118881118
98.60017482517482
100.68815136476427
101.7313748079877
101.7313748079877
100.14130036630036
99.09807692307692
99.09807692307692
100.14130036630036
101.7313748079877
103.37276825061065
106.2955925527453
108.04736948002797
108.63097603740502
107.40338983050846
106.21639344262294
105.6327868852459
103.9375487900078
101.78269380892331
99.62783882783881
97.60367393800229
97.60367393800229
97.60367393800229
98.58461538461538
97.60367393800229
96.6227324913892
96.12483039348712
97.10577184010019
97.10577184010019
96.6227324913892
96.12483039348712
96.1248303934871
96.1248303934871
96.12483039348712
97.10577184010019
98.08671328671328
97.60367393800229
96.15390018234618
95.1729587357331
95.1729587357331
96.6227324913892
98.11713547646383
99.09807692307692
99.09807692307692
98.58461538461538
99.09807692307692
99.61153846153846
99.11363636363636
98.10227272727272
96.13903743315507
95.18716577540106
94.70412642669008
95.1729587357331
96.12483039348712
96.60786974219809
96.60786974219809
95.65599808444408
95.1729587357331
95.6559980844441
96.60786974219809
97.09090909090908
97.58881118881118
97.58881118881118
98.08671328671328
97.58881118881118
97.10577184010019
95.65599808444408
93.37686876306125
92.90803645401822
93.85990811177223
96.13903743315507
97.58881118881118
98.08671328671328
98.08671328671328
98.08671328671328
98.60017482517482
99.09807692307692
99.61153846153846
98.60017482517482
97.61923337856173
95.20075511769215
93.79364049318625
93.79364049318623
94.24888345993816
94.70412642669008
94.70412642669008
95.6559980844441
96.60786974219809
98.10227272727272
98.60017482517482
98.60017482517482
97.10577184010019
96.1248303934871
96.12483039348712
96.1248303934871
96.1248303934871
95.1729587357331
95.1729587357331
96.15390018234618
98.11713547646383
99.09807692307692
98.60017482517482
97.58881118881118
97.09090909090908
97.09090909090908
96.60786974219809
96.60786974219809
96.1248303934871
96.1248303934871
95.64179104477613
96.12483039348712
97.10577184010019
98.60017482517482
99.61153846153846
99.61153846153846
98.60017482517482
97.58881118881118
97.09090909090908
98.63203463203462
99.64339826839826
100.6547619047619
100.125
99.61153846153846
100.14130036630036
100.67106227106225
101.7142857142857
101.1845238095238
100.6547619047619
99.11363636363636
98.10227272727272
97.58881118881118
99.12993672993672
100.67106227106225
101.1845238095238
99.64339826839826
98.60017482517482
97.58881118881118
98.08671328671328
98.08671328671328
98.58461538461538
98.08671328671328
96.63693953105717
95.18716577540106
94.23529411764706
94.70412642669008
94.70412642669008
94.70412642669008
93.78005115089513
93.32480818414322
94.27667984189722
95.68379446640316
97.58881118881118
97.58881118881118
96.63693953105717
94.73192280864913
94.24888345993816
94.71771576898118
97.13619402985074
98.63059701492537
99.61153846153846
99.09807692307692
98.08671328671328
98.08671328671328
99.12993672993672
99.12993672993672
99.64339826839826
97.15040106951871
96.1985294117647
94.70412642669008
94.70412642669008
95.1729587357331
94.24888345993816
93.35140446834151
92.42732919254658
91.98509316770185
92.42732919254658
93.35140446834151
95.20075511769217
95.65599808444408
95.65599808444408
95.6559980844441
95.65599808444408
96.13903743315507
96.63693953105717
98.08671328671328
98.58461538461538
98.08671328671328
97.10577184010019
96.60786974219809
97.61923337856173
98.60017482517482
99.09807692307692
98.08671328671328
97.58881118881118
96.60786974219809
96.60786974219809
97.10577184010019
98.08671328671328
99.09807692307692
100.14130036630036
100.6547619047619
100.6547619047619
100.125
100.6547619047619
101.1845238095238
101.7142857142857
101.1845238095238
99.64339826839826
97.61923337856173
95.65599808444408
96.15390018234618
97.13484162895926
99.09807692307692
100.14130036630036
101.1845238095238
102.2611367127496
103.37276825061065
104.4843997884717
105.04918032786884
105.04918032786884
103.9375487900078
102.82591725214675
102.2611367127496
101.7313748079877
101.7313748079877
101.1845238095238
101.7142857142857
100.67106227106225
100.67106227106225
100.67106227106225
102.2611367127496
102.2611367127496
102.2611367127496
101.7142857142857
101.1845238095238
101.7313748079877
102.27822580645162
103.35483870967742
102.80798771121351
101.7313748079877
99.64339826839826
99.64339826839826
100.17316017316016
101.7142857142857
102.2611367127496
102.2611367127496
102.2611367127496
102.2611367127496
103.37276825061065
104.4843997884717
104.4843997884717
103.37276825061065
101.7313748079877
100.14130036630036
100.14130036630036
100.14130036630036
101.7313748079877
101.20161290322581
101.20161290322581
100.125
100.6547619047619
101.1845238095238
102.82591725214675
103.37276825061066
103.91961924907456
102.80798771121351
103.9563748079877
105.10476190476189
106.79999999999998
107.40338983050846
109.27707404103478
110.50466024793134
111.77495462794919
111.77495462794919
111.77495462794919
109.90127041742286
106.87919911012236
102.91315136476426
99.19374837968964
96.15390018234618
96.15390018234618
98.1780650721827
99.62783882783881
98.64689738122573
96.15390018234618
94.70412642669008
95.68506787330315
97.13484162895926
99.09807692307692
98.60017482517482
97.15040106951871
95.65599808444408
95.1729587357331
96.6227324913892
97.60367393800229
99.62783882783881
99.12993672993672
98.63203463203462
96.13903743315507
95.18716577540106
94.70412642669008
94.70412642669008
95.1729587357331
95.6559980844441
95.65599808444408
95.65599808444408
96.15390018234618
97.10577184010019
98.60017482517482
98.60017482517482
99.09807692307692
96.67959866220735
94.3323459149546
92.88257215929849
94.28968678380443
95.18716577540106
94.73192280864913
93.78005115089513
92.88257215929849
93.33781512605042
93.33781512605042
95.18716577540107
95.18716577540106
95.18716577540106
93.33781512605042
93.33781512605042
94.28968678380443
96.63693953105717
97.58881118881118
98.08671328671328
97.10577184010019
95.69865721559427
94.71771576898118
94.71771576898118
95.64179104477613
95.1729587357331
95.1729587357331
95.6559980844441
97.10577184010019
98.60017482517482
99.09807692307692
99.09807692307692
98.58461538461538
99.09807692307692
99.09807692307692
99.09807692307692
98.08671328671328
98.08671328671328
97.10577184010019
96.6227324913892
95.1729587357331
95.1729587357331
96.66736172080772
99.70720991815118
103.4266129032258
106.87919911012236
109.2551724137931
110.48275862068967
109.2551724137931
106.33234811165845
103.9563748079877
102.80798771121351
102.27822580645162
100.68815136476427
99.09807692307692
98.08671328671328
97.58881118881118
97.09090909090908
97.58881118881118
97.58881118881118
97.58881118881118
97.09090909090908
97.58881118881118
98.08671328671328
99.09807692307692
99.09807692307692
98.60017482517482
98.08671328671328
97.10577184010019
97.10577184010019
96.60786974219809
97.58881118881118
98.08671328671328
98.58461538461538
97.13484162895926
96.15390018234618
95.6559980844441
96.1248303934871
96.1248303934871
95.64179104477613
97.13619402985074
99.16035891968727
101.7313748079877
102.2611367127496
101.7313748079877
99.64339826839826
97.15040106951871
94.73192280864913
93.78005115089513
93.78005115089513
94.23529411764706
94.23529411764706
95.18716577540107
95.65599808444408
97.10577184010019
96.6227324913892
96.6227324913892
94.71771576898118
93.79364049318625
92.86956521739128
92.42732919254657
92.88257215929849
93.80664743509344
95.1729587357331
95.1729587357331
94.70412642669008
95.18716577540107
96.63693953105717
98.08671328671328
98.58461538461538
98.58461538461538
97.60367393800229
96.15390018234618
95.6559980844441
96.13903743315507
97.09090909090908
96.60786974219809
95.65599808444408
94.70412642669008
94.23529411764706
93.78005115089513
93.78005115089513
92.88257215929849
92.88257215929849
91.98509316770185
92.42732919254658
91.98509316770185
92.88257215929849
93.80664743509344
95.1729587357331
95.1729587357331
95.6559980844441
96.13903743315507
98.10227272727272
98.60017482517482
99.61153846153846
99.09807692307692
99.09807692307692
97.60367393800229
97.10577184010019
96.1248303934871
97.61923337856173
99.16035891968727
101.7313748079877
101.7313748079877
101.7313748079877
101.7313748079877
102.80798771121351
103.35483870967742
103.91961924907457
103.91961924907456
102.32954480738721
100.17468982630272
97.60367393800229
96.6227324913892
95.1729587357331
95.1729587357331
95.1729587357331
96.12483039348712
96.60786974219809
97.58881118881118
99.12993672993672
100.67106227106225
101.1845238095238
101.1845238095238
99.64339826839826
98.14899528332363
96.60786974219809
97.61923337856173
99.11363636363636
100.6547619047619
100.6547619047619
100.14130036630036
98.60017482517482
98.08671328671328
98.60017482517482
98.60017482517482
99.11363636363636
98.10227272727272
97.61923337856173
97.61923337856173
98.63059701492537
100.125
99.61153846153846
99.09807692307692
99.09807692307692
100.14130036630036
101.1845238095238
102.2611367127496
101.7313748079877
100.19024926686217
98.10227272727272
97.58881118881118
99.12993672993672
100.67106227106225
101.1845238095238
100.6547619047619
99.61153846153846
100.14130036630036
101.21791326952616
102.80798771121351
102.80798771121351
102.2611367127496
101.1845238095238
100.6547619047619
100.6547619047619
101.7313748079877
102.2611367127496
101.7313748079877
99.64339826839826
97.61923337856173
96.60786974219809
96.60786974219809
97.58881118881118
97.58881118881118
97.58881118881118
95.24155844155842
93.39220779220777
91.11307847082495
90.68329979879275
90.68329979879275
91.11307847082493
91.98509316770185
93.35140446834151
95.20075511769217
96.60786974219809
96.13903743315507
95.18716577540106
93.78005115089513
92.4527934872663
91.12553582363748
91.12553582363748
91.12553582363748
92.4527934872663
92.90803645401822
94.70412642669008
95.6559980844441
96.1248303934871
96.1248303934871
95.1729587357331
94.70412642669008
93.78005115089513
93.78005115089513
94.24888345993816
94.70412642669008
94.70412642669008
95.18716577540107
95.65599808444408
96.60786974219809
96.60786974219809
97.58881118881118
98.08671328671328
99.09807692307692
99.09807692307692
99.61153846153846
100.14130036630036
101.7313748079877
101.7313748079877
99.70720991815118
97.13619402985074
95.64179104477613
96.6227324913892
98.11713547646383
100.14130036630036
101.1845238095238
101.1845238095238
99.64339826839826
98.60017482517482
98.60017482517482
100.14130036630036
101.7313748079877
101.7313748079877
100.19024926686217
98.10227272727272
97.58881118881118
97.58881118881118
98.08671328671328
98.08671328671328
98.58461538461538
97.60367393800229
97.10577184010019
97.10577184010019
97.10577184010019
96.6227324913892
94.27547974413646
92.9091684434968
92.9091684434968
94.27547974413646
97.13619402985074
99.16035891968727
100.14130036630036
99.62783882783881
97.60367393800229
97.60367393800229
98.64689738122573
100.67106227106225
102.2611367127496
102.80798771121351
102.80798771121351
102.2611367127496
101.1845238095238
101.7313748079877
101.7313748079877
102.2611367127496
101.7142857142857
100.67106227106225
97.28058608058606
94.3323459149546
91.98509316770185
92.42732919254658
93.8344438170525
95.20075511769217
95.65599808444408
95.1729587357331
94.70412642669008
94.70412642669008
94.70412642669008
96.15390018234618
97.60367393800229
98.58461538461538
98.58461538461538
98.08671328671328
98.08671328671328
98.08671328671328
99.09807692307692
98.60017482517482
98.60017482517482
97.58881118881118
97.10577184010019
96.60786974219809
97.10577184010019
98.08671328671328
98.58461538461538
99.09807692307692
99.09807692307692
99.09807692307692
98.58461538461538
98.58461538461538
98.08671328671328
97.10577184010019
96.60786974219809
96.60786974219809
96.60786974219809
96.60786974219809
96.60786974219809
97.58881118881118
97.10577184010019
97.10577184010019
96.60786974219809
97.58881118881118
97.10577184010019
96.15390018234618
94.70412642669008
95.18716577540107
95.65599808444408
95.65599808444408
95.6559980844441
96.13903743315507
96.60786974219809
97.10577184010019
99.75852891908679
102.89432534678437
106.86037309214245
108.04736948002797
108.63097603740502
105.17838983050846
102.87976190476189
101.1845238095238
100.67106227106225
98.64689738122573
95.69865721559427
94.71771576898118
95.20075511769217
97.61923337856173
98.60017482517482
97.6483031674208
94.35781020967433
90.7565457207386
89.01144768152292
89.01144768152292
90.70769544805061
91.55531449566966
91.98509316770185
91.54285714285713
91.11307847082495
92.01055746242157
93.37686876306124
95.6559980844441
96.60786974219809
96.60786974219809
95.65599808444408
94.70412642669008
94.70412642669008
94.70412642669008
93.80664743509344
92.44033613445377
90.69523809523808
90.2654594232059
90.70769544805061
92.4527934872663
92.88257215929849
92.88257215929849
91.98509316770185
92.42732919254658
93.35140446834151
93.79364049318625
93.79364049318625
92.86956521739128
93.32480818414321
93.78005115089513
95.18716577540107
95.65599808444408
96.1248303934871
95.1729587357331
94.24888345993816
93.78005115089513
94.24888345993816
95.6559980844441
96.1248303934871
97.10577184010019
97.10577184010019
97.10577184010019
97.61923337856173
98.11713547646383
98.60017482517482
96.18169656430524
93.8344438170525
91.55531449566966
91.55531449566965
91.99755052051438
93.79364049318623
95.69865721559427
97.60367393800229
98.08671328671328
96.18169656430524
93.40466514502032
90.70769544805061
89.8356807511737
89.41784037558685
88.61603857378505
87.01153153153152
85.4501280227596
85.84553713049746
88.77730183637982
91.1863243927708
93.80664743509344
95.25642119074953
97.10577184010019
98.08671328671328
96.63693953105717
97.6483031674208
98.16176470588235
99.11363636363636
97.61923337856173
96.1248303934871
94.71771576898118
94.24888345993816
93.32480818414322
92.88257215929849
92.42732919254658
91.55531449566966
90.70769544805061
90.2654594232059
90.2654594232059
90.68329979879275
90.25352112676056
89.8356807511737
89.41784037558685
89.0
89.41784037558685
89.41784037558685
89.8356807511737
89.41784037558685
90.2654594232059
91.1374741200828
93.35140446834151
94.71771576898118
95.64179104477613
95.1729587357331
94.24888345993816
92.88257215929849
92.88257215929849
92.88257215929849
93.78005115089513
94.24888345993816
94.24888345993816
94.24888345993816
94.24888345993816
94.70412642669008
95.6559980844441
96.13903743315507
97.09090909090908
96.60786974219809
96.1248303934871
96.12483039348712
96.60786974219809
97.09090909090908
96.60786974219809
97.10577184010019
97.10577184010019
97.10577184010019
95.65599808444408
95.6559980844441
96.63693953105717
98.08671328671328
98.08671328671328
96.63693953105717
94.28968678380441
92.88257215929849
92.88257215929849
94.24888345993816
95.1729587357331
95.1729587357331
94.70412642669008
95.18716577540107
95.65599808444408
97.10577184010019
97.60367393800229
97.60367393800229
95.69865721559427
94.24888345993816
93.78005115089513
94.70412642669008
94.70412642669008
94.70412642669008
93.78005115089513
93.78005115089513
94.24888345993816
96.15390018234618
97.60367393800229
98.08671328671328
95.73946053946052
93.39220779220777
91.98509316770185
92.42732919254658
92.86956521739128
92.42732919254657
92.42732919254658
91.55531449566966
91.99755052051438
93.40466514502032
95.20075511769217
96.1248303934871
94.27547974413646
93.35140446834151
92.42732919254658
92.86956521739128
92.86956521739128
92.86956521739128
92.86956521739128
93.79364049318623
95.20075511769217
97.10577184010019
98.08671328671328
98.58461538461538
97.60367393800229
96.15390018234618
94.70412642669008
94.23529411764706
94.23529411764706
95.18716577540107
95.65599808444408
96.1248303934871
95.64179104477613
95.1729587357331
95.1729587357331
95.1729587357331
95.64179104477613
95.64179104477613
94.71771576898118
93.79364049318625
92.42732919254657
93.35140446834151
94.27547974413646
95.64179104477613
95.64179104477613
95.64179104477613
95.64179104477613
95.64179104477613
95.64179104477613
95.64179104477613
95.64179104477613
96.12483039348712
96.1248303934871
96.1248303934871
96.6227324913892
97.10577184010019
97.10577184010019
95.65599808444408
94.70412642669008
94.70412642669008
95.1729587357331
96.12483039348712
96.60786974219809
96.60786974219809
95.20075511769215
93.35140446834151
92.42732919254658
92.88257215929849
93.78005115089513
94.70412642669008
94.24888345993816
94.24888345993816
93.32480818414322
93.78005115089513
94.24888345993816
94.70412642669008
94.24888345993816
92.4527934872663
90.70769544805061
89.8356807511737
90.2654594232059
91.55531449566965
91.98509316770185
92.42732919254658
92.42732919254658
93.79364049318623
95.69865721559427
99.75852891908679
106.02078904701855
108.17564402810305
107.06401249024199
105.74874155428141
105.18396101488426
104.65419911012236
101.20161290322581
97.2642857142857
92.75415057915058
88.24401544401545
87.3963963963964
89.48805327066196
92.98682476943345
96.18169656430524
97.58881118881118
98.08671328671328
97.58881118881118
97.10577184010019
96.1248303934871
94.27547974413646
92.47938977146461
89.46365762140408
88.20964587972112
86.99000370233247
86.99000370233247
88.24401544401543
89.4636576214041
91.11307847082493
90.68329979879275
91.11307847082493
90.68329979879275
92.01055746242157
92.90803645401822
94.23529411764706
93.78005115089513
93.32480818414322
92.86956521739128
92.42732919254657
92.42732919254658
92.42732919254658
92.42732919254657
91.55531449566966
91.55531449566965
91.99755052051438
91.99755052051438
90.70769544805061
89.41784037558685
89.0
89.84761904761903
91.59271708683472
93.33781512605042
95.18716577540107
95.65599808444408
95.65599808444408
95.1729587357331
95.6559980844441
98.14899528332363
100.72001117162407
102.80798771121351
102.80798771121351
102.2611367127496
102.2611367127496
101.7313748079877
100.68815136476427
99.09807692307692
98.08671328671328
97.58881118881118
97.09090909090908
97.09090909090908
96.13903743315507
96.13903743315507
95.65599808444408
95.65599808444408
94.70412642669008
93.78005115089513
93.78005115089513
93.78005115089513
93.78005115089513
93.32480818414322
91.99755052051438
91.99755052051438
91.99755052051438
93.32480818414321
94.73192280864914
96.13903743315507
97.09090909090908
97.09090909090908
96.13903743315507
95.18716577540106
95.18716577540107
96.13903743315507
97.09090909090908
97.09090909090908
97.09090909090908
97.09090909090908
96.13903743315507
95.18716577540106
94.70412642669008
95.1729587357331
94.71771576898118
93.79364049318625
92.86956521739128
93.79364049318623
94.71771576898118
96.6227324913892
98.64689738122573
100.67106227106225
101.1845238095238
99.64339826839826
98.10227272727272
97.09090909090908
98.10227272727272
99.11363636363636
104.22368421052632
106.44868421052631
108.6736842105263
106.79999999999998
105.6516129032258
103.4266129032258
94.86458758677011
100.71486147599714
99.22045849092251
106.63409671060401
101.34860336077412
105.06800634584874
107.4439796495195
108.63097603740502
108.04736948002798
105.67139617635722
103.91961924907456
102.80798771121351
100.72001117162407
98.63203463203462
95.68379446640316
93.40466514502032
89.90589364624881
87.42937190711838
86.60513883746759
87.40694063926941
89.44122635355511
91.1374741200828
92.88257215929849
94.73192280864914
95.65599808444408
95.20075511769215
92.09739272665854
87.60141109634856
83.68286404076242
81.80720545277508
82.16284980841942
84.79154179154179
87.92121212121211
91.1374741200828
93.35140446834151
94.24888345993816
94.24888345993816
91.62856041761552
89.08166057659804
87.38541281007033
87.79180550413426
89.44122635355511
92.06154939587775
94.75851909284745
96.1248303934871
96.60786974219809
95.20075511769215
94.27667984189722
91.57971014492753
90.70769544805061
90.2654594232059
91.11307847082493
91.98509316770185
94.3323459149546
96.67959866220735
98.58461538461538
98.08671328671328
96.18169656430524
93.40466514502032
90.70769544805061
89.8356807511737
89.41784037558685
89.8356807511737
91.16293841480254
89.97627174813587
89.97627174813587
88.64901408450703
90.68329979879275
90.68329979879275
90.68329979879275
90.25352112676056
89.42928805710977
89.85906672914196
90.73108142601887
91.98509316770185
91.98509316770185
91.98509316770185
92.88257215929849
92.88257215929849
92.01055746242159
91.11307847082493
91.11307847082493
91.54285714285713
91.54285714285713
91.98509316770185
92.88257215929849
93.78005115089513
93.78005115089513
93.32480818414322
92.86956521739128
92.42732919254657
92.42732919254658
93.8344438170525
94.73192280864914
95.65599808444408
94.70412642669008
94.70412642669008
94.70412642669008
95.6559980844441
97.61923337856173
99.11363636363636
98.63059701492537
96.66736172080772
94.70412642669008
94.70412642669008
95.1729587357331
96.6227324913892
98.11713547646383
98.60017482517482
98.10227272727272
96.13903743315507
97.15040106951871
100.38676470588234
103.4266129032258
104.50322580645161
103.35483870967742
103.35483870967742
103.35483870967742
103.91961924907457
103.37276825061065
102.82591725214675
100.67106227106225
101.21791326952616
100.17468982630272
99.67678772840063
98.08671328671328
98.08671328671328
98.08671328671328
97.58881118881118
97.58881118881118
98.60017482517482
99.61153846153846
100.125
98.63059701492537
96.21211875405581
92.92162579630933
90.70769544805061
89.8356807511737
90.2654594232059
92.4793897714646
93.35140446834151
93.79364049318625
93.32480818414321
93.78005115089513
95.18716577540107
97.15040106951871
98.60017482517482
99.61153846153846
97.6483031674208
95.30105042016805
92.01055746242159
90.68329979879275
89.8356807511737
90.70769544805061
92.50378542072247
95.20075511769217
97.10577184010019
97.58881118881118
96.63693953105717
95.65599808444408
94.70412642669008
95.6559980844441
95.65599808444408
97.61923337856173
98.11713547646383
98.60017482517482
96.63693953105717
94.28968678380441
92.44033613445377
91.54285714285713
91.98509316770185
93.8344438170525
94.73192280864914
96.13903743315507
95.18716577540106
94.73192280864913
93.78005115089513
94.24888345993816
95.6559980844441
97.61923337856173
98.10227272727272
97.15040106951871
94.28968678380441
92.01055746242159
90.68329979879275
90.25352112676056
92.04961109943241
94.32874042081525
97.10577184010019
98.08671328671328
97.60367393800229
97.60367393800229
97.60367393800229
98.58461538461538
99.09807692307692
98.60017482517482
97.61923337856173
95.65599808444408
94.24888345993816
93.32480818414322
93.32480818414321
94.24888345993816
95.1729587357331
95.64179104477613
94.71771576898118
94.24888345993816
93.32480818414322
94.24888345993816
95.69865721559427
97.60367393800229
98.58461538461538
97.60367393800229
96.6227324913892
94.71771576898118
93.79364049318625
93.32480818414321
94.24888345993816
95.6559980844441
96.1248303934871
95.65599808444408
95.1729587357331
96.15390018234618
97.60367393800229
99.09807692307692
99.61153846153846
99.61153846153846
98.60017482517482
97.10577184010019
97.10577184010019
97.60367393800229
99.09807692307692
99.61153846153846
99.61153846153846
99.61153846153846
98.60017482517482
99.11363636363636
98.60017482517482
99.61153846153846
99.09807692307692
99.09807692307692
98.08671328671328
97.58881118881118
97.09090909090908
98.10227272727272
99.11363636363636
99.61153846153846
98.60017482517482
97.58881118881118
97.58881118881118
98.60017482517482
99.09807692307692
101.25293190416141
101.25293190416141
103.40778688524591
103.99139344262295
106.21639344262294
105.6516129032258
103.4266129032258
100.68815136476427
99.61153846153846
98.11713547646383
96.66736172080772
94.24888345993816
93.78005115089513
93.78005115089513
94.70412642669008
95.1729587357331
94.27547974413646
91.65515670181382
89.03483365949118
87.38541281007033
86.60513883746759
86.20972972972973
85.82486486486485
85.0851246051246
85.88692640692639
87.07359307359306
90.28985507246375
91.1374741200828
91.98509316770185
91.54285714285713
90.69523809523808
89.04581724581723
87.79180550413426
87.79180550413426
88.18721461187214
88.18721461187214
88.18721461187214
89.01144768152292
90.70769544805061
91.99755052051438
92.42732919254657
91.98509316770185
90.28884540117416
88.63942455175331
87.38541281007033
87.79180550413426
89.01144768152292
89.8356807511737
90.25352112676056
91.12553582363748
92.4527934872663
93.32480818414322
93.32480818414322
92.86956521739128
92.42732919254657
88.17080745341613
90.58928571428571
90.15950704225352
94.87127174813587
93.85990811177223
95.65599808444408
95.65599808444408
95.1729587357331
95.1729587357331
96.12483039348712
97.10577184010019
98.60017482517482
99.09807692307692
98.60017482517482
97.10577184010019
95.20075511769215
93.79364049318625
92.42732919254657
91.55531449566966
89.85906672914196
88.60505498745898
87.78082191780821
89.03483365949118
90.28884540117416
91.98509316770185
92.88257215929849
94.24888345993816
94.24888345993816
94.24888345993816
93.78005115089513
93.78005115089513
92.88257215929849
91.98509316770185
91.11307847082495
91.11307847082493
91.11307847082493
92.44033613445377
93.33781512605042
94.23529411764706
94.23529411764706
94.70412642669008
95.1729587357331
96.6227324913892
97.10577184010019
97.58881118881118
97.09090909090908
96.13903743315507
95.18716577540106
94.23529411764706
94.23529411764706
94.70412642669008
95.6559980844441
96.60786974219809
97.58881118881118
97.58881118881118
97.10577184010019
95.65599808444408
95.1729587357331
94.70412642669008
95.1729587357331
95.1729587357331
95.1729587357331
95.1729587357331
94.24888345993816
94.71771576898118
95.20075511769217
96.60786974219809
97.09090909090908
97.09090909090908
96.60786974219809
96.1248303934871
95.64179104477613
96.6227324913892
96.6227324913892
96.6227324913892
95.1729587357331
95.1729587357331
95.1729587357331
95.64179104477613
95.1729587357331
94.24888345993816
93.78005115089513
94.24888345993816
95.6559980844441
97.10577184010019
97.58881118881118
97.58881118881118
96.13903743315507
94.73192280864913
93.32480818414322
92.86956521739128
92.86956521739128
92.42732919254657
92.42732919254658
93.35140446834151
96.21211875405581
99.16035891968727
100.14130036630036
99.12993672993672
97.10577184010019
96.1248303934871
96.12483039348712
96.60786974219809
97.58881118881118
98.08671328671328
98.58461538461538
97.60367393800229
96.15390018234618
94.70412642669008
94.70412642669008
95.6559980844441
95.65599808444408
96.13903743315507
94.73192280864913
94.73192280864914
94.24888345993816
96.15390018234618
97.10577184010019
97.58881118881118
96.13903743315507
94.73192280864913
93.78005115089513
93.78005115089513
94.70412642669008
95.1729587357331
96.6227324913892
96.6227324913892
97.10577184010019
87.2119753140456
108.73137829912022
109.74274193548386
119.63653846153845
99.61153846153846
101.83653846153845
104.57499999999999
106.79999999999998
106.79999999999998
106.79999999999998
106.21639344262294
105.06800634584876
103.37276825061065
102.2611367127496
101.1845238095238
100.14130036630036
98.60017482517482
97.10577184010019
95.65599808444408
94.24888345993816
93.78005115089513
94.73192280864914
95.65599808444408
95.20075511769215
94.71771576898118
94.71771576898118
95.64179104477613
95.1729587357331
94.70412642669008
93.78005115089513
92.4527934872663
91.55531449566966
90.68329979879275
91.11307847082493
91.11307847082493
92.9091684434968
94.75851909284745
96.1248303934871
96.60786974219809
95.65599808444408
95.18716577540106
94.70412642669008
95.6559980844441
96.60786974219809
97.58881118881118
98.60017482517482
98.60017482517482
98.10227272727272
96.13903743315507
95.65599808444408
94.70412642669008
95.6559980844441
95.65599808444408
96.1248303934871
95.1729587357331
95.1729587357331
95.1729587357331
96.6227324913892
97.10577184010019
97.10577184010019
96.1248303934871
95.1729587357331
95.1729587357331
95.6559980844441
96.60786974219809
97.09090909090908
96.60786974219809
96.1248303934871
96.12483039348712
97.10577184010019
98.60017482517482
98.60017482517482
98.60017482517482
97.10577184010019
97.60367393800229
97.10577184010019
98.08671328671328
98.08671328671328
98.58461538461538
97.60367393800229
95.69865721559427
94.24888345993816
94.73192280864914
96.13903743315507
98.10227272727272
98.60017482517482
98.60017482517482
99.67678772840063
101.26686217008798
103.91961924907457
104.4843997884717
105.63278688524589
106.81978327313142
109.27707404103478
110.50466024793134
113.85682597297843
110.83475466567792
110.21055828928984
105.10661563696009
104.03000273373428
100.19024926686217
97.15040106951871
95.18716577540106
94.70412642669008
95.6559980844441
95.65599808444408
95.18716577540106
94.23529411764706
94.23529411764706
94.70412642669008
94.70412642669008
93.80664743509344
91.59271708683472
90.2654594232059
89.8356807511737
91.12553582363748
92.4527934872663
94.24888345993816
95.1729587357331
96.12483039348712
97.10577184010019
98.08671328671328
98.58461538461538
98.08671328671328
96.63693953105717
95.18716577540106
93.33781512605042
92.44033613445377
91.54285714285713
92.9091684434968
93.80664743509344
94.24888345993816
93.78005115089513
93.78005115089513
93.78005115089513
93.78005115089513
94.24888345993816
95.1729587357331
95.64179104477613
95.1729587357331
94.70412642669008
93.78005115089513
93.78005115089513
93.32480818414322
93.78005115089513
94.24888345993816
94.24888345993816
94.71771576898118
95.20075511769217
97.61923337856173
100.7550298062593
103.40778688524591
104.4843997884717
103.91961924907456
103.35483870967742
102.80798771121351
101.7313748079877
99.64339826839826
98.10227272727272
96.60786974219809
95.65599808444408
94.70412642669008
94.70412642669008
95.1729587357331
94.71771576898118
93.79364049318625
92.42732919254657
91.55531449566966
91.11307847082493
91.55531449566965
92.88257215929849
94.24888345993816
94.24888345993816
94.24888345993816
93.78005115089513
94.70412642669008
95.1729587357331
96.12483039348712
95.65599808444408
94.73192280864913
92.88257215929849
91.1374741200828
91.1374741200828
92.50378542072247
95.69865721559427
96.6227324913892
97.10577184010019
96.60786974219809
97.09090909090908
97.09090909090908
97.09090909090908
97.58881118881118
97.10577184010019
96.15390018234618
94.70412642669008
93.78005115089513
94.24888345993816
95.69865721559427
97.60367393800229
98.58461538461538
98.08671328671328
97.58881118881118
96.13903743315507
96.13903743315507
95.65599808444408
96.1248303934871
95.1729587357331
95.1729587357331
94.24888345993816
94.71771576898118
94.24888345993816
94.70412642669008
93.78005115089513
92.88257215929849
92.42732919254658
93.35140446834151
94.71771576898118
96.12483039348712
96.60786974219809
96.60786974219809
95.65599808444408
94.24888345993816
93.78005115089513
93.78005115089513
94.23529411764706
93.78005115089513
94.24888345993816
94.24888345993816
94.70412642669008
95.18716577540107
95.18716577540106
95.18716577540106
94.70412642669008
94.70412642669008
95.1729587357331
95.6559980844441
96.60786974219809
96.60786974219809
95.20075511769215
93.35140446834151
93.35140446834151
94.75851909284745
97.10577184010019
98.08671328671328
99.62783882783881
100.67106227106225
102.2611367127496
102.80798771121351
101.26686217008798
99.17888563049853
97.09090909090908
97.58881118881118
98.60017482517482
98.60017482517482
98.60017482517482
97.58881118881118
97.58881118881118
96.60786974219809
96.60786974219809
95.65599808444408
95.65599808444408
95.1729587357331
95.1729587357331
95.6559980844441
96.13903743315507
97.58881118881118
97.58881118881118
97.58881118881118
97.58881118881118
97.10577184010019
97.60367393800229
97.10577184010019
98.08671328671328
97.58881118881118
97.58881118881118
97.09090909090908
97.58881118881118
97.58881118881118
97.10577184010019
96.1248303934871
96.12483039348712
97.61923337856173
98.60017482517482
99.61153846153846
99.61153846153846
99.11363636363636
98.10227272727272
97.09090909090908
97.58881118881118
97.10577184010019
96.6227324913892
95.64179104477613
95.64179104477613
95.64179104477613
96.12483039348712
96.60786974219809
97.09090909090908
97.09090909090908
96.60786974219809
96.1248303934871
96.12483039348712
97.10577184010019
98.08671328671328
98.08671328671328
97.58881118881118
97.58881118881118
97.58881118881118
98.08671328671328
97.10577184010019
96.15390018234618
95.1729587357331
94.24888345993816
95.20075511769217
95.20075511769217
96.60786974219809
96.1248303934871
96.60786974219809
97.10577184010019
98.08671328671328
99.09807692307692
99.09807692307692
99.09807692307692
97.60367393800229
97.10577184010019
96.60786974219809
98.10227272727272
99.11363636363636
99.61153846153846
98.60017482517482
98.08671328671328
98.60017482517482
100.14130036630036
101.1845238095238
101.1845238095238
100.6547619047619
99.61153846153846
99.09807692307692
98.58461538461538
98.08671328671328
98.08671328671328
97.10577184010019
97.10577184010019
96.1248303934871
97.10577184010019
97.10577184010019
97.58881118881118
96.60786974219809
96.1248303934871
96.12483039348712
96.1248303934871
96.1248303934871
95.1729587357331
94.24888345993816
94.24888345993816
95.20075511769217
96.1248303934871
96.60786974219809
95.20075511769215
94.27667984189722
93.32480818414321
93.78005115089513
94.23529411764706
94.70412642669008
95.1729587357331
95.64179104477613
95.64179104477613
96.12483039348712
97.10577184010019
97.10577184010019
95.69865721559427
94.71771576898118
95.20075511769217
97.10577184010019
98.60017482517482
99.61153846153846
100.125
99.11363636363636
98.60017482517482
97.58881118881118
98.08671328671328
97.10577184010019
96.6227324913892
95.1729587357331
94.24888345993816
94.73192280864914
95.68379446640316
97.09090909090908
98.10227272727272
99.11363636363636
99.61153846153846
99.61153846153846
99.61153846153846
100.6547619047619
100.14130036630036
99.62783882783881
98.58461538461538
97.60367393800229
97.10577184010019
96.60786974219809
96.13903743315507
96.63693953105717
96.15390018234618
93.6070003413287
95.7618553224132
96.24489467112417
100.7550298062593
98.60017482517482
100.14130036630036
100.14130036630036
101.1845238095238
101.7313748079877
102.80798771121351
102.80798771121351
101.7313748079877
100.14130036630036
100.14130036630036
101.21791326952616
103.37276825061065
105.06800634584874
106.21639344262294
105.6516129032258
105.06800634584874
102.84300634584875
100.75502980625932
97.61923337856173
96.1248303934871
96.12483039348712
97.10577184010019
98.08671328671328
98.58461538461538
97.60367393800229
96.15390018234618
94.70412642669008
93.78005115089513
94.24888345993816
95.20075511769217
96.1248303934871
95.65599808444408
94.70412642669008
93.78005115089513
93.78005115089513
93.78005115089513
94.23529411764706
94.70412642669008
95.1729587357331
95.64179104477613
95.1729587357331
95.6559980844441
96.13903743315507
97.09090909090908
97.09090909090908
95.68379446640316
94.27667984189722
93.32480818414321
93.78005115089513
94.70412642669008
94.70412642669008
94.70412642669008
94.23529411764706
93.78005115089513
93.32480818414322
93.79364049318623
95.20075511769217
96.1248303934871
95.65599808444408
93.80664743509344
92.44033613445377
91.98509316770185
92.88257215929849
94.24888345993816
94.70412642669008
94.24888345993816
93.32480818414322
92.86956521739128
93.32480818414321
94.24888345993816
94.24888345993816
93.35140446834151
91.1374741200828
91.1374741200828
92.03495311167944
93.78005115089513
94.23529411764706
94.23529411764706
93.78005115089513
93.32480818414322
93.32480818414321
93.78005115089513
93.78005115089513
94.24888345993816
94.24888345993816
95.1729587357331
94.24888345993816
93.79364049318625
92.86956521739128
92.86956521739128
92.86956521739128
92.42732919254657
92.88257215929849
93.33781512605042
94.23529411764706
94.23529411764706
94.70412642669008
95.6559980844441
96.60786974219809
98.10227272727272
98.60017482517482
99.09807692307692
98.08671328671328
97.58881118881118
97.58881118881118
97.10577184010019
96.6227324913892
95.1729587357331
95.1729587357331
95.1729587357331
96.12483039348712
96.60786974219809
96.60786974219809
96.1248303934871
95.64179104477613
96.12483039348712
97.10577184010019
98.08671328671328
98.58461538461538
98.08671328671328
97.58881118881118
97.09090909090908
97.09090909090908
97.09090909090908
96.13903743315507
95.65599808444408
94.24888345993816
94.24888345993816
93.78005115089513
94.23529411764706
94.70412642669008
94.24888345993816
92.50378542072247
91.57971014492753
91.1374741200828
91.98509316770185
91.98509316770185
91.98509316770185
92.42732919254658
93.35140446834151
93.79364049318625
93.79364049318625
93.32480818414321
94.24888345993816
95.6559980844441
96.60786974219809
96.60786974219809
95.20075511769215
93.79364049318625
92.42732919254657
92.42732919254658
91.98509316770185
91.98509316770185
91.11307847082495
91.55531449566965
91.99755052051438
93.79364049318623
94.71771576898118
95.1729587357331
94.24888345993816
92.88257215929849
92.88257215929849
93.80664743509344
94.70412642669008
94.70412642669008
94.23529411764706
94.23529411764706
95.18716577540107
96.13903743315507
97.09090909090908
97.09090909090908
96.13903743315507
95.18716577540106
93.78005115089513
93.78005115089513
94.73192280864914
95.65599808444408
96.60786974219809
96.1248303934871
96.60786974219809
97.10577184010019
97.58881118881118
97.10577184010019
95.65599808444408
95.1729587357331
94.70412642669008
95.1729587357331
94.70412642669008
95.6559980844441
95.65599808444408
96.60786974219809
96.60786974219809
97.58881118881118
97.58881118881118
96.63693953105717
95.18716577540106
93.78005115089513
93.78005115089513
93.78005115089513
94.23529411764706
94.70412642669008
95.6559980844441
96.1248303934871
96.60786974219809
97.10577184010019
97.58881118881118
97.58881118881118
96.60786974219809
96.1248303934871
94.71771576898118
94.24888345993816
93.32480818414322
93.78005115089513
92.88257215929849
92.44033613445377
92.44033613445377
94.28968678380443
96.13903743315507
97.09090909090908
97.09090909090908
97.09090909090908
96.60786974219809
96.1248303934871
94.71771576898118
92.92162579630933
91.12553582363748
90.68329979879275
92.4793897714646
94.27547974413646
95.64179104477613
94.71771576898118
94.24888345993816
94.24888345993816
95.1729587357331
95.64179104477613
95.64179104477613
95.1729587357331
94.70412642669008
93.78005115089513
93.78005115089513
93.32480818414322
93.78005115089513
94.24888345993816
95.1729587357331
95.64179104477613
96.6227324913892
97.60367393800229
98.58461538461538
98.08671328671328
97.10577184010019
96.60786974219809
96.60786974219809
97.58881118881118
98.08671328671328
97.60367393800229
96.6227324913892
96.12483039348712
97.10577184010019
98.08671328671328
98.08671328671328
97.58881118881118
96.60786974219809
95.65599808444408
94.70412642669008
94.70412642669008
95.6559980844441
96.1248303934871
96.1248303934871
95.64179104477613
96.12483039348712
96.1248303934871
96.1248303934871
95.64179104477613
95.1729587357331
94.24888345993816
93.78005115089513
93.32480818414322
93.78005115089513
94.24888345993816
95.1729587357331
95.64179104477613
95.64179104477613
95.64179104477613
95.64179104477613
96.6227324913892
97.60367393800229
98.58461538461538
97.60367393800229
97.10577184010019
97.10577184010019
97.58881118881118
98.08671328671328
97.58881118881118
97.10577184010019
96.1248303934871
96.12483039348712
95.65599808444408
95.18716577540106
94.70412642669008
95.1729587357331
95.64179104477613
95.1729587357331
94.24888345993816
94.24888345993816
95.20075511769217
96.1248303934871
96.1248303934871
95.1729587357331
94.70412642669008
94.23529411764706
94.70412642669008
95.1729587357331
95.1729587357331
94.24888345993816
93.78005115089513
93.78005115089513
95.18716577540107
95.65599808444408
96.60786974219809
96.1248303934871
96.1248303934871
95.64179104477613
96.6227324913892
97.60367393800229
98.08671328671328
97.10577184010019
96.1248303934871
95.64179104477613
95.1729587357331
93.37686876306125
92.01055746242157
91.55531449566965
93.35140446834151
94.71771576898118
96.12483039348712
96.60786974219809
97.09090909090908
97.58881118881118
98.60017482517482
100.14130036630036
100.14130036630036
99.12993672993672
96.63693953105717
95.18716577540106
94.23529411764706
95.18716577540107
96.13903743315507
97.09090909090908
96.60786974219809
95.65599808444408
94.70412642669008
95.18716577540107
96.63693953105717
97.10577184010019
96.6227324913892
95.64179104477613
95.64179104477613
95.64179104477613
96.12483039348712
96.1248303934871
95.65599808444408
95.1729587357331
94.70412642669008
95.1729587357331
95.1729587357331
96.12483039348712
96.1248303934871
96.1248303934871
94.71771576898118
94.24888345993816
94.24888345993816
95.1729587357331
95.64179104477613
96.12483039348712
95.65599808444408
94.73192280864913
93.78005115089513
94.24888345993816
95.1729587357331
96.12483039348712
96.1248303934871
96.1248303934871
95.64179104477613
95.64179104477613
96.6227324913892
97.10577184010019
97.10577184010019
96.1248303934871
95.1729587357331
94.70412642669008
94.23529411764706
94.70412642669008
94.70412642669008
94.24888345993816
93.78005115089513
94.24888345993816
95.6559980844441
97.10577184010019
98.08671328671328
98.08671328671328
97.10577184010019
96.60786974219809
96.1248303934871
97.10577184010019
97.10577184010019
98.08671328671328
97.58881118881118
97.58881118881118
97.09090909090908
97.58881118881118
98.08671328671328
98.58461538461538
98.08671328671328
97.58881118881118
97.09090909090908
97.58881118881118
98.08671328671328
98.08671328671328
97.58881118881118
97.09090909090908
97.09090909090908
97.09090909090908
97.58881118881118
97.58881118881118
98.08671328671328
97.10577184010019
97.10577184010019
96.1248303934871
96.1248303934871
95.1729587357331
94.70412642669008
93.33781512605042
93.80664743509344
93.80664743509344
95.1729587357331
94.24888345993816
94.24888345993816
93.78005115089513
94.70412642669008
95.1729587357331
96.12483039348712
96.60786974219809
96.60786974219809
95.65599808444408
95.1729587357331
95.1729587357331
96.12483039348712
96.60786974219809
97.09090909090908
97.58881118881118
97.58881118881118
98.60017482517482
99.11363636363636
99.61153846153846
99.09807692307692
99.09807692307692
98.60017482517482
98.60017482517482
98.60017482517482
99.09807692307692
99.61153846153846
99.61153846153846
101.20161290322581
102.84300634584875
105.06800634584874
106.21639344262294
105.6516129032258
103.9563748079877
100.72001117162407
99.12993672993672
98.08671328671328
99.62783882783881
100.67106227106225
101.7142857142857
101.1845238095238
100.14130036630036
99.61153846153846
99.09807692307692
98.60017482517482
97.10577184010019
95.20075511769215
93.35140446834151
91.55531449566966
91.11307847082493
91.55531449566965
92.42732919254658
92.86956521739128
92.42732919254657
92.42732919254658
93.8344438170525
95.68379446640316
97.58881118881118
98.08671328671328
98.08671328671328
97.58881118881118
97.09090909090908
97.58881118881118
98.08671328671328
97.60367393800229
96.6227324913892
95.1729587357331
93.80664743509344
93.33781512605042
93.33781512605042
93.78005115089513
93.32480818414322
92.86956521739128
93.32480818414321
94.73192280864914
96.13903743315507
97.09090909090908
96.60786974219809
95.65599808444408
95.1729587357331
95.1729587357331
95.64179104477613
95.1729587357331
94.70412642669008
94.70412642669008
94.70412642669008
94.70412642669008
94.70412642669008
94.70412642669008
94.24888345993816
92.88257215929849
92.88257215929849
92.44033613445377
92.88257215929849
92.42732919254658
93.32480818414321
93.32480818414322
94.73192280864914
94.73192280864914
95.18716577540106
94.23529411764706
94.23529411764706
94.70412642669008
94.70412642669008
95.1729587357331
94.70412642669008
94.24888345993816
93.78005115089513
93.78005115089513
94.23529411764706
94.70412642669008
94.70412642669008
93.80664743509344
92.88257215929849
92.42732919254658
93.32480818414321
92.88257215929849
92.01055746242159
90.2654594232059
89.41784037558685
89.41784037558685
90.70769544805061
92.4527934872663
94.24888345993816
94.70412642669008
93.80664743509344
92.01055746242159
90.68329979879275
90.68329979879275
89.85906672914196
89.03483365949118
87.38541281007033
87.79180550413426
89.04581724581723
90.69523809523808
91.98509316770185
92.88257215929849
94.24888345993816
95.1729587357331
96.12483039348712
95.65599808444408
94.73192280864913
92.4527934872663
91.12553582363748
90.25352112676056
90.68329979879275
91.11307847082493
92.44033613445377
92.88257215929849
94.24888345993816
94.24888345993816
94.70412642669008
93.78005115089513
92.4527934872663
91.12553582363748
90.25352112676056
89.8356807511737
89.8356807511737
89.8356807511737
89.8356807511737
89.8356807511737
90.2654594232059
91.11307847082493
91.54285714285713
91.54285714285713
91.54285714285713
92.44033613445377
93.80664743509344
95.1729587357331
96.12483039348712
95.65599808444408
95.18716577540106
94.70412642669008
95.1729587357331
96.12483039348712
96.1248303934871
96.1248303934871
95.1729587357331
95.1729587357331
95.6559980844441
97.10577184010019
98.08671328671328
97.60367393800229
95.69865721559427
94.71771576898118
94.71771576898118
97.66595593461264
99.69012082444917
102.82591725214675
103.93754879000781
105.04918032786884
103.9375487900078
102.29615534738485
101.7313748079877
102.27822580645162
103.35483870967742
101.76476426799007
99.67678772840063
97.58881118881118
96.60786974219809
96.60786974219809
96.60786974219809
96.60786974219809
95.20075511769215
92.92162579630933
91.12553582363748
90.68329979879275
92.4793897714646
94.27547974413646
95.64179104477613
95.64179104477613
95.64179104477613
97.13619402985074
98.63059701492537
100.6547619047619
100.6547619047619
100.14130036630036
98.60017482517482
97.10577184010019
96.60786974219809
96.60786974219809
96.60786974219809
95.65599808444408
94.70412642669008
94.23529411764706
94.70412642669008
95.1729587357331
95.1729587357331
94.70412642669008
94.23529411764706
94.23529411764706
94.70412642669008
95.1729587357331
95.1729587357331
94.24888345993816
92.4527934872663
91.55531449566966
91.55531449566965
92.42732919254658
93.32480818414321
93.78005115089513
93.78005115089513
92.88257215929849
92.88257215929849
92.88257215929849
93.32480818414322
92.86956521739128
93.32480818414321
93.32480818414322
94.24888345993816
94.71771576898118
95.64179104477613
95.1729587357331
95.1729587357331
94.70412642669008
95.1729587357331
95.1729587357331
96.12483039348712
96.1248303934871
96.1248303934871
95.64179104477613
95.64179104477613
95.64179104477613
96.6227324913892
97.10577184010019
97.10577184010019
96.60786974219809
96.60786974219809
97.58881118881118
97.58881118881118
97.58881118881118
96.60786974219809
96.1248303934871
96.6227324913892
97.60367393800229
99.09807692307692
99.09807692307692
98.60017482517482
98.60017482517482
99.11363636363636
100.125
99.61153846153846
98.60017482517482
97.58881118881118
97.09090909090908
97.09090909090908
97.09090909090908
96.13903743315507
95.18716577540106
94.70412642669008
96.15390018234618
97.10577184010019
97.58881118881118
96.60786974219809
95.65599808444408
95.1729587357331
96.15390018234618
96.6227324913892
97.10577184010019
95.65599808444408
95.18716577540106
94.70412642669008
95.6559980844441
96.60786974219809
96.60786974219809
95.65599808444408
94.70412642669008
94.70412642669008
95.1729587357331
95.1729587357331
94.70412642669008
94.70412642669008
95.6559980844441
96.60786974219809
96.60786974219809
95.65599808444408
95.1729587357331
95.1729587357331
96.12483039348712
96.60786974219809
97.09090909090908
96.60786974219809
96.1248303934871
96.12483039348712
96.60786974219809
97.09090909090908
97.09090909090908
96.60786974219809
96.60786974219809
96.60786974219809
97.58881118881118
97.10577184010019
97.10577184010019
95.20075511769215
94.73192280864914
94.24888345993816
95.1729587357331
96.12483039348712
97.10577184010019
98.08671328671328
99.62783882783881
100.67106227106225
102.2611367127496
102.80798771121351
102.80798771121351
101.7313748079877
100.14130036630036
99.09807692307692
99.62783882783881
98.64689738122573
97.66595593461264
96.12483039348712
96.1248303934871
96.60786974219809
97.10577184010019
98.08671328671328
98.58461538461538
99.62783882783881
100.67106227106225
102.82591725214675
103.37276825061066
105.06800634584874
103.9563748079877
103.9563748079877
104.55976463849618
102.53559974865965
102.53559974865965
100.23697182291308
101.7313748079877
99.16035891968727
97.13619402985074
96.12483039348712
96.60786974219809
97.58881118881118
97.58881118881118
98.60017482517482
98.60017482517482
99.61153846153846
100.14130036630036
100.6547619047619
101.1845238095238
99.64339826839826
98.63203463203462
97.09090909090908
98.10227272727272
98.10227272727272
98.10227272727272
96.60786974219809
96.1248303934871
96.12483039348712
97.61923337856173
99.11363636363636
100.125
99.61153846153846
98.60017482517482
98.08671328671328
97.58881118881118
98.08671328671328
97.58881118881118
97.58881118881118
96.60786974219809
96.1248303934871
96.12483039348712
96.60786974219809
97.09090909090908
96.13903743315507
95.18716577540106
94.70412642669008
95.6559980844441
96.60786974219809
97.09090909090908
97.09090909090908
96.60786974219809
96.60786974219809
97.10577184010019
97.58881118881118
98.08671328671328
97.10577184010019
96.6227324913892
96.6227324913892
96.6227324913892
97.10577184010019
96.1248303934871
96.1248303934871
95.64179104477613
96.12483039348712
97.61923337856173
98.60017482517482
99.61153846153846
99.09807692307692
99.09807692307692
98.58461538461538
98.08671328671328
97.10577184010019
95.65599808444408
94.70412642669008
94.70412642669008
96.15390018234618
96.6227324913892
96.6227324913892
95.1729587357331
94.70412642669008
94.70412642669008
95.6559980844441
96.60786974219809
96.13903743315507
95.18716577540106
92.90803645401823
92.01055746242157
91.11307847082493
92.44033613445377
92.88257215929849
93.78005115089513
94.24888345993816
95.6559980844441
96.60786974219809
98.10227272727272
99.11363636363636
99.11363636363636
97.15040106951871
94.28968678380441
92.88257215929849
92.88257215929849
93.78005115089513
93.78005115089513
92.88257215929849
92.88257215929849
93.80664743509344
96.15390018234618
97.60367393800229
99.09807692307692
99.61153846153846
100.125
100.125
100.6547619047619
100.14130036630036
99.12993672993672
96.63693953105717
94.73192280864913
92.88257215929849
92.42732919254658
92.88257215929849
92.88257215929849
92.88257215929849
92.42732919254658
92.86956521739128
93.79364049318623
95.69865721559427
97.60367393800229
98.08671328671328
97.10577184010019
94.75851909284744
93.35140446834151
93.35140446834151
94.71771576898118
95.64179104477613
95.1729587357331
93.80664743509344
92.44033613445377
92.44033613445377
93.33781512605042
94.23529411764706
94.23529411764706
92.90803645401823
92.01055746242157
91.11307847082493
91.98509316770185
92.88257215929849
93.78005115089513
93.78005115089513
93.78005115089513
93.78005115089513
94.23529411764706
94.70412642669008
95.6559980844441
95.65599808444408
94.73192280864913
92.88257215929849
92.42732919254658
92.42732919254658
93.32480818414321
93.32480818414322
93.78005115089513
92.88257215929849
92.88257215929849
92.88257215929849
94.24888345993816
94.70412642669008
95.1729587357331
94.70412642669008
95.1729587357331
96.15390018234618
97.10577184010019
98.08671328671328
97.10577184010019
96.6227324913892
95.64179104477613
95.1729587357331
95.1729587357331
95.6559980844441
94.75851909284744
96.78268398268396
97.28058608058606
100.67106227106225
101.78269380892331
104.52115534738485
106.21639344262294
108.02758620689654
107.44397964951949
106.2955925527453
102.84300634584875
101.20161290322581
99.61153846153846
99.09807692307692
98.08671328671328
96.63693953105717
94.28968678380441
91.59271708683472
89.84761904761905
89.41784037558685
90.2654594232059
90.2654594232059
90.2654594232059
90.2654594232059
92.01055746242157
93.33781512605042
94.23529411764706
93.33781512605042
91.59271708683472
89.44122635355511
88.59360730593608
89.88346237839983
92.03495311167944
93.32480818414322
93.32480818414322
91.99755052051438
91.55531449566966
91.11307847082493
92.44033613445377
93.80664743509344
95.1729587357331
96.12483039348712
96.1248303934871
96.1248303934871
96.6227324913892
97.10577184010019
97.58881118881118
97.58881118881118
98.08671328671328
97.60367393800229
96.15390018234618
95.1729587357331
95.6559980844441
95.65599808444408
95.18716577540106
94.23529411764706
95.18716577540107
95.18716577540106
96.63693953105717
97.6483031674208
99.09807692307692
99.61153846153846
99.09807692307692
98.11713547646383
97.60367393800229
97.10577184010019
97.58881118881118
96.60786974219809
96.60786974219809
96.60786974219809
97.09090909090908
97.09090909090908
97.58881118881118
96.63693953105717
95.68506787330315
94.70412642669008
95.6559980844441
97.10577184010019
98.08671328671328
98.58461538461538
98.58461538461538
97.13484162895926
95.68506787330315
94.23529411764706
95.18716577540107
96.13903743315507
96.13903743315507
95.18716577540106
93.78005115089513
94.24888345993816
94.71771576898118
96.12483039348712
97.10577184010019
97.10577184010019
96.15390018234618
94.70412642669008
95.18716577540107
96.63693953105717
97.10577184010019
96.6227324913892
95.64179104477613
95.64179104477613
95.64179104477613
95.64179104477613
95.1729587357331
95.1729587357331
95.1729587357331
95.64179104477613
96.12483039348712
96.1248303934871
96.60786974219809
96.1248303934871
96.60786974219809
96.1248303934871
96.60786974219809
96.60786974219809
97.09090909090908
96.13903743315507
95.18716577540106
95.18716577540107
95.65599808444408
96.60786974219809
96.60786974219809
97.09090909090908
97.58881118881118
98.08671328671328
99.09807692307692
99.61153846153846
99.61153846153846
98.60017482517482
97.10577184010019
95.20075511769215
94.24888345993816
93.32480818414322
93.32480818414322
92.86956521739128
92.86956521739128
93.32480818414321
93.78005115089513
95.18716577540107
96.13903743315507
97.58881118881118
97.58881118881118
97.10577184010019
96.1248303934871
95.64179104477613
95.64179104477613
96.12483039348712
96.1248303934871
96.1248303934871
95.1729587357331
95.1729587357331
95.1729587357331
96.6227324913892
97.10577184010019
97.10577184010019
96.60786974219809
96.60786974219809
97.58881118881118
98.08671328671328
97.60367393800229
96.6227324913892
96.12483039348712
96.1248303934871
96.1248303934871
95.64179104477613
95.64179104477613
95.1729587357331
95.6559980844441
96.63693953105717
98.60017482517482
99.61153846153846
99.61153846153846
98.60017482517482
97.58881118881118
97.58881118881118
98.08671328671328
98.58461538461538
98.08671328671328
97.10577184010019
96.1248303934871
95.64179104477613
96.12483039348712
97.61923337856173
99.11363636363636
100.125
100.125
100.125
100.125
100.125
99.61153846153846
99.09807692307692
97.60367393800229
96.6227324913892
95.1729587357331
95.1729587357331
95.6559980844441
96.1248303934871
96.1248303934871
95.64179104477613
96.12483039348712
96.1248303934871
96.1248303934871
96.6227324913892
97.10577184010019
97.58881118881118
96.60786974219809
96.60786974219809
96.1248303934871
96.60786974219809
96.60786974219809
96.60786974219809
96.1248303934871
96.12483039348712
96.1248303934871
96.1248303934871
95.64179104477613
94.71771576898118
93.79364049318625
93.32480818414321
94.24888345993816
95.1729587357331
96.6227324913892
97.10577184010019
97.58881118881118
96.60786974219809
96.1248303934871
95.64179104477613
95.1729587357331
94.24888345993816
93.32480818414322
92.42732919254657
92.42732919254658
93.35140446834151
94.71771576898118
96.12483039348712
96.60786974219809
97.58881118881118
97.58881118881118
98.08671328671328
98.60017482517482
100.14130036630036
100.14130036630036
99.12993672993672
96.18169656430524
94.27667984189722
92.86956521739128
93.32480818414321
93.78005115089513
94.23529411764706
94.70412642669008
95.1729587357331
96.12483039348712
96.60786974219809
98.10227272727272
98.60017482517482
99.09807692307692
98.58461538461538
98.08671328671328
97.58881118881118
97.58881118881118
98.08671328671328
97.60367393800229
96.6227324913892
95.64179104477613
96.12483039348712
97.10577184010019
97.58881118881118
98.08671328671328
98.08671328671328
98.08671328671328
97.58881118881118
97.58881118881118
97.58881118881118
96.63693953105717
95.65599808444408
94.24888345993816
94.71771576898118
94.71771576898118
95.64179104477613
95.64179104477613
95.64179104477613
96.12483039348712
96.60786974219809
97.09090909090908
98.10227272727272
98.60017482517482
99.09807692307692
98.58461538461538
98.58461538461538
98.08671328671328
97.58881118881118
97.09090909090908
96.60786974219809
95.20075511769215
93.35140446834151
92.88257215929849
94.28968678380443
95.65599808444408
96.60786974219809
95.65599808444408
95.65599808444408
96.15390018234618
97.60367393800229
99.09807692307692
99.61153846153846
100.125
99.61153846153846
98.60017482517482
97.58881118881118
96.60786974219809
95.65599808444408
95.1729587357331
94.70412642669008
94.70412642669008
93.33781512605042
92.44033613445377
91.98509316770185
93.35140446834151
95.20075511769217
96.1248303934871
95.65599808444408
93.80664743509344
91.59271708683472
90.69523809523808
92.06154939587775
94.27547974413646
96.6227324913892
97.10577184010019
96.63693953105717
95.65599808444408
95.6559980844441
96.1248303934871
96.1248303934871
95.1729587357331
94.70412642669008
93.78005115089513
93.32480818414322
93.79364049318623
94.24888345993816
94.70412642669008
94.23529411764706
94.23529411764706
94.70412642669008
95.6559980844441
96.60786974219809
96.60786974219809
96.60786974219809
96.1248303934871
95.65599808444408
95.6559980844441
96.63693953105717
97.58881118881118
97.58881118881118
97.09090909090908
96.60786974219809
96.1248303934871
95.64179104477613
95.64179104477613
95.64179104477613
95.1729587357331
95.1729587357331
95.6559980844441
97.10577184010019
98.08671328671328
98.58461538461538
99.09807692307692
99.61153846153846
100.125
100.125
100.6547619047619
101.1845238095238
100.67106227106225
99.62783882783881
98.58461538461538
