HR_time,RR-interval,heart_rate
1.3014930431055802,594,101.7142857142857
1.8913783791894045,594,101.7142857142857
2.481263715273229,594,102.2611367127496
3.061785792054135,594,102.2611367127496
3.6516711281379592,584,101.7313748079877
4.250919723524701,594,100.6547619047619
4.850168318911443,603,101.20161290322581
5.430690395692349,603,101.7313748079877
6.020575731776174,584,101.21791326952616
6.629187586465834,594,100.67106227106225
7.219072922549658,613,100.14130036630036
7.8183215179364,594,100.6547619047619
8.417570113323142,603,101.20161290322581
8.998092190104048,603,102.27822580645162
9.578614266884955,584,103.35483870967742
10.15913634366586,584,102.80798771121351
10.749021679749685,584,101.7313748079877
11.348270275136427,594,100.14130036630036
11.956882129826086,603,99.61153846153846
12.55613072521283,613,100.14130036630036
13.146016061296653,603,100.6547619047619
13.745264656683394,594,99.16035891968727
14.37260302997889,603,98.63059701492537
14.971851625365632,632,99.16035891968727
15.561736961449457,603,101.1845238095238
16.15162229753328,594,100.67106227106225
16.760234152222942,594,99.12993672993672
17.378209266215517,613,98.08671328671328
17.98682112090518,622,98.60017482517482
18.58606971629192,613,100.68815136476427
19.166591793072826,603,101.7313748079877
19.75647712915665,584,102.2611367127496
20.346362465240475,594,101.1845238095238
20.94561106062722,594,100.14130036630036
21.554222915316878,603,99.61153846153846
22.153471510703618,613,99.61153846153846
22.75272010609036,603,100.125
23.3519687014771,603,99.61153846153846
23.960580556166764,603,98.60017482517482
24.57855567015934,613,97.10577184010019
25.205894043454837,622,97.10577184010019
25.814505898144496,632,97.10577184010019
26.432481012137075,613,98.08671328671328
27.041092866826734,622,97.58881118881118
27.659067980819312,613,97.58881118881118
28.27704309481189,622,97.58881118881118
28.88565494950155,622,98.08671328671328
29.49426680419121,613,99.09807692307692
30.09351539957795,613,99.09807692307692
30.702127254267612,603,98.60017482517482
31.320102368260187,613,97.10577184010019
31.947440741555685,622,96.1248303934871
32.57477911485118,632,96.6227324913892
33.18339096954084,632,97.60367393800229
33.7920028242305,613,98.08671328671328
34.40997793822308,613,98.08671328671328
35.018589792912735,622,97.58881118881118
35.63656490690531,613,97.58881118881118
36.25454002089789,622,97.58881118881118
36.863151875587555,622,98.60017482517482
37.462400470974295,613,99.09807692307692
38.07101232566396,603,98.60017482517482
38.68898743965653,613,96.63693953105717
39.325689072254946,622,96.13903743315507
39.943664186247524,641,96.13903743315507
40.5616393002401,622,97.09090909090908
41.17961441423268,622,97.58881118881118
41.78822626892234,622,98.08671328671328
42.396838123612,613,98.58461538461538
43.005449978301655,613,98.58461538461538
43.61406183299132,613,99.09807692307692
44.21331042837806,613,99.61153846153846
44.8125590237648,603,100.125
45.411807619151546,603,99.11363636363636
46.029782733144124,603,97.61923337856173
46.65712110643962,622,97.10577184010019
47.265732961129274,632,97.60367393800229
47.87434481581894,613,99.09807692307692
48.47359341120568,613,98.60017482517482
49.091568525198255,603,98.60017482517482
49.70018037988792,622,98.08671328671328
50.308792234577574,613,98.58461538461538
50.91740408926724,613,99.62783882783881
51.50728942535106,613,100.14130036630036
52.1065380207378,594,100.14130036630036
52.715149875427464,603,99.09807692307692
53.32376173011712,613,98.58461538461538
53.93237358480678,613,99.62783882783881
54.52225892089061,613,99.62783882783881
55.13087077558026,594,99.12993672993672
55.74884588957284,613,97.58881118881118
56.36682100356542,622,96.60786974219809
56.994159376860914,622,96.1248303934871
57.621497750156415,632,95.64179104477613
58.24883612345191,632,96.12483039348712
58.86681123744449,632,96.1248303934871
59.49414961073998,622,95.65599808444408
60.1308512433384,632,94.70412642669008
60.76755287593681,641,94.70412642669008
61.3948912492323,641,95.1729587357331
62.022229622527796,632,95.64179104477613
62.6495679958233,632,95.64179104477613
63.27690636911879,632,95.64179104477613
63.904244742414285,632,95.64179104477613
64.53158311570978,632,96.6227324913892
65.14019497039943,632,98.11713547646383
65.73944356578619,613,99.09807692307692
66.34805542047584,603,99.09807692307692
66.9566672751655,613,98.08671328671328
67.57464238915809,613,97.58881118881118
68.19261750315066,622,97.58881118881118
68.80122935784031,622,98.08671328671328
69.40984121252998,613,97.60367393800229
70.03717958582547,613,96.6227324913892
70.66451795912097,632,96.6227324913892
71.27312981381063,632,98.11713547646383
71.87237840919737,613,99.61153846153846
72.47162700458411,603,100.125
73.07087559997086,603,100.125
73.6701241953576,603,100.125
74.26937279074434,603,100.125
74.86862138613108,603,100.125
75.46786998151782,603,99.61153846153846
76.07648183620748,603,98.11713547646383
76.70382020950298,613,96.15390018234618
77.3405218421014,632,95.1729587357331
77.96786021539688,641,95.1729587357331
78.59519858869238,632,96.12483039348712
79.21317370268495,632,97.10577184010019
79.82178555737462,622,97.58881118881118
80.4397606713672,613,96.18169656430524
81.08582556326853,622,95.20075511769217
81.71316393656403,650,95.20075511769217
82.3311390505566,632,96.60786974219809
82.94911416454919,622,97.58881118881118
83.55772601923884,622,97.58881118881118
84.17570113323141,613,97.58881118881118
84.793676247224,622,97.58881118881118
85.40228810191365,622,98.08671328671328
86.01089995660331,613,99.62783882783881
86.60078529268714,613,100.67106227106225
87.19067062877096,594,101.1845238095238
87.7899192241577,594,100.14130036630036
88.39853107884737,603,98.60017482517482
89.01650619283994,613,98.08671328671328
89.6251180475296,622,98.60017482517482
90.22436664291635,613,99.09807692307692
90.832978497606,603,99.61153846153846
91.43222709299275,613,100.14130036630036
92.02211242907657,603,100.6547619047619
92.62136102446331,594,101.1845238095238
93.21124636054714,603,101.7313748079877
93.79176843732805,594,103.37276825061065
94.36292725480604,584,103.91961924907456
94.94344933158693,575,103.37276825061065
95.53333466767076,584,102.2611367127496
96.12322000375458,594,101.7142857142857
96.7131053398384,594,102.2611367127496
97.29362741661932,594,102.80798771121351
97.87414949340022,584,103.35483870967742
98.45467157018113,584,102.27822580645162
99.05392016556787,584,101.7313748079877
99.6438055016517,603,100.14130036630036
100.25241735634135,594,100.14130036630036
100.8516659517281,613,100.14130036630036
101.44155128781192,603,101.1845238095238
102.03143662389574,594,101.7142857142857
102.62132195997957,594,101.7142857142857
103.21120729606339,594,101.7142857142857
103.80109263214722,594,101.1845238095238
104.40034122753396,594,100.6547619047619
104.9995898229207,603,100.6547619047619
105.58947515900452,603,102.29615534738485
106.16063397648252,594,102.82591725214675
106.75051931256634,575,103.37276825061066
107.33104138934725,594,102.2611367127496
107.92092672543107,584,101.7313748079877
108.52017532081781,594,100.6547619047619
109.11942391620455,603,101.20161290322581
109.69994599298546,603,102.27822580645162
110.28046806976637,584,103.35483870967742
110.86099014654728,584,102.80798771121351
111.4508754826311,584,101.7313748079877
112.05012407801784,594,101.1845238095238
112.64000941410167,603,100.6547619047619
113.23925800948841,594,101.7313748079877
113.81978008626932,603,102.27822580645162
114.40030216305021,584,102.27822580645162
114.99955075843697,584,101.20161290322581
115.59879935382371,603,99.61153846153846
116.20741120851336,603,99.09807692307692
116.81602306320302,613,98.08671328671328
117.4339981771956,613,98.08671328671328
118.04261003188526,622,98.08671328671328
118.65122188657492,613,98.58461538461538
119.25983374126459,613,98.58461538461538
119.86844559595424,613,98.58461538461538
120.4770574506439,613,99.62783882783881
121.06694278672772,613,100.14130036630036
121.66619138211446,594,100.6547619047619
122.2654399775012,603,99.11363636363636
122.88341509149379,603,98.60017482517482
123.49202694618344,622,97.58881118881118
124.11000206017603,613,97.58881118881118
124.7279771741686,622,97.09090909090908
125.34595228816117,622,97.09090909090908
125.96392740215376,622,97.09090909090908
126.58190251614633,622,96.13903743315507
127.21860414874475,622,96.63693953105717
127.8272160034344,641,96.63693953105717
128.445191117427,613,97.58881118881118
129.06316623141956,622,98.10227272727272
129.6624148268063,622,98.60017482517482
130.27102668149595,603,98.60017482517482
130.88900179548855,613,96.63693953105717
131.52570342808696,622,95.65599808444408
132.15304180138244,641,96.15390018234618
132.7616536560721,632,98.11713547646383
133.36090225145887,613,100.14130036630036
133.9507875875427,603,101.1845238095238
134.5406729236265,594,102.2611367127496
135.1211950004074,594,101.7313748079877
135.72044359579414,584,102.27822580645162
136.30096567257505,603,102.27822580645162
136.88148774935595,584,102.80798771121351
137.47137308543978,584,102.2611367127496
138.0612584215236,594,100.67106227106225
138.66987027621326,594,99.12993672993672
139.28784539020586,613,98.08671328671328
139.89645724489552,622,98.60017482517482
140.49570584028226,613,99.61153846153846
141.094954435669,603,99.61153846153846
141.70356629035865,603,99.61153846153846
142.3028148857454,613,99.61153846153846
142.90206348113213,603,100.125
143.50131207651887,603,100.125
144.1005606719056,603,100.125
144.69980926729235,603,100.6547619047619
145.28969460337618,603,100.6547619047619
145.88894319876292,594,100.14130036630036
146.4975550534526,603,98.60017482517482
147.11553016744517,613,98.60017482517482
147.7147787628319,622,99.11363636363636
148.31402735821865,603,99.61153846153846
148.9226392129083,603,99.61153846153846
149.52188780829505,613,98.60017482517482
150.13986292228762,603,99.64339826839826
150.72974825837144,622,100.17316017316016
151.31963359445527,594,101.7142857142857
151.9095189305391,594,102.2611367127496
152.49004100732,594,101.7313748079877
153.08928960270674,584,101.7313748079877
153.67917493879057,603,100.6547619047619
154.2784235341773,594,101.7313748079877
154.85894561095822,603,101.7313748079877
155.44883094704204,584,102.80798771121351
156.02935302382295,594,102.80798771121351
156.60987510060386,584,103.35483870967742
157.19039717738477,584,103.35483870967742
157.77091925416568,584,103.35483870967742
158.35144133094659,584,103.35483870967742
158.9319634077275,584,103.35483870967742
159.5124854845084,584,102.80798771121351
160.10237082059223,584,101.7313748079877
160.70161941597897,594,100.14130036630036
161.31023127066862,603,99.09807692307692
161.91884312535828,613,99.09807692307692
162.51809172074502,613,99.61153846153846
163.11734031613176,603,100.6547619047619
163.70722565221558,603,101.1845238095238
164.2971109882994,594,101.7142857142857
164.88699632438323,594,102.2611367127496
165.46751840116414,594,103.37276825061065
166.03867721864214,584,104.4843997884717
166.60983603612013,575,105.04918032786884
167.1809948535981,575,104.4843997884717
167.761516930379,575,103.37276825061065
168.35140226646283,584,101.7313748079877
168.95065086184957,594,100.14130036630036
169.55926271653925,603,98.60017482517482
170.17723783053182,613,98.08671328671328
170.78584968522148,622,98.08671328671328
171.39446153991113,613,97.60367393800229
172.02179991320662,613,98.11713547646383
172.62104850859336,632,98.63059701492537
173.22029710398013,603,99.11363636363636
173.8382722179727,603,99.11363636363636
174.43752081335944,622,98.60017482517482
175.0461326680491,603,99.61153846153846
175.64538126343584,613,99.09807692307692
176.2539931181255,603,98.11713547646383
176.88133149142098,613,96.15390018234618
177.5180331240194,632,96.15390018234618
178.12664497870907,641,97.13484162895926
178.73525683339872,613,98.58461538461538
179.34386868808838,613,98.58461538461538
179.95248054277803,613,98.08671328671328
180.57045565677063,613,97.58881118881118
181.1884307707632,622,97.09090909090908
181.80640588475578,622,97.58881118881118
182.41501773944543,622,98.60017482517482
183.01426633483217,613,99.09807692307692
183.62287818952183,603,98.60017482517482
184.24085330351443,613,96.63693953105717
184.87755493611283,622,94.73192280864913
185.52361982801418,641,94.24888345993816
186.15095820130966,650,94.71771576898118
186.77829657460515,632,96.12483039348712
187.39627168859772,632,96.60786974219809
188.01424680259032,622,96.60786974219809
188.6415851758858,622,96.1248303934871
189.2689235491813,632,96.12483039348712
189.88689866317387,632,97.10577184010019
190.49551051786355,622,98.60017482517482
191.0947591132503,613,100.14130036630036
191.68464444933412,603,101.1845238095238
192.27452978541794,594,101.1845238095238
192.87377838080468,594,100.14130036630036
193.48239023549434,603,99.09807692307692
194.091002090184,613,99.09807692307692
194.69025068557073,613,99.61153846153846
195.28949928095747,603,100.6547619047619
195.8793846170413,603,101.1845238095238
196.46926995312512,594,101.7142857142857
197.05915528920895,594,101.1845238095238
197.65840388459569,594,101.1845238095238
198.2482892206795,603,100.6547619047619
198.84753781606625,594,100.6547619047619
199.446786411453,603,99.61153846153846
200.05539826614265,603,98.11713547646383
200.68273663943816,613,96.15390018234618
201.31943827203656,632,94.70412642669008
201.95613990463497,641,95.18716577540107
202.57411501862757,641,96.13903743315507
203.19209013262014,622,96.60786974219809
203.81942850591562,622,96.60786974219809
204.4374036199082,632,96.60786974219809
205.0553787339008,622,97.58881118881118
205.66399058859045,622,99.12993672993672
206.25387592467428,613,100.14130036630036
206.85312452006102,594,100.6547619047619
207.45237311544776,603,98.16176470588235
208.08907474804616,603,96.1985294117647
208.7257763806446,641,93.78005115089513
209.3718412725459,641,95.22982490655124
209.98045312723556,650,96.18169656430524
210.59842824122816,613,96.18169656430524
211.24449313312948,622,94.27667984189722
211.8905580250308,650,92.42732919254657
212.54598617623506,650,92.42732919254658
213.19205106813638,660,93.8344438170525
213.81002618212898,650,95.68379446640316
214.42800129612155,622,97.58881118881118
215.0366131508112,622,98.08671328671328
215.64522500550086,613,98.08671328671328
216.26320011949343,613,98.60017482517482
216.86244871488017,622,99.11363636363636
217.46169731026694,603,100.6547619047619
218.05158264635077,603,101.1845238095238
218.6414679824346,594,101.7142857142857
219.23135331851842,594,100.17316017316016
219.849328432511,594,97.6801629742806
220.4860300651094,622,95.65599808444408
221.11336843840488,641,96.15390018234618
221.72198029309456,632,98.11713547646383
222.3212288884813,613,99.09807692307692
222.92984074317096,603,99.09807692307692
223.5384525978606,613,98.58461538461538
224.14706445255027,613,98.08671328671328
224.76503956654284,613,97.58881118881118
225.38301468053544,622,98.10227272727272
225.98226327592218,622,99.64339826839826
226.572148612006,603,101.1845238095238
227.16203394808983,594,100.17316017316016
227.7800090620824,594,98.63203463203462
228.39798417607497,622,97.09090909090908
229.01595929006754,622,97.09090909090908
229.6339344040601,622,96.60786974219809
230.26127277735563,622,95.20075511769215
230.90733766925695,632,94.24888345993816
231.54403930185538,650,94.24888345993816
232.17137767515086,641,96.15390018234618
232.77998952984052,632,97.60367393800229
233.38860138453018,613,99.62783882783881
233.978486720614,613,100.67106227106225
234.56837205669783,594,101.1845238095238
235.16762065208457,594,101.1845238095238
235.7575059881684,603,101.1845238095238
236.34739132425221,594,102.2611367127496
236.92791340103312,594,102.80798771121351
237.50843547781403,584,102.80798771121351
238.09832081389786,584,102.2611367127496
238.68820614998168,594,100.67106227106225
239.29681800467134,594,100.14130036630036
239.89606660005808,613,99.61153846153846
240.49531519544482,603,90.48333333333332
241.33800853270742,603,110.50833333333333
241.71253890482416,849,109.0139303482587
242.33987727811964,377,117.64423337856172
242.95785239211222,632,97.61923337856173
243.55710098749896,622,99.64339826839826
244.14698632358278,603,101.7313748079877
244.7275084003637,594,103.37276825061065
245.29866721784168,584,103.91961924907456
245.8791892946226,575,103.37276825061065
246.46907463070642,584,102.2611367127496
247.05895996679024,594,101.1845238095238
247.65820856217698,594,100.14130036630036
248.26682041686664,603,99.09807692307692
248.8754322715563,613,98.08671328671328
249.49340738554886,613,97.58881118881118
250.11138249954146,622,97.09090909090908
250.72935761353403,622,98.10227272727272
251.32860620892077,622,100.19024926686217
251.90912828570168,603,102.27822580645162
252.4896503624826,584,102.80798771121351
253.07953569856642,584,102.2611367127496
253.66942103465024,594,101.7142857142857
254.25930637073407,594,101.7142857142857
254.8491917068179,594,101.1845238095238
255.44844030220463,594,101.7313748079877
256.0289623789855,603,101.20161290322581
256.6282109743723,584,100.68815136476427
257.2368228290619,603,99.09807692307692
257.8454346837516,613,98.58461538461538
258.4540465384413,613,98.58461538461538
259.0626583931309,613,98.58461538461538
259.6712702478206,613,97.60367393800229
260.29860862111605,613,97.60367393800229
260.90722047580573,632,97.10577184010019
261.52519558979833,613,97.10577184010019
262.1525339630938,622,97.61923337856173
262.75178255848056,632,99.16035891968727
263.34166789456435,603,100.6547619047619
263.9409164899511,594,100.14130036630036
264.54952834464075,603,98.11713547646383
265.17686671793626,613,96.6227324913892
265.8042050912318,632,95.64179104477613
266.43154346452724,632,96.12483039348712
267.04951857851984,632,96.60786974219809
267.66749369251244,622,96.60786974219809
268.2948320658079,622,96.1248303934871
268.9221704391034,632,95.64179104477613
269.54950881239887,632,96.12483039348712
270.16748392639147,632,97.10577184010019
270.77609578108115,622,99.12993672993672
271.36598111716495,613,99.62783882783881
271.97459297185463,594,99.62783882783881
272.58320482654426,613,98.58461538461538
273.19181668123395,613,99.09807692307692
273.79106527662066,613,100.14130036630036
274.3809506127045,603,100.6547619047619
274.9801992080912,594,101.1845238095238
275.5700845441751,603,100.6547619047619
276.1693331395618,594,99.64339826839826
276.7873082535544,603,98.10227272727272
277.405283367547,622,98.63203463203462
277.9951687036308,622,99.64339826839826
278.59441729901755,594,101.7313748079877
279.17493937579843,603,101.7313748079877
279.7648247118823,584,101.7313748079877
280.364073307269,594,99.64339826839826
280.9820484212616,603,99.11363636363636
281.5812970166483,622,99.64339826839826
282.17118235273216,603,100.6547619047619
282.7704309481189,594,100.6547619047619
283.36967954350564,603,99.61153846153846
283.97829139819527,603,98.60017482517482
284.59626651218787,613,98.08671328671328
285.20487836687755,622,98.60017482517482
285.80412696226426,613,99.61153846153846
286.40337555765103,603,100.125
287.00262415303774,603,99.11363636363636
287.62059926703034,603,97.15040106951871
288.2573008996288,622,96.13903743315507
288.8752760136213,641,96.13903743315507
289.4932511276139,622,97.58881118881118
290.10186298230354,622,98.08671328671328
290.7104748369932,613,97.60367393800229
291.33781321028874,613,97.10577184010019
291.9557883242813,632,96.60786974219809
292.5737634382739,622,97.58881118881118
293.1823752929635,622,98.60017482517482
293.7816238883503,613,99.61153846153846
294.380872483737,603,100.125
294.98012107912376,603,99.61153846153846
295.58873293381345,603,98.11713547646383
296.2160713071089,613,96.6227324913892
296.8434096804044,632,96.6227324913892
297.45202153509405,632,97.10577184010019
298.06999664908665,613,98.08671328671328
298.67860850377633,622,98.08671328671328
299.28722035846596,613,98.08671328671328
299.90519547245856,613,97.10577184010019
300.532533845754,622,96.60786974219809
301.1505089597466,632,96.60786974219809
301.7684840737392,622,97.58881118881118
302.37709592842884,622,97.10577184010019
303.00443430172436,613,96.15390018234618
303.6411359343228,632,93.80664743509344
304.296564085527,641,93.80664743509344
304.9239024588225,660,95.25642119074953
305.5325143135122,632,97.60367393800229
306.1411261682018,613,98.08671328671328
306.7591012821944,613,97.10577184010019
307.3864396554899,622,95.20075511769215
308.0325045473912,632,94.71771576898118
308.65984292068674,650,95.69865721559427
309.26845477537637,632,98.11713547646383
309.86770337076314,613,99.09807692307692
310.47631522545277,603,99.09807692307692
311.08492708014245,613,98.08671328671328
311.70290219413505,613,97.10577184010019
312.3302405674305,622,96.60786974219809
312.9482156814231,632,96.60786974219809
313.5661907954157,622,97.09090909090908
314.18416590940825,622,97.09090909090908
314.80214102340085,622,96.60786974219809
315.4294793966963,622,95.20075511769215
316.07554428859765,632,94.71771576898118
316.70288266189317,650,95.20075511769217
317.3208577758857,632,97.10577184010019
317.9294696305754,622,97.58881118881118
318.547444744568,613,96.63693953105717
319.18414637716637,622,95.18716577540106
319.8208480097648,641,94.70412642669008
320.4481863830603,641,96.15390018234618
321.05679823774994,632,98.11713547646383
321.6560468331367,613,100.68815136476427
322.2365689099176,603,100.68815136476427
322.8451807646073,584,99.67678772840063
323.4631558785998,613,97.58881118881118
324.0811309925924,622,97.09090909090908
324.699106106585,622,97.09090909090908
325.31708122057756,622,98.10227272727272
325.91632981596433,622,99.11363636363636
326.51557841135104,603,100.125
327.1148270067378,603,99.61153846153846
327.72343886142744,603,100.14130036630036
328.3133241975113,613,100.67106227106225
328.9032095335951,594,102.2611367127496
329.483731610376,594,102.80798771121351
330.0642536871569,584,102.80798771121351
330.65413902324076,584,101.21791326952616
331.2627508779304,594,99.12993672993672
331.880725991923,613,97.58881118881118
332.4987011059156,622,97.58881118881118
333.1073129606052,622,97.58881118881118
333.7252880745978,613,98.08671328671328
334.33389992928744,622,97.10577184010019
334.96123830258296,613,97.10577184010019
335.57921341657556,632,96.60786974219809
336.1971885305681,622,97.58881118881118
336.8058003852578,622,99.12993672993672
337.3956857213416,613,101.21791326952616
337.9762077981225,594,102.2611367127496
338.5660931342063,584,101.21791326952616
339.174704988896,594,99.62783882783881
339.7833168435856,613,98.08671328671328
340.4012919575782,613,98.08671328671328
341.0099038122679,622,98.08671328671328
341.61851566695753,613,98.08671328671328
342.23649078095013,613,97.10577184010019
342.8638291542456,622,95.65599808444408
343.500530786844,632,94.70412642669008
344.13723241944246,641,95.18716577540107
344.755207533435,641,96.13903743315507
345.3731826474276,622,97.58881118881118
345.9817945021173,622,97.58881118881118
346.5997696161098,613,97.58881118881118
347.2177447301024,622,96.60786974219809
347.8450831033979,622,95.65599808444408
348.4817847359963,632,95.1729587357331
349.10912310929183,641,95.1729587357331
349.7364614825873,632,96.6227324913892
350.345073337277,632,96.6227324913892
350.9724117105725,613,96.6227324913892
351.59975008386795,632,96.12483039348712
352.21772519786055,632,96.1248303934871
352.84506357115606,622,96.60786974219809
353.4630386851486,632,96.60786974219809
354.0810137991412,622,97.09090909090908
354.69898891313375,622,96.60786974219809
355.32632728642926,622,95.65599808444408
355.9630289190277,632,93.80664743509344
356.61845707023195,641,92.44033613445377
357.27388522143616,660,92.44033613445377
357.9105868540346,660,94.28968678380443
358.5285619680272,641,96.13903743315507
359.14653708201973,622,97.58881118881118
359.7551489367094,622,98.08671328671328
360.36376079139905,613,97.13484162895926
361.0004624239975,613,96.63693953105717
361.6184375379901,641,96.13903743315507
362.2364126519826,622,97.09090909090908
362.8543877659752,622,96.60786974219809
363.48172613927073,622,95.20075511769215
364.127791031172,632,94.24888345993816
364.76449266377045,650,92.88257215929849
365.4199208149747,641,93.80664743509344
366.0472591882702,660,94.27547974413646
366.6745975615657,632,96.6227324913892
367.2832094162554,632,97.10577184010019
367.9011845302479,613,97.58881118881118
368.5191596442405,622,97.58881118881118
369.12777149893014,622,99.12993672993672
369.717656835014,613,100.14130036630036
370.3169054304007,594,101.1845238095238
370.90679076648456,603,99.16035891968727
371.5341291397801,594,97.66595593461264
372.16146751307554,632,94.71771576898118
372.8075324049769,632,95.20075511769217
373.4255075189695,650,96.18169656430524
374.0341193736591,622,99.12993672993672
374.62400470974296,613,99.12993672993672
375.2419798237355,594,98.63203463203462
375.8599549377281,622,97.09090909090908
376.47793005172065,622,97.58881118881118
377.08654190641033,622,98.60017482517482
377.6857905017971,613,100.68815136476427
378.266312578578,603,101.7313748079877
378.85619791466183,584,101.7313748079877
379.45544651004855,594,100.14130036630036
380.06405836473823,603,99.09807692307692
380.67267021942786,613,99.09807692307692
381.2719188148146,613,100.14130036630036
381.8618041508984,603,101.7313748079877
382.44232622767936,594,103.37276825061065
383.0134850451573,584,106.2955925527453
383.55655408472654,575,108.04736948002797
384.10898638359873,547,108.63097603740502
384.6707819417738,556,107.40338983050846
385.23257749994883,566,106.21639344262294
385.80373631742685,566,105.6327868852459
386.3748951349048,575,103.9375487900078
386.96478047098867,575,101.78269380892331
387.5733923256783,594,99.62783882783881
388.182004180368,613,97.60367393800229
388.8093425536635,613,97.60367393800229
389.4179544083531,632,97.60367393800229
390.0265662630428,613,98.58461538461538
390.63517811773244,613,97.60367393800229
391.26251649102795,613,96.6227324913892
391.88985486432347,632,96.12483039348712
392.507829978316,632,97.10577184010019
393.1164418330057,622,97.10577184010019
393.74378020630115,613,96.6227324913892
394.37111857959667,632,96.12483039348712
394.98909369358927,632,96.1248303934871
395.6164320668847,622,96.1248303934871
396.24377044018024,632,96.12483039348712
396.86174555417284,632,97.10577184010019
397.47035740886247,622,98.08671328671328
398.07896926355215,613,97.60367393800229
398.7063076368476,613,96.15390018234618
399.34300926944604,632,95.1729587357331
399.97034764274156,641,95.1729587357331
400.597686016037,632,96.6227324913892
401.2062978707267,632,98.11713547646383
401.80554646611347,613,99.09807692307692
402.4141583208031,603,99.09807692307692
403.0227701754928,613,98.58461538461538
403.6313820301824,613,99.09807692307692
404.2306306255692,613,99.61153846153846
404.8298792209559,603,99.11363636363636
405.4478543349485,603,98.10227272727272
406.0658294489411,622,96.13903743315507
406.70253108153946,622,95.18716577540106
407.3392327141379,641,94.70412642669008
407.9665710874334,641,95.1729587357331
408.59390946072887,632,96.12483039348712
409.21188457472147,632,96.60786974219809
409.829859688714,622,96.60786974219809
410.4571980620095,622,95.65599808444408
411.09389969460796,632,95.1729587357331
411.7212380679034,641,95.6559980844441
412.339213181896,632,96.60786974219809
412.9571882958886,622,97.09090909090908
413.57516340988116,622,97.58881118881118
414.18377526457084,622,97.58881118881118
414.8017503785634,613,98.08671328671328
415.41036223325307,622,97.58881118881118
416.02833734724567,613,97.10577184010019
416.6556757205411,622,95.65599808444408
417.29237735313956,632,93.37686876306125
417.95716876364673,641,92.90803645401822
418.59387039624517,669,93.85990811177223
419.2118455102377,641,96.13903743315507
419.8298206242303,622,97.58881118881118
420.43843247891994,622,98.08671328671328
421.0470443336096,613,98.08671328671328
421.6650194476022,613,98.08671328671328
422.27363130229185,622,98.60017482517482
422.8728798976786,613,99.09807692307692
423.48149175236824,603,99.61153846153846
424.080740347755,613,98.60017482517482
424.69871546174755,603,97.61923337856173
425.32605383504307,622,95.20075511769215
425.9721187269444,632,93.79364049318625
426.6181836188457,650,93.79364049318623
427.2455219921412,650,94.24888345993816
427.88222362473965,632,94.70412642669008
428.518925257338,641,94.70412642669008
429.14626363063354,641,95.6559980844441
429.76423874462614,632,96.60786974219809
430.3822138586187,622,98.10227272727272
430.98146245400545,622,98.60017482517482
431.5900743086951,603,98.60017482517482
432.2080494226877,613,97.10577184010019
432.8353877959832,622,96.1248303934871
433.46272616927865,632,96.12483039348712
434.08070128327125,632,96.1248303934871
434.70803965656677,622,96.1248303934871
435.3353780298622,632,95.1729587357331
435.97207966246066,632,95.1729587357331
436.5994180357562,641,96.15390018234618
437.2080298904458,632,98.11713547646383
437.80727848583257,613,99.09807692307692
438.4158903405222,603,98.60017482517482
439.0338654545148,613,97.58881118881118
439.6518405685074,622,97.09090909090908
440.26981568249994,622,97.09090909090908
440.88779079649254,622,96.60786974219809
441.515129169788,622,96.60786974219809
442.1331042837806,632,96.1248303934871
442.7604426570761,622,96.1248303934871
443.38778103037157,632,95.64179104477613
444.0151194036671,632,96.12483039348712
444.6330945176597,632,97.10577184010019
445.2417063723493,622,98.60017482517482
445.8409549677361,613,99.61153846153846
446.4402035631228,603,99.61153846153846
447.0488154178125,603,98.60017482517482
447.666790531805,613,97.58881118881118
448.2847656457976,622,97.09090909090908
448.9027407597902,622,98.63203463203462
449.492626095874,622,99.64339826839826
450.0918746912608,594,100.6547619047619
450.6911232866475,603,100.125
451.29037188203426,603,99.61153846153846
451.8989837367239,603,100.14130036630036
452.48886907280774,613,100.67106227106225
453.07875440889154,594,101.7142857142857
453.6686397449754,594,101.1845238095238
454.2678883403621,594,100.6547619047619
454.8671369357489,603,99.11363636363636
455.4851120497414,603,98.10227272727272
456.103087163734,622,97.58881118881118
456.7116990184237,622,99.12993672993672
457.3015843545075,613,100.67106227106225
457.89146969059135,594,101.1845238095238
458.49071828597806,594,99.64339826839826
459.10869339997066,603,98.60017482517482
459.7173052546603,622,97.58881118881118
460.3352803686529,613,98.08671328671328
460.9438922233426,622,98.08671328671328
461.5525040780322,613,98.58461538461538
462.1611159327219,613,98.08671328671328
462.7790910467144,613,96.63693953105717
463.41579267931286,622,95.18716577540106
464.0524943119113,641,94.23529411764706
464.68919594450966,641,94.70412642669008
465.3165343178052,641,94.70412642669008
465.9532359504036,632,94.70412642669008
466.589937583002,641,93.78005115089513
467.23600247490333,641,93.32480818414322
467.8820673668047,650,94.27667984189722
468.5000424807972,650,95.68379446640316
469.1180175947898,622,97.58881118881118
469.7266294494795,622,97.58881118881118
470.34460456347205,613,96.63693953105717
470.9813061960705,622,94.73192280864913
471.6273710879718,641,94.24888345993816
472.2547094612673,650,94.71771576898118
472.8820478345628,632,97.13619402985074
473.48129642994957,632,98.63059701492537
474.0805450253363,603,99.61153846153846
474.68915688002596,603,99.09807692307692
475.2977687347156,613,98.08671328671328
475.9157438487082,613,98.08671328671328
476.5243557033978,622,99.12993672993672
477.11424103948167,613,99.12993672993672
477.73221615347427,594,99.64339826839826
478.331464748861,622,97.15040106951871
478.9681663814594,603,96.1985294117647
479.6048680140578,641,94.70412642669008
480.2322063873533,641,94.70412642669008
480.86890801995173,632,95.1729587357331
481.4962463932472,641,94.24888345993816
482.14231128514854,632,93.35140446834151
482.7977394363528,650,92.42732919254658
483.44380432825415,660,91.98509316770185
484.09923247945835,650,92.42732919254658
484.7452973713597,660,93.35140446834151
485.3726357446552,650,95.20075511769217
485.99061085864776,632,95.65599808444408
486.6273124912462,622,95.65599808444408
487.2546508645417,641,95.6559980844441
487.87262597853424,632,95.65599808444408
488.5093276111327,622,96.13903743315507
489.1273027251253,641,96.63693953105717
489.7359145798149,622,98.08671328671328
490.3445264345046,613,98.58461538461538
490.9531382891942,613,98.08671328671328
491.5711134031868,613,97.10577184010019
492.19845177648233,622,96.60786974219809
492.8164268904749,632,97.61923337856173
493.41567548586164,622,98.60017482517482
494.02428734055127,603,99.09807692307692
494.63289919524095,613,98.08671328671328
495.25087430923355,613,97.58881118881118
495.8688494232261,622,96.60786974219809
496.4961877965216,622,96.60786974219809
497.11416291051415,632,97.10577184010019
497.72277476520384,622,98.08671328671328
498.3313866198935,613,99.09807692307692
498.93063521528023,613,100.14130036630036
499.5205205513641,603,100.6547619047619
500.1197691467508,594,100.6547619047619
500.71901774213757,603,100.125
501.3182663375243,603,100.6547619047619
501.90815167360813,603,101.1845238095238
502.4980370096919,594,101.7142857142857
503.0879223457758,594,101.1845238095238
503.6871709411625,594,99.64339826839826
504.3051460551551,603,97.61923337856173
504.9324844284506,622,95.65599808444408
505.569186061049,632,96.15390018234618
506.17779791573867,641,97.13484162895926
506.7864097704283,613,99.09807692307692
507.38565836581506,613,100.14130036630036
507.97554370189886,603,101.1845238095238
508.5654290379827,594,102.2611367127496
509.1459511147636,594,103.37276825061065
509.7171099322416,584,104.4843997884717
510.2882687497196,575,105.04918032786884
510.8594275671976,575,105.04918032786884
511.43058638467556,575,103.9375487900078
512.0204717207594,575,102.82591725214675
512.6103570568432,594,102.2611367127496
513.1908791336241,594,101.7313748079877
513.7901277290108,584,101.7313748079877
514.3800130650947,603,101.1845238095238
514.9698984011785,594,101.7142857142857
515.5597837372624,594,100.67106227106225
516.1683955919519,594,100.67106227106225
516.7582809280358,613,100.67106227106225
517.3481662641196,594,102.2611367127496
517.9286883409005,594,102.2611367127496
518.5185736769844,584,102.2611367127496
519.1084590130682,594,101.7142857142857
519.698344349152,594,101.1845238095238
520.2975929445388,594,101.7313748079877
520.8781150213197,603,102.27822580645162
521.4586370981006,584,103.35483870967742
522.0391591748814,584,102.80798771121351
522.6290445109653,584,101.7313748079877
523.228293106352,594,99.64339826839826
523.8462682203447,603,99.64339826839826
524.4361535564284,622,100.17316017316016
525.0260388925122,594,101.7142857142857
525.6159242285961,594,102.2611367127496
526.196446305377,594,102.2611367127496
526.7863316414608,584,102.2611367127496
527.3762169775447,594,102.2611367127496
527.9567390543256,594,103.37276825061065
528.5278978718036,584,104.4843997884717
529.0990566892815,575,104.4843997884717
529.6795787660625,575,103.37276825061065
530.2694641021462,584,101.7313748079877
530.868712697533,594,100.14130036630036
531.4773245522226,603,100.14130036630036
532.0672098883065,613,100.14130036630036
532.6664584836932,594,101.7313748079877
533.2469805604742,603,101.20161290322581
533.8462291558609,584,101.20161290322581
534.4454777512476,603,100.125
535.0447263466343,603,100.6547619047619
535.6346116827182,603,101.1845238095238
536.224497018802,594,102.82591725214675
536.79565583628,594,103.37276825061066
537.3761779130609,575,103.91961924907456
537.9566999898418,584,102.80798771121351
538.5465853259257,584,103.9563748079877
539.1083808841007,594,105.10476190476189
539.6701764422758,566,106.79999999999998
540.2319720004508,566,107.40338983050846
540.784404299323,566,109.27707404103478
541.3181100795894,556,110.50466024793134
541.8611791191586,537,111.77495462794919
542.3948848994248,547,111.77495462794919
542.9285906796912,537,111.77495462794919
543.4716597192604,537,109.90127041742286
544.0334552774355,547,106.87919911012236
544.6139773542164,566,102.91315136476426
545.222589208906,584,99.19374837968964
545.8499275822015,613,96.15390018234618
546.4866292148,632,96.15390018234618
547.0952410694896,641,98.1780650721827
547.6851264055734,613,99.62783882783881
548.2937382602631,594,98.64689738122573
548.9210766335586,613,96.15390018234618
549.557778266157,632,94.70412642669008
550.1944798987554,641,95.68506787330315
550.8030917534451,641,97.13484162895926
551.4117036081348,613,99.09807692307692
552.0109522035215,613,98.60017482517482
552.6289273175141,603,97.15040106951871
553.2656289501125,622,95.65599808444408
553.892967323408,641,95.1729587357331
554.5203056967035,632,96.6227324913892
555.1289175513931,632,97.60367393800229
555.7375294060828,613,99.62783882783881
556.3274147421666,613,99.12993672993672
556.9453898561592,594,98.63203463203462
557.5633649701517,622,96.13903743315507
558.2000666027502,622,95.18716577540106
558.8367682353486,641,94.70412642669008
559.4641066086441,641,94.70412642669008
560.1008082412425,632,95.1729587357331
560.728146614538,641,95.6559980844441
561.3461217285305,632,95.65599808444408
561.982823361129,622,95.65599808444408
562.6101617344245,641,96.15390018234618
563.2187735891141,632,97.10577184010019
563.8367487031068,613,98.60017482517482
564.4359972984935,622,98.60017482517482
565.0446091531832,603,99.09807692307692
565.6532210078728,613,96.67959866220735
566.2992858997741,613,94.3323459149546
566.9547140509784,650,92.88257215929849
567.5914156835768,660,94.28968678380443
568.2093907975693,641,95.18716577540106
568.8460924301678,622,94.73192280864913
569.4921573220691,641,93.78005115089513
570.1288589546675,650,92.88257215929849
570.7842871058717,641,93.33781512605042
571.4209887384702,660,93.33781512605042
572.0576903710686,641,95.18716577540107
572.6756654850611,641,95.18716577540106
573.3123671176596,622,95.18716577540106
573.949068750258,641,93.33781512605042
574.6044969014623,641,93.33781512605042
575.2411985340607,660,94.28968678380443
575.8591736480532,641,96.63693953105717
576.4677855027429,622,97.58881118881118
577.0857606167355,613,98.08671328671328
577.6943724714251,622,97.10577184010019
578.3217108447207,613,95.69865721559427
578.967775736622,632,94.71771576898118
579.5951141099175,650,94.71771576898118
580.2224524832129,632,95.64179104477613
580.8497908565084,632,95.1729587357331
581.4864924891069,632,95.1729587357331
582.1138308624023,641,95.6559980844441
582.731805976395,632,97.10577184010019
583.3404178310846,622,98.60017482517482
583.9396664264714,613,99.09807692307692
584.5482782811611,603,99.09807692307692
585.1568901358506,613,98.58461538461538
585.7655019905403,613,99.09807692307692
586.364750585927,613,99.09807692307692
586.9733624406167,603,99.09807692307692
587.5819742953064,613,98.08671328671328
588.1999494092989,613,98.08671328671328
588.8085612639886,622,97.10577184010019
589.4358996372841,613,96.6227324913892
590.0632380105797,632,95.1729587357331
590.699939643178,632,95.1729587357331
591.3272780164735,641,96.66736172080772
591.9265266118603,632,99.70720991815118
592.5070486886411,603,103.4266129032258
593.0688442468163,584,106.87919911012236
593.6119132863855,566,109.2551724137931
594.1549823259547,547,110.48275862068967
594.698051365524,547,109.2551724137931
595.259846923699,547,106.33234811165845
595.8497322597829,566,103.9563748079877
596.4302543365637,594,102.80798771121351
597.0107764133446,584,102.27822580645162
597.6100250087314,584,100.68815136476427
598.218636863421,603,99.09807692307692
598.8272487181107,613,98.08671328671328
599.4452238321034,613,97.58881118881118
600.0631989460959,622,97.09090909090908
600.6811740600884,622,97.58881118881118
601.2897859147781,622,97.58881118881118
601.9077610287707,613,97.58881118881118
602.5257361427633,622,97.09090909090908
603.1437112567559,622,97.58881118881118
603.7523231114455,622,98.08671328671328
604.3609349661351,613,99.09807692307692
604.960183561522,613,99.09807692307692
605.5687954162115,603,98.60017482517482
606.1867705302042,613,98.08671328671328
606.7953823848939,622,97.10577184010019
607.4227207581893,613,97.10577184010019
608.0406958721819,632,96.60786974219809
608.6586709861745,622,97.58881118881118
609.2672828408641,622,98.08671328671328
609.8758946955538,613,98.58461538461538
610.4845065502434,613,97.13484162895926
611.1212081828419,613,96.15390018234618
611.7485465561374,641,95.6559980844441
612.3665216701299,632,96.1248303934871
612.9938600434255,622,96.1248303934871
613.6211984167209,632,95.64179104477613
614.2485367900164,632,97.13619402985074
614.8477853854032,632,99.16035891968727
615.4376707214869,603,101.7313748079877
616.0181927982679,594,102.2611367127496
616.6080781343517,584,101.7313748079877
617.2073267297385,594,99.64339826839826
617.825301843731,603,97.15040106951871
618.4620034763294,622,94.73192280864913
619.1080683682308,641,93.78005115089513
619.7447700008291,650,93.78005115089513
620.3814716334276,641,94.23529411764706
621.018173266026,641,94.23529411764706
621.6548748986244,641,95.18716577540107
622.272850012617,641,95.65599808444408
622.9001883859125,622,97.10577184010019
623.5088002406021,632,96.6227324913892
624.1361386138976,613,96.6227324913892
624.7634769871931,632,94.71771576898118
625.4095418790945,632,93.79364049318625
626.0556067709958,650,92.86956521739128
626.7016716628972,650,92.42732919254657
627.3570998141014,650,92.88257215929849
627.9938014466998,660,93.80664743509344
628.6211398199953,641,95.1729587357331
629.2484781932908,632,95.1729587357331
629.8851798258892,632,94.70412642669008
630.5218814584877,641,95.18716577540107
631.1398565724802,641,96.63693953105717
631.7484684271699,622,98.08671328671328
632.3570802818596,613,98.58461538461538
632.9656921365491,613,98.58461538461538
633.5743039912388,613,97.60367393800229
634.2016423645343,613,96.15390018234618
634.8383439971327,632,95.6559980844441
635.4563191111254,641,96.13903743315507
636.0742942251179,622,97.09090909090908
636.6922693391105,622,96.60786974219809
637.319607712406,622,95.65599808444408
637.9563093450043,632,94.70412642669008
638.5930109776028,641,94.23529411764706
639.2297126102012,641,93.78005115089513
639.8757775021026,641,93.78005115089513
640.5124791347009,650,92.88257215929849
641.1679072859052,641,92.88257215929849
641.8139721778066,660,91.98509316770185
642.4694003290108,650,92.42732919254658
643.1154652209121,660,91.98509316770185
643.7708933721163,650,92.88257215929849
644.4075950047148,660,93.80664743509344
645.0349333780102,641,95.1729587357331
645.6622717513058,632,95.1729587357331
646.2989733839042,632,95.6559980844441
646.9169484978968,641,96.13903743315507
647.5349236118893,622,98.10227272727272
648.134172207276,622,98.60017482517482
648.7427840619657,603,99.61153846153846
649.3420326573524,613,99.09807692307692
649.9506445120421,603,99.09807692307692
650.5592563667318,613,97.60367393800229
651.1865947400273,613,97.10577184010019
651.8045698540199,632,96.1248303934871
652.4319082273154,622,97.61923337856173
653.0311568227021,632,99.16035891968727
653.6210421587859,603,101.7313748079877
654.2015642355668,594,101.7313748079877
654.8008128309536,584,101.7313748079877
655.3906981670374,603,101.7313748079877
655.9712202438183,594,102.80798771121351
656.5517423205993,584,103.35483870967742
657.1322643973801,584,103.91961924907457
657.7034232148582,584,103.91961924907456
658.283945291639,575,102.32954480738721
658.8925571463287,584,100.17468982630272
659.5011690010183,613,97.60367393800229
660.1285073743138,613,96.6227324913892
660.7558457476093,632,95.1729587357331
661.3925473802077,632,95.1729587357331
662.0198857535032,641,95.1729587357331
662.6472241267987,632,96.12483039348712
663.2651992407913,632,96.60786974219809
663.8831743547839,622,97.58881118881118
664.4917862094736,622,99.12993672993672
665.0816715455574,613,100.67106227106225
665.6715568816412,594,101.1845238095238
666.2708054770279,594,101.1845238095238
666.8606908131118,603,99.64339826839826
667.4786659271043,594,98.14899528332363
668.1060043003998,622,96.60786974219809
668.7239794143924,632,97.61923337856173
669.3232280097792,622,99.11363636363636
669.9224766051659,603,100.6547619047619
670.5123619412498,603,100.6547619047619
671.1116105366365,594,100.14130036630036
671.7202223913262,603,98.60017482517482
672.3381975053187,613,98.08671328671328
672.9468093600084,622,98.60017482517482
673.5460579553951,613,98.60017482517482
674.1640330693876,603,99.11363636363636
674.7632816647745,622,98.10227272727272
675.381256778767,603,97.61923337856173
676.0085951520625,622,97.61923337856173
676.6078437474492,632,98.63059701492537
677.207092342836,603,100.125
677.8063409382228,603,99.61153846153846
678.4149527929123,603,99.09807692307692
679.023564647602,613,99.09807692307692
679.6228132429887,613,100.14130036630036
680.2126985790726,603,101.1845238095238
680.8025839151564,594,102.2611367127496
681.3831059919373,594,101.7313748079877
681.982354587324,584,100.19024926686217
682.6003297013167,603,98.10227272727272
683.2183048153092,622,97.58881118881118
683.8269166699989,622,99.12993672993672
684.4168020060828,613,100.67106227106225
685.0066873421665,594,101.1845238095238
685.6059359375533,594,100.6547619047619
686.20518453294,603,99.61153846153846
686.8137963876297,603,100.14130036630036
687.4036817237135,613,101.21791326952616
687.9842038004945,594,102.80798771121351
688.5647258772754,584,102.80798771121351
689.1546112133592,584,102.2611367127496
689.7444965494429,594,101.1845238095238
690.3437451448298,594,100.6547619047619
690.9429937402165,603,100.6547619047619
691.5328790763003,603,101.7313748079877
692.1134011530812,594,102.2611367127496
692.7032864891651,584,101.7313748079877
693.3025350845518,594,99.64339826839826
693.9205101985443,603,97.61923337856173
694.5478485718398,622,96.60786974219809
695.1658236858324,632,96.60786974219809
695.783798799825,622,97.58881118881118
696.3924106545146,622,97.58881118881118
697.0103857685073,613,97.58881118881118
697.6283608824998,622,95.24155844155842
698.283789033704,622,93.39220779220777
698.9392171849083,660,91.11307847082495
699.6040085954155,660,90.68329979879275
700.2688000059227,669,90.68329979879275
700.9242281571269,669,91.11307847082493
701.5796563083311,660,91.98509316770185
702.2257212002324,660,93.35140446834151
702.853059573528,650,95.20075511769217
703.4710346875205,632,96.60786974219809
704.0890098015132,622,96.13903743315507
704.7257114341115,622,95.18716577540106
705.3624130667099,641,93.78005115089513
706.0084779586113,641,92.4527934872663
706.6732693691184,650,91.12553582363748
707.3380607796256,669,91.12553582363748
707.984125671527,669,91.12553582363748
708.6489170820341,650,92.4527934872663
709.2856187146325,669,92.90803645401822
709.922320347231,641,94.70412642669008
710.5496587205264,641,95.6559980844441
711.167633834519,632,96.1248303934871
711.7949722078145,622,96.1248303934871
712.42231058111,632,95.1729587357331
713.0590122137085,632,94.70412642669008
713.6957138463068,641,93.78005115089513
714.3417787382082,641,93.78005115089513
714.9784803708066,650,94.24888345993816
715.6058187441021,641,94.70412642669008
716.2425203767004,632,94.70412642669008
716.8792220092989,641,95.18716577540107
717.4971971232915,641,95.65599808444408
718.124535496587,622,96.60786974219809
718.7425106105795,632,96.60786974219809
719.3604857245721,622,97.58881118881118
719.9690975792618,622,98.08671328671328
720.5777094339514,613,99.09807692307692
721.1769580293382,613,99.09807692307692
721.7855698840278,603,99.61153846153846
722.3848184794145,613,100.14130036630036
722.9747038154984,603,101.7313748079877
723.5552258922793,594,101.7313748079877
724.1544744876661,584,99.70720991815118
724.7818128609615,603,97.13619402985074
725.409151234257,632,95.64179104477613
726.0364896075525,632,96.6227324913892
726.6451014622422,632,98.11713547646383
727.2443500576289,613,100.14130036630036
727.8342353937128,603,101.1845238095238
728.4241207297966,594,101.1845238095238
729.0233693251834,594,99.64339826839826
729.6413444391759,603,98.60017482517482
730.2499562938656,622,98.60017482517482
730.8492048892523,613,100.14130036630036
731.4390902253361,603,101.7313748079877
732.019612302117,594,101.7313748079877
732.6188608975037,584,100.19024926686217
733.2368360114964,603,98.10227272727272
733.8548111254889,622,97.58881118881118
734.4634229801786,622,97.58881118881118
735.0813980941712,613,98.08671328671328
735.6900099488608,622,98.08671328671328
736.2986218035505,613,98.58461538461538
736.9072336582402,613,97.60367393800229
737.5345720315356,613,97.10577184010019
738.1525471455283,632,97.10577184010019
738.7611590002178,622,97.10577184010019
739.3884973735134,613,96.6227324913892
740.0158357468089,632,94.27547974413646
740.6712638980132,632,92.9091684434968
741.3266920492174,660,92.9091684434968
741.9540304225129,660,94.27547974413646
742.5813687958084,632,97.13619402985074
743.1806173911951,632,99.16035891968727
743.770502727279,603,100.14130036630036
744.3791145819686,594,99.62783882783881
744.9877264366582,613,97.60367393800229
745.6150648099538,613,97.60367393800229
746.2236766646434,632,98.64689738122573
746.8135620007273,613,100.67106227106225
747.403447336811,594,102.2611367127496
747.9839694135919,594,102.80798771121351
748.5644914903729,584,102.80798771121351
749.1543768264567,584,102.2611367127496
749.7442621625405,594,101.1845238095238
750.3435107579272,594,101.7313748079877
750.9240328347082,603,101.7313748079877
751.513918170792,584,102.2611367127496
752.1038035068758,594,101.7142857142857
752.6936888429597,594,100.67106227106225
753.3023006976493,594,97.28058608058606
753.9577288488535,613,94.3323459149546
754.6037937407549,660,91.98509316770185
755.2592218919591,650,92.42732919254658
755.9052867838604,660,93.8344438170525
756.5232618978531,650,95.20075511769217
757.1506002711485,622,95.65599808444408
757.787301903747,632,95.1729587357331
758.4146402770425,641,94.70412642669008
759.0513419096409,632,94.70412642669008
759.6880435422393,641,94.70412642669008
760.3153819155348,641,96.15390018234618
760.9239937702245,632,97.60367393800229
761.5326056249141,613,98.58461538461538
762.1412174796037,613,98.58461538461538
762.7498293342934,613,98.08671328671328
763.3678044482859,613,98.08671328671328
763.9764163029756,622,98.08671328671328
764.5850281576653,613,99.09807692307692
765.184276753052,613,98.60017482517482
765.8022518670447,603,98.60017482517482
766.4108637217342,622,97.58881118881118
767.0288388357269,613,97.10577184010019
767.6561772090224,622,96.60786974219809
768.274152323015,632,97.10577184010019
768.8827641777046,622,98.08671328671328
769.4913760323942,613,98.58461538461538
770.0999878870839,613,99.09807692307692
770.6992364824706,613,99.09807692307692
771.3078483371603,603,99.09807692307692
771.91646019185,613,98.58461538461538
772.5250720465397,613,98.58461538461538
773.1336839012293,613,98.08671328671328
773.7516590152219,613,97.10577184010019
774.3789973885174,622,96.60786974219809
774.99697250251,632,96.60786974219809
775.6149476165025,622,96.60786974219809
776.242285989798,622,96.60786974219809
776.8602611037907,632,96.60786974219809
777.4782362177832,622,97.58881118881118
778.0868480724729,622,97.10577184010019
778.7141864457683,613,97.10577184010019
779.332161559761,632,96.60786974219809
779.9501366737535,622,97.58881118881118
780.5587485284432,622,97.10577184010019
781.1860869017387,613,96.15390018234618
781.8227885343371,632,94.70412642669008
782.4594901669354,641,95.18716577540107
783.0774652809281,641,95.65599808444408
783.7048036542235,622,95.65599808444408
784.341505286822,632,95.6559980844441
784.9594804008145,641,96.13903743315507
785.5774555148071,622,96.60786974219809
786.2047938881026,622,97.10577184010019
786.8134057427923,632,99.75852891908679
787.3845645602703,613,102.89432534678437
787.9557233777482,575,106.86037309214245
788.4987924173175,575,108.04736948002797
789.0512247161896,547,108.63097603740502
789.6130202743647,556,105.17838983050846
790.2122688697515,566,102.87976190476189
790.8021542058352,603,101.1845238095238
791.3920395419191,594,100.67106227106225
792.0006513966088,594,98.64689738122573
792.6279897699043,613,95.69865721559427
793.2740546618056,632,94.71771576898118
793.9013930351011,650,95.20075511769217
794.5193681490937,632,97.61923337856173
795.1186167444804,622,98.60017482517482
795.7272285991701,603,97.6483031674208
796.3639302317684,613,94.35781020967433
797.0287216422756,641,90.7565457207386
797.7122395713886,669,89.01144768152292
798.3863942411988,688,89.01144768152292
799.0511856517059,679,90.70769544805061
799.6972505436072,669,91.55531449566966
800.3526786948115,650,91.98509316770185
801.0081068460157,660,91.54285714285713
801.6635349972199,660,91.11307847082495
802.3283264077271,660,92.01055746242157
802.9650280403256,669,93.37686876306124
803.5923664136211,641,95.6559980844441
804.2103415276137,632,96.60786974219809
804.8283166416062,622,96.60786974219809
805.4556550149017,622,95.65599808444408
806.0923566475001,632,94.70412642669008
806.7290582800986,641,94.70412642669008
807.356396653394,641,94.70412642669008
807.9930982859925,632,93.80664743509344
808.6485264371967,641,92.44033613445377
809.303954588401,660,90.69523809523808
809.978109258211,660,90.2654594232059
810.6429006687182,679,90.70769544805061
811.2889655606195,669,92.4527934872663
811.9256671932179,650,92.88257215929849
812.5810953444222,641,92.88257215929849
813.2271602363235,660,91.98509316770185
813.8825883875278,650,92.42732919254658
814.5286532794291,660,93.35140446834151
815.1559916527245,650,93.79364049318625
815.8020565446259,632,93.79364049318625
816.4481214365272,650,92.86956521739128
817.0941863284286,650,93.32480818414321
817.730887961027,650,93.78005115089513
818.3675895936254,641,95.18716577540107
818.985564707618,641,95.65599808444408
819.6129030809135,622,96.1248303934871
820.240241454209,632,95.1729587357331
820.8769430868074,632,94.24888345993816
821.5230079787087,641,93.78005115089513
822.1597096113071,650,94.24888345993816
822.7870479846026,641,95.6559980844441
823.4050230985952,632,96.1248303934871
824.0323614718907,622,97.10577184010019
824.6409733265804,632,97.10577184010019
825.2589484405729,613,97.10577184010019
825.8862868138684,622,97.61923337856173
826.4855354092551,632,98.11713547646383
827.0941472639448,603,98.60017482517482
827.7121223779374,613,96.18169656430524
828.3581872698387,622,93.8344438170525
829.013615421043,650,91.55531449566966
829.6784068315502,660,91.55531449566965
830.3244717234516,669,91.99755052051438
830.9705366153528,650,93.79364049318623
831.5978749886483,650,95.69865721559427
832.206486843338,632,97.60367393800229
832.8150986980277,613,98.08671328671328
833.4330738120202,613,96.18169656430524
834.0791387039216,622,93.40466514502032
834.7439301144287,650,90.70769544805061
835.4180847842388,669,89.8356807511737
836.082876194746,679,89.41784037558685
836.7570308645561,669,88.61603857378505
837.449912052972,679,87.01153153153152
838.1521565006908,698,85.4501280227596
838.8637642077126,707,85.84553713049746
839.5472821368256,716,88.77730183637982
840.183983769424,688,91.1863243927708
840.8394119206282,641,93.80664743509344
841.4667502939237,660,95.25642119074953
842.0753621486134,632,97.10577184010019
842.693337262606,613,98.08671328671328
843.3019491172956,622,96.63693953105717
843.938650749894,613,97.6483031674208
844.5378993452808,641,98.16176470588235
845.1371479406675,603,99.11363636363636
845.7551230546601,603,97.61923337856173
846.3824614279556,622,96.1248303934871
847.0097998012511,632,94.71771576898118
847.6558646931525,632,94.24888345993816
848.2925663257508,650,93.32480818414322
848.9386312176522,641,92.88257215929849
849.5940593688564,650,92.42732919254658
850.2401242607577,660,91.55531449566966
850.9049156712649,650,90.70769544805061
851.579070341075,669,90.2654594232059
852.2344984922793,679,90.2654594232059
852.8992899027864,660,90.68329979879275
853.5640813132936,669,90.25352112676056
854.2288727238008,669,89.8356807511737
854.9030273936108,669,89.41784037558685
855.5771820634209,679,89.0
856.251336733231,679,89.41784037558685
856.9161281437382,679,89.41784037558685
857.5902828135482,669,89.8356807511737
858.2550742240554,679,89.41784037558685
858.9292288938655,669,90.2654594232059
859.5846570450698,679,91.1374741200828
860.2307219369711,660,93.35140446834151
860.8580603102666,650,94.71771576898118
861.485398683562,632,95.64179104477613
862.1127370568576,632,95.1729587357331
862.749438689456,632,94.24888345993816
863.3955035813573,641,92.88257215929849
864.0509317325616,650,92.88257215929849
864.68763336516,660,92.88257215929849
865.3336982570613,641,93.78005115089513
865.9703998896597,650,94.24888345993816
866.5977382629552,641,94.24888345993816
867.2438031548566,632,94.24888345993816
867.8805047874549,650,94.24888345993816
868.5078431607504,641,94.70412642669008
869.1445447933489,632,95.6559980844441
869.7625199073415,641,96.13903743315507
870.380495021334,622,97.09090909090908
870.9984701353266,622,96.60786974219809
871.6258085086221,622,96.1248303934871
872.2531468819176,632,96.12483039348712
872.8711219959101,632,96.60786974219809
873.4890971099028,622,97.09090909090908
874.1070722238953,622,96.60786974219809
874.7344105971908,622,97.10577184010019
875.3430224518805,632,97.10577184010019
875.9609975658731,613,97.10577184010019
876.5883359391686,622,95.65599808444408
877.225037571767,632,95.6559980844441
877.8430126857595,641,96.63693953105717
878.4516245404492,622,98.08671328671328
879.0602363951389,613,98.08671328671328
879.6782115091314,613,96.63693953105717
880.3149131417299,622,94.28968678380441
880.9703412929341,641,92.88257215929849
881.6164061848355,660,92.88257215929849
882.2531078174338,650,94.24888345993816
882.8804461907293,641,95.1729587357331
883.5077845640249,632,95.1729587357331
884.1444861966232,632,94.70412642669008
884.7811878292217,641,95.18716577540107
885.3991629432143,641,95.65599808444408
886.0265013165098,622,97.10577184010019
886.6351131711995,632,97.60367393800229
887.243725025889,613,97.60367393800229
887.8710633991845,613,95.69865721559427
888.5171282910859,632,94.24888345993816
889.1538299236843,650,93.78005115089513
889.7905315562828,641,94.70412642669008
890.4178699295783,641,94.70412642669008
891.0545715621766,632,94.70412642669008
891.691273194775,641,93.78005115089513
892.3373380866764,641,93.78005115089513
892.9740397192747,650,94.24888345993816
893.6013780925703,641,96.15390018234618
894.2099899472599,632,97.60367393800229
894.8186018019496,613,98.08671328671328
895.4365769159422,613,95.73946053946052
896.0920050671465,622,93.39220779220777
896.7474332183507,660,91.98509316770185
897.393498110252,660,92.42732919254658
898.0395630021534,650,92.86956521739128
898.6856278940547,650,92.42732919254657
899.3410560452589,650,92.42732919254658
899.9871209371603,660,91.55531449566966
900.6519123476675,650,91.99755052051438
901.2979772395688,669,93.40466514502032
901.9159523535614,650,95.20075511769217
902.5432907268569,622,96.1248303934871
903.1706291001523,632,94.27547974413646
903.8260572513566,632,93.35140446834151
904.4721221432579,660,92.42732919254658
905.1181870351593,650,92.86956521739128
905.7642519270605,650,92.86956521739128
906.4103168189619,650,92.86956521739128
907.0563817108632,650,92.86956521739128
907.7024466027646,650,93.79364049318623
908.3297849760601,650,95.20075511769217
908.9477600900526,632,97.10577184010019
909.5563719447423,622,98.08671328671328
910.164983799432,613,98.58461538461538
910.7735956541217,613,97.60367393800229
911.4009340274171,613,96.15390018234618
912.0376356600156,632,94.70412642669008
912.6743372926139,641,94.23529411764706
913.3110389252123,641,94.23529411764706
913.9477405578108,641,95.18716577540107
914.5657156718033,641,95.65599808444408
915.1930540450988,622,96.1248303934871
915.8203924183944,632,95.64179104477613
916.4477307916899,632,95.1729587357331
917.0844324242883,632,95.1729587357331
917.7117707975838,641,95.1729587357331
918.3391091708793,632,95.64179104477613
918.9664475441747,632,95.64179104477613
919.5937859174702,632,94.71771576898118
920.2398508093715,632,93.79364049318625
920.8859157012729,650,92.42732919254657
921.5413438524771,650,93.35140446834151
922.1686822257726,660,94.27547974413646
922.7960205990681,632,95.64179104477613
923.4233589723636,632,95.64179104477613
924.0506973456592,632,95.64179104477613
924.6780357189546,632,95.64179104477613
925.3053740922501,632,95.64179104477613
925.9327124655456,632,95.64179104477613
926.5600508388411,632,95.64179104477613
927.1873892121366,632,95.64179104477613
927.8147275854321,632,96.12483039348712
928.4327026994247,632,96.1248303934871
929.0600410727202,622,96.1248303934871
929.6873794460157,632,96.6227324913892
930.2959913007053,632,97.10577184010019
930.9139664146979,613,97.10577184010019
931.5413047879933,622,95.65599808444408
932.1780064205918,632,94.70412642669008
932.8147080531902,641,94.70412642669008
933.4420464264857,641,95.1729587357331
934.0693847997812,632,96.12483039348712
934.6873599137738,632,96.60786974219809
935.3053350277663,622,96.60786974219809
935.9326734010618,622,95.20075511769215
936.5787382929632,632,93.35140446834151
937.2341664441674,650,92.42732919254658
937.8802313360687,660,92.88257215929849
938.5169329686672,650,93.78005115089513
939.1536346012656,641,94.70412642669008
939.7809729745611,641,94.24888345993816
940.4270378664625,632,94.24888345993816
941.0637394990608,650,93.32480818414322
941.7098043909622,641,93.78005115089513
942.3465060235606,650,94.24888345993816
942.9738443968561,641,94.70412642669008
943.6105460294544,632,94.24888345993816
944.2566109213558,641,92.4527934872663
944.921402331863,650,90.70769544805061
945.5955570016731,669,89.8356807511737
946.2603484121803,679,90.2654594232059
946.9157765633845,669,91.55531449566965
947.5618414552858,660,91.98509316770185
948.21726960649,650,92.42732919254658
948.8633344983914,660,92.42732919254658
949.5093993902927,650,93.79364049318623
950.1367377635883,650,95.69865721559427
950.7453496182779,632,99.75852891908679
951.3165084357558,613,106.02078904701855
951.8408509567192,575,108.17564402810305
952.4120097741973,528,107.06401249024199
953.0018951102811,575,105.74874155428141
953.5449641498503,594,105.18396101488426
954.1254862266312,547,104.65419911012236
954.7247348220179,584,101.20161290322581
955.3239834174047,603,97.2642857142857
955.979411568609,603,92.75415057915058
956.6722927570249,660,88.24401544401545
957.3651739454408,698,87.3963963963964
958.0393286152508,698,89.48805327066196
958.6853935071522,679,92.98682476943345
959.3033686211448,650,96.18169656430524
959.9119804758344,622,97.58881118881118
960.5299555898271,613,98.08671328671328
961.1385674445168,622,97.58881118881118
961.7565425585093,613,97.10577184010019
962.3838809318048,622,96.1248303934871
963.0112193051002,632,94.27547974413646
963.6666474563045,632,92.47938977146461
964.3314388668117,660,89.46365762140408
965.0243200552276,669,88.20964587972112
965.7078379843406,698,86.99000370233247
966.4007191727566,688,86.99000370233247
967.0936003611724,698,88.24401544401543
967.7490285123766,698,89.4636576214041
968.4138199228838,660,91.11307847082493
969.0692480740881,669,90.68329979879275
969.7340394845953,660,91.11307847082493
970.3894676357995,669,90.68329979879275
971.0542590463067,660,92.01055746242157
971.6909606789051,669,92.90803645401822
972.3276623115036,641,94.23529411764706
972.9643639441019,641,93.78005115089513
973.6104288360033,641,93.32480818414322
974.2564937279046,650,92.86956521739128
974.902558619806,650,92.42732919254657
975.5579867710102,650,92.42732919254658
976.2040516629115,660,92.42732919254658
976.8501165548129,650,92.42732919254657
977.5055447060171,650,91.55531449566966
978.1703361165243,660,91.55531449566965
978.8164010084256,669,91.99755052051438
979.462465900327,650,91.99755052051438
980.1272573108341,650,90.70769544805061
980.8014119806442,669,89.41784037558685
981.4755666504542,679,89.0
982.1497213202643,679,89.84761904761903
982.8051494714686,679,91.59271708683472
983.441851104067,660,93.33781512605042
984.0785527366654,641,95.18716577540107
984.696527850658,641,95.65599808444408
985.3238662239535,622,95.65599808444408
985.9605678565518,632,95.1729587357331
986.5879062298474,641,95.6559980844441
987.20588134384,632,98.14899528332363
987.7957666799238,622,100.72001117162407
988.3762887567048,594,102.80798771121351
988.9568108334856,584,102.80798771121351
989.5466961695695,584,102.2611367127496
990.1365815056532,594,102.2611367127496
990.7171035824342,594,101.7313748079877
991.3163521778209,584,100.68815136476427
991.9249640325106,603,99.09807692307692
992.5335758872002,613,98.08671328671328
993.1515510011928,613,97.58881118881118
993.7695261151854,622,97.09090909090908
994.3875012291779,622,97.09090909090908
995.0054763431706,622,96.13903743315507
995.642177975769,622,96.13903743315507
996.2601530897615,641,95.65599808444408
996.887491463057,622,95.65599808444408
997.5241930956554,632,94.70412642669008
998.1608947282539,641,93.78005115089513
998.8069596201552,641,93.78005115089513
999.4436612527536,650,93.78005115089513
1000.080362885352,641,93.78005115089513
1000.7264277772533,641,93.32480818414322
1001.3724926691547,650,91.99755052051438
1002.0372840796618,650,91.99755052051438
1002.6833489715632,669,91.99755052051438
1003.3294138634645,650,93.32480818414321
1003.9661154960629,650,94.73192280864914
1004.5840906100555,641,96.13903743315507
1005.2020657240481,622,97.09090909090908
1005.8200408380407,622,97.09090909090908
1006.4380159520332,622,96.13903743315507
1007.0747175846317,622,95.18716577540106
1007.7114192172301,641,95.18716577540107
1008.3293943312226,641,96.13903743315507
1008.9473694452153,622,97.09090909090908
1009.5653445592078,622,97.09090909090908
1010.1833196732003,622,97.09090909090908
1010.8012947871929,622,97.09090909090908
1011.4192699011855,622,96.13903743315507
1012.0559715337839,622,95.18716577540106
1012.6926731663823,641,94.70412642669008
1013.3200115396778,641,95.1729587357331
1013.9473499129733,632,94.71771576898118
1014.5934148048747,632,93.79364049318625
1015.239479696776,650,92.86956521739128
1015.8855445886774,650,93.79364049318623
1016.5128829619729,650,94.71771576898118
1017.1402213352683,632,96.6227324913892
1017.748833189958,632,98.64689738122573
1018.3387185260418,613,100.67106227106225
1018.9286038621257,594,101.1845238095238
1019.5278524575124,594,99.64339826839826
1020.1458275715049,603,98.10227272727272
1020.7638026854976,622,97.09090909090908
1021.3817777994901,622,98.10227272727272
1021.9810263948768,622,99.11363636363636
1022.5802749902635,603,104.22368421052632
1023.1139807705299,603,106.44868421052631
1023.675776328705,537,108.6736842105263
1024.23757188688,566,106.79999999999998
1024.7993674450552,566,105.6516129032258
1025.379889521836,566,103.4266129032258
1025.9791381172229,584,94.86458758677011
1026.7188356021534,603,100.71486147599714
1027.215088345208,745,99.22045849092251
1027.8424267185035,499,106.63409671060401
1028.4229487952844,632,101.34860336077412
1028.9941076127623,584,105.06800634584874
1029.5559031709374,575,107.4439796495195
1030.0989722105066,566,108.63097603740502
1030.6514045093788,547,108.04736948002798
1031.2225633268567,556,105.67139617635722
1031.8030854036376,575,103.91961924907456
1032.3836074804185,584,102.80798771121351
1032.9734928165024,584,100.72001117162407
1033.591467930495,594,98.63203463203462
1034.2094430444874,622,95.68379446640316
1034.855507936389,622,93.40466514502032
1035.520299346896,650,89.90589364624881
1036.213180535312,669,87.42937190711838
1036.9154249830308,698,86.60513883746759
1037.598942912144,707,87.40694063926941
1038.2730975819538,688,89.44122635355511
1038.928525733158,679,91.1374741200828
1039.5745906250595,660,92.88257215929849
1040.211292257658,650,94.73192280864914
1040.8292673716505,641,95.65599808444408
1041.456605744946,622,95.20075511769215
1042.1026706368473,632,92.09739272665854
1042.7861885659604,650,87.60141109634856
1043.516522791588,688,83.68286404076242
1044.2562202765184,735,81.80720545277508
1044.986554502146,745,82.16284980841942
1045.7075254684707,735,84.79154179154179
1046.3816801382807,726,87.92121212121211
1047.037108289485,679,91.1374741200828
1047.6831731813863,660,93.35140446834151
1048.3105115546819,650,94.24888345993816
1048.9472131872803,632,94.24888345993816
1049.5932780791816,641,91.62856041761552
1050.2767960082945,650,89.08166057659804
1050.9696771967106,688,87.38541281007033
1051.6531951258235,698,87.79180550413426
1052.3273497956336,688,89.44122635355511
1052.9827779468378,679,92.06154939587775
1053.6101163201333,660,94.75851909284745
1054.2280914341259,632,96.1248303934871
1054.8554298074214,622,96.60786974219809
1055.473404921414,632,95.20075511769215
1056.1194698133154,622,94.27667984189722
1056.7655347052166,650,91.57971014492753
1057.4396893750268,650,90.70769544805061
1058.104480785534,679,90.2654594232059
1058.7599089367382,669,91.11307847082493
1059.4153370879424,660,91.98509316770185
1060.0614019798438,660,94.3323459149546
1060.6700138345334,650,96.67959866220735
1061.278625689223,613,98.58461538461538
1061.8872375439128,613,98.08671328671328
1062.5052126579053,613,96.18169656430524
1063.1512775498065,622,93.40466514502032
1063.8160689603137,650,90.70769544805061
1064.4902236301239,669,89.8356807511737
1065.155015040631,679,89.41784037558685
1065.8291697104412,669,89.8356807511737
1066.4939611209484,679,91.16293841480254
1067.1306627535466,669,89.97627174813587
1067.8329072012655,641,89.97627174813587
1068.4976986117726,707,88.64901408450703
1069.1624900222798,669,90.68329979879275
1069.817918173484,669,90.68329979879275
1070.4827095839912,660,90.68329979879275
1071.1475009944984,669,90.25352112676056
1071.8122924050056,669,89.42928805710977
1072.4958103341187,669,89.85906672914196
1073.151238485323,688,90.73108142601887
1073.7973033772241,660,91.98509316770185
1074.4527315284286,650,91.98509316770185
1075.1081596796328,660,91.98509316770185
1075.754224571534,660,92.88257215929849
1076.3909262041325,650,92.88257215929849
1077.0463543553367,641,92.01055746242159
1077.7111457658439,660,91.11307847082493
1078.366573917048,669,91.11307847082493
1079.0220020682523,660,91.54285714285713
1079.6774302194567,660,91.54285714285713
1080.332858370661,660,91.98509316770185
1080.9789232625621,660,92.88257215929849
1081.6156248951606,650,93.78005115089513
1082.2523265277591,641,93.78005115089513
1082.8983914196604,641,93.32480818414322
1083.5444563115616,650,92.86956521739128
1084.190521203463,650,92.42732919254657
1084.8459493546673,650,92.42732919254658
1085.4920142465685,660,93.8344438170525
1086.1099893605613,650,94.73192280864914
1086.7466909931595,622,95.65599808444408
1087.374029366455,641,94.70412642669008
1088.0107309990535,632,94.70412642669008
1088.647432631652,641,94.70412642669008
1089.2747710049473,641,95.6559980844441
1089.89274611894,632,97.61923337856173
1090.4919947143267,622,99.11363636363636
1091.0912433097135,603,98.63059701492537
1091.718581683009,603,96.66736172080772
1092.3552833156073,632,94.70412642669008
1092.9919849482058,641,94.70412642669008
1093.6193233215013,641,95.1729587357331
1094.2466616947968,632,96.6227324913892
1094.8552735494864,632,98.11713547646383
1095.4545221448732,613,98.60017482517482
1096.0724972588657,603,98.10227272727272
1096.6904723728583,622,96.13903743315507
1097.3271740054568,622,97.15040106951871
1097.9264226008436,641,100.38676470588234
1098.4882181590185,603,103.4266129032258
1099.0687402357994,566,104.50322580645161
1099.6492623125803,584,103.35483870967742
1100.2297843893614,584,103.35483870967742
1100.8103064661423,584,103.35483870967742
1101.3908285429231,584,103.91961924907457
1101.961987360401,584,103.37276825061065
1102.551872696485,575,102.82591725214675
1103.1417580325688,594,100.67106227106225
1103.7503698872583,594,101.21791326952616
1104.3308919640392,613,100.17468982630272
1104.939503818729,584,99.67678772840063
1105.5574789327216,613,98.08671328671328
1106.1660907874111,622,98.08671328671328
1106.774702642101,613,98.08671328671328
1107.3926777560935,613,97.58881118881118
1108.010652870086,622,97.58881118881118
1108.6192647247756,622,98.60017482517482
1109.2185133201624,613,99.61153846153846
1109.8177619155492,603,100.125
1110.4170105109358,603,98.63059701492537
1111.0443488842313,603,96.21211875405581
1111.6904137761328,632,92.92162579630933
1112.35520518664,650,90.70769544805061
1113.02935985645,669,89.8356807511737
1113.694151266957,679,90.2654594232059
1114.3495794181613,669,92.4793897714646
1114.9769177914568,660,93.35140446834151
1115.6229826833583,632,93.79364049318625
1116.2690475752595,650,93.32480818414321
1116.905749207858,650,93.78005115089513
1117.5424508404565,641,95.18716577540107
1118.160425954449,641,97.15040106951871
1118.7596745498356,622,98.60017482517482
1119.3682864045254,603,99.61153846153846
1119.967534999912,613,97.6483031674208
1120.6042366325105,603,95.30105042016805
1121.2596647837147,641,92.01055746242159
1121.9244561942219,660,90.68329979879275
1122.589247604729,669,89.8356807511737
1123.2634022745392,669,90.70769544805061
1123.9094671664404,679,92.50378542072247
1124.536805539736,650,95.20075511769217
1125.1547806537285,632,97.10577184010019
1125.7633925084183,622,97.58881118881118
1126.3813676224108,613,96.63693953105717
1127.0180692550093,622,95.65599808444408
1127.6454076283046,641,94.70412642669008
1128.282109260903,632,95.6559980844441
1128.9000843748956,641,95.65599808444408
1129.5274227481912,622,97.61923337856173
1130.126671343578,632,98.11713547646383
1130.7352831982676,603,98.60017482517482
1131.35325831226,613,96.63693953105717
1131.9899599448586,622,94.28968678380441
1132.6453880960628,641,92.44033613445377
1133.300816247267,660,91.54285714285713
1133.9562443984714,660,91.98509316770185
1134.6023092903727,660,93.8344438170525
1135.2202844043652,650,94.73192280864914
1135.8569860369637,622,96.13903743315507
1136.4749611509562,641,95.18716577540106
1137.1116627835547,622,94.73192280864913
1137.757727675456,641,93.78005115089513
1138.3944293080544,650,94.24888345993816
1139.02176768135,641,95.6559980844441
1139.6397427953425,632,97.61923337856173
1140.2389913907293,622,98.10227272727272
1140.8569665047219,603,97.15040106951871
1141.4936681373201,622,94.28968678380441
1142.1490962885246,641,92.01055746242159
1142.8138876990317,660,90.68329979879275
1143.4786791095387,669,90.25352112676056
1144.1434705200459,669,92.04961109943241
1144.7708088933414,669,94.32874042081525
1145.388784007334,632,97.10577184010019
1145.9973958620237,622,98.08671328671328
1146.6060077167133,613,97.60367393800229
1147.2333460900088,613,97.60367393800229
1147.8419579446986,632,97.60367393800229
1148.4505697993882,613,98.58461538461538
1149.0591816540777,613,99.09807692307692
1149.6584302494646,613,98.60017482517482
1150.2764053634571,603,97.61923337856173
1150.9037437367526,622,95.65599808444408
1151.5404453693511,632,94.24888345993816
1152.1865102612524,641,93.32480818414322
1152.8325751531538,650,93.32480818414321
1153.469276785752,650,94.24888345993816
1154.0966151590476,641,95.1729587357331
1154.723953532343,632,95.64179104477613
1155.3512919056386,632,94.71771576898118
1155.9973567975399,632,94.24888345993816
1156.6340584301383,650,93.32480818414322
1157.2801233220398,641,94.24888345993816
1157.907461695335,650,95.69865721559427
1158.5160735500249,632,97.60367393800229
1159.1246854047145,613,98.58461538461538
1159.7332972594043,613,97.60367393800229
1160.3606356326998,613,96.6227324913892
1160.987974005995,632,94.71771576898118
1161.6340388978965,632,93.79364049318625
1162.2801037897977,650,93.32480818414321
1162.9168054223962,650,94.24888345993816
1163.5441437956918,641,95.6559980844441
1164.1621189096843,632,96.1248303934871
1164.7894572829798,622,95.65599808444408
1165.4261589155783,632,95.1729587357331
1166.0534972888738,641,96.15390018234618
1166.6621091435634,632,97.60367393800229
1167.270720998253,613,99.09807692307692
1167.8699695936398,613,99.61153846153846
1168.4692181890266,603,99.61153846153846
1169.0778300437162,603,98.60017482517482
1169.6958051577087,613,97.10577184010019
1170.3231435310042,622,97.10577184010019
1170.9317553856938,632,97.60367393800229
1171.5403672403836,613,99.09807692307692
1172.1396158357702,613,99.61153846153846
1172.738864431157,603,99.61153846153846
1173.3474762858468,603,99.61153846153846
1173.9467248812334,613,98.60017482517482
1174.564699995226,603,99.11363636363636
1175.1639485906128,622,98.60017482517482
1175.7725604453024,603,99.61153846153846
1176.3718090406892,613,99.09807692307692
1176.9804208953788,603,99.09807692307692
1177.5890327500686,613,98.08671328671328
1178.207007864061,613,97.58881118881118
1178.8249829780536,622,97.09090909090908
1179.4429580920462,622,98.10227272727272
1180.042206687433,622,99.11363636363636
1180.6414552828196,603,99.61153846153846
1181.2500671375094,603,98.60017482517482
1181.868042251502,613,97.58881118881118
1182.4860173654945,622,97.58881118881118
1183.0946292201843,622,98.60017482517482
1183.6938778155709,613,99.09807692307692
1184.3024896702607,603,101.25293190416141
1184.8736484877386,613,101.25293190416141
1185.4728970831254,575,103.40778688524591
1186.0440559006033,603,103.99139344262295
1186.6058514587785,575,106.21639344262294
1187.1676470169534,566,105.6516129032258
1187.7481690937343,566,103.4266129032258
1188.3474176891211,584,100.68815136476427
1188.9560295438107,603,99.61153846153846
1189.5552781391975,613,98.11713547646383
1190.182616512493,603,96.66736172080772
1190.8193181450913,632,94.24888345993816
1191.4653830369928,641,93.78005115089513
1192.1020846695912,650,93.78005115089513
1192.7387863021895,641,94.70412642669008
1193.366124675485,641,95.1729587357331
1193.9934630487805,632,94.27547974413646
1194.6488911999847,632,91.65515670181382
1195.3324091290979,660,89.03483365949118
1196.0159270582108,688,87.38541281007033
1196.7088082466266,688,86.60513883746759
1197.4110526943455,698,86.20972972972973
1198.1039338827616,707,85.82486486486485
1198.8061783304804,698,85.0851246051246
1199.527149296805,707,85.88692640692639
1200.2013039666151,726,87.07359307359306
1200.8754586364253,679,90.28985507246375
1201.5215235283265,679,91.1374741200828
1202.1769516795307,650,91.98509316770185
1202.832379830735,660,91.54285714285713
1203.4878079819393,660,90.69523809523808
1204.1619626517493,660,89.04581724581723
1204.8548438401654,679,87.79180550413426
1205.5383617692783,698,87.79180550413426
1206.2125164390884,688,88.18721461187214
1206.8960343682013,679,88.18721461187214
1207.5795522973144,688,88.18721461187214
1208.2537069671243,688,89.01144768152292
1208.9184983776315,679,90.70769544805061
1209.564563269533,669,91.99755052051438
1210.2106281614342,650,92.42732919254657
1210.8660563126384,650,91.98509316770185
1211.5214844638429,660,90.28884540117416
1212.2050023929557,660,88.63942455175331
1212.8978835813716,688,87.38541281007033
1213.5814015104847,698,87.79180550413426
1214.255556180295,688,89.01144768152292
1214.9203475908018,679,89.8356807511737
1215.585139001309,669,90.25352112676056
1216.2499304118162,669,91.12553582363748
1216.8959953037177,669,92.4527934872663
1217.532696936316,650,93.32480818414322
1218.1787618282174,641,93.32480818414322
1218.8248267201186,650,92.86956521739128
1219.47089161202,650,92.42732919254657
1220.1263197632243,650,88.17080745341613
1220.8753805074577,660,90.58928571428571
1221.4746291028443,754,90.15950704225352
1222.1394205133515,603,94.87127174813587
1222.77612214595,669,93.85990811177223
1223.3940972599426,641,95.65599808444408
1224.021435633238,622,95.65599808444408
1224.6581372658366,632,95.1729587357331
1225.285475639132,641,95.1729587357331
1225.9128140124276,632,96.12483039348712
1226.5307891264201,632,97.10577184010019
1227.1394009811097,622,98.60017482517482
1227.7386495764965,613,99.09807692307692
1228.347261431186,603,98.60017482517482
1228.9652365451786,613,97.10577184010019
1229.5925749184742,622,95.20075511769215
1230.2386398103756,632,93.79364049318625
1230.8847047022768,650,92.42732919254657
1231.540132853481,650,91.55531449566966
1232.2049242639882,660,89.85906672914196
1232.8884421931014,669,88.60505498745898
1233.5719601222143,688,87.78082191780821
1234.2554780513274,688,89.03483365949118
1234.9109062025316,688,90.28884540117416
1235.5663343537358,660,91.98509316770185
1236.212399245637,660,92.88257215929849
1236.8491008782355,650,94.24888345993816
1237.476439251531,641,94.24888345993816
1238.1225041434323,632,94.24888345993816
1238.7592057760307,650,93.78005115089513
1239.3959074086292,641,93.78005115089513
1240.0419723005305,641,92.88257215929849
1240.6974004517347,650,91.98509316770185
1241.352828602939,660,91.11307847082495
1242.0176200134463,660,91.11307847082493
1242.6730481646505,669,91.11307847082493
1243.3284763158547,660,92.44033613445377
1243.9651779484532,660,93.33781512605042
1244.6018795810514,641,94.23529411764706
1245.23858121365,641,94.23529411764706
1245.8752828462484,641,94.70412642669008
1246.502621219544,641,95.1729587357331
1247.1299595928392,632,96.6227324913892
1247.738571447529,632,97.10577184010019
1248.3565465615216,613,97.58881118881118
1248.974521675514,622,97.09090909090908
1249.5924967895066,622,96.13903743315507
1250.2291984221051,622,95.18716577540106
1250.8659000547036,641,94.23529411764706
1251.5026016873019,641,94.23529411764706
1252.1393033199004,641,94.70412642669008
1252.7666416931959,641,95.6559980844441
1253.3846168071884,632,96.60786974219809
1254.002591921181,622,97.58881118881118
1254.6112037758708,622,97.58881118881118
1255.2291788898633,613,97.10577184010019
1255.8565172631588,622,95.65599808444408
1256.493218895757,632,95.1729587357331
1257.1205572690526,641,94.70412642669008
1257.757258901651,632,95.1729587357331
1258.3845972749466,641,95.1729587357331
1259.0119356482421,632,95.1729587357331
1259.6486372808404,632,95.1729587357331
1260.275975654136,641,94.24888345993816
1260.9220405460374,632,94.71771576898118
1261.5493789193329,650,95.20075511769217
1262.1673540333254,632,96.60786974219809
1262.785329147318,622,97.09090909090908
1263.4033042613105,622,97.09090909090908
1264.021279375303,622,96.60786974219809
1264.6486177485986,622,96.1248303934871
1265.275956121894,632,95.64179104477613
1265.9032944951896,632,96.6227324913892
1266.5119063498792,632,96.6227324913892
1267.1392447231747,613,96.6227324913892
1267.7665830964702,632,95.1729587357331
1268.4032847290687,632,95.1729587357331
1269.0306231023642,641,95.1729587357331
1269.6579614756597,632,95.64179104477613
1270.2852998489552,632,95.1729587357331
1270.9220014815535,632,94.24888345993816
1271.568066373455,641,93.78005115089513
1272.2047680060532,650,94.24888345993816
1272.8321063793487,641,95.6559980844441
1273.4500814933415,632,97.10577184010019
1274.058693348031,622,97.58881118881118
1274.6766684620236,613,97.58881118881118
1275.2946435760161,622,96.13903743315507
1275.9313452086146,622,94.73192280864913
1276.5774101005159,641,93.32480818414322
1277.2234749924173,650,92.86956521739128
1277.8695398843186,650,92.86956521739128
1278.51560477622,650,92.42732919254657
1279.1710329274242,650,92.42732919254658
1279.8170978193255,660,93.35140446834151
1280.444436192621,650,96.21211875405581
1281.0436847880078,632,99.16035891968727
1281.6335701240916,603,100.14130036630036
1282.2421819787812,594,99.12993672993672
1282.8601570927738,613,97.10577184010019
1283.4874954660693,622,96.1248303934871
1284.1148338393648,632,96.12483039348712
1284.7328089533573,632,96.60786974219809
1285.3507840673499,622,97.58881118881118
1285.9593959220397,622,98.08671328671328
1286.5680077767292,613,98.58461538461538
1287.176619631419,613,97.60367393800229
1287.8039580047143,613,96.15390018234618
1288.4406596373128,632,94.70412642669008
1289.0773612699113,641,94.70412642669008
1289.7046996432068,641,95.6559980844441
1290.3226747571994,632,95.65599808444408
1290.9593763897979,622,96.13903743315507
1291.5773515037904,641,94.73192280864913
1292.2234163956916,622,94.73192280864914
1292.8601180282901,650,94.24888345993816
1293.4874564015856,641,96.15390018234618
1294.0960682562752,632,97.10577184010019
1294.7140433702677,613,97.58881118881118
1295.3320184842603,622,96.13903743315507
1295.9687201168588,622,94.73192280864913
1296.6147850087602,641,93.78005115089513
1297.2514866413585,650,93.78005115089513
1297.888188273957,641,94.70412642669008
1298.5155266472525,641,95.1729587357331
1299.142865020548,632,96.6227324913892
1299.7514768752376,632,96.6227324913892
1300.378815248533,613,97.10577184010019
1300.9967903625256,632,87.2119753140456
1301.867573477697,622,108.73137829912022
1302.2421038498137,877,109.74274193548386
1302.8413524452005,377,119.63653846153845
1303.44996429989,603,99.61153846153846
1304.049212895277,613,101.83653846153845
1304.6110084534519,603,104.57499999999999
1305.172804011627,566,106.79999999999998
1305.7345995698022,566,106.79999999999998
1306.2963951279771,566,106.79999999999998
1306.8581906861523,566,106.21639344262294
1307.4293495036302,566,105.06800634584876
1308.009871580411,575,103.37276825061065
1308.599756916495,584,102.2611367127496
1309.1896422525788,594,101.1845238095238
1309.7888908479656,594,100.14130036630036
1310.3975027026552,603,98.60017482517482
1311.0154778166477,613,97.10577184010019
1311.6428161899432,622,95.65599808444408
1312.2795178225417,632,94.24888345993816
1312.925582714443,641,93.78005115089513
1313.5622843470414,650,94.73192280864914
1314.180259461034,641,95.65599808444408
1314.8075978343295,622,95.20075511769215
1315.4536627262307,632,94.71771576898118
1316.0810010995262,650,94.71771576898118
1316.7083394728218,632,95.64179104477613
1317.3356778461173,632,95.1729587357331
1317.9723794787158,632,94.70412642669008
1318.6090811113143,641,93.78005115089513
1319.2551460032155,641,92.4527934872663
1319.9199374137227,650,91.55531449566966
1320.5753655649269,669,90.68329979879275
1321.240156975434,660,91.11307847082493
1321.8955851266383,669,91.11307847082493
1322.5510132778425,660,92.9091684434968
1323.178351651138,660,94.75851909284745
1323.7963267651307,632,96.1248303934871
1324.423665138426,622,96.60786974219809
1325.0416402524188,632,95.65599808444408
1325.678341885017,622,95.18716577540106
1326.3150435176155,641,94.70412642669008
1326.942381890911,641,95.6559980844441
1327.5603570049036,632,96.60786974219809
1328.1783321188962,622,97.58881118881118
1328.786943973586,622,98.60017482517482
1329.3861925689725,613,98.60017482517482
1330.004167682965,603,98.10227272727272
1330.6221427969576,622,96.13903743315507
1331.2588444295561,622,95.65599808444408
1331.8861828028516,641,94.70412642669008
1332.5228844354501,632,95.6559980844441
1333.1408595494427,641,95.65599808444408
1333.7681979227382,622,96.1248303934871
1334.3955362960337,632,95.1729587357331
1335.032237928632,632,95.1729587357331
1335.6595763019275,641,95.1729587357331
1336.286914675223,632,96.6227324913892
1336.8955265299128,632,97.10577184010019
1337.5135016439053,613,97.10577184010019
1338.1408400172008,622,96.1248303934871
1338.7681783904964,632,95.1729587357331
1339.4048800230946,632,95.1729587357331
1340.0322183963901,641,95.6559980844441
1340.6501935103827,632,96.60786974219809
1341.2681686243752,622,97.09090909090908
1341.886143738368,622,96.60786974219809
1342.5134821116635,622,96.1248303934871
1343.1408204849588,632,96.12483039348712
1343.7587955989516,632,97.10577184010019
1344.3674074536411,622,98.60017482517482
1344.966656049028,613,98.60017482517482
1345.5846311630205,603,98.60017482517482
1346.19324301771,622,97.10577184010019
1346.8205813910056,613,97.60367393800229
1347.4291932456952,632,97.10577184010019
1348.047168359688,613,98.08671328671328
1348.6557802143775,622,98.08671328671328
1349.264392069067,613,98.58461538461538
1349.8730039237569,613,97.60367393800229
1350.5003422970524,613,95.69865721559427
1351.1464071889536,632,94.24888345993816
1351.783108821552,650,94.73192280864914
1352.4010839355446,641,96.13903743315507
1353.0190590495372,622,98.10227272727272
1353.618307644924,622,98.60017482517482
1354.2269194996136,603,98.60017482517482
1354.8448946136061,613,99.67678772840063
1355.425416690387,622,101.26686217008798
1356.0059387671681,584,103.91961924907457
1356.577097584646,584,104.4843997884717
1357.148256402124,575,105.63278688524589
1357.710051960299,575,106.81978327313142
1358.2624842591713,566,109.27707404103478
1358.7961900394375,556,110.50466024793134
1359.3392590790068,537,113.85682597297843
1359.8448750813643,547,110.83475466567792
1360.4253971581452,509,110.21055828928984
1360.9778294570174,584,105.10661563696009
1361.5583515337983,556,104.03000273373428
1362.157600129185,584,100.19024926686217
1362.7755752431776,603,97.15040106951871
1363.4122768757761,622,95.18716577540106
1364.0489785083744,641,94.70412642669008
1364.67631688167,641,95.6559980844441
1365.2942919956624,632,95.65599808444408
1365.930993628261,622,95.18716577540106
1366.5676952608594,641,94.23529411764706
1367.2043968934577,641,94.23529411764706
1367.8410985260562,641,94.70412642669008
1368.4684368993517,641,94.70412642669008
1369.1051385319502,632,93.80664743509344
1369.7605666831544,641,91.59271708683472
1370.4347213529645,660,90.2654594232059
1371.0995127634717,679,89.8356807511737
1371.7643041739786,669,91.12553582363748
1372.41036906588,669,92.4527934872663
1373.0470706984786,650,94.24888345993816
1373.6744090717739,641,95.1729587357331
1374.3017474450694,632,96.12483039348712
1374.9197225590622,632,97.10577184010019
1375.5283344137517,622,98.08671328671328
1376.1369462684413,613,98.58461538461538
1376.745558123131,613,98.08671328671328
1377.3635332371236,613,96.63693953105717
1378.0002348697221,622,95.18716577540106
1378.6369365023204,641,93.33781512605042
1379.2923646535246,641,92.44033613445377
1379.947792804729,660,91.54285714285713
1380.6032209559332,660,92.9091684434968
1381.2305593292288,660,93.80664743509344
1381.867260961827,632,94.24888345993816
1382.5133258537285,641,93.78005115089513
1383.1500274863267,650,93.78005115089513
1383.7867291189252,641,93.78005115089513
1384.4327940108267,641,93.78005115089513
1385.069495643425,650,94.24888345993816
1385.6968340167205,641,95.1729587357331
1386.324172390016,632,95.64179104477613
1386.9515107633115,632,95.1729587357331
1387.58821239591,632,94.70412642669008
1388.2249140285082,641,93.78005115089513
1388.8709789204097,641,93.78005115089513
1389.507680553008,650,93.32480818414322
1390.1537454449094,641,93.78005115089513
1390.790447077508,650,94.24888345993816
1391.4177854508032,641,94.24888345993816
1392.0638503427047,632,94.71771576898118
1392.6911887160002,650,95.20075511769217
1393.3091638299927,632,97.61923337856173
1393.9084124253795,622,100.7550298062593
1394.4795712428574,603,103.40778688524591
1395.0507300603354,575,104.4843997884717
1395.6312521371162,575,103.91961924907456
1396.2117742138973,584,103.35483870967742
1396.7922962906782,584,102.80798771121351
1397.382181626762,584,101.7313748079877
1397.9814302221487,594,99.64339826839826
1398.5994053361412,603,98.10227272727272
1399.2173804501338,622,96.60786974219809
1399.8447188234293,622,95.65599808444408
1400.4814204560278,632,94.70412642669008
1401.1181220886263,641,94.70412642669008
1401.7454604619218,641,95.1729587357331
1402.3727988352173,632,94.71771576898118
1403.0188637271185,632,93.79364049318625
1403.6649286190197,650,92.42732919254657
1404.3203567702242,650,91.55531449566966
1404.9851481807314,660,91.11307847082493
1405.6405763319356,669,91.55531449566965
1406.2866412238368,660,92.88257215929849
1406.9233428564353,650,94.24888345993816
1407.5506812297308,641,94.24888345993816
1408.196746121632,632,94.24888345993816
1408.8334477542305,650,93.78005115089513
1409.470149386829,641,94.70412642669008
1410.0974877601243,641,95.1729587357331
1410.7248261334198,632,96.12483039348712
1411.3428012474126,632,95.65599808444408
1411.9795028800108,622,94.73192280864913
1412.6255677719123,641,92.88257215929849
1413.2809959231165,650,91.1374741200828
1413.9551505929267,660,91.1374741200828
1414.601215484828,679,92.50378542072247
1415.2285538581234,650,95.69865721559427
1415.837165712813,632,96.6227324913892
1416.4645040861085,613,97.10577184010019
1417.082479200101,632,96.60786974219809
1417.7004543140938,622,97.09090909090908
1418.3184294280863,622,97.09090909090908
1418.936404542079,622,97.09090909090908
1419.5543796560714,622,97.58881118881118
1420.162991510761,622,97.10577184010019
1420.7903298840565,613,96.15390018234618
1421.427031516655,632,94.70412642669008
1422.0637331492535,641,93.78005115089513
1422.7097980411547,641,94.24888345993816
1423.3371364144502,650,95.69865721559427
1423.9457482691398,632,97.60367393800229
1424.5543601238296,613,98.58461538461538
1425.1629719785192,613,98.08671328671328
1425.7809470925117,613,97.58881118881118
1426.3989222065043,622,96.13903743315507
1427.0356238391028,622,96.13903743315507
1427.6535989530953,641,95.65599808444408
1428.2809373263908,622,96.1248303934871
1428.9082756996863,632,95.1729587357331
1429.5449773322848,632,95.1729587357331
1430.1723157055803,641,94.24888345993816
1430.8183805974816,632,94.71771576898118
1431.445718970777,650,94.24888345993816
1432.0824206033756,632,94.70412642669008
1432.7191222359738,641,93.78005115089513
1433.3651871278753,641,92.88257215929849
1434.0206152790795,650,92.42732919254658
1434.6666801709807,660,93.35140446834151
1435.2940185442762,650,94.71771576898118
1435.9213569175718,632,96.12483039348712
1436.5393320315643,632,96.60786974219809
1437.157307145557,622,96.60786974219809
1437.7846455188524,622,95.65599808444408
1438.4213471514508,632,94.24888345993816
1439.0674120433523,641,93.78005115089513
1439.7041136759506,650,93.78005115089513
1440.340815308549,641,94.23529411764706
1440.9775169411475,641,93.78005115089513
1441.6235818330488,641,94.24888345993816
1442.2509202063443,650,94.24888345993816
1442.8876218389428,632,94.70412642669008
1443.524323471541,641,95.18716577540107
1444.1422985855336,641,95.18716577540106
1444.779000218132,622,95.18716577540106
1445.4157018507306,641,94.70412642669008
1446.043040224026,641,94.70412642669008
1446.6797418566243,632,95.1729587357331
1447.3070802299198,641,95.6559980844441
1447.9250553439124,632,96.60786974219809
1448.5430304579052,622,96.60786974219809
1449.1703688312007,622,95.20075511769215
1449.816433723102,632,93.35140446834151
1450.4718618743061,650,93.35140446834151
1451.0992002476016,660,94.75851909284745
1451.7171753615942,632,97.10577184010019
1452.325787216284,622,98.08671328671328
1452.9343990709735,613,99.62783882783881
1453.5242844070574,613,100.67106227106225
1454.1141697431412,594,102.2611367127496
1454.6946918199221,594,102.80798771121351
1455.275213896703,584,101.26686217008798
1455.8931890106956,584,99.17888563049853
1456.511164124688,622,97.09090909090908
1457.1291392386806,622,97.58881118881118
1457.7377510933704,622,98.60017482517482
1458.336999688757,613,98.60017482517482
1458.9549748027498,603,98.60017482517482
1459.5635866574394,622,97.58881118881118
1460.181561771432,613,97.58881118881118
1460.7995368854245,622,96.60786974219809
1461.42687525872,622,96.60786974219809
1462.0448503727125,632,95.65599808444408
1462.681552005311,622,95.65599808444408
1463.3088903786065,641,95.1729587357331
1463.936228751902,632,95.1729587357331
1464.5729303845005,632,95.6559980844441
1465.190905498493,641,96.13903743315507
1465.8088806124856,622,97.58881118881118
1466.4174924671752,622,97.58881118881118
1467.0354675811677,613,97.58881118881118
1467.6534426951605,622,97.58881118881118
1468.26205454985,622,97.10577184010019
1468.8893929231456,613,97.60367393800229
1469.4980047778351,632,97.10577184010019
1470.1159798918277,613,98.08671328671328
1470.7245917465175,622,97.58881118881118
1471.34256686051,613,97.58881118881118
1471.9605419745026,622,97.09090909090908
1472.5785170884951,622,97.58881118881118
1473.187128943185,622,97.58881118881118
1473.8051040571775,613,97.10577184010019
1474.432442430473,622,96.1248303934871
1475.0597808037685,632,96.12483039348712
1475.677755917761,632,97.61923337856173
1476.2770045131476,622,98.60017482517482
1476.8856163678374,603,99.61153846153846
1477.484864963224,613,99.61153846153846
1478.0841135586109,603,99.11363636363636
1478.7020886726034,603,98.10227272727272
1479.320063786596,622,97.09090909090908
1479.9380389005887,622,97.58881118881118
1480.5466507552783,622,97.10577184010019
1481.1739891285738,613,96.6227324913892
1481.8013275018693,632,95.64179104477613
1482.4286658751648,632,95.64179104477613
1483.0560042484603,632,95.64179104477613
1483.6833426217556,632,96.12483039348712
1484.3013177357484,632,96.60786974219809
1484.919292849741,622,97.09090909090908
1485.5372679637335,622,97.09090909090908
1486.155243077726,622,96.60786974219809
1486.7825814510215,622,96.1248303934871
1487.409919824317,632,96.12483039348712
1488.0278949383096,632,97.10577184010019
1488.6365067929992,622,98.08671328671328
1489.245118647689,613,98.08671328671328
1489.8630937616815,613,97.58881118881118
1490.481068875674,622,97.58881118881118
1491.0896807303639,622,97.58881118881118
1491.7076558443564,613,98.08671328671328
1492.316267699046,622,97.10577184010019
1492.9436060723415,613,96.15390018234618
1493.58030770494,632,95.1729587357331
1494.2076460782355,641,94.24888345993816
1494.8537109701367,632,95.20075511769217
1495.4716860841293,650,95.20075511769217
1496.0990244574248,622,96.60786974219809
1496.7169995714173,632,96.1248303934871
1497.3443379447128,622,96.60786974219809
1497.9623130587054,632,97.10577184010019
1498.5709249133952,622,98.08671328671328
1499.1795367680847,613,99.09807692307692
1499.7787853634716,613,99.09807692307692
1500.3873972181611,603,99.09807692307692
1500.996009072851,613,97.60367393800229
1501.6233474461462,613,97.10577184010019
1502.241322560139,632,96.60786974219809
1502.8592976741315,622,98.10227272727272
1503.4585462695181,622,99.11363636363636
1504.057794864905,603,99.61153846153846
1504.6664067195945,603,98.60017482517482
1505.2843818335873,613,98.08671328671328
1505.8929936882769,622,98.60017482517482
1506.4922422836637,613,100.14130036630036
1507.0821276197473,603,101.1845238095238
1507.6720129558312,594,101.1845238095238
1508.271261551218,594,100.6547619047619
1508.8705101466048,603,99.61153846153846
1509.4791220012944,603,99.09807692307692
1510.087733855984,613,98.58461538461538
1510.6963457106738,613,98.08671328671328
1511.3143208246663,613,98.08671328671328
1511.9229326793559,622,97.10577184010019
1512.5502710526514,613,97.10577184010019
1513.168246166644,632,96.1248303934871
1513.7955845399395,622,97.10577184010019
1514.4041963946293,632,97.10577184010019
1515.0221715086218,613,97.58881118881118
1515.6401466226143,622,96.60786974219809
1516.2674849959099,622,96.1248303934871
1516.8948233692054,632,96.12483039348712
1517.512798483198,632,96.1248303934871
1518.1401368564934,622,96.1248303934871
1518.767475229789,632,95.1729587357331
1519.4041768623872,632,94.24888345993816
1520.0502417542887,641,94.24888345993816
1520.6775801275842,650,95.20075511769217
1521.2955552415767,632,96.1248303934871
1521.9228936148722,622,96.60786974219809
1522.5408687288648,632,95.20075511769215
1523.186933620766,622,94.27667984189722
1523.8329985126675,650,93.32480818414321
1524.469700145266,650,93.78005115089513
1525.1064017778642,641,94.23529411764706
1525.7431034104627,641,94.70412642669008
1526.3704417837582,641,95.1729587357331
1526.9977801570537,632,95.64179104477613
1527.6251185303493,632,95.64179104477613
1528.2524569036448,632,96.12483039348712
1528.8704320176373,632,97.10577184010019
1529.4790438723269,622,97.10577184010019
1530.1063822456224,613,95.69865721559427
1530.7524471375236,632,94.71771576898118
1531.3797855108191,650,95.20075511769217
1531.997760624812,632,97.10577184010019
1532.6063724795015,622,98.60017482517482
1533.2056210748883,613,99.61153846153846
1533.804869670275,603,100.125
1534.4041182656617,603,99.11363636363636
1535.0220933796543,603,98.60017482517482
1535.6307052343438,622,97.58881118881118
1536.2486803483366,613,98.08671328671328
1536.8572922030262,622,97.10577184010019
1537.4846305763217,613,96.6227324913892
1538.1119689496172,632,95.1729587357331
1538.7486705822155,632,94.24888345993816
1539.394735474117,641,94.73192280864914
1540.0127105881095,650,95.68379446640316
1540.630685702102,622,97.09090909090908
1541.2486608160946,622,98.10227272727272
1541.8479094114814,622,99.11363636363636
1542.4471580068682,603,99.61153846153846
1543.0557698615578,603,99.61153846153846
1543.6550184569446,613,99.61153846153846
1544.2542670523312,603,100.6547619047619
1544.844152388415,603,100.14130036630036
1545.4527642431049,594,99.62783882783881
1546.0613760977944,613,98.58461538461538
1546.669987952484,613,97.60367393800229
1547.2973263257795,613,97.10577184010019
1547.915301439772,632,96.60786974219809
1548.5332765537648,622,96.13903743315507
1549.169978186363,622,96.63693953105717
1549.778590041053,641,96.15390018234618
1550.4059284143484,613,93.6070003413287
1551.0988096027643,632,95.7618553224132
1551.6699684202422,698,96.24489467112417
1552.2879435342347,575,100.7550298062593
1552.8871921296216,622,98.60017482517482
1553.4958039843111,603,100.14130036630036
1554.085689320395,613,100.14130036630036
1554.6849379157818,594,101.1845238095238
1555.2748232518657,603,101.7313748079877
1555.8553453286465,594,102.80798771121351
1556.4358674054274,584,102.80798771121351
1557.0257527415113,584,101.7313748079877
1557.6250013368979,594,100.14130036630036
1558.2336131915877,603,100.14130036630036
1558.8234985276715,613,101.21791326952616
1559.4040206044524,594,103.37276825061065
1559.9751794219303,584,105.06800634584874
1560.5369749801055,575,106.21639344262294
1561.0987705382804,566,105.6516129032258
1561.6792926150613,566,105.06800634584874
1562.2504514325394,584,102.84300634584875
1562.849700027926,575,100.75502980625932
1563.4676751419188,603,97.61923337856173
1564.095013515214,622,96.1248303934871
1564.7223518885096,632,96.12483039348712
1565.3403270025024,632,97.10577184010019
1565.948938857192,622,98.08671328671328
1566.5575507118815,613,98.58461538461538
1567.1661625665713,613,97.60367393800229
1567.7935009398668,613,96.15390018234618
1568.430202572465,632,94.70412642669008
1569.0669042050636,641,93.78005115089513
1569.7129690969648,641,94.24888345993816
1570.3403074702603,650,95.20075511769217
1570.9582825842529,632,96.1248303934871
1571.5856209575484,622,95.65599808444408
1572.2223225901469,632,94.70412642669008
1572.8590242227453,641,93.78005115089513
1573.5050891146466,641,93.78005115089513
1574.141790747245,650,93.78005115089513
1574.7784923798436,641,94.23529411764706
1575.4151940124418,641,94.70412642669008
1576.0425323857373,641,95.1729587357331
1576.6698707590328,632,95.64179104477613
1577.2972091323284,632,95.1729587357331
1577.9339107649268,632,95.6559980844441
1578.5518858789194,641,96.13903743315507
1579.169860992912,622,97.09090909090908
1579.7878361069045,622,97.09090909090908
1580.405811220897,622,95.68379446640316
1581.0518761127985,622,94.27667984189722
1581.6979410046997,650,93.32480818414321
1582.3346426372982,650,93.78005115089513
1582.9713442698965,641,94.70412642669008
1583.598682643192,641,94.70412642669008
1584.2353842757905,632,94.70412642669008
1584.872085908389,641,94.23529411764706
1585.5087875409872,641,93.78005115089513
1586.1548524328887,641,93.32480818414322
1586.80091732479,650,93.79364049318623
1587.4282556980854,650,95.20075511769217
1588.046230812078,632,96.1248303934871
1588.6735691853735,622,95.65599808444408
1589.310270817972,632,93.80664743509344
1589.9656989691762,641,92.44033613445377
1590.6211271203804,660,91.98509316770185
1591.2671920122818,660,92.88257215929849
1591.90389364488,650,94.24888345993816
1592.5312320181756,641,94.70412642669008
1593.167933650774,632,94.24888345993816
1593.8139985426753,641,93.32480818414322
1594.4600634345768,650,92.86956521739128
1595.106128326478,650,93.32480818414321
1595.7428299590765,650,94.24888345993816
1596.370168332372,641,94.24888345993816
1597.0162332242733,632,93.35140446834151
1597.6716613754775,650,91.1374741200828
1598.3458160452876,660,91.1374741200828
1598.991880937189,679,92.03495311167944
1599.6285825697873,650,93.78005115089513
1600.2652842023858,641,94.23529411764706
1600.9019858349843,641,94.23529411764706
1601.5386874675826,641,93.78005115089513
1602.184752359484,641,93.32480818414322
1602.8308172513853,650,93.32480818414321
1603.4675188839838,650,93.78005115089513
1604.1042205165822,641,93.78005115089513
1604.7502854084835,641,94.24888345993816
1605.377623781779,650,94.24888345993816
1606.0143254143775,632,95.1729587357331
1606.6416637876728,641,94.24888345993816
1607.2877286795742,632,93.79364049318625
1607.9337935714755,650,92.86956521739128
1608.579858463377,650,92.86956521739128
1609.2259233552782,650,92.86956521739128
1609.8719882471796,650,92.42732919254657
1610.5274163983838,650,92.88257215929849
1611.164118030982,660,93.33781512605042
1611.8008196635806,641,94.23529411764706
1612.437521296179,641,94.23529411764706
1613.0742229287773,641,94.70412642669008
1613.7015613020728,641,95.6559980844441
1614.3195364160656,632,96.60786974219809
1614.9375115300581,622,98.10227272727272
1615.5367601254447,622,98.60017482517482
1616.1453719801345,603,99.09807692307692
1616.753983834824,613,98.08671328671328
1617.3719589488167,613,97.58881118881118
1617.9899340628092,622,97.58881118881118
1618.598545917499,622,97.10577184010019
1619.2258842907945,613,96.6227324913892
1619.85322266409,632,95.1729587357331
1620.4899242966883,632,95.1729587357331
1621.1172626699838,641,95.1729587357331
1621.7446010432793,632,96.12483039348712
1622.3625761572719,632,96.60786974219809
1622.9805512712644,622,96.60786974219809
1623.60788964456,622,96.1248303934871
1624.2352280178554,632,95.64179104477613
1624.862566391151,632,96.12483039348712
1625.4805415051435,632,97.10577184010019
1626.0891533598333,622,98.08671328671328
1626.6977652145229,613,98.58461538461538
1627.3063770692127,613,98.08671328671328
1627.9243521832052,613,97.58881118881118
1628.5423272971977,622,97.09090909090908
1629.1603024111903,622,97.09090909090908
1629.7782775251828,622,97.09090909090908
1630.3962526391754,622,96.13903743315507
1631.0329542717739,622,95.65599808444408
1631.6602926450694,641,94.24888345993816
1632.3063575369706,632,94.24888345993816
1632.943059169569,650,93.78005115089513
1633.5797608021676,641,94.23529411764706
1634.2164624347658,641,94.70412642669008
1634.8438008080614,641,94.24888345993816
1635.4898656999628,632,92.50378542072247
1636.1640203697727,650,91.57971014492753
1636.8100852616742,679,91.1374741200828
1637.4655134128784,650,91.98509316770185
1638.1209415640826,660,91.98509316770185
1638.767006455984,660,91.98509316770185
1639.4224346071883,650,92.42732919254658
1640.0684994990895,660,93.35140446834151
1640.695837872385,650,93.79364049318625
1641.3419027642865,632,93.79364049318625
1641.9879676561877,650,93.32480818414321
1642.6246692887862,650,94.24888345993816
1643.2520076620817,641,95.6559980844441
1643.8699827760743,632,96.60786974219809
1644.4879578900668,622,96.60786974219809
1645.1152962633623,622,95.20075511769215
1645.7613611552636,632,93.79364049318625
1646.407426047165,650,92.42732919254657
1647.0628541983692,650,92.42732919254658
1647.7089190902705,660,91.98509316770185
1648.364347241475,650,91.98509316770185
1649.019775392679,660,91.11307847082495
1649.6845668031863,660,91.55531449566965
1650.3306316950875,669,91.99755052051438
1650.976696586989,650,93.79364049318623
1651.6040349602843,650,94.71771576898118
1652.2313733335798,632,95.1729587357331
1652.8680749661783,632,94.24888345993816
1653.5141398580795,641,92.88257215929849
1654.169568009284,650,92.88257215929849
1654.8062696418822,660,93.80664743509344
1655.4336080151777,641,94.70412642669008
1656.0703096477762,632,94.70412642669008
1656.7070112803747,641,94.23529411764706
1657.343712912973,641,94.23529411764706
1657.9804145455714,641,95.18716577540107
1658.598389659564,641,96.13903743315507
1659.2163647735565,622,97.09090909090908
1659.834339887549,622,97.09090909090908
1660.4523150015418,622,96.13903743315507
1661.08901663414,622,95.18716577540106
1661.7257182667386,641,93.78005115089513
1662.3717831586398,641,93.78005115089513
1663.0084847912383,650,94.73192280864914
1663.6264599052308,641,95.65599808444408
1664.2537982785263,622,96.60786974219809
1664.871773392519,632,96.1248303934871
1665.4991117658144,622,96.60786974219809
1666.117086879807,632,97.10577184010019
1666.7256987344967,622,97.58881118881118
1667.3436738484893,613,97.10577184010019
1667.9710122217848,622,95.65599808444408
1668.607713854383,632,95.1729587357331
1669.2350522276786,641,94.70412642669008
1669.871753860277,632,95.1729587357331
1670.4990922335726,641,94.70412642669008
1671.135793866171,632,95.6559980844441
1671.7537689801636,641,95.65599808444408
1672.3811073534591,622,96.60786974219809
1672.9990824674517,632,96.60786974219809
1673.6170575814442,622,97.58881118881118
1674.2256694361338,622,97.58881118881118
1674.8436445501266,613,96.63693953105717
1675.4803461827248,622,95.18716577540106
1676.1170478153233,641,93.78005115089513
1676.7631127072245,641,93.78005115089513
1677.399814339823,650,93.78005115089513
1678.0365159724215,641,94.23529411764706
1678.6732176050198,641,94.70412642669008
1679.3005559783153,641,95.6559980844441
1679.9185310923078,632,96.1248303934871
1680.5458694656033,622,96.60786974219809
1681.163844579596,632,97.10577184010019
1681.7724564342857,622,97.58881118881118
1682.3904315482782,613,97.58881118881118
1683.0084066622708,622,96.60786974219809
1683.6357450355663,622,96.1248303934871
1684.2630834088618,632,94.71771576898118
1684.909148300763,632,94.24888345993816
1685.5458499333615,650,93.32480818414322
1686.191914825263,641,93.78005115089513
1686.8286164578612,650,92.88257215929849
1687.4840446090654,641,92.44033613445377
1688.1394727602699,660,92.44033613445377
1688.7761743928681,660,94.28968678380443
1689.3941495068607,641,96.13903743315507
1690.0121246208535,622,97.09090909090908
1690.630099734846,622,97.09090909090908
1691.2480748488385,622,97.09090909090908
1691.866049962831,622,96.60786974219809
1692.4933883361266,622,96.1248303934871
1693.1207267094221,632,94.71771576898118
1693.7667916013233,632,92.92162579630933
1694.4315830118305,650,91.12553582363748
1695.0963744223377,669,90.68329979879275
1695.751802573542,669,92.4793897714646
1696.3791409468374,660,94.27547974413646
1697.006479320133,632,95.64179104477613
1697.6338176934285,632,94.71771576898118
1698.27988258533,632,94.24888345993816
1698.9165842179282,650,94.24888345993816
1699.5439225912237,641,95.1729587357331
1700.1712609645192,632,95.64179104477613
1700.7985993378147,632,95.64179104477613
1701.4259377111102,632,95.1729587357331
1702.0626393437087,632,94.70412642669008
1702.699340976307,641,93.78005115089513
1703.3454058682084,641,93.78005115089513
1703.9821075008067,650,93.32480818414322
1704.6281723927082,641,93.78005115089513
1705.2648740253064,650,94.24888345993816
1705.892212398602,641,95.1729587357331
1706.5195507718975,632,95.64179104477613
1707.146889145193,632,96.6227324913892
1707.7555009998828,632,97.60367393800229
1708.3641128545723,613,98.58461538461538
1708.972724709262,613,98.08671328671328
1709.5906998232545,613,97.10577184010019
1710.21803819655,622,96.60786974219809
1710.8360133105427,632,96.60786974219809
1711.4539884245353,622,97.58881118881118
1712.0626002792249,622,98.08671328671328
1712.6712121339144,613,97.60367393800229
1713.29855050721,613,96.6227324913892
1713.9258888805055,632,96.12483039348712
1714.543863994498,632,97.10577184010019
1715.1524758491878,622,98.08671328671328
1715.7610877038774,613,98.08671328671328
1716.37906281787,613,97.58881118881118
1716.9970379318627,622,96.60786974219809
1717.624376305158,622,95.65599808444408
1718.2610779377565,632,94.70412642669008
1718.897779570355,641,94.70412642669008
1719.5251179436505,641,95.6559980844441
1720.143093057643,632,96.1248303934871
1720.7704314309385,622,96.1248303934871
1721.397769804234,632,95.64179104477613
1722.0251081775295,632,96.12483039348712
1722.643083291522,632,96.1248303934871
1723.2704216648176,622,96.1248303934871
1723.8977600381131,632,95.64179104477613
1724.5250984114086,632,95.1729587357331
1725.161800044007,632,94.24888345993816
1725.8078649359084,641,93.78005115089513
1726.4445665685066,650,93.32480818414322
1727.090631460408,641,93.78005115089513
1727.7273330930063,650,94.24888345993816
1728.3546714663019,641,95.1729587357331
1728.9820098395974,632,95.64179104477613
1729.6093482128929,632,95.64179104477613
1730.2366865861884,632,95.64179104477613
1730.864024959484,632,95.64179104477613
1731.4913633327794,632,96.6227324913892
1732.099975187469,632,97.60367393800229
1732.7085870421588,613,98.58461538461538
1733.3171988968484,613,97.60367393800229
1733.9445372701439,613,97.10577184010019
1734.5625123841364,632,97.10577184010019
1735.1711242388262,622,97.58881118881118
1735.7890993528188,613,98.08671328671328
1736.3977112075083,622,97.58881118881118
1737.0156863215009,613,97.10577184010019
1737.6430246947964,622,96.1248303934871
1738.270363068092,632,96.12483039348712
1738.8883381820845,632,95.65599808444408
1739.525039814683,622,95.18716577540106
1740.1617414472814,641,94.70412642669008
1740.7890798205767,641,95.1729587357331
1741.4164181938722,632,95.64179104477613
1742.0437565671677,632,95.1729587357331
1742.6804581997662,632,94.24888345993816
1743.3265230916675,641,94.24888345993816
1743.953861464963,650,95.20075511769217
1744.5718365789555,632,96.1248303934871
1745.199174952251,622,96.1248303934871
1745.8265133255466,632,95.1729587357331
1746.463214958145,632,94.70412642669008
1747.0999165907435,641,94.23529411764706
1747.7366182233418,641,94.70412642669008
1748.3639565966373,641,95.1729587357331
1748.9912949699328,632,95.1729587357331
1749.6279966025313,632,94.24888345993816
1750.2740614944325,641,93.78005115089513
1750.910763127031,650,93.78005115089513
1751.5474647596295,641,95.18716577540107
1752.165439873622,641,95.65599808444408
1752.7927782469176,622,96.60786974219809
1753.4107533609101,632,96.1248303934871
1754.0380917342056,622,96.1248303934871
1754.6654301075012,632,95.64179104477613
1755.2927684807967,632,96.6227324913892
1755.9013803354862,632,97.60367393800229
1756.5099921901758,613,98.08671328671328
1757.1279673041684,613,97.10577184010019
1757.7553056774639,622,96.1248303934871
1758.3826440507594,632,95.64179104477613
1759.009982424055,632,95.1729587357331
1759.6466840566534,632,93.37686876306125
1760.3114754671606,641,92.01055746242157
1760.9669036183648,669,91.55531449566965
1761.612968510266,660,93.35140446834151
1762.2403068835615,650,94.71771576898118
1762.867645256857,632,96.12483039348712
1763.4856203708496,632,96.60786974219809
1764.1035954848423,622,97.09090909090908
1764.721570598835,622,97.58881118881118
1765.3301824535245,622,98.60017482517482
1765.9294310489113,613,100.14130036630036
1766.5193163849951,603,100.14130036630036
1767.1279282396847,594,99.12993672993672
1767.7459033536772,613,96.63693953105717
1768.3826049862757,622,95.18716577540106
1769.0193066188742,641,94.23529411764706
1769.6560082514725,641,95.18716577540107
1770.273983365465,641,96.13903743315507
1770.8919584794578,622,97.09090909090908
1771.5099335934503,622,96.60786974219809
1772.1372719667459,622,95.65599808444408
1772.7739735993441,632,94.70412642669008
1773.4106752319426,641,95.18716577540107
1774.0286503459351,641,96.63693953105717
1774.6372622006247,622,97.10577184010019
1775.2646005739202,613,96.6227324913892
1775.8919389472157,632,95.64179104477613
1776.5192773205113,632,95.64179104477613
1777.1466156938068,632,95.64179104477613
1777.7739540671023,632,96.12483039348712
1778.3919291810948,632,96.1248303934871
1779.0192675543904,622,95.65599808444408
1779.6559691869888,632,95.1729587357331
1780.2833075602844,641,94.70412642669008
1780.9200091928826,632,95.1729587357331
1781.5473475661781,641,95.1729587357331
1782.1746859394736,632,96.12483039348712
1782.7926610534662,632,96.1248303934871
1783.4199994267617,622,96.1248303934871
1784.0473378000572,632,94.71771576898118
1784.6934026919587,632,94.24888345993816
1785.330104324557,650,94.24888345993816
1785.9574426978525,641,95.1729587357331
1786.584781071148,632,95.64179104477613
1787.2121194444435,632,96.12483039348712
1787.830094558436,632,95.65599808444408
1788.4667961910345,622,94.73192280864913
1789.1128610829358,641,93.78005115089513
1789.7495627155342,650,94.24888345993816
1790.3769010888298,641,95.1729587357331
1791.0042394621253,632,96.12483039348712
1791.6222145761178,632,96.1248303934871
1792.2495529494133,622,96.1248303934871
1792.8768913227088,632,95.64179104477613
1793.5042296960044,632,95.64179104477613
1794.1315680692999,632,96.6227324913892
1794.7401799239894,632,97.10577184010019
1795.358155037982,613,97.10577184010019
1795.9854934112775,622,96.1248303934871
1796.612831784573,632,95.1729587357331
1797.2495334171715,632,94.70412642669008
1797.8862350497698,641,94.23529411764706
1798.5229366823683,641,94.70412642669008
1799.1502750556638,641,94.70412642669008
1799.7869766882623,632,94.24888345993816
1800.4330415801635,641,93.78005115089513
1801.069743212762,650,94.24888345993816
1801.6970815860575,641,95.6559980844441
1802.31505670005,632,97.10577184010019
1802.9236685547396,622,98.08671328671328
1803.5322804094294,613,98.08671328671328
1804.150255523422,613,97.10577184010019
1804.7775938967175,622,96.60786974219809
1805.39556901071,632,96.1248303934871
1806.0229073840055,622,97.10577184010019
1806.631519238695,632,97.10577184010019
1807.2494943526876,613,98.08671328671328
1807.8581062073774,622,97.58881118881118
1808.47608132137,613,97.58881118881118
1809.0940564353625,622,97.09090909090908
1809.712031549355,622,97.58881118881118
1810.3206434040446,622,98.08671328671328
1810.9292552587344,613,98.58461538461538
1811.537867113424,613,98.08671328671328
1812.1558422274165,613,97.58881118881118
1812.7738173414093,622,97.09090909090908
1813.3917924554019,622,97.58881118881118
1814.0004043100914,622,98.08671328671328
1814.609016164781,613,98.08671328671328
1815.2269912787738,613,97.58881118881118
1815.8449663927663,622,97.09090909090908
1816.4629415067589,622,97.09090909090908
1817.0809166207514,622,97.09090909090908
1817.698891734744,622,97.58881118881118
1818.3075035894337,622,97.58881118881118
1818.9254787034263,613,98.08671328671328
1819.5340905581158,622,97.10577184010019
1820.1614289314114,613,97.10577184010019
1820.779404045404,632,96.1248303934871
1821.4067424186994,622,96.1248303934871
1822.034080791995,632,95.1729587357331
1822.6707824245934,632,94.70412642669008
1823.3074840571917,641,93.33781512605042
1823.9629122083961,641,93.80664743509344
1824.5902505816916,660,93.80664743509344
1825.22695221429,632,95.1729587357331
1825.8542905875854,641,94.24888345993816
1826.5003554794869,632,94.24888345993816
1827.1370571120851,650,93.78005115089513
1827.7737587446836,641,94.70412642669008
1828.4010971179791,641,95.1729587357331
1829.0284354912746,632,96.12483039348712
1829.6464106052672,632,96.60786974219809
1830.2643857192597,622,96.60786974219809
1830.8917240925553,622,95.65599808444408
1831.5284257251537,632,95.1729587357331
1832.1557640984493,641,95.1729587357331
1832.7831024717445,632,96.12483039348712
1833.4010775857373,632,96.60786974219809
1834.0190526997299,622,97.09090909090908
1834.6370278137224,622,97.58881118881118
1835.245639668412,622,97.58881118881118
1835.8636147824045,613,98.60017482517482
1836.4628633777913,622,99.11363636363636
1837.0621119731782,603,99.61153846153846
1837.6707238278677,603,99.09807692307692
1838.2793356825573,613,99.09807692307692
1838.8785842779441,613,98.60017482517482
1839.4965593919367,603,98.60017482517482
1840.1051712466265,622,98.60017482517482
1840.704419842013,613,99.09807692307692
1841.3130316967029,603,99.61153846153846
1841.9122802920895,613,99.61153846153846
1842.5115288874763,603,101.20161290322581
1843.0920509642572,603,102.84300634584875
1843.663209781735,584,105.06800634584874
1844.2250053399102,575,106.21639344262294
1844.7868008980854,566,105.6516129032258
1845.3673229748663,566,103.9563748079877
1845.9572083109501,584,100.72001117162407
