HR_time,RR-interval,heart_rate
1.8351988231758507,886.0,67.46742706733932
2.7434349754618585,886.0,65.89253766350532
3.689124164955537,915.0,63.90699748585608
4.653539873053051,952.0,62.229236072012185
5.636682099754399,971.0,61.04333804295694
6.638550845059583,990.0,59.9018042405164
7.659146108968602,1009.0,58.97712891584107
8.689104632179538,1028.0,58.432693911592985
9.719063155390476,1037.0,58.98730703259004
10.711568641393741,1037.0,59.34690299218601
11.722800646000843,999.0,58.66556327926735
12.790212206419449,1018.0,58.11095015827029
13.810807470328468,1075.0,57.75135419867433
14.840765993539405,1028.0,58.432693911592985
15.870724516750343,1037.0,59.37482517482516
16.844503484149772,1037.0,59.5529736318727
17.86509874805879,981.0,57.934791813690886
18.988689864288904,1028.0,56.13317238049251
20.056101424707514,1132.0,55.27368421052631
21.12351298512612,1075.0,57.251461988304094
22.13474498973322,1075.0,57.75786312628418
23.174066772246075,1018.0,57.75786312628418
24.24147833266468,1047.0,57.576415623735755
25.2620735965737,1075.0,58.295789202922414
26.263942341878884,1028.0,58.8021903409025
27.303264124391738,1009.0,59.168476888103044
28.305132869696923,1047.0,60.78161764143072
29.232095540586766,1009.0,83.42072733936394
29.709621764984565,933.0,112.00356506238859
30.12160517426894,481.0,113.15121174195014
31.001751548649192,1301.0,93.51885880077369
31.900624441633283,905.0,97.07096523092889
32.2845180730119,1056.0,104.43206801786327
32.949309483448054,764.0,108.55243838823364
33.70773348690338,1169.0,73.68068386423678
34.868777640341165,584.0,78.04778972520907
35.44929971706006,877.0,74.64516129032259
36.3200828321384,962.0,78.36053130929791
37.27513528093399,962.0,64.85009487666034
38.230187729729586,905.0,64.13235294117646
39.12906062271367,943.0,64.55117647058823
40.06538655290544,933.0,65.18575757575758
40.99234922379528,896.0,65.41996810207337
41.881858857477454,886.0,66.78337235739251
42.76200523185771,924.0,67.00353314898186
43.67960464344563,933.0,66.09508019842366
44.60656731433547,886.0,66.09508019842366
45.48671368871573,886.0,67.02256608639587
46.366860063095984,915.0,67.46742706733932
47.27509621538199,915.0,66.76464136872121
48.183332367668,905.0,66.29123711340206
49.08220526065209,933.0,65.8463761324586
50.00916793154193,943.0,65.18575757575758
50.945493861733695,905.0,65.18575757575758
51.84436675471778,915.0,65.63061855670102
52.75260290700379,943.0,65.63061855670102
53.688928837195554,905.0,65.63061855670102
54.58780173017964,886.0,66.33340425531915
55.467948104559895,896.0,67.45761478163493
56.35745773824207,896.0,67.69182530795072
57.24696737192424,886.0,67.69182530795072
58.127113746304495,915.0,67.22823333833597
59.0353498985905,952.0,65.89253766350532
59.98103908808418,905.0,65.41913340818618
60.879911981068275,924.0,65.19443321883207
61.7975113926562,962.0,64.98709483793516
62.752563841451796,990.0,63.07995198079231
63.73570606815314,943.0,62.64403361344537
64.6720319983449,952.0,62.85137199434229
65.61772118783858,981.0,63.04697638994668
66.59150015523801,952.0,62.835491241431825
67.53718934473169,896.0,64.17118691626246
68.42669897841387,933.0,65.2084829535585
69.3536616493037,971.0,64.79783217974327
70.31807735740122,962.0,63.25479812401571
71.27312980619682,943.0,63.03904054825813
72.20945573638858,999.0,62.45211986681464
73.20196122239184,1028.0,61.107273671455765
74.22255648630086,1018.0,59.52505144923355
75.23378849090797,962.0,60.315284523595366
76.18884093970355,1018.0,60.49673202614379
77.20007294431066,1047.0,59.96219749160925
78.23939472682352,1018.0,58.7987987987988
79.25062673143061,1056.0,58.09244959244959
80.29931177324539,1084.0,57.423119392684605
81.37608659296592,1028.0,57.24167189013618
82.39668185687493,1018.0,57.94802109648539
83.40791386148203,981.0,59.91256959146867
84.38169282888147,990.0,60.65909645909645
85.36483505558282,999.0,61.032262077545084
86.35734054158608,943.0,61.85380053908355
87.29366647177784,943.0,62.87094339622641
88.2299924019696,952.0,63.868514851485145
89.17568159146327,962.0,63.44969132207338
90.13073404025887,943.0,63.44969132207338
91.06705997045064,952.0,63.44969132207338
92.01274915994432,962.0,63.44969132207338
92.9678016087399,943.0,63.44969132207338
93.90412753893168,886.0,65.02458072590738
94.78427391331192,915.0,66.10402281202018
95.69251006559793,915.0,66.76464136872121
96.60074621788394,896.0,66.52544763971784
97.49025585156612,839.0,68.50482908301682
98.32358592943677,867.0,69.7016018306636
99.1850057852132,896.0,69.7016018306636
100.07451541889537,905.0,67.9516018306636
100.97338831187946,867.0,67.9516018306636
101.83480816765588,886.0,68.19079555966698
102.71495454203614,943.0,67.30079555966697
103.6512804722279,962.0,65.02458072590738
104.6063329210235,933.0,63.87693404634581
105.53329559191334,952.0,63.665448897830956
106.47898478140702,971.0,63.46213650491262
107.44340048950453,933.0,63.46213650491262
108.37036316039438,877.0,65.28136358891135
109.24114627547272,905.0,66.79349951124145
110.1400191684568,915.0,67.23836049218491
111.04825532074281,877.0,67.23836049218491
111.91903843582115,952.0,66.13687534367006
112.86472762531483,990.0,64.45911392982616
113.84786985201617,981.0,62.02983353280382
114.8216488194156,990.0,61.224175824175816
115.80479104611695,1028.0,60.47764895654803
116.82538631002598,971.0,60.6770514957564
117.78980201812348,943.0,61.69419435289926
118.72612794831524,990.0,62.44072122052704
119.7092701750166,999.0,61.85380053908355
120.70177566101987,943.0,61.85380053908355
121.63810159121162,915.0,63.53156195292744
122.54633774349763,933.0,64.95637613245862
123.47330041438747,971.0,64.33424021012851
124.43771612248499,943.0,63.673621653427475
125.37404205267674,905.0,64.3478640776699
126.27291494566083,943.0,64.97
127.2092408758526,971.0,64.3478640776699
128.1736565839501,971.0,62.835728155339794
129.1380722920476,905.0,63.7257281553398
130.03694518503173,933.0,64.56362165342748
130.96390785592155,952.0,64.97427242724272
131.90959704541524,933.0,64.3000300030003
132.8365597163051,896.0,65.2084829535585
133.72606934998726,924.0,65.8558864694203
134.64366876157519,905.0,66.53012889366272
135.54254165455927,858.0,67.5184458398744
136.39459825103376,905.0,67.97252747252747
137.29347114401784,952.0,66.87104232401262
138.23916033351153,943.0,64.75851485148515
139.1754862637033,886.0,65.2319191068043
140.05563263808355,933.0,65.65916183107672
140.9825953089734,981.0,64.83762336953825
141.95637427637283,943.0,63.47421911421911
142.8927002065646,896.0,64.38267206477732
143.78220984024676,924.0,65.64012889366272
144.6998092518347,924.0,66.07604726100965
145.61740866342262,886.0,66.31524099001302
146.49755503780287,886.0,67.24272687798523
147.37770141218311,924.0,67.24272687798523
148.29530082377104,924.0,66.31524099001302
149.21290023535897,896.0,66.07604726100965
150.10240986904114,915.0,66.30074745036376
151.01064602132715,971.0,65.24269316068671
151.97506172942465,943.0,64.11848263437093
152.91138765961642,896.0,64.58207460398569
153.8008972932986,915.0,65.86482908301682
154.7091334455846,933.0,66.0805866587744
155.63609611647445,886.0,66.31978038777775
156.5162424908547,933.0,65.8749194068343
157.44320516174454,933.0,65.8749194068343
158.3701678326344,915.0,65.1721337082162
159.2784039849204,1028.0,63.192706407687965
160.2989992488294,1103.0,59.873359088340635
161.39450058715377,1037.0,57.270922349821426
162.42445911036472,1094.0,56.08838517804035
163.51059718938714,1066.0,56.73462978888673
164.56864549050385,613.0,55.41814288595915
165.67351008813012,499.0,55.74119188777403
166.74092164854872,1075.0,56.25671883869921
167.77088017175967,1037.0,56.25671883869921
168.87574476938593,1113.0,56.25671883869921
169.94315632980454,1075.0,56.9894804167438
170.9356618158078,999.0,58.30596731967139
171.96562033901876,1037.0,58.47178008166487
173.02366864013544,1066.0,58.66369382829559
174.0068108668368,990.0,59.78397354857531
174.9805898342362,981.0,61.41978021978021
175.95436880163564,981.0,61.41978021978021
176.937511028337,990.0,62.67723704866561
177.8551104399249,924.0,64.38877551020408
178.75398333290903,905.0,65.40591836734694
179.69030926310077,943.0,65.86
180.58918215608486,905.0,66.57774193548387
181.4599652711632,877.0,66.57774193548387
182.39629120135496,943.0,64.29035875791376
183.39815994666014,1009.0,62.471131673915046
184.34384913615384,952.0,62.686889249672625
185.27081180704366,933.0,63.067129570099866
186.25395403374503,990.0,60.492527762092976
187.33072885346553,1084.0,58.513100461564754
188.35132411737456,1028.0,56.74415636218587
189.4280989370951,1084.0,70.53387968234398
190.04607405102166,622.0,89.08040654997176
190.57041657192903,528.0,88.60818842174774
191.67528116955532,1113.0,74.34624697336561
192.78014576718158,1113.0,54.00338983050847
193.9037368834117,622.0,53.851274747187006
195.0179647403399,509.0,55.52735760971054
196.029196744947,622.0,56.14115071315883
197.11533482396945,499.0,56.447981137636305
198.2108361622938,1018.0,55.913446603101775
199.25015794480666,1094.0,58.64816835113864
200.19584713430032,1103.0,60.93021963318992
201.16962610169978,1047.0,61.83791978617309
202.16213158770304,952.0,61.42726901235784
203.12654729580055,981.0,62.909426030597345
204.03478344808656,999.0,63.49634671204083
204.99919915618406,971.0,62.35481290960029
206.0197944200931,915.0,60.29681117532916
207.02166316539828,971.0,60.918947097659256
207.95798909559002,1028.0,61.47356021865632
208.9504945815933,1009.0,62.04940493468794
209.92427354899272,943.0,62.26516251044552
210.85123621988257,999.0,62.85208319188901
211.81565192798007,981.0,62.65647879628462
212.79879415468145,933.0,63.33072122052704
213.69766704766553,971.0,63.95285714285714
214.63399297785728,990.0,64.3478640776699
215.5984086859548,905.0,64.58207460398569
216.48791831963698,943.0,104.25064603255711
216.8156323952041,971.0,118.52917539751016
217.38679121262106,1226.0,117.19347972267951
218.33248040211473,575.0,76.50776543696523
219.31562262881607,952.0,62.639886845827434
220.26131181830976,990.0,61.6423153905687
221.25381730431303,952.0,61.26207507014146
222.25568604961822,999.0,61.262075070141464
223.20137523911188,1009.0,62.471131673915046
224.13770116930365,952.0,62.85137199434229
225.120843396005,943.0,62.85137199434229
226.0665325854987,990.0,63.51199055104332
226.9747687377847,952.0,64.31764825967133
227.92045792727836,915.0,63.70759494664771
228.8942368946778,952.0,62.835491241431825
229.83992608417148,981.0,63.26273396570426
230.76688875506133,952.0,63.87278727872787
231.712577944555,933.0,63.067129570099866
232.69572017125634,952.0,62.639886845827434
233.64140936075003,990.0,64.21477624966144
234.52155573513028,952.0,66.12191910680428
235.42042862811437,886.0,66.76932262266608
236.3380280397023,905.0,66.29591836734693
237.23690093268638,924.0,67.26330967169477
238.09832078846281,905.0,67.48800986104885
239.00655694074882,867.0,65.7764713995104
239.98033590814825,915.0,63.500256565750796
240.93538835694383,981.0,63.500256565750796
241.84362450922984,962.0,63.69965910495917
242.80804021732735,915.0,62.00172587761418
243.84736199984022,971.0,60.71897139858304
244.81177770793772,1047.0,61.34110732091314
245.7481036381295,971.0,61.69419435289925
246.7686989020385,943.0,59.21274053163961
247.86420024036286,1028.0,56.92416910306818
248.91288528217763,1103.0,56.064680933101975
249.98029684259623,1056.0,56.382183720169984
251.05707166231676,1075.0,57.08853292651919
252.06830366692387,1084.0,56.76548392470431
253.15444174594631,1018.0,56.447981137636305
254.24994308427068,1094.0,57.208664898320066
255.2237220516701,1103.0,58.39120207010114
256.2443173155791,981.0,58.871633918954046
257.31172887599774,1028.0,57.576415623735755
258.3510506585106,1075.0,59.3400853485064
259.28737658870233,1047.0,60.56586006567314
260.28924533400755,943.0,60.05945892769306
261.3566568944261,1009.0,59.0423160705502
262.3397991211275,1075.0,60.4396992481203
263.27612505131924,990.0,62.241318681318674
264.24990401871867,943.0,61.31664335664335
265.2798625419296,981.0,61.10515820812849
266.2255517314233,1037.0,60.52931349209686
267.22742047672847,952.0,61.07374849634495
268.2292892220337,1009.0,60.463695183321335
269.2030681894331,1009.0,62.521696917592465
270.1113043417191,981.0,63.0975416336241
271.08508330911855,915.0,62.71002349138898
272.0775887951218,981.0,62.48532330203488
272.9951882067097,999.0,63.0953766150585
273.9408773962034,924.0,63.0953766150585
274.9333828822067,952.0,60.370886819140125
275.98206792402146,999.0,60.16354843824321
276.93712037281705,1056.0,60.95378151260503
277.89217282161263,962.0,62.420814479638
278.86595178901206,962.0,63.05539558480734
279.7929144599019,981.0,64.36421911421911
280.69178735288597,933.0,65.62167594310452
281.6093867644739,905.0,65.62167594310452
282.5363494353638,924.0,64.7316759431045
283.4726753655555,933.0,64.7316759431045
284.3902747771435,943.0,63.118535189776836
285.39214352244863,924.0,61.00177843302008
286.4314653049615,1009.0,58.8021903409025
287.4520605688705,1047.0,58.990516914699015
288.44456605487375,1028.0,58.64992853871241
289.5026143559905,999.0,57.79044036874621
290.57002591640907,1066.0,58.17795851098133
291.5438048838085,1075.0,59.23792046615459
292.5456736291137,981.0,59.57250693232
293.59435867092844,1009.0,58.81182317163625
294.60559067553555,1056.0,60.20920634920635
295.5419166057273,1018.0,61.67623931623931
296.5156955731267,943.0,61.49479181369089
297.5362908370358,981.0,60.87265589136079
298.50070654513326,1028.0,61.27537082348749
299.4557589939289,971.0,62.21750208671966
300.4295379613283,962.0,61.442254831479666
301.4314067066335,981.0,61.03953989935297
302.4051856740329,1009.0,61.442254831479666
303.3602381228285,981.0,61.82249515190691
304.34338034952987,962.0,61.246650435875274
305.345249094835,990.0,61.45398881677219
306.2909382843287,1009.0,62.471131673915046
307.2272642145205,952.0,63.24637892915504
308.191679922618,943.0,63.673621653427475
309.11864259350784,971.0,63.88937922918505
310.0456052643977,933.0,63.68997668997669
311.0193842317971,933.0,61.89199689199689
312.0306162364042,981.0,60.65909645909645
313.01375846310555,1018.0,60.27157831686134
314.0062639491088,990.0,59.73704378232679
315.0455857316217,999.0,59.17196441724743
316.05681773622877,1047.0,59.758885098690925
317.0212334443263,1018.0,61.66415670693283
317.96692263382,971.0,62.424840467616576
318.9407016012194,952.0,61.83791978617309
319.9332070872227,981.0,62.710023491388974
320.8414432395087,999.0,62.71002349138898
321.8152222069081,915.0,61.97726191334438
322.84518073011907,981.0,60.107586752869764
323.83768621612234,1037.0,60.92912521440823
324.7740121463141,999.0,61.85380053908355
325.75715437301545,943.0,61.121038961038956
326.78711289622635,990.0,59.91198235726537
327.7796183822296,1037.0,60.107586752869764
328.75339734962904,999.0,60.46718271246572
329.76462935423615,981.0,59.559482559482554
330.803951136749,1018.0,58.98363784345092
331.8058198820542,1047.0,61.00177843302008
332.7234192936421,1009.0,63.118535189776836
333.6597452238339,924.0,63.89378244501684
334.6241609319314,943.0,62.44072122052704
335.60730315863276,971.0,62.876639587873974
336.52490257022066,990.0,63.49877551020408
337.46122850041246,924.0,64.30443321883209
338.4069176899061,943.0,63.04697638994668
339.3806966573055,952.0,63.482894757293614
340.2982960688935,981.0,63.910137481566046
341.2252587397833,924.0,63.52261933933093
342.2177642257866,933.0,61.1448827901658
343.24772274899755,999.0,60.51030168499646
344.20277519779313,1037.0,60.32197511119995
345.2046439430983,962.0,60.68157107079591
346.2158759477054,1009.0,60.08325174306482
347.1990181744068,1018.0,61.6963924963925
348.12598084529657,990.0,62.06955811484113
349.11848633129983,933.0,61.32303124721334
350.1390815952089,999.0,61.10727367145577
351.07540752540064,1028.0,61.89750674581759
352.0304599741962,943.0,62.26379329301813
353.03232871950144,962.0,60.86641011544803
354.0341974648066,1009.0,61.07374849634495
354.9798866543003,1009.0,61.262075070141464
355.97239214030355,952.0,61.26207507014146
356.9742608856087,999.0,60.45641736151346
357.9574031123101,1009.0,61.246650435875274
358.9124555611057,990.0,61.43497700967178
359.90496104710894,962.0,59.8289619720778
360.9723726075276,999.0,58.48411577671893
361.9929678714366,1075.0,58.11095015827029
363.0041998760437,1028.0,58.445536624435704
364.0528849178584,1018.0,57.92063492063492
365.1015699596732,1056.0,58.29380053908355
366.0940754456765,1056.0,58.640553785836794
367.12403396888743,999.0,58.6405537858368
368.17271901070217,1037.0,59.22747446728029
369.1371347187997,1056.0,60.34775418756
370.1109136861991,971.0,61.42726901235784
371.1034191722024,981.0,60.10758675286976
372.13337769541334,999.0,60.107586752869764
373.10715666281277,1037.0,60.69450743431325
374.0715723709103,981.0,61.23894243856133
375.07344111621546,971.0,61.64165737068804
376.02849356501105,1009.0,62.26379329301813
376.96481949520285,962.0,62.07895424836601
377.9760514998099,943.0,60.55595959595959
379.00601002302085,1018.0,60.137136066547825
379.96106247181643,1037.0,60.51030168499646
380.9535679578197,962.0,60.688450142044
381.97416322172876,999.0,60.688450142044005
382.92921567052434,1028.0,61.686021597302734
383.87490486001803,962.0,61.86746909985116
384.8861368646251,952.0,59.997721200691494
385.9348219064399,1018.0,59.38766788766788
386.9086008738393,1056.0,59.20622038511946
387.92919613774836,981.0,59.5529736318727
388.95915466095926,1028.0,59.35736923626831
389.94229688766063,1037.0,61.336796536796534
390.8692595585505,990.0,61.88123154104462
391.87112830385564,933.0,60.78161764143072
392.9104500863685,1009.0,60.147036536261375
393.86550253516407,1047.0,60.72288125229301
394.83928150256355,962.0,61.630581405276175
395.8317869885668,981.0,60.84034833091435
396.8242924745701,999.0,61.661886792452826
397.76061840476183,999.0,61.85380053908355
398.74376063146315,943.0,61.48063492063492
399.75499263607026,990.0,60.65909645909645
400.7287716034697,1018.0,60.46718271246573
401.72127708947295,981.0,60.2857352099173
402.741872353382,999.0,59.70989049388567
403.74374109868717,1028.0,60.50012356824749
404.69879354748275,1009.0,60.50012356824749
405.7193888113918,962.0,60.13383702104694
406.7399840753008,1028.0,59.731122088920245
407.71376304270024,1028.0,61.283306665176035
408.6594522321939,981.0,61.83791978617309
409.6519577181972,952.0,61.6423153905687
410.6350999448985,999.0,61.23166461675345
411.59951565299605,990.0,60.49890303870885
412.629474176207,971.0,67.89630563611146
413.35044514245465,1037.0,104.88817128817128
413.6968857366256,1075.0,104.3726443372461
414.75493403774226,1066.0,105.11238459698635
415.4571784853861,1122.0,95.92810941271117
415.86916189467047,1066.0,95.92810941271117
416.92721019578715,1037.0,86.86629123089298
417.9571687189981,1103.0,56.5772469418487
419.0526700573225,1047.0,56.91783531783531
420.0919918398353,1075.0,56.23649560491665
421.1594034002539,1094.0,56.39387845195468
422.24554147927637,603.0,55.40704546512168
423.34104281760074,499.0,56.632820182288434
424.3429115629059,1009.0,57.63720889702197
425.37287008611685,1037.0,58.452227212040285
426.42155512793164,1056.0,58.452227212040285
427.4234238732368,1009.0,60.182560245343616
428.3691130627305,952.0,61.07374849634495
429.37098180803565,1009.0,60.7074619491444
430.39157707194465,1028.0,60.296811175329154
431.3559927800422,971.0,59.930524628128616
432.3765880439512,1028.0,59.5774375961425
433.4159098264641,1047.0,58.8021903409025
434.41777857176925,1009.0,59.744321604134676
435.3915575391687,981.0,60.463695183321335
436.3934262844739,1009.0,59.744321604134676
437.43274806698673,1047.0,59.94372414334305
438.3971637750842,971.0,60.32396446377028
439.3803060017856,990.0,61.04333804295694
440.38217474709074,1009.0,59.37690253671561
441.43085978890554,1056.0,59.37690253671561
442.4140020156069,990.0,59.01061598951507
443.4345972795159,1028.0,59.18243066132974
444.47391906202876,1047.0,58.25775533665441
445.5038775852397,1037.0,60.021425061425056
446.44020351543145,943.0,60.92912521440823
447.4327090014347,999.0,60.75418663946965
448.47203078394756,1047.0,59.73704378232679
449.45517301064893,990.0,60.94610038610038
450.3914989408407,943.0,61.121038961038956
451.4214574640516,1037.0,59.03459207459207
452.516958802376,1103.0,57.82553547081848
453.50946428837926,999.0,58.185131430414444
454.5206962929864,1018.0,58.83137604126083
455.57874459410306,1066.0,57.58308751229105
456.63679289521974,1066.0,58.746486205101505
457.5918453440153,962.0,59.440161613074224
458.6124406079243,1028.0,59.111419789295844
459.68921542764485,1084.0,57.94802109648539
460.70044743225196,1018.0,59.29286729184427
461.65549988104755,962.0,60.315284523595366
462.6760951449566,1028.0,59.9556885639994
463.7060536681675,1037.0,59.35736923626831
464.6891958948689,990.0,59.35736923626831
465.7097911587779,1028.0,59.35736923626831
466.7397496819888,1037.0,58.25775533665441
467.77907146450167,1047.0,59.60260153201329
468.73412391329725,962.0,60.147036536261375
469.73599265860247,1009.0,59.80644816027477
470.79404095971915,1066.0,57.279064793134815
471.8801790387416,1094.0,57.09422574848269
472.8914110433487,1018.0,56.605363984674334
473.97754912237116,1094.0,56.76548392470431
475.0543239420917,1084.0,56.40588796510835
476.0842824653026,1037.0,56.56600790513833
477.1610572850231,1084.0,56.56600790513833
478.23783210474363,1084.0,57.686287625418046
479.21161107214306,981.0,60.05355105252802
480.1666635209387,962.0,61.630581405276175
481.15916900694197,999.0,60.86989764459242
482.170401011549,1018.0,60.86989764459243
483.12545346034466,962.0,60.49673202614379
484.1366854649517,1018.0,59.79038281979458
485.1853705067665,1056.0,58.62698412698413
486.1966025113736,1018.0,59.79038281979458
487.1516549601692,962.0,60.315284523595366
488.1722502240782,1028.0,60.13383702104694
489.19284548798726,1028.0,58.97043832823649
490.20407749259437,1018.0,58.445536624435704
491.2527625344091,1056.0,58.26738816738816
492.28272105762005,1037.0,59.02807192807192
493.2565000250195,981.0,60.29950049950049
494.23964225172085,990.0,60.843935503748575
495.241510997026,1009.0,61.246650435875274
496.1965634458216,962.0,62.05230814450328
497.1422526353153,952.0,61.686021597302734
498.1628478992243,1028.0,60.34117540194386
499.18344316313335,1028.0,59.93052462812861
500.1478588712308,971.0,59.5774375961425
501.1871806537437,1047.0,60.13205071713955
502.179686139747,999.0,59.35680346189955
503.18155488505215,1009.0,60.07617704108622
504.1834236303573,1009.0,60.07617704108621
505.1759291163606,999.0,61.05473668924455
506.1309815651562,962.0,60.510301684996456
507.1609400883671,1037.0,59.60260153201329
508.20026187087996,1047.0,59.19988659988659
509.17404083827944,981.0,59.932648177931185
510.1665463242827,999.0,60.2857352099173
511.1871415881917,1028.0,60.090130814312914
512.1702838148931,990.0,60.6770514957564
513.1346995229906,971.0,60.677051495756395
514.1552947868996,1028.0,59.5774375961425
515.1946165694125,1047.0,58.990516914699015
516.1871220554157,999.0,59.73704378232679
517.170264282117,990.0,60.45641736151345
518.1721330274222,1009.0,59.37690253671561
519.220818069237,1056.0,59.57250693232
520.1945970366364,981.0,59.20622038511946
521.2151923005455,1028.0,59.037446680947525
522.2732406016621,1066.0,58.46160196491589
523.2751093469674,1009.0,58.643049467464316
524.2863413515744,1018.0,58.81182317163625
525.3350263933892,1056.0,58.26738816738816
526.3649849166002,1037.0,59.22747446728029
527.3294006246977,971.0,59.9338236736295
528.3406326293048,1018.0,59.58707042687625
529.3893176711196,1056.0,58.09244959244959
530.4286394536324,1047.0,58.27728863710171
531.4305081989376,1009.0,58.449103308916385
532.4698299814504,1047.0,70.16238180480357
533.1158948732827,1066.0,98.74521952782821
533.5278782825671,990.0,99.84483342744211
534.5110205092684,1009.0,88.8509285107416
535.5128892545737,1075.0,59.0423160705502
536.5803008149923,1094.0,57.113252031141336
537.6664388940147,1018.0,56.928412986489214
538.6776708986218,1094.0,56.605363984674334
539.7638089776442,1094.0,56.605363984674334
540.8499470566667,1075.0,55.56442831215971
541.9173586170853,1122.0,55.1002150406442
543.0315864740135,1056.0,55.7578505086245
544.0802715158283,1037.0,56.43919022154315
545.1102300390392,1094.0,56.90340349305866
546.1963681180616,1066.0,56.73462978888673
547.2544164191784,990.0,57.659305113562056
548.2375586458796,1037.0,58.66369382829559
549.2675171690906,1056.0,58.832467532467525
550.3162022109054,1028.0,58.08594066483974
551.3367974748144,990.0,59.01061598951507
552.3199397015158,1056.0,59.01061598951507
553.3686247433305,1094.0,57.82807881773399
554.4547628223529,1018.0,57.262999452654626
555.46599482696,1009.0,58.15418770365596
556.4678635722653,1056.0,58.81182317163625
557.51654861408,1028.0,58.630375669087826
558.537143877989,990.0,59.01061598951507
559.5202861046904,1047.0,59.18243066132974
560.5596078872032,1066.0,58.48875525335702
561.6176561883199,1009.0,58.10851493292978
562.6195249336251,962.0,59.80644816027477
563.5745773824207,1018.0,60.68157107079591
564.5858093870278,1009.0,60.68157107079591
565.5876781323329,943.0,61.10039460020768
566.5240040625248,962.0,62.26379329301813
567.4790565113203,1047.0,61.54441971383147
568.5183782938332,1037.0,59.60260153201329
569.5483368170442,981.0,59.19988659988659
570.5221157844436,1018.0,59.734421134421126
571.5333477890507,1047.0,59.559482559482554
572.5726695715636,1028.0,58.617351296250376
573.5932648354725,962.0,59.78074998906083
574.5483172842681,971.0,61.27537082348749
575.5127329923656,1009.0,61.64165737068803
576.5146017376709,1009.0,60.663097722529706
577.516470482976,952.0,61.07374849634495
578.4621596724697,1018.0,60.888909451692825
579.4733916770768,1037.0,60.34447444744474
580.5033502002877,971.0,59.93382367362949
581.4677659083852,999.0,60.30698929207813
582.4602713943885,1037.0,60.30698929207813
583.4902299175994,999.0,59.72006861063464
584.4827354036028,971.0,60.30698929207813
585.4471511117002,1018.0,60.66658525167409
586.4583831163073,1009.0,60.478258677877584
587.4602518616125,952.0,60.888909451692825
588.4059410511062,1009.0,61.07374849634495
589.4078097964114,1028.0,60.7074619491444
590.4284050603204,1009.0,59.52156392008916
591.4302738056256,952.0,60.7074619491444
592.3759629951193,1018.0,60.888909451692825
593.3871949997264,999.0,61.07723602548934
594.3797004857296,952.0,61.07723602548934
595.3253896752233,999.0,61.450401643937965
596.3178951612266,1037.0,60.71764006589337
597.3478536844375,1009.0,59.53174203683813
598.3497224297427,1037.0,58.79898045879353
599.3796809529537,1103.0,57.637208897021964
600.475182291278,1037.0,57.092773892773884
601.505140814489,1009.0,57.63720889702197
602.5070095597941,1094.0,57.79459174405999
603.5931476388165,1037.0,57.79459174405999
604.6231061620275,971.0,58.56983899929999
605.587521870125,1028.0,59.752376171081075
606.608117134034,1018.0,60.11197213067704
607.6193491386412,981.0,59.91256959146867
608.5931281060406,1009.0,60.27885613866921
609.5949968513457,1037.0,59.91926017907325
610.6249553745566,990.0,59.72365578346886
611.608097601258,981.0,60.29950049950049
612.5818765686574,1028.0,60.47764895654803
613.6024718325665,1066.0,59.037446680947525
614.6605201336831,1009.0,58.46160196491589
615.6623888789884,1028.0,58.46160196491589
616.6829841428973,1066.0,58.46160196491589
617.7410324440141,999.0,58.6499285387124
618.7335379300173,1037.0,58.47178008166487
619.7634964532283,1084.0,58.14303825788649
620.8402712729488,999.0,58.14303825788649
621.832776758952,971.0,59.462720517374564
622.7971924670495,1028.0,60.48513774912567
623.8177877309586,1009.0,60.29681117532916
624.8196564762637,971.0,60.296811175329154
625.7840721843613,1009.0,60.663097722529706
626.7859409296665,1037.0,60.11866271828162
627.8158994528774,1009.0,59.343415463041616
628.8177681981825,952.0,60.52931349209686
629.7634573876762,999.0,61.262075070141464
630.7559628736796,1037.0,60.71764006589337
631.7859213968904,952.0,60.71764006589338
632.7316105863841,981.0,61.10515820812849
633.7053895537836,999.0,61.83791978617309
634.6978950397869,962.0,61.630581405276175
635.6529474885824,952.0,62.24063471829979
636.5986366780761,1018.0,61.86746909985116
637.6098686826832,1028.0,60.52262290449228
638.6304639465923,999.0,59.525051449233544
639.6229694325955,952.0,60.89578852294092
640.5686586220892,1009.0,61.26207507014146
641.5705273673943,1047.0,60.35437491715829
642.6098491499072,1009.0,59.168476888103044
643.6117178952125,962.0,60.147036536261375
644.566770344008,1018.0,60.68157107079591
645.5780023486151,1018.0,60.49673202614379
646.5892343532222,971.0,60.293419633225454
647.5536500613197,1018.0,60.29341963322546
648.5648820659268,1028.0,60.11197213067704
649.5854773298358,971.0,60.11197213067703
650.5498930379333,962.0,61.27537082348749
651.504945486729,1047.0,60.92228379150137
652.5442672692418,1066.0,59.08707458108811
653.6023155703585,981.0,58.68435964896141
654.576094537758,1047.0,58.68435964896141
655.6154163202708,1094.0,58.19549788515305
656.7015543992932,981.0,58.19549788515305
657.6753333666926,990.0,59.29511178476695
658.658475593394,1037.0,60.29950049950049
659.688434116605,1018.0,59.538816738816735
660.6996661212121,962.0,60.137136066547825
661.6547185700076,1009.0,60.68157107079591
662.6565873153128,1056.0,59.9752218644467
663.7052723571276,962.0,59.9752218644467
664.6603248059232,952.0,61.16111989350195
665.6060139954169,1009.0,62.05230814450328
666.6078827407221,999.0,61.262075070141464
667.6003882267253,962.0,61.05473668924455
668.5554406755209,1018.0,60.86989764459242
669.566672680128,1018.0,60.49673202614379
670.5779046847351,981.0,60.09401709401709
671.5516836521346,1018.0,60.09401709401709
672.5629156567417,1037.0,59.734421134421126
673.5928741799526,990.0,59.538816738816735
674.5760164066539,1028.0,59.35736923626831
675.596611670563,1066.0,58.841842285343134
676.6546599716796,999.0,58.6499285387124
677.647165457683,943.0,60.41359826348305
678.5834913878747,1009.0,61.47356021865631
679.5853601331798,1047.0,60.56586006567314
680.6246819156927,962.0,60.147036536261375
681.5797343644883,962.0,61.125596184419706
682.5347868132839,1037.0,61.30053475935828
683.5647453364949,1009.0,60.32197511119995
684.5666140818,943.0,60.740798640611715
685.5029400119918,999.0,61.47356021865632
686.4954454979951,1056.0,60.58237196765498
687.5441305398098,971.0,59.960236045324876
688.5085462479074,981.0,60.34775418756
689.4823252153068,1009.0,61.23894243856133
690.484193960612,981.0,61.03953989935297
691.4579729280114,943.0,61.86107836089143
692.3942988582031,990.0,62.241318681318674
693.3774410849045,1028.0,61.2991874180865
694.3980363488135,981.0,60.47764895654803
695.371815316213,1028.0,59.731122088920245
696.3924105801219,1047.0,59.37803505693413
697.4317323626348,990.0,59.18243066132974
698.4148745893361,999.0,59.73704378232679
699.4073800753395,1056.0,59.56522911051212
700.4560651171541,1047.0,58.46561521089822
701.4953868996671,1009.0,58.27728863710171
702.4972556449723,1028.0,58.8021903409025
703.5178509088812,1056.0,58.630375669087826
704.566535950696,1028.0,58.26408912188728
705.587131214605,1047.0,57.91100208990117
706.6264529971179,1094.0,57.253366621920875
707.7125910761404,1047.0,56.90027958993476
708.7519128586532,1009.0,57.61965316912142
709.7537816039584,1028.0,58.8021903409025
710.7743768678674,1028.0,59.15527737288861
711.7949721317764,971.0,59.93052462812861
712.759387839874,1028.0,59.930524628128616
713.7799831037829,1075.0,59.07103645816242
714.8473946642016,999.0,58.48411577671892
715.8399001502048,933.0,60.46354307724715
716.7668628210946,971.0,62.464565049653885
717.7312785291922,1009.0,62.276238475857376
718.7331472744974,971.0,61.4383449777697
719.6975629825948,971.0,61.4383449777697
720.6619786906924,1028.0,61.07205843056916
721.6825739546014,1047.0,59.5774375961425
722.7218957371142,1018.0,58.617351296250376
723.7331277417213,1028.0,58.617351296250376
724.7537230056304,1075.0,58.11095015827029
725.821134566049,1009.0,58.295789202922414
726.8230033113541,971.0,59.437323005362956
727.7874190194517,1047.0,59.94372414334305
728.8267408019645,1018.0,59.75888509869092
729.8379728065717,981.0,59.559482559482554
730.8117517739711,1028.0,59.91256959146867
731.8323470378801,1037.0,59.5529736318727
732.862305561091,990.0,59.35736923626831
733.8454477877924,1009.0,59.72365578346886
734.8473165330976,1018.0,60.08325174306482
735.8585485377047,962.0,60.68157107079591
736.8136009865002,981.0,61.25741578682754
737.7873799538996,1009.0,61.442254831479666
738.7892486992049,999.0,60.65202175711785
739.7817541852081,933.0,61.689317794413896
740.708716856098,990.0,62.06955811484113
741.6918590827993,1037.0,61.336796536796534
742.7218176060103,990.0,60.1038961038961
743.7049598327117,962.0,60.70221543162719
744.6600122815072,1018.0,61.06181139122315
745.6712442861143,1047.0,59.96219749160925
746.7105660686271,981.0,59.559482559482554
747.6843450360266,962.0,60.72288125229301
748.6393974848222,1047.0,60.72288125229301
749.678719267335,1028.0,59.78074998906083
750.6993145312441,971.0,59.5774375961425
751.6637302393416,1009.0,60.29681117532916
752.6655989846467,1028.0,60.29681117532916
753.6861942485558,971.0,60.296811175329154
754.6506099566533,952.0,61.482709204384406
755.596299146147,999.0,62.03732232538145
756.5888046321502,1009.0,61.26207507014146
757.5906733774555,971.0,60.851424296326215
758.5550890855529,1018.0,60.478258677877584
759.56632109016,1018.0,60.29341963322546
760.5775530947672,971.0,60.293419633225454
761.5419688028646,981.0,61.054103393909216
762.515747770264,1009.0,61.23894243856133
763.5176165155692,971.0,61.23894243856134
764.4820322236668,999.0,60.851424296326215
765.47453770967,1018.0,60.66658525167409
766.4857697142771,999.0,60.079664570230605
767.4782752002805,952.0,61.07723602548934
768.4239643897741,1009.0,61.26207507014146
769.4258331350793,1037.0,60.52931349209686
770.4557916582902,981.0,59.91926017907325
771.4295706256896,952.0,61.10515820812849
772.3752598151833,1028.0,61.283306665176035
773.3958550790924,1047.0,59.988088369957744
774.4351768616052,962.0,59.78074998906083
775.3902293104007,1037.0,59.60260153201329
776.4201878336117,1028.0,59.9556885639994
777.4407830975207,962.0,59.9556885639994
778.3958355463163,999.0,60.688450142044005
779.3883410323197,999.0,61.24306326304105
780.3808465183229,943.0,61.661886792452826
781.3171724485146,981.0,62.04940493468794
782.290951415914,999.0,62.04940493468794
783.2834569019174,962.0,61.630581405276175
784.2385093507129,1047.0,60.335363110057884
785.2778311332257,1084.0,58.75833275730973
786.3546059529463,1028.0,57.413486561950855
787.3752012168553,1028.0,57.76657359393697
788.3957964807644,1113.0,57.29435546571295
789.5006610783906,1122.0,55.64760502241636
790.6148889353188,1009.0,56.01389156961691
791.616757680624,1047.0,57.155439897605916
792.6560794631368,1066.0,58.10851493292978
793.7141277642536,1018.0,57.92367588827766
794.7253597688607,1066.0,57.58308751229105
795.7834080699773,1047.0,57.92367588827766
796.8227298524902,971.0,58.88376218816978
797.7871455605876,1028.0,59.577437596142495
798.8077408244967,1009.0,60.29681117532916
799.8096095698019,1018.0,59.336724875437035
800.820841574409,1047.0,58.98363784345092
801.8601633569218,1009.0,58.98363784345092
802.8620321022271,971.0,59.94372414334305
803.8264478103246,1037.0,60.11866271828162
804.8564063335355,1028.0,59.752376171081075
805.8770015974445,952.0,60.163026944896316
806.8226907869382,999.0,60.89578852294092
807.8151962729414,1037.0,60.71764006589337
808.8451547961524,1009.0,59.53174203683813
809.8470235414576,962.0,60.32197511119995
810.8020759902532,990.0,61.246650435875274
811.7852182169545,1028.0,60.88036388867473
812.8058134808635,952.0,61.08770226957164
813.7515026703572,990.0,61.08770226957164
814.7346448970586,1028.0,61.08770226957164
815.7552401609676,1009.0,59.9018042405164
816.7571089062727,943.0,60.918947097659256
817.6934348364646,990.0,61.66547396528704
818.6765770631658,1028.0,61.2991874180865
819.6971723270749,971.0,60.6770514957564
820.6615880351724,999.0,60.48513774912567
821.6540935211757,1037.0,60.30698929207813
822.6840520443866,981.0,60.107586752869764
823.657831011786,933.0,61.532400932400925
824.5847936826759,981.0,62.652680652680644
825.5585726500753,1018.0,61.89199689199689
826.5698046546825,981.0,60.854700854700845
827.5435836220819,962.0,61.25741578682754
828.4986360708774,999.0,61.630581405276175
829.4911415568807,1009.0,61.05473668924454
830.4930103021859,962.0,61.05473668924455
831.4480627509815,990.0,61.246650435875274
832.4312049776828,1028.0,60.88036388867473
833.4518002415919,971.0,60.6770514957564
834.4162159496893,924.0,62.130112720246196
835.3338153612773,999.0,62.68472584124325
836.3263208472806,1009.0,61.90947858600325
837.3281895925858,962.0,61.05473668924455
838.2832420413813,1009.0,60.86641011544803
839.2851107866866,1028.0,60.50012356824749
840.3057060505955,962.0,60.50012356824749
841.2607584993912,933.0,62.113264321575166
842.187721170281,1018.0,62.29471182412359
843.1989531748881,990.0,61.6963924963925
844.1820954015894,943.0,61.48063492063492
845.1184213317812,962.0,62.64403361344537
846.0734737805768,1018.0,62.07895424836601
847.0847057851839,981.0,61.25741578682754
848.0584847525834,971.0,61.054103393909216
849.0229004606808,1056.0,60.34775418756
850.0715855024956,1075.0,58.546134754361624
851.1389970629142,999.0,57.959214072918144
852.1315025489175,1028.0,58.48411577671893
853.1520978128265,1075.0,58.48411577671893
854.2195093732452,1009.0,58.295789202922414
855.2213781185503,1028.0,58.295789202922414
856.2419733824593,1056.0,58.630375669087826
857.290658424274,990.0,59.01061598951507
858.2738006509754,990.0,59.75714285714285
859.2569428776768,1018.0,60.46349206349206
860.2681748822839,1037.0,59.538816738816735
861.2981334054948,981.0,59.734421134421126
862.2719123728942,1028.0,59.5529736318727
863.2925076368033,1066.0,59.037446680947525
864.3505559379199,990.0,58.841842285343134
865.3336981646213,981.0,59.78397354857531
866.3074771320207,1037.0,60.29950049950049
867.3374356552317,1047.0,59.19988659988659
868.3767574377446,971.0,59.39928913909496
869.341173145842,1018.0,59.75888509869092
870.3524051504492,1028.0,60.11197213067704
871.3730004143582,971.0,60.11197213067703
872.3374161224557,971.0,61.07205843056916
873.3018318305532,999.0,61.62667155156622
874.2943373165565,952.0,62.03732232538146
875.2400265060502,971.0,62.03732232538145
876.2044422141477,999.0,62.03732232538145
877.1969477001509,999.0,61.03975087012273
878.1894531861542,943.0,61.661886792452826
879.1257791163459,981.0,62.04940493468794
880.0995580837454,1009.0,61.86107836089143
881.1014268290505,990.0,60.843935503748575
882.0845690557519,962.0,61.246650435875274
883.0396215045475,990.0,61.626890756302515
884.0227637312488,999.0,61.43497700967178
885.0152692172521,943.0,61.85380053908355
885.9515951474439,999.0,61.66188679245282
886.9441006334472,1018.0,61.28872117400419
887.9553326380543,990.0,60.27157831686134
888.9384748647556,943.0,61.48063492063492
889.8748007949473,981.0,62.241318681318674
890.8485797623468,1028.0,61.49479181369089
891.8691750262558,990.0,60.47764895654803
892.8523172529572,952.0,61.08770226957164
893.7980064424509,1009.0,61.45398881677219
894.799875187756,1009.0,61.07374849634495
895.8017439330612,962.0,60.86641011544803
896.7567963818568,999.0,61.05473668924455
897.74930186786,1028.0,60.688450142044
898.7698971317691,999.0,59.89821706768218
899.7624026177723,962.0,60.688450142044005
900.7174550665679,1018.0,60.86989764459242
901.728687071175,1028.0,60.315284523595366
902.7492823350841,971.0,60.11197213067703
903.7136980431816,971.0,61.07205843056916
904.678113751279,1037.0,60.893909973521616
905.7080722744901,1009.0,60.11866271828162
906.7099410197952,971.0,60.11866271828161
907.6743567278927,999.0,60.851424296326215
908.666862213896,1056.0,59.96023604532488
909.7155472557108,990.0,59.56522911051212
910.6986894824121,933.0,60.99004329004329
911.625652153302,999.0,62.06955811484113
912.6181576393052,1037.0,61.1448827901658
913.6481161625162,1009.0,59.53174203683813
914.6499849078214,990.0,59.72365578346886
915.6331271345227,1028.0,59.9018042405164
916.6537223984317,999.0,60.090130814312914
917.646227884435,981.0,60.285735209917306
918.6200068518344,990.0,61.032262077545084
919.6031490785358,999.0,61.032262077545084
920.595654564539,933.0,62.06955811484113
921.5226172354288,924.0,63.52261933933092
922.4402166470168,971.0,64.10954002077442
923.4046323551144,1009.0,62.49639926744674
924.4065011004195,952.0,61.84899575158495
925.3521902899132,971.0,61.84899575158495
926.3166059980107,1056.0,60.95780750058361
927.3652910398255,999.0,59.960236045324876
928.3577965258287,943.0,60.58237196765498
929.2941224560204,990.0,61.85380053908355
930.2772646827218,1037.0,61.121038961038956
931.3072232059328,981.0,60.29950049950049
932.2810021733322,971.0,60.69450743431325
933.2454178814297,1018.0,61.05410339390921
934.2566498860368,990.0,60.858498998304825
935.2397921127382,933.0,61.6963924963925
936.166754783628,990.0,62.26147186147186
937.1498970103294,1028.0,61.514944993844075
938.1704922742383,971.0,60.6770514957564
939.1349079823359,981.0,60.87265589136079
940.1086869497353,1018.0,61.05410339390921
941.1199189543424,999.0,60.46718271246573
942.1124244403456,952.0,61.07723602548934
943.0581136298393,990.0,61.6423153905687
944.0412558565407,1009.0,61.45398881677219
945.0431246018459,962.0,61.246650435875274
945.9981770506415,971.0,61.64165737068804
946.962592758739,1018.0,61.45681832603591
947.9738247633461,999.0,60.66658525167409
948.9663302493494,952.0,61.07723602548934
949.912019438843,981.0,61.83791978617309
950.8857984062424,999.0,61.83791978617309
951.8783038922458,1018.0,60.46718271246572
952.8895358968529,952.0,61.07723602548934
953.8352250863466,943.0,62.286292629262924
954.7715510165383,990.0,62.85137199434229
955.7546932432397,952.0,62.85137199434229
956.7003824327334,962.0,62.43254846493052
957.6554348815289,990.0,62.43254846493052
958.6385771082303,981.0,61.82249515190691
959.6123560756297,952.0,62.02983353280382
960.5580452651234,1009.0,61.64959321237658
961.5599140104285,1009.0,61.07374849634495
962.5617827557337,962.0,60.86641011544803
963.5168352045293,999.0,61.05473668924455
964.5093406905326,1028.0,60.688450142044
965.5299359544416,981.0,60.285735209917306
966.503714921841,981.0,60.67325335215242
967.4774938892405,1066.0,59.9795779441797
968.5355421903572,1037.0,58.859298223899984
969.5655007135681,1009.0,58.28345350786835
970.5673694588733,1066.0,58.28345350786835
971.62541775999,1066.0,57.76792655694317
972.6834660611066,1009.0,57.76792655694317
973.6853348064119,1047.0,58.10851493292978
974.7246565889247,1037.0,58.62404188385496
975.7546151121356,952.0,59.8099399129102
976.7003043016293,1037.0,59.984878487848775
977.7302628248402,1028.0,60.163026944896316
978.7508580887493,962.0,59.9556885639994
979.7059105375449,943.0,61.89750674581759
980.6422364677367,990.0,62.64403361344537
981.6253786944379,990.0,62.04571428571428
982.6085209211393,943.0,62.04571428571428
983.544846851331,1018.0,61.48063492063492
984.5560788559382,1103.0,59.39418803418803
985.6515801942626,1009.0,57.996804856617935
986.6534489395677,999.0,58.369970475066566
987.645954425571,1056.0,59.18498879008489
988.6946394673857,1028.0,58.818702242884335
989.7152347312948,943.0,60.027758846657925
990.6515606614865,971.0,61.69419435289926
991.615976369584,1037.0,61.51604589585171
992.645934892795,971.0,60.893909973521616
993.6103506008925,999.0,60.30698929207813
994.6028560868958,1028.0,60.48513774912567
995.6234513508048,1037.0,59.16545548963759
996.6534098740158,990.0,59.35736923626831
997.636552100717,1028.0,59.35736923626831
998.6571473646261,1056.0,59.01061598951507
999.7058324064409,990.0,59.01061598951507
1000.6889746331423,1028.0,59.01061598951507
1001.7095698970512,1066.0,58.841842285343134
1002.767618198168,1037.0,57.91716696066781
1003.7975767213788,962.0,59.26201315602668
1004.7526291701745,1028.0,59.9556885639994
1005.7732244340834,1056.0,59.60893531724616
1006.8219094758982,1009.0,58.630375669087826
1007.8237782212035,999.0,59.18498879008489
1008.8162837072067,1028.0,59.70989049388567
1009.8368789711158,1009.0,59.70989049388567
1010.8387477164209,962.0,60.50012356824749
1011.7938001652165,990.0,61.246650435875274
1012.7769423919178,1037.0,60.70221543162719
1013.8069009151288,981.0,60.29950049950049
1014.7806798825283,971.0,60.69450743431325
1015.7450955906257,990.0,61.61918275898857
1016.7282378173271,971.0,61.818585298196936
1017.6926535254246,933.0,62.65647879628462
1018.6196161963145,999.0,62.464565049653885
1019.6121216823177,1018.0,61.504478749761766
1020.6233536869248,981.0,60.46718271246573
1021.5971326543242,1037.0,59.734421134421126
1022.6270911775351,1066.0,58.859298223899984
1023.6851394786519,999.0,58.47178008166486
1024.6776449646552,1018.0,58.83137604126083
1025.6888769692623,1047.0,59.17196441724744
1026.7281987517752,1009.0,58.98363784345092
1027.7300674970802,962.0,60.147036536261375
1028.6851199458758,1037.0,60.32197511119995
1029.7150784690868,1075.0,59.096200394033204
1030.7824900295054,1009.0,58.11764074587487
1031.7843587748107,962.0,59.64063539828129
1032.739411223606,1009.0,60.86641011544803
1033.7412799689114,1028.0,60.50012356824749
1034.7618752328203,962.0,60.50012356824749
1035.716927681616,990.0,60.88036388867473
1036.7000699083173,1028.0,60.88036388867473
1037.7206651722263,990.0,60.28204456094364
1038.7038073989277,999.0,60.090130814312914
1039.6963128849309,1037.0,59.911982357265366
1040.7262714081419,981.0,60.107586752869764
1041.7000503755414,943.0,61.31664335664335
1042.6363763057332,1009.0,61.86107836089143
1043.6382450510382,999.0,61.47356021865632
1044.6307505370416,962.0,61.05473668924455
1045.585802985837,1009.0,61.05473668924454
1046.5876717311423,1047.0,60.147036536261375
1047.6269935136552,999.0,59.35680346189956
1048.6194989996584,952.0,60.5427014909548
1049.5651881891522,1018.0,61.077236025489334
1050.5764201937593,1037.0,60.34447444744474
1051.60637871697,990.0,59.538816738816735
1052.5895209436715,943.0,61.121038961038956
1053.5258468738632,1018.0,61.48063492063492
1054.5370788784703,1018.0,60.91555555555556
1055.5483108830774,971.0,60.293419633225454
1056.512726591175,1028.0,60.11197213067704
1057.533321855084,1047.0,59.5774375961425
1058.572643637597,990.0,59.18243066132974
1059.5557858642983,1009.0,59.548717208530284
1060.5576546096033,1009.0,60.26809078771694
1061.5595233549086,962.0,60.86641011544803
1062.5145758037042,1018.0,60.68157107079591
1063.5258078083114,1028.0,60.315284523595366
1064.5464030722203,971.0,60.11197213067703
1065.5108187803178,962.0,61.27537082348749
1066.4658712291134,999.0,61.82998394448454
1067.4583767151166,971.0,61.82998394448454
1068.422792423214,943.0,62.24880747389631
1069.3591183534058,1009.0,62.0604809000998
1070.3609870987111,1018.0,61.10039460020768
1071.3722191033182,952.0,60.888909451692825
1072.3179082928118,999.0,61.07723602548934
1073.3104137788152,962.0,62.24063471829979
1074.265466227611,933.0,62.66787744257222
1075.1924288985006,962.0,63.45811051693404
1076.1474813472962,990.0,62.85979118920295
1077.1306235739976,943.0,62.64403361344537
1078.0669495041893,962.0,62.64403361344537
1079.022001952985,999.0,62.45211986681464
1080.0145074389882,962.0,62.033296337402874
1080.9695598877838,924.0,62.88803823416158
1081.8871592993717,999.0,62.888038234161584
1082.8796647853749,1037.0,61.36504358175517
1083.9096233085859,971.0,60.30698929207813
1084.8740390166834,943.0,61.51604589585172
1085.810364946875,990.0,62.44072122052704
1086.7935071735765,1028.0,61.2991874180865
1087.8141024374856,962.0,60.88036388867473
1088.769154886281,933.0,62.113264321575166
1089.696117557171,999.0,62.66787744257222
1090.6886230431742,999.0,61.8776443682104
1091.6811285291776,962.0,61.24306326304106
1092.636180977973,1009.0,61.05473668924454
1093.6380497232783,1028.0,60.50012356824749
1094.6586449871872,962.0,60.50012356824749
1095.6136974359829,990.0,60.88036388867473
1096.5968396626843,1018.0,61.06181139122315
1097.6080716672914,962.0,61.06181139122315
1098.563124116087,981.0,61.25741578682754
1099.5369030834863,999.0,61.630581405276175
1100.5294085694898,962.0,61.630581405276175
1101.4844610182852,952.0,62.24063471829979
1102.430150207779,1018.0,61.86746909985116
1103.441382212386,1009.0,60.888909451692825
1104.4432509576911,971.0,60.47825867787758
1105.4076666657888,1047.0,59.94372414334305
1106.4469884483017,1066.0,58.883762188169776
1107.5050367494182,981.0,58.68435964896141
1108.4788157168177,1018.0,59.21889418349595
1109.4900477214248,1028.0,59.91256959146867
1110.5106429853338,999.0,59.525051449233544
1111.503148471337,943.0,61.10727367145577
1112.4394744015287,999.0,61.66188679245282
1113.4319798875322,1047.0,60.75418663946965
1114.471301670045,1018.0,59.17196441724743
1115.4825336746521,952.0,60.16953587250617
1116.4282228641457,999.0,61.07723602548934
1117.420728350149,1028.0,60.89578852294091
1118.441323614058,990.0,60.090130814312914
1119.4244658407595,943.0,61.2991874180865
1120.3607917709512,999.0,61.85380053908355
1121.3532972569544,1009.0,61.47356021865631
1122.3551660022597,971.0,60.851424296326215
1123.3195817103572,971.0,61.4383449777697
1124.2839974184546,1009.0,61.4383449777697
1125.28586616376,971.0,61.4383449777697
1126.2502818718574,943.0,62.060480900099805
1127.1866078020491,999.0,62.248807473896306
1128.1791132880523,1037.0,81.81283018867924
1128.675366031054,981.0,97.92651439920556
1129.2090718112634,962.0,98.31403254144068
1130.1828507786627,1009.0,78.95332221957608
1131.1379032274583,1056.0,61.442254831479666
1132.1397719727636,990.0,59.9752218644467
1133.1884570145783,1037.0,59.37690253671561
1134.1715992412796,1084.0,58.832467532467525
1135.2015577644906,1009.0,58.33495200451721
1136.278332584211,1066.0,57.95471168408997
1137.2802013295163,1094.0,57.439184733164794
1138.3382496306328,1018.0,57.279064793134815
1139.4243877096553,1028.0,57.09422574848269
1140.4356197142624,1066.0,57.78790115645541
1141.4562149781716,1037.0,58.27676292026377
1142.5142632792881,971.0,57.91716696066781
1143.5442218024991,1018.0,59.05870076310835
1144.5086375105966,1066.0,59.9338236736295
1145.5198695152037,1009.0,59.41829672270432
1146.5779178163205,990.0,58.643049467464316
1147.5797865616257,1028.0,59.20812883254368
1148.5629287883269,971.0,59.9018042405164
1149.583524052236,1028.0,60.6770514957564
1150.5479397603335,1113.0,59.930524628128616
1151.5685350242425,1066.0,58.435889268153495
1152.6733996218688,613.0,56.60068005774023
1153.7314479229856,481.0,55.41814288595915
1154.8175860020078,1113.0,55.41814288595915
1155.9224505996342,1047.0,55.758731261945755
1156.961772382147,1084.0,55.918851201975734
1158.0385472018677,1094.0,56.230949390169776
1159.12468528089,1084.0,55.56161919040479
1160.2014601006106,990.0,57.330563289783676
1161.184602327312,1028.0,58.513100461564754
1162.205197591221,1066.0,58.841842285343134
1163.2632458923376,1028.0,58.09531541771535
1164.2838411562466,971.0,59.23684922015589
1165.248256864344,1056.0,59.40562292432783
1166.296941906159,1056.0,58.880721220527036
1167.3456269479736,981.0,58.68131868131867
1168.3194059153732,981.0,60.148351648351635
1169.2931848827725,1028.0,60.67325335215242
1170.3137801466817,1047.0,59.37803505693413
1171.3531019291945,990.0,59.18243066132974
1172.3362441558959,981.0,60.12456192456192
1173.3100231232952,1037.0,60.29950049950049
1174.3399816465062,990.0,60.29950049950049
1175.3231238732076,971.0,60.49890303870886
1176.287539581305,1018.0,60.85849899830482
1177.2987715859122,1018.0,60.29341963322546
1178.3100035905193,943.0,60.91555555555556
1179.246329520711,990.0,61.48063492063492
1180.2294717474124,1028.0,61.2991874180865
1181.2500670113213,990.0,60.28204456094364
1182.2332092380227,943.0,61.2991874180865
1183.1695351682145,990.0,62.04571428571428
1184.1526773949158,1009.0,61.66547396528704
1185.1545461402209,990.0,60.648331108144184
1186.1376883669222,943.0,61.66547396528704
1187.074014297114,999.0,61.85380053908355
1188.0665197831174,1047.0,60.75418663946965
1189.1058415656303,981.0,59.932648177931185
1190.0796205330296,1018.0,59.559482559482554
1191.0908525376367,1056.0,59.38766788766788
1192.1395375794516,1009.0,58.81182317163625
1193.1414063247566,933.0,60.60980296961605
1194.0683689956466,990.0,61.88123154104462
1195.051511222348,999.0,62.06955811484113
1196.0440167083511,943.0,61.85380053908355
1196.9803426385429,962.0,62.45211986681464
1197.9353950873385,1018.0,62.07895424836601
1198.9466270919456,1009.0,60.68157107079591
1199.948495837251,943.0,61.10039460020768
1200.8848217674426,990.0,61.66547396528704
1201.867963994144,1018.0,61.48063492063492
1202.879195998751,999.0,60.27157831686134
1203.8717014847543,990.0,60.27157831686134
1204.8548437114557,1066.0,59.39645540634019
1205.9128920125722,1009.0,59.20812883254368
1206.9147607578775,981.0,59.40373322814807
1207.888539725277,1037.0,59.91926017907325
1208.9184982484878,981.0,60.49510489510488
1209.8922772158874,990.0,60.29950049950049
1210.8754194425887,1028.0,60.47764895654803
1211.8960147064977,1009.0,59.9018042405164
1212.897883451803,971.0,60.296811175329154
1213.8622991599004,999.0,60.851424296326215
1214.8548046459036,1056.0,59.96023604532488
1215.9034896877183,990.0,59.56522911051212
1216.8866319144197,999.0,59.56522911051212
1217.879137400423,1075.0,59.23064264434671
1218.9465489608417,1047.0,58.13102874473282
1219.9858707433546,962.0,58.92126181909463
1220.94092319215,981.0,60.72288125229301
1221.9147021595495,1047.0,60.72288125229301
1222.9540239420623,999.0,59.932648177931185
1223.9465294280656,1009.0,59.35680346189955
1224.9483981733708,1056.0,59.18498879008489
1225.9970832151855,1028.0,58.630375669087826
1227.0176784790947,1009.0,58.630375669087826
1228.0195472243997,1094.0,57.972740201107534
1229.1056853034222,1037.0,57.79459174405999
1230.1356438266332,1018.0,57.60975269940787
1231.1468758312403,1037.0,58.61414141414141
1232.176834354451,999.0,59.346902992186
1233.1693398404545,1018.0,59.34690299218601
1234.1805718450616,1009.0,59.891337996434096
1235.1824405903667,952.0,60.888909451692825
1236.1281297798605,990.0,61.45398881677219
1237.1112720065619,1056.0,60.56280056577086
1238.1599570483766,981.0,59.952747252747244
1239.1337360157759,943.0,60.9698901098901
1240.0700619459678,1018.0,61.67623931623931
1241.081293950575,1047.0,60.38102102102102
1242.1206157330878,962.0,59.96219749160925
1243.0756681818832,999.0,60.335363110057884
1244.0681736678866,1028.0,60.688450142044
1245.0887689317956,990.0,60.090130814312914
1246.071911158497,933.0,61.514944993844075
1246.9988738293869,990.0,62.26147186147186
1247.982016056088,1037.0,61.336796536796534
1249.011974579299,971.0,60.49890303870886
1249.9763902873965,952.0,61.304560747336865
1250.9220794768903,1037.0,61.30456074733686
1251.952038000101,1047.0,59.8099399129102
1252.991359782614,999.0,58.81236845765147
1253.9838652686174,990.0,59.73704378232679
1254.9670074953187,1009.0,60.45641736151345
1255.9688762406238,981.0,60.843935503748575
1256.9426552080233,933.0,62.07683593664901
1257.869617878913,1018.0,61.89199689199689
1258.88084988352,1066.0,60.25619022079199
1259.9388981846369,1018.0,58.45821042281219
1260.950130189244,1028.0,58.27676292026377
1261.970725453153,1084.0,57.94802109648539
1263.0475002728735,1037.0,57.58842513688943
1264.0774587960846,962.0,58.9332713322483
1265.03251124488,1028.0,59.9556885639994
1266.0531065087891,1028.0,60.13383702104694
1267.073701772698,981.0,59.731122088920245
1268.0474807400976,1018.0,59.91256959146867
1269.0587127447047,999.0,60.46718271246573
1270.051218230708,971.0,60.66658525167409
1271.0156339388054,1037.0,60.30698929207813
1272.0455924620164,1018.0,59.9338236736295
1273.0568244666235,952.0,60.34447444744474
1274.0025136561171,971.0,61.66415670693283
1274.9669293642146,1018.0,61.66415670693282
1275.9781613688217,962.0,61.456818326035915
1276.9332138176173,962.0,61.66013071895424
1277.888266266413,999.0,62.033296337402874
1278.8807717524162,990.0,61.43497700967178
1279.8639139791176,962.0,61.43497700967178
1280.8189664279132,990.0,61.626890756302515
1281.8021086546146,1037.0,60.70221543162719
1282.8320671778254,962.0,60.70221543162719
1283.787119626621,952.0,61.50787314025519
1284.7328088161148,990.0,62.43254846493052
1285.715951042816,1009.0,61.45398881677219
1286.7178197881212,952.0,61.45398881677219
1287.663508977615,990.0,61.45398881677219
1288.6466512043162,1018.0,61.269149772120066
1289.6578832089233,981.0,60.65909645909645
1290.6316621763228,943.0,61.67623931623931
1291.5679881065146,999.0,62.04940493468794
1292.5604935925178,990.0,61.85380053908355
1293.5436358192192,971.0,61.23166461675345
1294.5080515273166,1009.0,61.04333804295694
1295.509920272622,999.0,60.851424296326215
1296.5024257586251,943.0,61.47356021865632
1297.4387516888169,990.0,61.85380053908355
1298.4218939155182,1009.0,61.66547396528704
1299.4237626608235,962.0,61.246650435875274
1300.3788151096192,943.0,62.26379329301813
1301.315141039811,971.0,63.03904054825813
1302.2795567479084,990.0,62.44072122052704
1303.2626989746097,952.0,62.229236072012185
1304.2083881641033,990.0,61.83422913719943
1305.1915303908047,1028.0,61.08770226957164
1306.2121256547136,999.0,60.090130814312914
1307.204631140717,981.0,60.285735209917306
1308.1784101081164,1018.0,60.46718271246572
1309.1896421127235,981.0,60.854700854700845
1310.163421080123,924.0,62.11215768358625
1311.081020491711,971.0,63.07224398347837
1312.0454361998084,999.0,62.68472584124325
1313.0379416858116,990.0,61.231664616753456
1314.021083912513,915.0,62.51441909578458
1314.929320064799,952.0,63.51199055104332
1315.8750092542928,1018.0,62.946911185963955
1316.8862412588999,990.0,61.269149772120066
1317.869383485601,943.0,61.48063492063492
1318.805709415793,1028.0,61.2991874180865
1319.826304679702,1066.0,59.85898514248599
1320.8843529808187,990.0,58.841842285343134
1321.86749520752,1037.0,58.66369382829559
1322.8974537307308,1056.0,58.832467532467525
1323.9461387725457,990.0,58.832467532467525
1324.929280999247,896.0,61.898496240601496
1325.8187906329292,915.0,64.84768622587396
1326.7270267852152,990.0,64.84768622587396
1327.7101690119166,1018.0,62.14125347733595
1328.7214010165237,962.0,61.06181139122315
1329.6764534653191,1018.0,60.49673202614379
1330.6876854699262,1066.0,59.62160911562265
1331.745733771043,999.0,58.831376041260825
1332.7382392570462,1075.0,57.79044036874621
1333.805650817465,1084.0,57.46169854496783
1334.8824256371854,1056.0,56.382183720169984
1335.931110679,999.0,57.796285011133236
1336.9236161650035,1066.0,58.125026834911615
1337.98166446612,1066.0,57.95625313073969
1339.0397127672368,990.0,58.148166877370414
1340.0228549939382,1018.0,59.02328978789156
1341.0340869985453,1037.0,59.538816738816735
1342.0640455217563,990.0,59.538816738816735
1343.0471877484576,990.0,60.1038961038961
1344.030329975159,1028.0,60.28204456094364
1345.050925239068,1018.0,59.716965195864276
1346.062157243675,1047.0,58.617351296250376
1347.101479026188,1066.0,57.92367588827766
1348.1595273273047,1018.0,57.92367588827766
1349.1707593319118,1037.0,58.09861446321623
1350.2007178551225,1047.0,58.439202839202835
1351.2400396376354,1018.0,58.439202839202835
1352.2512716422425,1028.0,58.617351296250376
1353.2718669061517,1037.0,58.79228987118895
1354.3018254293625,981.0,59.5529736318727
1355.275604396762,1028.0,59.5529736318727
1356.296199660671,1037.0,59.5529736318727
1357.326158183882,962.0,59.9556885639994
1358.2812106326776,981.0,60.89781982723158
1359.254989600077,1047.0,60.72288125229301
1360.2943113825897,1075.0,58.51854688696793
1361.3617229430083,990.0,58.32294249136354
1362.3448651697097,999.0,59.230642644346716
1363.3373706557131,1047.0,59.73704378232679
1364.376692438226,1018.0,59.17196441724743
1365.387924442833,999.0,59.17196441724744
1366.3804299288363,1056.0,59.000149745432765
1367.429114970651,1028.0,58.818702242884335
1368.4497102345601,990.0,59.01061598951507
1369.4328524612613,1028.0,59.53551769331585
1370.4534477251705,1056.0,59.01061598951507
1371.5021327669851,999.0,58.81870224288434
1372.4946382529884,962.0,60.16354843824321
1373.449690701784,1009.0,61.05473668924454
1374.4515594470893,990.0,61.246650435875274
1375.4347016737906,962.0,61.246650435875274
1376.389754122586,990.0,61.626890756302515
1377.3728963492874,1009.0,61.246650435875274
1378.3747650945927,952.0,61.45398881677219
1379.3204542840863,943.0,62.471131673915046
1380.256780214278,990.0,62.85137199434229
1381.2399224409794,971.0,62.44072122052704
1382.204338149077,990.0,61.42357836338418
1383.1874803757783,1028.0,60.677051495756395
1384.2080756396874,999.0,60.090130814312914
1385.2005811256906,1009.0,59.70989049388567
1386.202449870996,1028.0,59.70989049388567
1387.2230451349049,999.0,59.709890493885666
1388.215550620908,962.0,60.688450142044005
1389.1706030697037,1009.0,61.05473668924454
1390.172471815009,1009.0,60.86641011544803
1391.174340560314,962.0,60.86641011544803
1392.1293930091097,1009.0,60.86641011544803
1393.131261754415,1037.0,60.32197511119995
1394.1612202776257,971.0,60.11866271828161
1395.1256359857232,952.0,61.304560747336865
1396.071325175217,971.0,62.62424300682494
1397.0357408833145,924.0,63.68229729650198
1397.9533402949023,999.0,62.68472584124325
1398.9458457809058,1018.0,61.72463954135113
1399.9570777855129,962.0,60.86989764459243
1400.9121302343083,933.0,62.29471182412359
1401.8390929051982,981.0,63.05539558480734
1402.8128718725977,1009.0,62.07683593664901
1403.8147406179028,1009.0,60.463695183321335
1404.816609363208,1037.0,59.343415463041616
1405.846567886419,1028.0,58.97712891584107
1406.867163150328,981.0,59.5529736318727
1407.8409421177273,1037.0,59.5529736318727
1408.8709006409383,1037.0,59.37482517482516
1409.9008591641493,981.0,59.37482517482516
1410.8746381315486,1009.0,59.91926017907325
1411.876506876854,1018.0,60.27885613866921
1412.887738881461,981.0,60.27885613866921
1413.8615178488603,933.0,61.89199689199689
1414.7884805197502,999.0,62.26516251044552
1415.7809860057534,990.0,62.06955811484113
1416.7641282324548,924.0,62.28971890643049
1417.681727644043,943.0,63.49877551020408
1418.6180535742346,990.0,63.49877551020408
1419.601195800936,952.0,62.85137199434229
1420.5468849904296,905.0,63.74137199434229
1421.4457578834138,962.0,64.33969132207338
1422.4008103322092,990.0,63.534033613445374
1423.3839525589106,962.0,62.225210084033606
1424.3390050077062,962.0,62.225210084033606
1425.2940574565018,999.0,62.033296337402874
1426.286562942505,990.0,61.43497700967178
1427.2697051692064,933.0,62.06955811484113
1428.1966678400963,962.0,62.85979118920295
1429.151720288892,990.0,62.85979118920295
1430.134862515593,952.0,62.43254846493052
1431.080551705087,952.0,62.639886845827434
1432.0262408945805,962.0,63.238206173558524
1432.9812933433761,971.0,62.827555399743275
1433.9457090514736,924.0,63.474958915605065
1434.8633084630617,971.0,63.27164652268674
1435.8277241711592,1009.0,62.49639926744674
1436.8295929164642,962.0,61.64165737068804
1437.7846453652598,962.0,61.844969763606365
1438.7396978140555,999.0,62.033296337402874
1439.7322033000587,971.0,61.82998394448454
1440.6966190081562,952.0,62.03732232538146
1441.64230819765,952.0,63.03489378064019
1442.5879973871436,943.0,63.65702970297029
1443.5243233173353,905.0,64.75851485148515
1444.4231962103195,962.0,64.55117647058823
1445.3782486591151,999.0,63.34211986681464
1446.3707541451183,943.0,62.45211986681464
1447.30708007531,915.0,63.53156195292744
1448.215316227596,962.0,64.32179502728926
1449.1703686763917,943.0,64.32179502728926
1450.1066946065835,962.0,63.24235294117646
1451.061747055379,990.0,62.64403361344537
1452.0448892820805,943.0,62.64403361344537
1452.9812152122722,990.0,62.04571428571428
1453.9643574389736,1018.0,61.48063492063492
1454.9755894435807,943.0,61.48063492063492
1455.9119153737724,915.0,63.15839633447881
1456.8201515260585,962.0,64.32179502728926
1457.775203974854,1009.0,62.924411849719164
1458.7770727201591,933.0,62.47955086877571
1459.704035391049,933.0,63.11413197394506
1460.630998061939,999.0,63.302458547741566
1461.6235035479422,962.0,62.66787744257222
1462.5785559967378,924.0,62.88803823416158
1463.4961554083256,971.0,63.47495891560507
1464.4605711164231,962.0,63.47495891560507
1465.4156235652188,981.0,62.21750208671966
1466.3894025326183,1018.0,61.25741578682754
1467.4006345372252,990.0,60.65909645909645
1468.3837767639266,943.0,61.48063492063492
1469.3201026941183,981.0,62.241318681318674
1470.2938816615178,1018.0,61.67623931623931
1471.305113666125,971.0,61.054103393909216
1472.2695293742224,1028.0,60.11197213067704
1473.2901246381314,1056.0,59.40562292432783
1474.3388096799463,1009.0,58.630375669087826
1475.3406784252513,971.0,59.771909471528375
1476.305094133349,999.0,60.851424296326215
1477.2975996193522,1047.0,60.132050717139556
1478.336921401865,990.0,59.73704378232679
1479.3200636285665,981.0,60.12456192456192
1480.2938425959658,1028.0,60.47764895654803
1481.314437859875,1009.0,60.09740863612079
1482.31630660518,943.0,60.918947097659256
1483.2526325353717,971.0,62.060480900099805
1484.2170482434692,971.0,62.835728155339794
1485.181463951567,999.0,61.62667155156622
1486.1739694375701,952.0,62.03732232538146
1487.1196586270637,990.0,61.6423153905687
1488.102800853765,1028.0,61.08770226957164
1489.1233961176742,962.0,60.88036388867473
1490.0784485664697,990.0,60.88036388867473
1491.061590793171,1028.0,60.88036388867473
1492.0821860570802,962.0,60.88036388867473
1493.0372385058756,915.0,62.55812530251862
1493.9454746581616,971.0,63.69965910495917
1494.9098903662593,990.0,63.10133977722808
1495.8930325929605,962.0,62.02189769111527
1496.8480850417561,962.0,62.225210084033606
1497.8031374905518,999.0,62.033296337402874
1498.795642976555,999.0,61.24306326304105
1499.7881484625582,952.0,61.45040164393797
1500.733837652052,971.0,62.03732232538145
1501.6982533601495,1009.0,61.848995751584944
1502.7001221054547,971.0,61.4383449777697
1503.6645378135522,962.0,61.64165737068804
1504.6195902623479,971.0,62.41690462592803
1505.5840059704453,943.0,63.03904054825813
1506.520331900637,933.0,63.673621653427475
1507.447294571527,999.0,63.08670097198399
1508.4398000575302,990.0,62.06955811484113
1509.4229422842316,933.0,62.06955811484113
1510.3499049551212,971.0,62.65647879628462
1511.314320663219,981.0,62.85208319188901
1512.2880996306183,915.0,63.29694417283246
1513.1963357829043,943.0,63.91908009516256
1514.132661713096,990.0,63.72347569955817
1515.1158039397974,943.0,63.06285714285714
1516.0521298699891,943.0,63.06285714285714
1516.9884558001809,971.0,63.457864077669896
1517.9528715082783,943.0,63.457864077669896
1518.8891974384703,971.0,62.835728155339794
1519.8536131465678,999.0,62.248807473896306
1520.846118632571,971.0,61.62667155156622
1521.8105343406685,962.0,61.829983944484546
1522.7655867894641,999.0,61.82998394448454
1523.7580922754673,962.0,62.033296337402874
1524.713144724263,924.0,62.88803823416158
1525.6307441358508,962.0,63.6782713085234
1526.5857965846465,981.0,63.2755563763967
1527.559575552046,933.0,63.05539558480734
1528.4865382229357,905.0,64.36421911421911
1529.3854111159199,971.0,64.56362165342748
1530.3498268240173,999.0,63.13880747389631
1531.3423323100205,933.0,62.46456504965389
1532.2692949809104,962.0,62.66787744257222
1533.224347429706,1009.0,62.47955086877571
1534.2262161750114,962.0,61.844969763606365
1535.1812686238068,924.0,62.69971166036507
1536.0988680353948,943.0,64.09709483793517
1537.0351939655866,990.0,63.49877551020408
1538.018336192288,924.0,63.49877551020408
1538.9359356038758,915.0,64.15939406690511
1539.8441717561618,933.0,65.39229449980554
1540.7711344270517,971.0,64.33424021012851
1541.7355501351492,924.0,64.1095400207744
1542.653149546737,933.0,64.10954002077442
1543.580112217627,962.0,64.31285241369275
1544.5351646664226,971.0,63.25479812401571
1545.49958037452,924.0,63.474958915605065
1546.417179786108,962.0,63.47495891560507
1547.3722322349035,1009.0,62.69971166036507
1548.3741009802088,943.0,62.26379329301813
1549.3104269104006,933.0,62.89837439818748
1550.2373895812902,990.0,63.27861471861472
1551.2205318079916,981.0,62.45707625707625
1552.1943107753912,905.0,63.131318681318675
1553.0931836683753,952.0,63.93697638994668
1554.038872857869,981.0,63.93697638994668
1555.0126518252684,952.0,62.835491241431825
1555.958341014762,943.0,63.04697638994668
1556.8946669449538,990.0,62.85137199434229
1557.8778091716551,962.0,62.64403361344537
1558.8328616204508,896.0,63.76824413976116
1559.722371254133,924.0,65.22130536425095
1560.6399706657207,971.0,65.01799297133262
1561.6043863738184,924.0,64.32970081236377
1562.5219857854063,943.0,63.89378244501684
1563.458311715598,971.0,63.89378244501684
1564.4227274236955,924.0,63.89378244501683
1565.3403268352833,943.0,63.89378244501684
1566.2766527654753,990.0,63.49877551020408
1567.2597949921765,943.0,63.06285714285714
1568.1961209223684,943.0,63.06285714285714
1569.1324468525602,990.0,63.06285714285714
1570.1155890792613,971.0,62.44072122052704
1571.080004787359,915.0,63.10133977722807
1571.988240939645,952.0,63.90699748585608
1572.9339301291386,971.0,63.90699748585608
1573.898345837236,933.0,63.46213650491262
1574.825308508126,943.0,63.673621653427475
1575.7616344383177,962.0,63.87693404634581
1576.7166868871134,981.0,62.839638009049764
1577.6904658545127,915.0,63.500256565750796
1578.5987020067987,933.0,64.13483767092015
1579.5256646776886,999.0,63.747319528685026
1580.5181701636918,933.0,63.302458547741566
1581.4451328345817,915.0,63.74731952868502
1582.3533689868677,952.0,64.74489098394375
1583.2990581763613,981.0,63.70759494664771
1584.2728371437609,933.0,63.26273396570426
1585.1997998146508,971.0,62.85208319188901
1586.1642155227482,1009.0,62.276238475857376
1587.1660842680533,943.0,62.060480900099805
1588.1024101982453,924.0,63.118535189776836
1589.020009609833,962.0,64.09709483793517
1589.9750620586287,962.0,63.6782713085234
1590.9301145074244,924.0,63.6782713085234
1591.8477139190122,971.0,63.47495891560507
1592.8121296271097,1009.0,62.49639926744674
1593.813998372415,952.0,61.84899575158495
1594.7596875619085,924.0,62.90705004126198
1595.6772869734964,981.0,63.482894757293614
1596.651065940896,962.0,63.2755563763967
1597.6061183896916,905.0,63.729638009049765
1598.5049912826755,962.0,64.13235294117646
1599.4600437314712,1018.0,62.96895424836601
1600.4712757360783,952.0,61.86746909985116
1601.416964925572,981.0,61.46475416772446
1602.3907438929714,999.0,61.83791978617309
1603.3832493789746,952.0,61.83791978617309
1604.3289385684684,962.0,62.24063471829979
1605.283991017264,981.0,62.62815286053491
1606.2577699846634,943.0,62.839638009049764
1607.194095914855,915.0,63.91908009516256
1608.102332067141,952.0,64.52913340818617
1609.048021256635,981.0,63.70759494664771
1610.0218002240342,952.0,62.835491241431825
1610.967489413528,962.0,62.62815286053491
1611.9225418623234,1009.0,62.05230814450328
1612.9244106076287,962.0,61.844969763606365
1613.8794630564244,915.0,62.924411849719164
1614.7876992087104,999.0,63.11273842351568
1615.7802046947136,1028.0,61.7678922281568
1616.8007999586225,971.0,60.48513774912567
1617.7652156667202,990.0,60.6770514957564
1618.7483578934214,1056.0,60.15214979195561
1619.7970429352363,990.0,59.75714285714285
1620.7801851619377,933.0,60.99004329004329
1621.7071478328273,981.0,62.45707625707625
1622.6809268002269,933.0,63.68997668997669
1623.6078894711168,924.0,63.910137481566046
1624.5254888827046,952.0,64.52019079458967
1625.4711780721984,990.0,63.28729036168922
1626.4543202988996,943.0,62.85137199434229
1627.3906462290913,962.0,62.64403361344537
1628.345698677887,999.0,62.45211986681464
1629.3382041638904,952.0,62.24063471829979
1630.283893353384,943.0,62.659458247711555
1631.2202192835757,962.0,63.44969132207338
1632.1752717323714,1009.0,62.26379329301813
1633.1771404776764,933.0,62.47955086877571
1634.1041031485663,933.0,63.11413197394506
1635.0310658194562,962.0,64.09269162210339
1635.9861182682519,933.0,64.09269162210339
1636.9130809391415,886.0,65.24033830166496
1637.7932273135218,943.0,65.65916183107672
1638.7295532437136,952.0,65.2319191068043
1639.6752424332074,905.0,64.75851485148515
1640.5741153261915,971.0,64.13637892915504
1641.538531034289,981.0,63.52632561613143
1642.5123100016883,952.0,62.424840467616576
1643.4579991911821,896.0,64.17118691626246
1644.3475088248642,943.0,64.99272537780092
1645.283834755056,981.0,64.38267206477732
1646.2576137224555,943.0,63.25846153846153
1647.1939396526473,962.0,62.839638009049764
1648.1489921014427,1009.0,62.26379329301813
1649.150860846748,962.0,61.844969763606365
1650.1059132955436,952.0,62.05230814450328
1651.0516024850372,1009.0,62.05230814450328
1652.0534712303424,1028.0,60.7074619491444
1653.0740664942514,962.0,60.50012356824749
1654.029118943047,981.0,61.07596828427912
1655.0028979104466,1018.0,61.25741578682754
1656.0141299150534,971.0,61.054103393909216
1656.9785456231511,924.0,62.31156022279462
1657.896145034739,962.0,63.47495891560507
1658.8511974835346,971.0,63.47495891560507
1659.815613191632,905.0,63.92904054825813
1660.7144860846163,924.0,64.78378244501684
1661.6320854962041,952.0,65.19443321883207
1662.5777746856977,915.0,64.96505177553311
1663.4860108379837,933.0,64.74489098394375
1664.4129735088736,971.0,64.33424021012851
1665.377389216971,943.0,63.673621653427475
1666.3137151471628,952.0,63.24637892915504
1667.2594043366566,981.0,63.04697638994668
1668.233183304056,990.0,62.02983353280382
1669.2163255307573,943.0,62.241318681318674
1670.152651460949,990.0,62.04571428571428
1671.1357936876504,1037.0,61.121038961038956
1672.1657522108615,962.0,60.70221543162719
1673.120804659657,924.0,62.15527665611698
1674.038404071245,971.0,63.47495891560507
1675.0028197793424,971.0,63.27164652268674
1675.96723548744,915.0,63.49634671204083
1676.875471639726,962.0,63.69965910495917
1677.8305240885215,990.0,63.304652170146404
1678.813666315223,943.0,62.64403361344537
1679.7499922454147,943.0,63.06285714285714
1680.6863181756064,990.0,63.06285714285714
1681.6694604023078,971.0,62.44072122052704
1682.6338761104053,943.0,62.44072122052704
1683.570202040597,971.0,62.835728155339794
1684.5346177486945,1009.0,62.0604809000998
1685.5364864939997,981.0,61.23894243856134
1686.5102654613993,924.0,62.29699672823837
1687.4278648729871,952.0,63.482894757293614
1688.3735540624807,1037.0,62.362615037013896
1689.4035125856917,981.0,61.10515820812849
1690.3772915530913,990.0,60.29950049950049
1691.3604337797924,1028.0,60.47764895654803
1692.3810290437016,999.0,60.090130814312914
1693.3735345297048,981.0,60.285735209917306
1694.3473134971043,990.0,61.032262077545084
1695.3304557238055,999.0,61.032262077545084
1696.322961209809,990.0,60.83665768194069
1697.3061034365103,1018.0,60.27157831686133
1698.3173354411174,999.0,60.27157831686134
1699.3098409271206,943.0,61.288721174004195
1700.2461668573123,971.0,62.248807473896306
1701.2105825654098,999.0,62.248807473896306
1702.203088051413,971.0,61.62667155156622
1703.1675037595105,924.0,62.68472584124325
1704.0851031710986,943.0,63.89378244501684
1705.0214291012903,981.0,63.69437990580847
1705.9952080686896,933.0,63.47421911421911
1706.9221707395795,962.0,63.05539558480734
1707.8772231883752,1009.0,62.47955086877571
1708.8790919336805,971.0,61.64165737068804
1709.843507641778,915.0,62.721099456800836
1710.751743794064,962.0,63.69965910495917
1711.7067962428596,990.0,63.304652170146404
1712.6899384695607,971.0,62.02189769111527
1713.6543541776584,981.0,61.61918275898857
1714.6281331450577,990.0,61.61918275898857
1715.6112753717591,933.0,62.45707625707625
1716.538238042649,905.0,64.16861471861472
1717.437110935633,971.0,64.56362165342748
1718.4015266437304,971.0,63.725728155339795
1719.3659423518282,915.0,63.49634671204083
1720.2741785041142,952.0,63.90699748585608
1721.2198676936077,981.0,63.70759494664771
1722.1936466610073,943.0,63.04697638994668
1723.129972591199,915.0,63.91908009516256
1724.038208743485,962.0,64.32179502728926
1724.9932611922804,971.0,63.69965910495917
1725.9576769003781,905.0,63.92904054825813
1726.856549793362,952.0,64.13637892915504
1727.802238982856,952.0,64.54702970297029
1728.7479281723495,943.0,63.65702970297029
1729.6842541025412,905.0,64.75851485148515
1730.5831269955254,915.0,65.63061855670102
1731.4913631478114,943.0,65.63061855670102
1732.4276890780031,905.0,65.63061855670102
1733.3265619709873,933.0,65.18575757575758
1734.253524641877,952.0,64.97427242724272
1735.1992138313708,943.0,64.08427242724272
1736.1355397615625,905.0,64.75851485148515
1737.0344126545465,933.0,65.18575757575758
1737.9613753254364,971.0,64.56362165342748
1738.9257910335339,933.0,63.88937922918505
1739.8527537044238,933.0,63.88937922918505
1740.7797163753137,962.0,64.09269162210339
1741.7347688241093,971.0,63.25479812401571
1742.6991845322068,933.0,63.25479812401571
1743.6261472030965,962.0,63.25479812401571
1744.5811996518921,981.0,63.05539558480734
1745.5549786192917,943.0,62.839638009049764
1746.4913045494834,924.0,63.69437990580847
1747.4089039610712,943.0,64.51591836734693
1748.345229891263,924.0,64.95183673469387
1749.262829302851,915.0,65.17653692404797
1750.171065455137,962.0,64.7577133946362
1751.1261179039325,971.0,63.69965910495917
1752.0905336120302,924.0,63.474958915605065
1753.008133023618,962.0,63.47495891560507
1753.9631854724137,981.0,63.2755563763967
1754.936964439813,924.0,63.2755563763967
1755.854563851401,915.0,64.3549984625095
1756.762800003687,962.0,64.7577133946362
1757.7178524524825,971.0,63.69965910495917
1758.6822681605802,924.0,63.474958915605065
1759.599867572168,962.0,63.47495891560507
1760.5549200209637,999.0,62.888038234161584
1761.5474255069669,962.0,62.033296337402874
1762.5024779557625,915.0,63.11273842351567
1763.4107141080485,962.0,63.902971497877495
1764.3657665568442,981.0,63.500256565750796
1765.3395455242435,952.0,62.62815286053491
1766.2852347137373,971.0,62.424840467616576
1767.2496504218348,999.0,62.03732232538145
1768.242155907838,943.0,62.24880747389631
1769.1784818380297,943.0,62.87094339622641
1770.1148077682215,981.0,63.25846153846153
1771.088586735621,952.0,63.04697638994668
1772.0342759251146,915.0,63.70759494664771
1772.9425120774006,924.0,64.96505177553311
1773.8601114889887,981.0,64.3549984625095
1774.833890456388,943.0,63.69437990580847
1775.7702163865797,924.0,63.69437990580847
1776.6878157981675,962.0,64.09709483793517
1777.6428682469632,971.0,63.47495891560507
1778.6072839550607,915.0,63.69965910495916
1779.5155201073467,943.0,64.11848263437093
1780.4518460375386,981.0,63.91908009516256
1781.425625004938,924.0,63.69437990580847
1782.3432244165258,905.0,64.58437990580848
1783.24209730951,952.0,65.19443321883207
1784.1877864990036,971.0,64.13637892915504
1785.1522022071013,933.0,63.46213650491262
1786.079164877991,924.0,64.1095400207744
1786.996764289579,943.0,64.7316759431045
1787.9330902197707,943.0,64.51591836734693
1788.8694161499625,886.0,65.44340425531914
1789.7495625243428,915.0,66.10402281202018
1790.6577986766288,952.0,65.89253766350532
1791.6034878661224,905.0,65.41913340818618
1792.5023607591065,924.0,65.19443321883207
1793.4199601706944,952.0,65.19443321883207
1794.3656493601882,924.0,64.74035158617902
1795.283248771776,886.0,65.66783747415123
1796.1633951461563,952.0,65.66783747415123
1797.1090843356499,999.0,64.02286250303071
1798.1015898216533,971.0,62.03732232538145
1799.0660055297508,990.0,61.231664616753456
1800.0491477564522,1028.0,60.677051495756395
1801.069743020361,990.0,60.28204456094364
1802.0528852470625,924.0,61.73510578543343
1802.9704846586503,981.0,62.67723704866561
1803.9442636260499,981.0,62.87284144427
1804.9180425934492,915.0,63.0975416336241
1805.8262787457352,933.0,64.13483767092015
1806.753241416625,962.0,64.53755260304683
1807.7082938654207,924.0,64.31285241369275
1808.6258932770086,943.0,64.09709483793517
1809.5622192072003,981.0,63.69437990580847
1810.5359981745999,962.0,62.839638009049764
1811.4910506233955,971.0,62.21750208671966
1812.455466331493,981.0,62.21750208671966
1813.4292452988923,962.0,62.21750208671966
1814.384297747688,896.0,63.96384853536555
1815.27380738137,933.0,65.00114457266159
1816.20077005226,962.0,65.00114457266159
1817.1558225010556,943.0,63.87693404634581
1818.0921484312473,915.0,64.32179502728926
1819.0003845835333,952.0,64.52913340818617
1819.946073773027,971.0,63.90699748585608
1820.9104894811246,905.0,64.13637892915504
1821.8093623741086,933.0,64.56362165342748
1822.7363250449985,962.0,64.76693404634581
1823.691377493794,915.0,64.53755260304683
1824.5996136460801,896.0,65.44600555360505
1825.4891232797622,924.0,66.30074745036376
1826.40672269135,952.0,65.42864374514787
1827.3524118808439,915.0,64.96505177553311
1828.2606480331299,915.0,65.18975196488721
1829.168884185416,962.0,64.9824135839903
1830.1239366342115,952.0,64.11030987877442
1831.069625823705,915.0,64.11030987877442
1831.9778619759911,943.0,64.52913340818617
1832.9141879061829,990.0,63.72347569955817
1833.8973301328842,915.0,63.72347569955817
1834.8055662851702,924.0,64.15939406690511
1835.723165696758,971.0,64.55440100171786
1836.6875814048558,933.0,64.10954002077442
1837.6145440757455,905.0,64.56362165342748
1838.5134169687296,933.0,65.40151515151516
1839.4403796396196,971.0,64.56362165342748
1840.404795347717,943.0,63.673621653427475
1841.3411212779088,905.0,64.3478640776699
1842.2399941708927,943.0,64.97
1843.1763201010847,971.0,64.3478640776699
1844.1407358091822,933.0,63.673621653427475
1845.0676984800718,924.0,64.1095400207744
1845.98529789166,990.0,63.714533085961655
1846.9684401183613,999.0,62.289718906430494
1847.9609456043645,924.0,62.28971890643049
1848.8785450159523,952.0,63.0953766150585
1849.8242342054461,981.0,63.482894757293614
1850.7980131728455,933.0,63.26273396570426
1851.7249758437354,962.0,63.05539558480734
1852.680028292531,943.0,63.87693404634581
1853.6163542227227,905.0,64.55117647058823
1854.5152271157067,943.0,64.97
1855.4515530458987,971.0,64.3478640776699
1856.4159687539961,924.0,63.89378244501683
1857.333568165584,886.0,65.25718670033598
1858.2137145399643,924.0,66.31524099001302
1859.131313951552,952.0,65.66783747415123
1860.077003141046,915.0,64.96505177553311
1860.985239293332,924.0,64.96505177553311
1861.9028387049198,952.0,64.96505177553311
1862.8485278944136,943.0,64.30443321883209
1863.7848538246053,905.0,64.75851485148515
1864.6837267175893,943.0,64.97
1865.620052647781,962.0,64.55117647058823
1866.5751050965766,915.0,64.32179502728926
1867.4833412488626,905.0,65.21179502728927
1868.3822141418468,943.0,65.63061855670102
1869.3185400720386,905.0,65.86
1870.2174129650227,896.0,66.09421052631578
1871.1069225987048,943.0,66.09421052631578
1872.0432485288966,990.0,64.18706766917293
1873.026390755598,915.0,63.72347569955817
1873.934626907884,896.0,64.84768622587396
1874.824136541566,933.0,66.0805866587744
1875.751099212456,943.0,65.41996810207337
1876.6874251426477,915.0,64.95637613245862
1877.5956612949337,933.0,64.95637613245862
1878.5226239658236,981.0,64.13483767092015
1879.496402933223,933.0,63.68997668997669
1880.4233656041129,924.0,63.910137481566046
1881.3409650157007,952.0,64.52019079458967
1882.2866542051945,933.0,64.52019079458967
1883.2136168760842,886.0,65.44767668256188
1884.0937632504645,943.0,65.65916183107672
1885.0300891806562,971.0,64.82126833298905
1885.9945048887537,933.0,63.673621653427475
1886.9214675596436,933.0,63.88937922918505
1887.8484302305335,943.0,64.51151515151516
1888.7847561607252,943.0,64.29575757575758
1889.721082090917,886.0,65.44340425531914
1890.6012284652973,924.0,65.87932262266608
1891.518827876885,933.0,66.09508019842366
1892.445790547775,915.0,65.39229449980554
1893.354026700061,933.0,65.1721337082162
1894.280989370951,952.0,64.74489098394375
1895.2266785604445,933.0,64.3000300030003
1896.1536412313344,905.0,64.97427242724272
1897.0525141243186,943.0,65.18575757575758
1897.9888400545103,999.0,63.76094339622641
1898.9813455405135,933.0,63.08670097198399
1899.9083082114034,943.0,63.08670097198399
1900.8446341415952,981.0,63.47421911421911
1901.8184131089945,933.0,63.47421911421911
1902.7453757798844,924.0,63.910137481566046
1903.6629751914722,952.0,64.52019079458967
1904.608664380966,971.0,63.682297296501986
1905.5730800890635,924.0,63.68229729650198
1906.4906795006514,933.0,64.10954002077442
1907.4176421715413,952.0,64.52019079458967
1908.3633313610349,933.0,64.3000300030003
1909.2902940319248,905.0,64.97427242724272
1910.189166924909,933.0,65.40151515151516
1911.1161295957988,962.0,64.76693404634581
1912.0711820445943,915.0,64.53755260304683
1912.9794181968803,943.0,64.32179502728926
1913.915744127072,981.0,63.91908009516256
1914.8895230944715,933.0,63.47421911421911
1915.8164857653614,915.0,64.13483767092015
1916.7247219176475,962.0,64.53755260304683
1917.6797743664429,990.0,63.304652170146404
1918.6629165931442,933.0,62.85979118920295
1919.5898792640342,933.0,63.4943722943723
1920.516841934924,981.0,63.68997668997669
1921.4906209023234,933.0,63.68997668997669
1922.4175835732133,905.0,64.36421911421911
1923.3164564661975,962.0,64.76693404634581
1924.2715089149929,971.0,63.92904054825813
1925.2359246230906,924.0,63.474958915605065
1926.1535240346784,915.0,64.55440100171788
1927.0617601869644,943.0,65.17653692404797
1927.9980861171562,952.0,64.52913340818617
1928.9437753066497,924.0,64.30443321883209
1929.8613747182378,981.0,63.482894757293614
1930.8351536856371,999.0,62.485323302034885
1931.8276591716406,933.0,62.26516251044552
1932.7546218425302,971.0,62.464565049653885
1933.7190375506277,990.0,62.65647879628462
1934.702179777329,990.0,61.42357836338418
1935.6853220040305,952.0,61.83422913719943
1936.6310111935243,943.0,62.85137199434229
1937.567337123716,971.0,63.24637892915504
1938.5317528318135,933.0,63.673621653427475
1939.4587155027034,943.0,63.673621653427475
1940.3950414328951,1009.0,62.89837439818748
1941.3969101782002,999.0,61.47356021865632
1942.3894156642036,952.0,61.262075070141464
1943.3351048536972,1037.0,60.71764006589337
1944.3650633769082,1056.0,59.63812524109553
1945.413748418723,971.0,59.22747446728029
1946.3781641268204,990.0,60.15214979195561
1947.3613063535217,999.0,61.23166461675345
1948.353811839525,962.0,61.43497700967178
1949.3088642883206,943.0,62.45211986681464
1950.2451902185123,971.0,63.03904054825813
1951.2096059266098,999.0,62.248807473896306
1952.2021114126132,933.0,62.46456504965389
1953.129074083503,962.0,62.66787744257222
1954.0841265322986,999.0,62.66787744257222
1955.0766320183018,962.0,62.033296337402874
1956.0316844670974,924.0,62.88803823416158
1956.9492838786855,971.0,63.47495891560507
1957.913699586783,952.0,63.682297296501986
1958.8593887762765,905.0,64.13637892915504
1959.7582616692607,924.0,65.19443321883207
1960.6758610808486,962.0,64.98709483793516
1961.6309135296442,924.0,64.5330132052821
1962.548512941232,905.0,64.98709483793516
1963.4473858342162,943.0,65.40591836734694
1964.383711764408,971.0,64.3478640776699
1965.3481274725054,933.0,63.673621653427475
1966.2750901433953,933.0,63.88937922918505
1967.2020528142853,981.0,63.68997668997669
1968.1758317816846,915.0,64.13483767092015
1969.0840679339706,877.0,65.52682203064643
1969.954851049049,924.0,66.78427885953184
1970.8724504606369,943.0,66.12366030283081
1971.8087763908286,915.0,65.17653692404797
1972.7170125431146,952.0,64.52913340818617
1973.6627017326084,999.0,63.320076804412594
1974.6552072186116,1066.0,60.20211311496819
1975.7132555197284,971.0,59.79146234115295
1976.6776712278258,1018.0,59.41829672270432
1977.688903232433,1047.0,59.758885098690925
1978.7282250149458,952.0,60.16953587250617
1979.6739142044394,877.0,87.85842476139504
1980.0952608730258,1339.0,113.1151815181518
1980.5446973195178,528.0,114.45087719298243
1981.4342069532,1103.0,112.43101903695408
1981.87428014039,622.0,106.07387617981121
1982.3986226612974,924.0,124.6665887304185
1982.8855121449972,1198.0,112.08131868131866
1983.494123999622,886.0,106.30209790209788
1984.1120991135483,952.0,87.02109319252176
1985.0296985251364,933.0,70.97845236877856
1986.21883245648,556.0,60.19057358089979
1988.9716306912437,886.0,74.59804504406132
1989.5240629900568,896.0,80.50255166158519
1990.404209364437,905.0,81.4110046121434
1991.2937189981192,877.0,67.45761478163493
1992.1925918911033,820.0,67.70195246179966
1993.0633750061816,858.0,69.7694660734149
1993.8779785654485,867.0,70.99199354594236
1994.7300351619228,867.0,71.24164291480633
1995.5914550176994,839.0,69.90731008122313
1996.4528748734758,858.0,70.43478260869566
1997.2862049513465,867.0,70.68991877687529
1998.138261547821,858.0,70.68991877687529
1998.9996814035974,839.0,70.16244624940276
1999.851738000072,858.0,70.68991877687529
2000.6850680779426,886.0,70.94505494505493
2001.537124674417,849.0,70.19593172784661
2002.4172710487974,820.0,69.92926506117993
2003.2599643859699,839.0,71.0084617265835
2004.0745679452368,849.0,72.28505747126437
2004.9078980231075,849.0,72.28505747126437
2005.75059136028,811.0,71.46666666666665
2006.5932846974526,839.0,72.30387596899223
2007.3985249974176,849.0,72.57054263565891
2008.2318550752882,867.0,72.57054263565891
2009.0745484124607,849.0,70.95072463768116
2009.935968268237,830.0,70.68405797101448
2010.7786616054098,839.0,71.22345191040843
2011.6026284239786,849.0,72.0060606060606
2012.4359585018492,830.0,72.0060606060606
2013.2786518390217,801.0,72.0060606060606
2014.1026186575905,830.0,73.13547237076648
2014.8984956982536,830.0,73.67486631016043
2015.7224625168221,820.0,73.67486631016043
2016.546429335391,811.0,73.09717868338558
2017.361032894658,820.0,73.66166071298389
2018.1662731946228,867.0,73.94065757818765
2018.9808767538896,877.0,72.60632474460445
2019.842296609666,858.0,70.73685737776273
2020.7130797247444,830.0,69.65766071235916
2021.565136321219,867.0,70.71299668073861
2022.3891031397875,877.0,70.96264604960257
2023.2505229955639,867.0,70.45786051255897
2024.1213061106423,839.0,69.40252454417953
2024.9827259664187,867.0,70.1851332398317
2025.8160560442893,886.0,70.43478260869566
2026.677475900066,849.0,69.94079555966698
2027.557622274446,839.0,69.6741288930003
2028.4003156116187,858.0,70.45673758865247
2029.2336456894893,867.0,71.2058608058608
2030.0857022859639,839.0,70.68991877687529
2030.9471221417402,830.0,70.68991877687529
2031.7804522196109,830.0,71.4901185770751
2032.6044190381797,830.0,72.54545454545453
2033.4283858567485,820.0,72.81818181818181
2034.252352675317,811.0,73.09717868338558
2035.066956234584,839.0,73.66166071298389
2035.872196534549,877.0,73.38893344025661
2036.7055266124196,839.0,71.80495123780945
2037.576309727498,830.0,70.96774193548387
2038.4096398053687,820.0,71.24046920821114
2039.2336066239372,839.0,72.8244514106583
2040.0482101832042,867.0,72.8244514106583
2040.8815402610749,858.0,71.76911544227886
2041.7429601168512,830.0,70.68991877687529
2042.5950167133258,858.0,70.96264604960257
2043.4189835318946,877.0,71.2177822177822
2044.271040128369,849.0,70.71299668073861
2045.1418232434473,801.0,70.17360274134467
2045.98451658062,792.0,71.83048703352308
2046.7803936212829,820.0,74.29131652661064
2047.566907402644,839.0,75.10970733120834
2048.381510961911,849.0,73.98029556650246
2049.2148410397813,858.0,72.28505747126437
2050.057534376954,886.0,71.2058608058608
2050.9095909734287,877.0,69.92926506117993
2051.789737347809,858.0,69.16367366333048
2052.6605204628872,858.0,69.16367366333048
2053.512577059362,830.0,69.9127968805388
2054.3646336558363,849.0,71.2177822177822
2055.188600474405,820.0,71.47858807858807
2056.0312938115776,858.0,72.55778474399163
2056.8458973708443,858.0,71.75758494379184
2057.697953967319,839.0,71.49677908298597
2058.5500105637934,849.0,70.94505494505493
2059.383340641664,896.0,71.2058608058608
2060.2260339788368,896.0,70.21754385964911
2061.1155436125186,867.0,68.7017543859649
2062.005053246201,896.0,68.1858123569794
2062.8664731019776,905.0,68.1858123569794
2063.7559827356595,924.0,67.9516018306636
2064.6548556286434,877.0,66.53012889366272
2065.5724550402315,867.0,67.0136603028308
2066.4432381553097,905.0,67.98105160717864
2067.3046580110863,915.0,68.4351332398317
2068.2035309040702,886.0,67.48800986104885
2069.1117670563563,858.0,66.99402281202018
2069.9919134307365,886.0,68.21655028454765
2070.843970027211,915.0,68.91933598316575
2071.7241164015913,877.0,68.21655028454765
2072.6323525538774,867.0,67.71176474750405
2073.5031356689556,886.0,68.20575179653272
2074.364555524732,896.0,68.90853749515085
2075.2447018991124,877.0,68.42500608598276
2076.134211532795,867.0,68.1753567171188
2077.004994647873,896.0,68.66934376614748
2077.8664145036496,915.0,68.66934376614748
2078.7559241373315,877.0,67.72222038736464
2079.6641602896175,877.0,67.47257101850069
2080.5349434046957,905.0,67.95610242766878
2081.4057265197744,905.0,68.18548387096774
2082.3045994127583,886.0,67.46774193548387
2083.2034723057423,877.0,67.22340425531914
2084.0836186801225,896.0,67.94114619080301
2084.954401795201,924.0,68.1753567171188
2085.843911428883,886.0,67.24787082914659
2086.761510840471,839.0,67.00353314898186
2087.6416572148514,839.0,68.51932262266608
2088.474987292722,839.0,70.72340425531914
2089.3083173705927,877.0,72.0
2090.1416474484636,801.0,70.96774193548387
2091.012430563542,830.0,72.09715370018975
2091.808307604205,849.0,72.36988097291702
2092.6322744227737,886.0,73.13547237076648
2093.474967759946,867.0,70.72946486137974
2094.3551141343264,877.0,69.6741288930003
2095.2165339901026,905.0,68.90853749515085
2096.0873171051812,924.0,68.4351332398317
2096.986189998165,886.0,67.0136603028308
2097.9037894097532,858.0,66.76932262266608
2098.7839357841335,867.0,67.99185009519354
2099.6359923806076,886.0,69.41332303219444
2100.497412236384,905.0,69.41332303219444
2101.3775586107645,886.0,68.19079555966698
2102.2764315037484,858.0,67.69680851063829
2103.1565778781287,886.0,68.44593172784661
2104.0086344746032,896.0,68.91933598316575
2104.8887808489835,867.0,68.6801422541624
2105.778290482666,849.0,68.42500608598276
2106.639710338442,858.0,69.43493516399694
2107.482403675615,905.0,70.42325211020862
2108.3344602720895,915.0,69.4558608058608
2109.2333331650734,886.0,67.7431460292285
2110.1415693173594,867.0,66.99402281202018
2111.0217156917397,886.0,67.961414116368
2111.883135547516,924.0,68.66419981498612
2112.763281921896,943.0,67.73671392701391
2113.680881333484,915.0,65.87932262266608
2114.617207263676,858.0,65.17653692404797
2115.525443415962,867.0,66.8531460292285
2116.3775000124365,886.0,68.71053733357633
2117.238919868213,915.0,69.41332303219444
2118.1190662425934,915.0,67.961414116368
2119.0273023948794,886.0,66.76464136872121
2119.9355385471654,858.0,66.76464136872121
2120.8156849215457,877.0,68.21655028454765
2121.6677415180197,886.0,69.16367366333048
2122.5385246330984,896.0,69.16367366333048
2123.4186710074787,877.0,68.1753567171188
2124.3081806411606,830.0,68.1753567171188
2125.178963756239,858.0,69.72467973452693
2126.0029305748076,877.0,70.7129966807386
2126.854987171282,905.0,70.71299668073861
2127.725770286361,886.0,68.69026940801135
2128.6246431793447,849.0,67.94114619080301
2129.504789553725,867.0,68.70673758865247
2130.3474828908975,877.0,69.6741288930003
2131.208902746674,896.0,69.91846657316503
2132.0796858617523,877.0,68.66934376614748
2132.9691954954346,849.0,68.41969439728354
2133.839978610513,867.0,69.18528579513298
2134.6826719476853,877.0,69.91846657316503
2135.544091803462,858.0,69.91846657316503
2136.41487491854,849.0,69.65766071235916
2137.2669315150147,830.0,70.17360274134467
2138.109624852187,849.0,71.47858807858806
2138.933591670756,886.0,71.73939393939392
2139.7762850079284,849.0,70.72946486137974
2140.6564313823087,858.0,70.19007092198581
2141.4991247194816,886.0,69.92926506117993
2142.3511813159557,905.0,69.92926506117993
2143.231327690336,924.0,68.44593172784661
2144.1302005833204,896.0,66.76932262266608
2145.047799994908,877.0,66.53012889366272
2145.9373096285904,915.0,67.24787082914659
2146.8080927436686,933.0,67.47257101850069
2147.7163288959546,924.0,66.56411806794247
2148.6432915668447,877.0,65.39229449980554
2149.5608909784323,905.0,66.33941787858839
2150.431674093511,952.0,67.0136603028308
2151.330546986495,981.0,66.36625678696902
2152.2762361759887,943.0,63.93697638994668
2153.250015143388,933.0,63.04697638994668
2154.1863410735796,962.0,63.47421911421911
2155.1133037444697,990.0,63.87693404634581
2156.068356193265,952.0,62.85979118920295
2157.0514984199667,905.0,62.43254846493052
2157.99718760946,933.0,63.74137199434229
2158.8960605024445,943.0,64.97427242724272
2159.823023173334,924.0,65.18575757575758
2160.759349103526,886.0,64.7316759431045
2161.676948515114,905.0,65.87932262266608
2162.5570948894942,933.0,66.76932262266608
2163.455967782478,924.0,66.54916183107673
2164.382930453368,905.0,65.62167594310452
2165.300529864956,886.0,65.62167594310452
2166.19940275794,905.0,66.76932262266608
2167.07954913232,943.0,67.22340425531914
2167.9784220253046,924.0,66.33340425531915
2168.9147479554963,867.0,65.40591836734694
2169.832347367084,896.0,66.37330967169476
2170.6937672228605,915.0,67.49752019801055
2171.583276856543,905.0,67.72222038736464
2172.491513008829,867.0,66.75482908301682
2173.390385901813,858.0,67.48800986104885
2174.2518057575894,905.0,68.93991877687529
2175.1038623540635,952.0,68.93991877687529
2176.002735247048,905.0,66.87104232401262
2176.9484244365417,877.0,65.64851485148515
2177.8472973295256,867.0,66.36625678696902
2178.718080444604,896.0,68.4351332398317
2179.5795003003805,896.0,68.66934376614748
2180.4690099340623,886.0,68.1858123569794
2181.3585195677447,896.0,67.69182530795072
2182.238665942125,915.0,67.69182530795072
2183.1281755758073,905.0,67.22823333833597
2184.0364117280933,867.0,66.75482908301682
2184.9352846210772,849.0,67.48800986104885
2185.7967044768534,877.0,69.20072463768116
2186.6393978140263,877.0,69.91846657316503
2187.5101809291045,858.0,69.66881720430106
2188.3809640441827,858.0,69.40801134349522
2189.2330206406573,877.0,69.9127968805388
2190.085077237132,905.0,69.9127968805388
2190.95586035221,867.0,68.69026940801135
2191.8547332451944,858.0,68.4351332398317
2192.7161531009706,858.0,68.93991877687529
2193.568209697445,896.0,70.16244624940276
2194.4202662939197,915.0,69.42926547137071
2195.309775927602,886.0,67.97735655554428
2196.218012079888,858.0,67.22823333833597
2197.0981584542683,896.0,68.21655028454765
2197.950215050743,896.0,68.6801422541624
2198.8397246844247,867.0,68.44094852515903
2199.729234318107,830.0,68.1858123569794
2200.5906541738836,867.0,69.97432910339089
2201.414620992452,886.0,70.70750988142292
2202.2760408482286,896.0,70.21352283239423
2203.156187222609,867.0,68.42500608598276
2204.045696856291,839.0,68.42500608598276
2204.9071167120674,849.0,69.7016018306636
2205.7404467899382,858.0,70.95072463768116
2206.5831401271107,896.0,71.2058608058608
2207.4351967235852,877.0,69.69007133217659
2208.3247063572676,849.0,68.92447993432712
2209.195489472346,877.0,69.18528579513298
2210.0381828095183,886.0,69.66881720430106
2210.9089659245965,867.0,69.42447952413634
2211.7891122989768,858.0,68.90853749515085
2212.6505321547534,849.0,69.41332303219444
2213.502588751228,867.0,70.42325211020862
2214.3452820884004,877.0,70.42325211020862
2215.206701944177,858.0,69.91846657316503
2216.077485059255,820.0,69.65766071235916
2216.9295416557297,858.0,70.99199354594238
2217.7441452149965,877.0,71.49677908298597
2218.596201811471,867.0,70.99199354594238
2219.4669849265492,867.0,69.65766071235916
2220.328404782326,867.0,69.40252454417953
2221.189824638102,896.0,69.65217391304348
2222.0512444938786,905.0,68.91899313501145
2222.940754127561,858.0,67.9516018306636
2223.839627020545,877.0,68.20673799884325
2224.6916836170194,896.0,68.69026940801135
2225.5624667320976,924.0,68.92447993432712
2226.45197636578,896.0,67.24787082914659
2227.3695757773676,915.0,66.76433941997851
2228.25908541105,943.0,66.30074745036376
2229.167321563336,952.0,65.86482908301682
2230.1036474935277,905.0,64.52913340818617
2231.0493366830215,924.0,64.75851485148515
2231.9482095760054,962.0,65.19443321883207
2232.8658089875935,933.0,64.98709483793516
2233.820861436389,877.0,64.31285241369275
2234.747824107279,896.0,65.48467598182968
2235.6186072223572,915.0,67.02771003755723
2236.5081168560396,915.0,67.47257101850069
2237.4163530083256,915.0,66.52544763971784
2238.3245891606116,952.0,66.06185567010309
2239.2328253128976,962.0,65.18975196488721
2240.178514502391,943.0,64.11030987877442
2241.133566951187,915.0,63.44969132207338
2242.0698928813786,952.0,64.32179502728926
2242.9781290336646,952.0,64.52913340818617
2243.923818223158,905.0,64.31764825967133
2244.8695074126517,915.0,64.54702970297029
2245.7683803056357,943.0,65.41913340818618
2246.6766164579217,924.0,65.63061855670102
2247.612942388114,896.0,65.17653692404797
2248.5305417997015,924.0,65.64012889366272
2249.420051433384,924.0,66.07604726100965
2250.3376508449714,924.0,66.07604726100965
2251.2552502565595,905.0,65.38775510204081
2252.1728496681476,933.0,65.84183673469387
2253.0717225611315,943.0,65.62167594310452
2253.9986852320217,915.0,65.18575757575758
2254.9350111622134,886.0,64.95637613245862
2255.8432473144994,933.0,66.10402281202018
2256.7233936888797,962.0,66.31978038777775
2257.6503563597694,943.0,65.24033830166496
2258.605408808565,933.0,63.87693404634581
2259.5417347387565,933.0,63.87693404634581
2260.4686974096467,952.0,64.51151515151516
2261.3956600805363,915.0,64.3000300030003
2262.34134927003,905.0,64.74489098394375
2263.249585422316,952.0,65.41913340818618
2264.1484583153,943.0,65.41913340818618
2265.094147504794,924.0,64.75851485148515
2266.0304734349857,933.0,64.30443321883209
2266.9480728465737,952.0,64.7316759431045
2267.8750355174634,952.0,64.52019079458967
2268.820724706957,933.0,63.87278727872787
2269.7664138964506,877.0,63.87278727872787
2270.6933765673407,886.0,65.6920143627266
2271.564159682419,933.0,67.2669037665606
2272.444306056799,933.0,67.2669037665606
2273.371268727689,915.0,65.8749194068343
2274.298231398579,952.0,65.1721337082162
2275.206467550865,990.0,64.74489098394375
2276.1521567403584,971.0,63.51199055104332
2277.13529896706,933.0,62.229236072012185
2278.0997146751574,962.0,62.65647879628462
2279.026677346047,971.0,63.25479812401571
2279.981729794843,952.0,63.25479812401571
2280.9461455029405,915.0,62.827555399743275
2281.891834692434,962.0,63.906997485856074
2282.80007084472,981.0,64.11030987877442
2283.7551232935157,952.0,63.500256565750796
2284.728902260915,924.0,62.62815286053491
2285.6745914504086,962.0,63.482894757293614
2286.5921908619966,971.0,63.88560968942031
2287.547243310792,943.0,63.47495891560507
2288.5116590188895,905.0,63.03904054825813
2289.4479849490817,943.0,64.3478640776699
2290.3468578420657,962.0,64.97
2291.2831837722574,952.0,64.55117647058823
2292.238236221053,924.0,63.44969132207338
2293.1839254105466,971.0,63.88560968942031
2294.1015248221347,999.0,63.682297296501986
2295.065940530232,962.0,62.68472584124325
2296.0584460162354,933.0,61.829983944484546
2297.013498465031,952.0,62.66787744257222
2297.940461135921,962.0,63.665448897830956
2298.8861503254143,933.0,63.665448897830956
2299.84120277421,886.0,63.665448897830956
2300.7681654451,877.0,65.24033830166496
2301.64831181948,915.0,67.2669037665606
2302.5190949345583,943.0,67.71176474750405
2303.4273310868443,933.0,66.3483604921849
2304.363657017036,905.0,64.95637613245862
2305.290619687926,924.0,65.18575757575758
2306.18949258091,971.0,65.62167594310452
2307.107091992498,952.0,64.78378244501684
2308.0715077005957,933.0,63.682297296501986
2309.0171968900895,981.0,63.46213650491262
2309.944159560979,962.0,63.26273396570426
2310.9179385283787,933.0,63.05539558480734
2311.872990977174,924.0,63.05539558480734
2312.799953648064,933.0,64.31285241369275
2313.717553059652,962.0,64.94743351886208
2314.6445157305416,924.0,64.31285241369275
2315.5995681793374,924.0,64.31285241369275
2316.5171675909255,933.0,64.5330132052821
2317.434767002513,962.0,65.16759431045145
2318.3617296734033,943.0,64.31285241369275
2319.3167821221987,924.0,63.87693404634581
2320.2531080523904,981.0,64.09709483793517
2321.1707074639785,952.0,63.69437990580847
2322.1444864313776,924.0,63.482894757293614
2323.0901756208714,943.0,63.482894757293614
2324.0077750324594,952.0,64.30443321883209
2324.944100962651,943.0,64.30443321883209
2325.889790152145,896.0,63.868514851485145
2326.8261160823367,849.0,64.99272537780092
2327.7156257160186,886.0,67.57754385964911
2328.5583190531916,933.0,68.94094811496825
2329.438465427572,877.0,68.03249516441005
2330.3654280984615,867.0,67.2669037665606
2331.2362112135397,915.0,67.76089081558928
2332.0976310693163,971.0,68.20575179653272
2333.0058672216023,915.0,65.97587393871876
2333.9702829297,981.0,64.77910119107196
2334.878519081986,1009.0,63.29694417283247
2335.8522980493854,962.0,62.521696917592465
2336.85416679469,896.0,61.442254831479666
2337.809219243486,839.0,63.38800381933392
2338.698728877168,839.0,67.42538699690402
2339.532058955039,924.0,70.48421052631579
2340.3653890329097,1009.0,69.79591836734693
2341.2829884444973,999.0,65.75853518977684
2342.2848571898026,999.0,61.909478586003246
2343.2773626758058,962.0,60.26450361488273
2344.269868161809,999.0,61.24306326304106
2345.224920610605,1188.0,61.24306326304105
2346.217426096608,820.0,58.04450081919559
2347.39719676865,971.0,61.65504848653839
2348.2118003279165,943.0,62.24196916798188
2349.176216036014,962.0,66.64958821560094
2350.1125419662058,952.0,63.03904054825813
2351.067594415001,933.0,63.44969132207338
2352.013283604495,915.0,63.665448897830956
2352.9402462753847,915.0,64.74489098394375
2353.8484824276707,952.0,65.61699468915964
2354.7567185799567,952.0,65.18975196488721
2355.7024077694505,933.0,64.31764825967133
2356.6480969589443,886.0,63.87278727872787
2357.575059629834,905.0,65.44767668256188
2358.4552060042142,915.0,66.54916183107673
2359.354078897198,915.0,66.99402281202018
2360.262315049484,896.0,66.29123711340206
2361.17055120177,896.0,66.52544763971784
2362.0600608354525,924.0,66.9890396093326
2362.949570469135,962.0,66.76433941997851
2363.8671698807225,971.0,65.22130536425095
2364.8222223295184,924.0,63.47495891560507
2365.786638037616,896.0,63.474958915605065
2366.704237449204,915.0,65.01799297133263
2367.593747082886,943.0,66.30074745036376
2368.501983235172,943.0,65.86482908301682
2369.4383091653635,905.0,64.74061855670104
2370.3746350955553,886.0,64.97
2371.2735079885397,943.0,66.33340425531915
2372.15365436292,943.0,66.33340425531915
2373.0899802931117,943.0,65.44340425531914
2374.0263062233034,886.0,64.08
2374.962632153495,867.0,65.44340425531914
2375.8427785278755,877.0,67.30079555966697
2376.7041983836516,905.0,68.90853749515085
2377.57498149873,896.0,68.4351332398317
2378.473854391714,896.0,67.70195246179966
2379.363364025396,886.0,67.21842105263157
2380.2528736590784,915.0,67.69182530795072
2381.1330200334587,933.0,67.22823333833597
2382.0412561857447,905.0,66.31978038777775
2382.9682188566344,867.0,65.8463761324586
2383.867091749619,905.0,67.0431488801054
2384.728511605395,915.0,67.71739130434783
2385.6273844983793,905.0,67.48800986104885
2386.5356206506654,905.0,66.52061855670104
2387.4344935436493,952.0,66.52061855670104
2388.3333664366332,962.0,65.64851485148515
2389.279055626127,924.0,64.33969132207338
2390.2341080749225,905.0,63.88560968942031
2391.1517074865105,943.0,64.98709483793516
2392.0505803794945,933.0,65.40591836734694
2392.986906309686,915.0,65.18575757575758
2393.9138689805764,886.0,64.95637613245862
2394.8221051328624,858.0,66.31978038777775
2395.7022515072426,N/A,68.21655028454765
2396.554308103717,N/A,69.66845920037409
