67.46742706733932
65.89253766350532
63.90699748585608
62.229236072012185
61.04333804295694
59.9018042405164
58.97712891584107
58.432693911592985
58.98730703259004
59.34690299218601
58.66556327926735
58.11095015827029
57.75135419867433
58.432693911592985
59.37482517482516
59.5529736318727
57.934791813690886
56.13317238049251
55.27368421052631
57.251461988304094
57.75786312628418
57.75786312628418
57.576415623735755
58.295789202922414
58.8021903409025
59.168476888103044
60.78161764143072
83.42072733936394
112.00356506238859
113.15121174195014
93.51885880077369
97.07096523092889
104.43206801786327
108.55243838823364
73.68068386423678
78.04778972520907
74.64516129032259
78.36053130929791
64.85009487666034
64.13235294117646
64.55117647058823
65.18575757575758
65.41996810207337
66.78337235739251
67.00353314898186
66.09508019842366
66.09508019842366
67.02256608639587
67.46742706733932
66.76464136872121
66.29123711340206
65.8463761324586
65.18575757575758
65.18575757575758
65.63061855670102
65.63061855670102
65.63061855670102
66.33340425531915
67.45761478163493
67.69182530795072
67.69182530795072
67.22823333833597
65.89253766350532
65.41913340818618
65.19443321883207
64.98709483793516
63.07995198079231
62.64403361344537
62.85137199434229
63.04697638994668
62.835491241431825
64.17118691626246
65.2084829535585
64.79783217974327
63.25479812401571
63.03904054825813
62.45211986681464
61.107273671455765
59.52505144923355
60.315284523595366
60.49673202614379
59.96219749160925
58.7987987987988
58.09244959244959
57.423119392684605
57.24167189013618
57.94802109648539
59.91256959146867
60.65909645909645
61.032262077545084
61.85380053908355
62.87094339622641
63.868514851485145
63.44969132207338
63.44969132207338
63.44969132207338
63.44969132207338
63.44969132207338
65.02458072590738
66.10402281202018
66.76464136872121
66.52544763971784
68.50482908301682
69.7016018306636
69.7016018306636
67.9516018306636
67.9516018306636
68.19079555966698
67.30079555966697
65.02458072590738
63.87693404634581
63.665448897830956
63.46213650491262
63.46213650491262
65.28136358891135
66.79349951124145
67.23836049218491
67.23836049218491
66.13687534367006
64.45911392982616
62.02983353280382
61.224175824175816
60.47764895654803
60.6770514957564
61.69419435289926
62.44072122052704
61.85380053908355
61.85380053908355
63.53156195292744
64.95637613245862
64.33424021012851
63.673621653427475
64.3478640776699
64.97
64.3478640776699
62.835728155339794
63.7257281553398
64.56362165342748
64.97427242724272
64.3000300030003
65.2084829535585
65.8558864694203
66.53012889366272
67.5184458398744
67.97252747252747
66.87104232401262
64.75851485148515
65.2319191068043
65.65916183107672
64.83762336953825
63.47421911421911
64.38267206477732
65.64012889366272
66.07604726100965
66.31524099001302
67.24272687798523
67.24272687798523
66.31524099001302
66.07604726100965
66.30074745036376
65.24269316068671
64.11848263437093
64.58207460398569
65.86482908301682
66.0805866587744
66.31978038777775
65.8749194068343
65.8749194068343
65.1721337082162
63.192706407687965
59.873359088340635
57.270922349821426
56.08838517804035
56.73462978888673
55.41814288595915
55.74119188777403
56.25671883869921
56.25671883869921
56.25671883869921
56.9894804167438
58.30596731967139
58.47178008166487
58.66369382829559
59.78397354857531
61.41978021978021
61.41978021978021
62.67723704866561
64.38877551020408
65.40591836734694
65.86
66.57774193548387
66.57774193548387
64.29035875791376
62.471131673915046
62.686889249672625
63.067129570099866
60.492527762092976
58.513100461564754
56.74415636218587
70.53387968234398
89.08040654997176
88.60818842174774
74.34624697336561
54.00338983050847
53.851274747187006
55.52735760971054
56.14115071315883
56.447981137636305
55.913446603101775
58.64816835113864
60.93021963318992
61.83791978617309
61.42726901235784
62.909426030597345
63.49634671204083
62.35481290960029
60.29681117532916
60.918947097659256
61.47356021865632
62.04940493468794
62.26516251044552
62.85208319188901
62.65647879628462
63.33072122052704
63.95285714285714
64.3478640776699
64.58207460398569
104.25064603255711
118.52917539751016
117.19347972267951
76.50776543696523
62.639886845827434
61.6423153905687
61.26207507014146
61.262075070141464
62.471131673915046
62.85137199434229
62.85137199434229
63.51199055104332
64.31764825967133
63.70759494664771
62.835491241431825
63.26273396570426
63.87278727872787
63.067129570099866
62.639886845827434
64.21477624966144
66.12191910680428
66.76932262266608
66.29591836734693
67.26330967169477
67.48800986104885
65.7764713995104
63.500256565750796
63.500256565750796
63.69965910495917
62.00172587761418
60.71897139858304
61.34110732091314
61.69419435289925
59.21274053163961
56.92416910306818
56.064680933101975
56.382183720169984
57.08853292651919
56.76548392470431
56.447981137636305
57.208664898320066
58.39120207010114
58.871633918954046
57.576415623735755
59.3400853485064
60.56586006567314
60.05945892769306
59.0423160705502
60.4396992481203
62.241318681318674
61.31664335664335
61.10515820812849
60.52931349209686
61.07374849634495
60.463695183321335
62.521696917592465
63.0975416336241
62.71002349138898
62.48532330203488
63.0953766150585
63.0953766150585
60.370886819140125
60.16354843824321
60.95378151260503
62.420814479638
63.05539558480734
64.36421911421911
65.62167594310452
65.62167594310452
64.7316759431045
64.7316759431045
63.118535189776836
61.00177843302008
58.8021903409025
58.990516914699015
58.64992853871241
57.79044036874621
58.17795851098133
59.23792046615459
59.57250693232
58.81182317163625
60.20920634920635
61.67623931623931
61.49479181369089
60.87265589136079
61.27537082348749
62.21750208671966
61.442254831479666
61.03953989935297
61.442254831479666
61.82249515190691
61.246650435875274
61.45398881677219
62.471131673915046
63.24637892915504
63.673621653427475
63.88937922918505
63.68997668997669
61.89199689199689
60.65909645909645
60.27157831686134
59.73704378232679
59.17196441724743
59.758885098690925
61.66415670693283
62.424840467616576
61.83791978617309
62.710023491388974
62.71002349138898
61.97726191334438
60.107586752869764
60.92912521440823
61.85380053908355
61.121038961038956
59.91198235726537
60.107586752869764
60.46718271246572
59.559482559482554
58.98363784345092
61.00177843302008
63.118535189776836
63.89378244501684
62.44072122052704
62.876639587873974
63.49877551020408
64.30443321883209
63.04697638994668
63.482894757293614
63.910137481566046
63.52261933933093
61.1448827901658
60.51030168499646
60.32197511119995
60.68157107079591
60.08325174306482
61.6963924963925
62.06955811484113
61.32303124721334
61.10727367145577
61.89750674581759
62.26379329301813
60.86641011544803
61.07374849634495
61.262075070141464
61.26207507014146
60.45641736151346
61.246650435875274
61.43497700967178
59.8289619720778
58.48411577671893
58.11095015827029
58.445536624435704
57.92063492063492
58.29380053908355
58.640553785836794
58.6405537858368
59.22747446728029
60.34775418756
61.42726901235784
60.10758675286976
60.107586752869764
60.69450743431325
61.23894243856133
61.64165737068804
62.26379329301813
62.07895424836601
60.55595959595959
60.137136066547825
60.51030168499646
60.688450142044
60.688450142044005
61.686021597302734
61.86746909985116
59.997721200691494
59.38766788766788
59.20622038511946
59.5529736318727
59.35736923626831
61.336796536796534
61.88123154104462
60.78161764143072
60.147036536261375
60.72288125229301
61.630581405276175
60.84034833091435
61.661886792452826
61.85380053908355
61.48063492063492
60.65909645909645
60.46718271246573
60.2857352099173
59.70989049388567
60.50012356824749
60.50012356824749
60.13383702104694
59.731122088920245
61.283306665176035
61.83791978617309
61.6423153905687
61.23166461675345
60.49890303870885
67.89630563611146
104.88817128817128
104.3726443372461
105.11238459698635
95.92810941271117
95.92810941271117
86.86629123089298
56.5772469418487
56.91783531783531
56.23649560491665
56.39387845195468
55.40704546512168
56.632820182288434
57.63720889702197
58.452227212040285
58.452227212040285
60.182560245343616
61.07374849634495
60.7074619491444
60.296811175329154
59.930524628128616
59.5774375961425
58.8021903409025
59.744321604134676
60.463695183321335
59.744321604134676
59.94372414334305
60.32396446377028
61.04333804295694
59.37690253671561
59.37690253671561
59.01061598951507
59.18243066132974
58.25775533665441
60.021425061425056
60.92912521440823
60.75418663946965
59.73704378232679
60.94610038610038
61.121038961038956
59.03459207459207
57.82553547081848
58.185131430414444
58.83137604126083
57.58308751229105
58.746486205101505
59.440161613074224
59.111419789295844
57.94802109648539
59.29286729184427
60.315284523595366
59.9556885639994
59.35736923626831
59.35736923626831
59.35736923626831
58.25775533665441
59.60260153201329
60.147036536261375
59.80644816027477
57.279064793134815
57.09422574848269
56.605363984674334
56.76548392470431
56.40588796510835
56.56600790513833
56.56600790513833
57.686287625418046
60.05355105252802
61.630581405276175
60.86989764459242
60.86989764459243
60.49673202614379
59.79038281979458
58.62698412698413
59.79038281979458
60.315284523595366
60.13383702104694
58.97043832823649
58.445536624435704
58.26738816738816
59.02807192807192
60.29950049950049
60.843935503748575
61.246650435875274
62.05230814450328
61.686021597302734
60.34117540194386
59.93052462812861
59.5774375961425
60.13205071713955
59.35680346189955
60.07617704108622
60.07617704108621
61.05473668924455
60.510301684996456
59.60260153201329
59.19988659988659
59.932648177931185
60.2857352099173
60.090130814312914
60.6770514957564
60.677051495756395
59.5774375961425
58.990516914699015
59.73704378232679
60.45641736151345
59.37690253671561
59.57250693232
59.20622038511946
59.037446680947525
58.46160196491589
58.643049467464316
58.81182317163625
58.26738816738816
59.22747446728029
59.9338236736295
59.58707042687625
58.09244959244959
58.27728863710171
58.449103308916385
70.16238180480357
98.74521952782821
99.84483342744211
88.8509285107416
59.0423160705502
57.113252031141336
56.928412986489214
56.605363984674334
56.605363984674334
55.56442831215971
55.1002150406442
55.7578505086245
56.43919022154315
56.90340349305866
56.73462978888673
57.659305113562056
58.66369382829559
58.832467532467525
58.08594066483974
59.01061598951507
59.01061598951507
57.82807881773399
57.262999452654626
58.15418770365596
58.81182317163625
58.630375669087826
59.01061598951507
59.18243066132974
58.48875525335702
58.10851493292978
59.80644816027477
60.68157107079591
60.68157107079591
61.10039460020768
62.26379329301813
61.54441971383147
59.60260153201329
59.19988659988659
59.734421134421126
59.559482559482554
58.617351296250376
59.78074998906083
61.27537082348749
61.64165737068803
60.663097722529706
61.07374849634495
60.888909451692825
60.34447444744474
59.93382367362949
60.30698929207813
60.30698929207813
59.72006861063464
60.30698929207813
60.66658525167409
60.478258677877584
60.888909451692825
61.07374849634495
60.7074619491444
59.52156392008916
60.7074619491444
60.888909451692825
61.07723602548934
61.07723602548934
61.450401643937965
60.71764006589337
59.53174203683813
58.79898045879353
57.637208897021964
57.092773892773884
57.63720889702197
57.79459174405999
57.79459174405999
58.56983899929999
59.752376171081075
60.11197213067704
59.91256959146867
60.27885613866921
59.91926017907325
59.72365578346886
60.29950049950049
60.47764895654803
59.037446680947525
58.46160196491589
58.46160196491589
58.46160196491589
58.6499285387124
58.47178008166487
58.14303825788649
58.14303825788649
59.462720517374564
60.48513774912567
60.29681117532916
60.296811175329154
60.663097722529706
60.11866271828162
59.343415463041616
60.52931349209686
61.262075070141464
60.71764006589337
60.71764006589338
61.10515820812849
61.83791978617309
61.630581405276175
62.24063471829979
61.86746909985116
60.52262290449228
59.525051449233544
60.89578852294092
61.26207507014146
60.35437491715829
59.168476888103044
60.147036536261375
60.68157107079591
60.49673202614379
60.293419633225454
60.29341963322546
60.11197213067704
60.11197213067703
61.27537082348749
60.92228379150137
59.08707458108811
58.68435964896141
58.68435964896141
58.19549788515305
58.19549788515305
59.29511178476695
60.29950049950049
59.538816738816735
60.137136066547825
60.68157107079591
59.9752218644467
59.9752218644467
61.16111989350195
62.05230814450328
61.262075070141464
61.05473668924455
60.86989764459242
60.49673202614379
60.09401709401709
60.09401709401709
59.734421134421126
59.538816738816735
59.35736923626831
58.841842285343134
58.6499285387124
60.41359826348305
61.47356021865631
60.56586006567314
60.147036536261375
61.125596184419706
61.30053475935828
60.32197511119995
60.740798640611715
61.47356021865632
60.58237196765498
59.960236045324876
60.34775418756
61.23894243856133
61.03953989935297
61.86107836089143
62.241318681318674
61.2991874180865
60.47764895654803
59.731122088920245
59.37803505693413
59.18243066132974
59.73704378232679
59.56522911051212
58.46561521089822
58.27728863710171
58.8021903409025
58.630375669087826
58.26408912188728
57.91100208990117
57.253366621920875
56.90027958993476
57.61965316912142
58.8021903409025
59.15527737288861
59.93052462812861
59.930524628128616
59.07103645816242
58.48411577671892
60.46354307724715
62.464565049653885
62.276238475857376
61.4383449777697
61.4383449777697
61.07205843056916
59.5774375961425
58.617351296250376
58.617351296250376
58.11095015827029
58.295789202922414
59.437323005362956
59.94372414334305
59.75888509869092
59.559482559482554
59.91256959146867
59.5529736318727
59.35736923626831
59.72365578346886
60.08325174306482
60.68157107079591
61.25741578682754
61.442254831479666
60.65202175711785
61.689317794413896
62.06955811484113
61.336796536796534
60.1038961038961
60.70221543162719
61.06181139122315
59.96219749160925
59.559482559482554
60.72288125229301
60.72288125229301
59.78074998906083
59.5774375961425
60.29681117532916
60.29681117532916
60.296811175329154
61.482709204384406
62.03732232538145
61.26207507014146
60.851424296326215
60.478258677877584
60.29341963322546
60.293419633225454
61.054103393909216
61.23894243856133
61.23894243856134
60.851424296326215
60.66658525167409
60.079664570230605
61.07723602548934
61.26207507014146
60.52931349209686
59.91926017907325
61.10515820812849
61.283306665176035
59.988088369957744
59.78074998906083
59.60260153201329
59.9556885639994
59.9556885639994
60.688450142044005
61.24306326304105
61.661886792452826
62.04940493468794
62.04940493468794
61.630581405276175
60.335363110057884
58.75833275730973
57.413486561950855
57.76657359393697
57.29435546571295
55.64760502241636
56.01389156961691
57.155439897605916
58.10851493292978
57.92367588827766
57.58308751229105
57.92367588827766
58.88376218816978
59.577437596142495
60.29681117532916
59.336724875437035
58.98363784345092
58.98363784345092
59.94372414334305
60.11866271828162
59.752376171081075
60.163026944896316
60.89578852294092
60.71764006589337
59.53174203683813
60.32197511119995
61.246650435875274
60.88036388867473
61.08770226957164
61.08770226957164
61.08770226957164
59.9018042405164
60.918947097659256
61.66547396528704
61.2991874180865
60.6770514957564
60.48513774912567
60.30698929207813
60.107586752869764
61.532400932400925
62.652680652680644
61.89199689199689
60.854700854700845
61.25741578682754
61.630581405276175
61.05473668924454
61.05473668924455
61.246650435875274
60.88036388867473
60.6770514957564
62.130112720246196
62.68472584124325
61.90947858600325
61.05473668924455
60.86641011544803
60.50012356824749
60.50012356824749
62.113264321575166
62.29471182412359
61.6963924963925
61.48063492063492
62.64403361344537
62.07895424836601
61.25741578682754
61.054103393909216
60.34775418756
58.546134754361624
57.959214072918144
58.48411577671893
58.48411577671893
58.295789202922414
58.295789202922414
58.630375669087826
59.01061598951507
59.75714285714285
60.46349206349206
59.538816738816735
59.734421134421126
59.5529736318727
59.037446680947525
58.841842285343134
59.78397354857531
60.29950049950049
59.19988659988659
59.39928913909496
59.75888509869092
60.11197213067704
60.11197213067703
61.07205843056916
61.62667155156622
62.03732232538146
62.03732232538145
62.03732232538145
61.03975087012273
61.661886792452826
62.04940493468794
61.86107836089143
60.843935503748575
61.246650435875274
61.626890756302515
61.43497700967178
61.85380053908355
61.66188679245282
61.28872117400419
60.27157831686134
61.48063492063492
62.241318681318674
61.49479181369089
60.47764895654803
61.08770226957164
61.45398881677219
61.07374849634495
60.86641011544803
61.05473668924455
60.688450142044
59.89821706768218
60.688450142044005
60.86989764459242
60.315284523595366
60.11197213067703
61.07205843056916
60.893909973521616
60.11866271828162
60.11866271828161
60.851424296326215
59.96023604532488
59.56522911051212
60.99004329004329
62.06955811484113
61.1448827901658
59.53174203683813
59.72365578346886
59.9018042405164
60.090130814312914
60.285735209917306
61.032262077545084
61.032262077545084
62.06955811484113
63.52261933933092
64.10954002077442
62.49639926744674
61.84899575158495
61.84899575158495
60.95780750058361
59.960236045324876
60.58237196765498
61.85380053908355
61.121038961038956
60.29950049950049
60.69450743431325
61.05410339390921
60.858498998304825
61.6963924963925
62.26147186147186
61.514944993844075
60.6770514957564
60.87265589136079
61.05410339390921
60.46718271246573
61.07723602548934
61.6423153905687
61.45398881677219
61.246650435875274
61.64165737068804
61.45681832603591
60.66658525167409
61.07723602548934
61.83791978617309
61.83791978617309
60.46718271246572
61.07723602548934
62.286292629262924
62.85137199434229
62.85137199434229
62.43254846493052
62.43254846493052
61.82249515190691
62.02983353280382
61.64959321237658
61.07374849634495
60.86641011544803
61.05473668924455
60.688450142044
60.285735209917306
60.67325335215242
59.9795779441797
58.859298223899984
58.28345350786835
58.28345350786835
57.76792655694317
57.76792655694317
58.10851493292978
58.62404188385496
59.8099399129102
59.984878487848775
60.163026944896316
59.9556885639994
61.89750674581759
62.64403361344537
62.04571428571428
62.04571428571428
61.48063492063492
59.39418803418803
57.996804856617935
58.369970475066566
59.18498879008489
58.818702242884335
60.027758846657925
61.69419435289926
61.51604589585171
60.893909973521616
60.30698929207813
60.48513774912567
59.16545548963759
59.35736923626831
59.35736923626831
59.01061598951507
59.01061598951507
59.01061598951507
58.841842285343134
57.91716696066781
59.26201315602668
59.9556885639994
59.60893531724616
58.630375669087826
59.18498879008489
59.70989049388567
59.70989049388567
60.50012356824749
61.246650435875274
60.70221543162719
60.29950049950049
60.69450743431325
61.61918275898857
61.818585298196936
62.65647879628462
62.464565049653885
61.504478749761766
60.46718271246573
59.734421134421126
58.859298223899984
58.47178008166486
58.83137604126083
59.17196441724744
58.98363784345092
60.147036536261375
60.32197511119995
59.096200394033204
58.11764074587487
59.64063539828129
60.86641011544803
60.50012356824749
60.50012356824749
60.88036388867473
60.88036388867473
60.28204456094364
60.090130814312914
59.911982357265366
60.107586752869764
61.31664335664335
61.86107836089143
61.47356021865632
61.05473668924455
61.05473668924454
60.147036536261375
59.35680346189956
60.5427014909548
61.077236025489334
60.34447444744474
59.538816738816735
61.121038961038956
61.48063492063492
60.91555555555556
60.293419633225454
60.11197213067704
59.5774375961425
59.18243066132974
59.548717208530284
60.26809078771694
60.86641011544803
60.68157107079591
60.315284523595366
60.11197213067703
61.27537082348749
61.82998394448454
61.82998394448454
62.24880747389631
62.0604809000998
61.10039460020768
60.888909451692825
61.07723602548934
62.24063471829979
62.66787744257222
63.45811051693404
62.85979118920295
62.64403361344537
62.64403361344537
62.45211986681464
62.033296337402874
62.88803823416158
62.888038234161584
61.36504358175517
60.30698929207813
61.51604589585172
62.44072122052704
61.2991874180865
60.88036388867473
62.113264321575166
62.66787744257222
61.8776443682104
61.24306326304106
61.05473668924454
60.50012356824749
60.50012356824749
60.88036388867473
61.06181139122315
61.06181139122315
61.25741578682754
61.630581405276175
61.630581405276175
62.24063471829979
61.86746909985116
60.888909451692825
60.47825867787758
59.94372414334305
58.883762188169776
58.68435964896141
59.21889418349595
59.91256959146867
59.525051449233544
61.10727367145577
61.66188679245282
60.75418663946965
59.17196441724743
60.16953587250617
61.07723602548934
60.89578852294091
60.090130814312914
61.2991874180865
61.85380053908355
61.47356021865631
60.851424296326215
61.4383449777697
61.4383449777697
61.4383449777697
62.060480900099805
62.248807473896306
81.81283018867924
97.92651439920556
98.31403254144068
78.95332221957608
61.442254831479666
59.9752218644467
59.37690253671561
58.832467532467525
58.33495200451721
57.95471168408997
57.439184733164794
57.279064793134815
57.09422574848269
57.78790115645541
58.27676292026377
57.91716696066781
59.05870076310835
59.9338236736295
59.41829672270432
58.643049467464316
59.20812883254368
59.9018042405164
60.6770514957564
59.930524628128616
58.435889268153495
56.60068005774023
55.41814288595915
55.41814288595915
55.758731261945755
55.918851201975734
56.230949390169776
55.56161919040479
57.330563289783676
58.513100461564754
58.841842285343134
58.09531541771535
59.23684922015589
59.40562292432783
58.880721220527036
58.68131868131867
60.148351648351635
60.67325335215242
59.37803505693413
59.18243066132974
60.12456192456192
60.29950049950049
60.29950049950049
60.49890303870886
60.85849899830482
60.29341963322546
60.91555555555556
61.48063492063492
61.2991874180865
60.28204456094364
61.2991874180865
62.04571428571428
61.66547396528704
60.648331108144184
61.66547396528704
61.85380053908355
60.75418663946965
59.932648177931185
59.559482559482554
59.38766788766788
58.81182317163625
60.60980296961605
61.88123154104462
62.06955811484113
61.85380053908355
62.45211986681464
62.07895424836601
60.68157107079591
61.10039460020768
61.66547396528704
61.48063492063492
60.27157831686134
60.27157831686134
59.39645540634019
59.20812883254368
59.40373322814807
59.91926017907325
60.49510489510488
60.29950049950049
60.47764895654803
59.9018042405164
60.296811175329154
60.851424296326215
59.96023604532488
59.56522911051212
59.56522911051212
59.23064264434671
58.13102874473282
58.92126181909463
60.72288125229301
60.72288125229301
59.932648177931185
59.35680346189955
59.18498879008489
58.630375669087826
58.630375669087826
57.972740201107534
57.79459174405999
57.60975269940787
58.61414141414141
59.346902992186
59.34690299218601
59.891337996434096
60.888909451692825
61.45398881677219
60.56280056577086
59.952747252747244
60.9698901098901
61.67623931623931
60.38102102102102
59.96219749160925
60.335363110057884
60.688450142044
60.090130814312914
61.514944993844075
62.26147186147186
61.336796536796534
60.49890303870886
61.304560747336865
61.30456074733686
59.8099399129102
58.81236845765147
59.73704378232679
60.45641736151345
60.843935503748575
62.07683593664901
61.89199689199689
60.25619022079199
58.45821042281219
58.27676292026377
57.94802109648539
57.58842513688943
58.9332713322483
59.9556885639994
60.13383702104694
59.731122088920245
59.91256959146867
60.46718271246573
60.66658525167409
60.30698929207813
59.9338236736295
60.34447444744474
61.66415670693283
61.66415670693282
61.456818326035915
61.66013071895424
62.033296337402874
61.43497700967178
61.43497700967178
61.626890756302515
60.70221543162719
60.70221543162719
61.50787314025519
62.43254846493052
61.45398881677219
61.45398881677219
61.45398881677219
61.269149772120066
60.65909645909645
61.67623931623931
62.04940493468794
61.85380053908355
61.23166461675345
61.04333804295694
60.851424296326215
61.47356021865632
61.85380053908355
61.66547396528704
61.246650435875274
62.26379329301813
63.03904054825813
62.44072122052704
62.229236072012185
61.83422913719943
61.08770226957164
60.090130814312914
60.285735209917306
60.46718271246572
60.854700854700845
62.11215768358625
63.07224398347837
62.68472584124325
61.231664616753456
62.51441909578458
63.51199055104332
62.946911185963955
61.269149772120066
61.48063492063492
61.2991874180865
59.85898514248599
58.841842285343134
58.66369382829559
58.832467532467525
58.832467532467525
61.898496240601496
64.84768622587396
64.84768622587396
62.14125347733595
61.06181139122315
60.49673202614379
59.62160911562265
58.831376041260825
57.79044036874621
57.46169854496783
56.382183720169984
57.796285011133236
58.125026834911615
57.95625313073969
58.148166877370414
59.02328978789156
59.538816738816735
59.538816738816735
60.1038961038961
60.28204456094364
59.716965195864276
58.617351296250376
57.92367588827766
57.92367588827766
58.09861446321623
58.439202839202835
58.439202839202835
58.617351296250376
58.79228987118895
59.5529736318727
59.5529736318727
59.5529736318727
59.9556885639994
60.89781982723158
60.72288125229301
58.51854688696793
58.32294249136354
59.230642644346716
59.73704378232679
59.17196441724743
59.17196441724744
59.000149745432765
58.818702242884335
59.01061598951507
59.53551769331585
59.01061598951507
58.81870224288434
60.16354843824321
61.05473668924454
61.246650435875274
61.246650435875274
61.626890756302515
61.246650435875274
61.45398881677219
62.471131673915046
62.85137199434229
62.44072122052704
61.42357836338418
60.677051495756395
60.090130814312914
59.70989049388567
59.70989049388567
59.709890493885666
60.688450142044005
61.05473668924454
60.86641011544803
60.86641011544803
60.86641011544803
60.32197511119995
60.11866271828161
61.304560747336865
62.62424300682494
63.68229729650198
62.68472584124325
61.72463954135113
60.86989764459243
62.29471182412359
63.05539558480734
62.07683593664901
60.463695183321335
59.343415463041616
58.97712891584107
59.5529736318727
59.5529736318727
59.37482517482516
59.37482517482516
59.91926017907325
60.27885613866921
60.27885613866921
61.89199689199689
62.26516251044552
62.06955811484113
62.28971890643049
63.49877551020408
63.49877551020408
62.85137199434229
63.74137199434229
64.33969132207338
63.534033613445374
62.225210084033606
62.225210084033606
62.033296337402874
61.43497700967178
62.06955811484113
62.85979118920295
62.85979118920295
62.43254846493052
62.639886845827434
63.238206173558524
62.827555399743275
63.474958915605065
63.27164652268674
62.49639926744674
61.64165737068804
61.844969763606365
62.033296337402874
61.82998394448454
62.03732232538146
63.03489378064019
63.65702970297029
64.75851485148515
64.55117647058823
63.34211986681464
62.45211986681464
63.53156195292744
64.32179502728926
64.32179502728926
63.24235294117646
62.64403361344537
62.64403361344537
62.04571428571428
61.48063492063492
61.48063492063492
63.15839633447881
64.32179502728926
62.924411849719164
62.47955086877571
63.11413197394506
63.302458547741566
62.66787744257222
62.88803823416158
63.47495891560507
63.47495891560507
62.21750208671966
61.25741578682754
60.65909645909645
61.48063492063492
62.241318681318674
61.67623931623931
61.054103393909216
60.11197213067704
59.40562292432783
58.630375669087826
59.771909471528375
60.851424296326215
60.132050717139556
59.73704378232679
60.12456192456192
60.47764895654803
60.09740863612079
60.918947097659256
62.060480900099805
62.835728155339794
61.62667155156622
62.03732232538146
61.6423153905687
61.08770226957164
60.88036388867473
60.88036388867473
60.88036388867473
60.88036388867473
62.55812530251862
63.69965910495917
63.10133977722808
62.02189769111527
62.225210084033606
62.033296337402874
61.24306326304105
61.45040164393797
62.03732232538145
61.848995751584944
61.4383449777697
61.64165737068804
62.41690462592803
63.03904054825813
63.673621653427475
63.08670097198399
62.06955811484113
62.06955811484113
62.65647879628462
62.85208319188901
63.29694417283246
63.91908009516256
63.72347569955817
63.06285714285714
63.06285714285714
63.457864077669896
63.457864077669896
62.835728155339794
62.248807473896306
61.62667155156622
61.829983944484546
61.82998394448454
62.033296337402874
62.88803823416158
63.6782713085234
63.2755563763967
63.05539558480734
64.36421911421911
64.56362165342748
63.13880747389631
62.46456504965389
62.66787744257222
62.47955086877571
61.844969763606365
62.69971166036507
64.09709483793517
63.49877551020408
63.49877551020408
64.15939406690511
65.39229449980554
64.33424021012851
64.1095400207744
64.10954002077442
64.31285241369275
63.25479812401571
63.474958915605065
63.47495891560507
62.69971166036507
62.26379329301813
62.89837439818748
63.27861471861472
62.45707625707625
63.131318681318675
63.93697638994668
63.93697638994668
62.835491241431825
63.04697638994668
62.85137199434229
62.64403361344537
63.76824413976116
65.22130536425095
65.01799297133262
64.32970081236377
63.89378244501684
63.89378244501684
63.89378244501683
63.89378244501684
63.49877551020408
63.06285714285714
63.06285714285714
63.06285714285714
62.44072122052704
63.10133977722807
63.90699748585608
63.90699748585608
63.46213650491262
63.673621653427475
63.87693404634581
62.839638009049764
63.500256565750796
64.13483767092015
63.747319528685026
63.302458547741566
63.74731952868502
64.74489098394375
63.70759494664771
63.26273396570426
62.85208319188901
62.276238475857376
62.060480900099805
63.118535189776836
64.09709483793517
63.6782713085234
63.6782713085234
63.47495891560507
62.49639926744674
61.84899575158495
62.90705004126198
63.482894757293614
63.2755563763967
63.729638009049765
64.13235294117646
62.96895424836601
61.86746909985116
61.46475416772446
61.83791978617309
61.83791978617309
62.24063471829979
62.62815286053491
62.839638009049764
63.91908009516256
64.52913340818617
63.70759494664771
62.835491241431825
62.62815286053491
62.05230814450328
61.844969763606365
62.924411849719164
63.11273842351568
61.7678922281568
60.48513774912567
60.6770514957564
60.15214979195561
59.75714285714285
60.99004329004329
62.45707625707625
63.68997668997669
63.910137481566046
64.52019079458967
63.28729036168922
62.85137199434229
62.64403361344537
62.45211986681464
62.24063471829979
62.659458247711555
63.44969132207338
62.26379329301813
62.47955086877571
63.11413197394506
64.09269162210339
64.09269162210339
65.24033830166496
65.65916183107672
65.2319191068043
64.75851485148515
64.13637892915504
63.52632561613143
62.424840467616576
64.17118691626246
64.99272537780092
64.38267206477732
63.25846153846153
62.839638009049764
62.26379329301813
61.844969763606365
62.05230814450328
62.05230814450328
60.7074619491444
60.50012356824749
61.07596828427912
61.25741578682754
61.054103393909216
62.31156022279462
63.47495891560507
63.47495891560507
63.92904054825813
64.78378244501684
65.19443321883207
64.96505177553311
64.74489098394375
64.33424021012851
63.673621653427475
63.24637892915504
63.04697638994668
62.02983353280382
62.241318681318674
62.04571428571428
61.121038961038956
60.70221543162719
62.15527665611698
63.47495891560507
63.27164652268674
63.49634671204083
63.69965910495917
63.304652170146404
62.64403361344537
63.06285714285714
63.06285714285714
62.44072122052704
62.44072122052704
62.835728155339794
62.0604809000998
61.23894243856134
62.29699672823837
63.482894757293614
62.362615037013896
61.10515820812849
60.29950049950049
60.47764895654803
60.090130814312914
60.285735209917306
61.032262077545084
61.032262077545084
60.83665768194069
60.27157831686133
60.27157831686134
61.288721174004195
62.248807473896306
62.248807473896306
61.62667155156622
62.68472584124325
63.89378244501684
63.69437990580847
63.47421911421911
63.05539558480734
62.47955086877571
61.64165737068804
62.721099456800836
63.69965910495917
63.304652170146404
62.02189769111527
61.61918275898857
61.61918275898857
62.45707625707625
64.16861471861472
64.56362165342748
63.725728155339795
63.49634671204083
63.90699748585608
63.70759494664771
63.04697638994668
63.91908009516256
64.32179502728926
63.69965910495917
63.92904054825813
64.13637892915504
64.54702970297029
63.65702970297029
64.75851485148515
65.63061855670102
65.63061855670102
65.63061855670102
65.18575757575758
64.97427242724272
64.08427242724272
64.75851485148515
65.18575757575758
64.56362165342748
63.88937922918505
63.88937922918505
64.09269162210339
63.25479812401571
63.25479812401571
63.25479812401571
63.05539558480734
62.839638009049764
63.69437990580847
64.51591836734693
64.95183673469387
65.17653692404797
64.7577133946362
63.69965910495917
63.474958915605065
63.47495891560507
63.2755563763967
63.2755563763967
64.3549984625095
64.7577133946362
63.69965910495917
63.474958915605065
63.47495891560507
62.888038234161584
62.033296337402874
63.11273842351567
63.902971497877495
63.500256565750796
62.62815286053491
62.424840467616576
62.03732232538145
62.24880747389631
62.87094339622641
63.25846153846153
63.04697638994668
63.70759494664771
64.96505177553311
64.3549984625095
63.69437990580847
63.69437990580847
64.09709483793517
63.47495891560507
63.69965910495916
64.11848263437093
63.91908009516256
63.69437990580847
64.58437990580848
65.19443321883207
64.13637892915504
63.46213650491262
64.1095400207744
64.7316759431045
64.51591836734693
65.44340425531914
66.10402281202018
65.89253766350532
65.41913340818618
65.19443321883207
65.19443321883207
64.74035158617902
65.66783747415123
65.66783747415123
64.02286250303071
62.03732232538145
61.231664616753456
60.677051495756395
60.28204456094364
61.73510578543343
62.67723704866561
62.87284144427
63.0975416336241
64.13483767092015
64.53755260304683
64.31285241369275
64.09709483793517
63.69437990580847
62.839638009049764
62.21750208671966
62.21750208671966
62.21750208671966
63.96384853536555
65.00114457266159
65.00114457266159
63.87693404634581
64.32179502728926
64.52913340818617
63.90699748585608
64.13637892915504
64.56362165342748
64.76693404634581
64.53755260304683
65.44600555360505
66.30074745036376
65.42864374514787
64.96505177553311
65.18975196488721
64.9824135839903
64.11030987877442
64.11030987877442
64.52913340818617
63.72347569955817
63.72347569955817
64.15939406690511
64.55440100171786
64.10954002077442
64.56362165342748
65.40151515151516
64.56362165342748
63.673621653427475
64.3478640776699
64.97
64.3478640776699
63.673621653427475
64.1095400207744
63.714533085961655
62.289718906430494
62.28971890643049
63.0953766150585
63.482894757293614
63.26273396570426
63.05539558480734
63.87693404634581
64.55117647058823
64.97
64.3478640776699
63.89378244501683
65.25718670033598
66.31524099001302
65.66783747415123
64.96505177553311
64.96505177553311
64.96505177553311
64.30443321883209
64.75851485148515
64.97
64.55117647058823
64.32179502728926
65.21179502728927
65.63061855670102
65.86
66.09421052631578
66.09421052631578
64.18706766917293
63.72347569955817
64.84768622587396
66.0805866587744
65.41996810207337
64.95637613245862
64.95637613245862
64.13483767092015
63.68997668997669
63.910137481566046
64.52019079458967
64.52019079458967
65.44767668256188
65.65916183107672
64.82126833298905
63.673621653427475
63.88937922918505
64.51151515151516
64.29575757575758
65.44340425531914
65.87932262266608
66.09508019842366
65.39229449980554
65.1721337082162
64.74489098394375
64.3000300030003
64.97427242724272
65.18575757575758
63.76094339622641
63.08670097198399
63.08670097198399
63.47421911421911
63.47421911421911
63.910137481566046
64.52019079458967
63.682297296501986
63.68229729650198
64.10954002077442
64.52019079458967
64.3000300030003
64.97427242724272
65.40151515151516
64.76693404634581
64.53755260304683
64.32179502728926
63.91908009516256
63.47421911421911
64.13483767092015
64.53755260304683
63.304652170146404
62.85979118920295
63.4943722943723
63.68997668997669
63.68997668997669
64.36421911421911
64.76693404634581
63.92904054825813
63.474958915605065
64.55440100171788
65.17653692404797
64.52913340818617
64.30443321883209
63.482894757293614
62.485323302034885
62.26516251044552
62.464565049653885
62.65647879628462
61.42357836338418
61.83422913719943
62.85137199434229
63.24637892915504
63.673621653427475
63.673621653427475
62.89837439818748
61.47356021865632
61.262075070141464
60.71764006589337
59.63812524109553
59.22747446728029
60.15214979195561
61.23166461675345
61.43497700967178
62.45211986681464
63.03904054825813
62.248807473896306
62.46456504965389
62.66787744257222
62.66787744257222
62.033296337402874
62.88803823416158
63.47495891560507
63.682297296501986
64.13637892915504
65.19443321883207
64.98709483793516
64.5330132052821
64.98709483793516
65.40591836734694
64.3478640776699
63.673621653427475
63.88937922918505
63.68997668997669
64.13483767092015
65.52682203064643
66.78427885953184
66.12366030283081
65.17653692404797
64.52913340818617
63.320076804412594
60.20211311496819
59.79146234115295
59.41829672270432
59.758885098690925
60.16953587250617
87.85842476139504
113.1151815181518
114.45087719298243
112.43101903695408
106.07387617981121
124.6665887304185
112.08131868131866
106.30209790209788
87.02109319252176
70.97845236877856
60.19057358089979
74.59804504406132
80.50255166158519
81.4110046121434
67.45761478163493
67.70195246179966
69.7694660734149
70.99199354594236
71.24164291480633
69.90731008122313
70.43478260869566
70.68991877687529
70.68991877687529
70.16244624940276
70.68991877687529
70.94505494505493
70.19593172784661
69.92926506117993
71.0084617265835
72.28505747126437
72.28505747126437
71.46666666666665
72.30387596899223
72.57054263565891
72.57054263565891
70.95072463768116
70.68405797101448
71.22345191040843
72.0060606060606
72.0060606060606
72.0060606060606
73.13547237076648
73.67486631016043
73.67486631016043
73.09717868338558
73.66166071298389
73.94065757818765
72.60632474460445
70.73685737776273
69.65766071235916
70.71299668073861
70.96264604960257
70.45786051255897
69.40252454417953
70.1851332398317
70.43478260869566
69.94079555966698
69.6741288930003
70.45673758865247
71.2058608058608
70.68991877687529
70.68991877687529
71.4901185770751
72.54545454545453
72.81818181818181
73.09717868338558
73.66166071298389
73.38893344025661
71.80495123780945
70.96774193548387
71.24046920821114
72.8244514106583
72.8244514106583
71.76911544227886
70.68991877687529
70.96264604960257
71.2177822177822
70.71299668073861
70.17360274134467
71.83048703352308
74.29131652661064
75.10970733120834
73.98029556650246
72.28505747126437
71.2058608058608
69.92926506117993
69.16367366333048
69.16367366333048
69.9127968805388
71.2177822177822
71.47858807858807
72.55778474399163
71.75758494379184
71.49677908298597
70.94505494505493
71.2058608058608
70.21754385964911
68.7017543859649
68.1858123569794
68.1858123569794
67.9516018306636
66.53012889366272
67.0136603028308
67.98105160717864
68.4351332398317
67.48800986104885
66.99402281202018
68.21655028454765
68.91933598316575
68.21655028454765
67.71176474750405
68.20575179653272
68.90853749515085
68.42500608598276
68.1753567171188
68.66934376614748
68.66934376614748
67.72222038736464
67.47257101850069
67.95610242766878
68.18548387096774
67.46774193548387
67.22340425531914
67.94114619080301
68.1753567171188
67.24787082914659
67.00353314898186
68.51932262266608
70.72340425531914
72.0
70.96774193548387
72.09715370018975
72.36988097291702
73.13547237076648
70.72946486137974
69.6741288930003
68.90853749515085
68.4351332398317
67.0136603028308
66.76932262266608
67.99185009519354
69.41332303219444
69.41332303219444
68.19079555966698
67.69680851063829
68.44593172784661
68.91933598316575
68.6801422541624
68.42500608598276
69.43493516399694
70.42325211020862
69.4558608058608
67.7431460292285
66.99402281202018
67.961414116368
68.66419981498612
67.73671392701391
65.87932262266608
65.17653692404797
66.8531460292285
68.71053733357633
69.41332303219444
67.961414116368
66.76464136872121
66.76464136872121
68.21655028454765
69.16367366333048
69.16367366333048
68.1753567171188
68.1753567171188
69.72467973452693
70.7129966807386
70.71299668073861
68.69026940801135
67.94114619080301
68.70673758865247
69.6741288930003
69.91846657316503
68.66934376614748
68.41969439728354
69.18528579513298
69.91846657316503
69.91846657316503
69.65766071235916
70.17360274134467
71.47858807858806
71.73939393939392
70.72946486137974
70.19007092198581
69.92926506117993
69.92926506117993
68.44593172784661
66.76932262266608
66.53012889366272
67.24787082914659
67.47257101850069
66.56411806794247
65.39229449980554
66.33941787858839
67.0136603028308
66.36625678696902
63.93697638994668
63.04697638994668
63.47421911421911
63.87693404634581
62.85979118920295
62.43254846493052
63.74137199434229
64.97427242724272
65.18575757575758
64.7316759431045
65.87932262266608
66.76932262266608
66.54916183107673
65.62167594310452
65.62167594310452
66.76932262266608
67.22340425531914
66.33340425531915
65.40591836734694
66.37330967169476
67.49752019801055
67.72222038736464
66.75482908301682
67.48800986104885
68.93991877687529
68.93991877687529
66.87104232401262
65.64851485148515
66.36625678696902
68.4351332398317
68.66934376614748
68.1858123569794
67.69182530795072
67.69182530795072
67.22823333833597
66.75482908301682
67.48800986104885
69.20072463768116
69.91846657316503
69.66881720430106
69.40801134349522
69.9127968805388
69.9127968805388
68.69026940801135
68.4351332398317
68.93991877687529
70.16244624940276
69.42926547137071
67.97735655554428
67.22823333833597
68.21655028454765
68.6801422541624
68.44094852515903
68.1858123569794
69.97432910339089
70.70750988142292
70.21352283239423
68.42500608598276
68.42500608598276
69.7016018306636
70.95072463768116
71.2058608058608
69.69007133217659
68.92447993432712
69.18528579513298
69.66881720430106
69.42447952413634
68.90853749515085
69.41332303219444
70.42325211020862
70.42325211020862
69.91846657316503
69.65766071235916
70.99199354594238
71.49677908298597
70.99199354594238
69.65766071235916
69.40252454417953
69.65217391304348
68.91899313501145
67.9516018306636
68.20673799884325
68.69026940801135
68.92447993432712
67.24787082914659
66.76433941997851
66.30074745036376
65.86482908301682
64.52913340818617
64.75851485148515
65.19443321883207
64.98709483793516
64.31285241369275
65.48467598182968
67.02771003755723
67.47257101850069
66.52544763971784
66.06185567010309
65.18975196488721
64.11030987877442
63.44969132207338
64.32179502728926
64.52913340818617
64.31764825967133
64.54702970297029
65.41913340818618
65.63061855670102
65.17653692404797
65.64012889366272
66.07604726100965
66.07604726100965
65.38775510204081
65.84183673469387
65.62167594310452
65.18575757575758
64.95637613245862
66.10402281202018
66.31978038777775
65.24033830166496
63.87693404634581
63.87693404634581
64.51151515151516
64.3000300030003
64.74489098394375
65.41913340818618
65.41913340818618
64.75851485148515
64.30443321883209
64.7316759431045
64.52019079458967
63.87278727872787
63.87278727872787
65.6920143627266
67.2669037665606
67.2669037665606
65.8749194068343
65.1721337082162
64.74489098394375
63.51199055104332
62.229236072012185
62.65647879628462
63.25479812401571
63.25479812401571
62.827555399743275
63.906997485856074
64.11030987877442
63.500256565750796
62.62815286053491
63.482894757293614
63.88560968942031
63.47495891560507
63.03904054825813
64.3478640776699
64.97
64.55117647058823
63.44969132207338
63.88560968942031
63.682297296501986
62.68472584124325
61.829983944484546
62.66787744257222
63.665448897830956
63.665448897830956
63.665448897830956
65.24033830166496
67.2669037665606
67.71176474750405
66.3483604921849
64.95637613245862
65.18575757575758
65.62167594310452
64.78378244501684
63.682297296501986
63.46213650491262
63.26273396570426
63.05539558480734
63.05539558480734
64.31285241369275
64.94743351886208
64.31285241369275
64.31285241369275
64.5330132052821
65.16759431045145
64.31285241369275
63.87693404634581
64.09709483793517
63.69437990580847
63.482894757293614
63.482894757293614
64.30443321883209
64.30443321883209
63.868514851485145
64.99272537780092
67.57754385964911
68.94094811496825
68.03249516441005
67.2669037665606
67.76089081558928
68.20575179653272
65.97587393871876
64.77910119107196
63.29694417283247
62.521696917592465
61.442254831479666
63.38800381933392
67.42538699690402
70.48421052631579
69.79591836734693
65.75853518977684
61.909478586003246
60.26450361488273
61.24306326304106
61.24306326304105
58.04450081919559
61.65504848653839
62.24196916798188
66.64958821560094
63.03904054825813
63.44969132207338
63.665448897830956
64.74489098394375
65.61699468915964
65.18975196488721
64.31764825967133
63.87278727872787
65.44767668256188
66.54916183107673
66.99402281202018
66.29123711340206
66.52544763971784
66.9890396093326
66.76433941997851
65.22130536425095
63.47495891560507
63.474958915605065
65.01799297133263
66.30074745036376
65.86482908301682
64.74061855670104
64.97
66.33340425531915
66.33340425531915
65.44340425531914
64.08
65.44340425531914
67.30079555966697
68.90853749515085
68.4351332398317
67.70195246179966
67.21842105263157
67.69182530795072
67.22823333833597
66.31978038777775
65.8463761324586
67.0431488801054
67.71739130434783
67.48800986104885
66.52061855670104
66.52061855670104
65.64851485148515
64.33969132207338
63.88560968942031
64.98709483793516
65.40591836734694
65.18575757575758
64.95637613245862
66.31978038777775
68.21655028454765
69.66845920037409
