2.08700
2.08700
2.08700
2.07722
2.07234
2.06256
2.05279
2.03812
2.02346
2.00391
1.98925
1.96970
1.95015
1.92571
1.91593
1.87195
1.86706
1.80841
1.78397
1.73998
1.71554
1.69110
1.69599
1.65689
1.64712
1.65200
1.63734
1.62757
1.62268
1.63245
1.60313
1.59335
1.58358
1.56891
1.55425
1.53959
1.52981
1.51515
1.50538
1.50538
1.49560
1.49071
1.49071
1.49071
1.52004
1.49071
1.49560
1.49560
1.51026
1.50538
1.51026
1.51515
1.51515
1.51515
1.52004
1.52493
1.54448
1.52981
1.53470
1.53959
1.53959
1.53959
1.55425
1.54448
1.54936
1.55425
1.57380
1.54936
1.55425
1.55425
1.55914
1.55914
1.56403
1.56891
1.58847
1.57869
1.57869
1.58358
1.60802
1.58358
1.58358
1.58847
1.58847
1.58847
1.61290
1.59824
1.60313
1.60802
1.60802
1.60802
1.60802
1.61779
1.61779
1.61779
1.61779
1.63734
1.61779
1.62268
1.65200
1.62268
1.61779
1.63245
1.61779
1.60802
1.62268
1.60313
1.59824
1.59824
1.62757
1.59824
1.58847
1.61290
1.58358
1.58358
1.58358
1.57869
1.57869
1.57869
1.59335
1.57869
1.57380
1.56891
1.56403
1.55425
1.54936
1.54448
1.54936
1.57869
1.54448
1.54936
1.56891
1.54936
1.55425
1.56403
1.56403
1.57380
1.57869
1.57869
1.57380
1.58358
1.55914
1.55914
1.56891
1.54936
1.54448
1.53470
1.48583
1.39296
1.23656
1.02639
0.74780
0.43500
0.10753
0.00000
0.00000
0.00000
0.00000
0.00000
0.00000
0.00000
0.00978
0.00000
0.00000
0.00000
0.00000
0.00000
0.00000
0.00000
0.00000
0.00000
0.00000
0.00000
0.00000
0.00000
0.00000
0.00000
0.00000
0.01466
0.00978
0.00000
0.00000
0.00000
0.00000
0.00000
0.00000
0.00000
0.00000
0.00000
0.00000
0.00000
0.00000
0.00000
0.00000
0.00000
0.00000
0.00000
0.00000
0.00000
0.00000
0.00000
0.00000
0.00000
0.00000
0.00000
0.00000
0.16129
0.61095
1.08504
1.47605
1.75464
1.93060
2.03812
2.12121
2.18475
2.27761
2.39003
2.54643
2.75660
3.02542
3.29912
3.37732
3.22092
3.28935
3.36755
3.29423
3.29912
3.37243
3.25024
3.42620
3.31378
3.38710
3.22092
3.39687
3.32845
3.21603
3.29912
3.39687
3.26002
3.33333
3.42620
3.25024
3.33333
3.26002
3.26002
3.41153
3.34800
3.29912
3.24047
3.33822
3.42620
3.37732
3.30401
3.22581
3.15738
3.05474
2.96188
2.88368
2.82014
2.77126
2.72727
2.69306
2.66373
2.63441
2.60020
2.57576
2.54154
2.51222
2.47312
2.42913
2.38514
2.35093
2.29717
2.25318
2.21896
2.19941
2.20430
2.21408
2.23363
2.24340
2.24829
2.24340
2.22874
2.22874
2.18964
2.17498
2.16031
2.15543
2.15543
2.15543
2.17986
2.15543
2.15054
2.15054
2.15054
2.15054
2.15054
2.14565
2.14076
2.14076
2.16031
2.12610
2.12121
2.11144
2.10655
2.09677
2.09189
2.08211
2.07722
2.06745
2.06256
2.05767
2.04790
2.04301
2.04301
2.04790
2.04790
2.06256
2.03812
2.03324
2.02346
2.01857
2.01369
2.00880
2.01369
1.99413
1.98925
1.98436
1.97947
1.97458
1.95992
1.95015
1.94037
1.93060
1.94037
1.91593
1.91105
1.90616
1.90616
1.90127
1.89638
1.89150
1.87683
1.87195
1.87195
1.87195
1.88172
1.86706
1.86706
1.86217
1.86217
1.86217
1.88172
1.85728
1.85728
1.85239
1.85239
1.84751
1.84751
1.85728
1.84262
1.84262
1.84262
1.84262
1.84262
1.85239
1.84751
1.84751
1.85239
1.85239
1.84751
1.84751
1.84262
1.84262
1.84262
1.83773
1.83284
1.82796
1.82796
1.82796
1.82796
1.82307
1.82307
1.81818
1.81818
1.82307
1.80841
1.80841
1.80352
1.79863
1.79863
1.79863
1.82307
1.79374
1.79863
1.79863
1.79863
1.79863
1.79863
1.79374
1.78397
1.79374
1.76442
1.75953
1.75464
1.74976
1.74976
1.74976
1.74976
1.74976
1.74976
1.76442
1.75464
1.74487
1.74487
1.74487
1.74487
1.74487
1.74487
1.74487
1.74487
1.73509
1.73509
1.73509
1.76442
1.73509
1.73509
1.73998
1.73509
1.73509
1.73509
1.73998
1.72532
1.72532
1.72043
1.72043
1.72532
1.71554
1.72043
1.72043
1.71554
1.71554
1.72532
1.71065
1.71065
1.71065
1.71065
1.72043
1.71554
1.71554
1.71554
1.71065
1.72532
1.71065
1.71065
1.73998
1.71554
1.71554
1.71554
1.71554
1.71554
1.71065
1.72043
1.71554
1.71554
1.71554
1.71554
1.71554
1.71554
1.73509
1.71065
1.70577
1.70088
1.69599
1.69110
1.69110
1.69599
1.70088
1.70577
1.70577
1.70577
1.70577
1.69599
1.69110
1.69110
1.68622
1.71065
1.69110
1.69599
1.72532
1.70088
1.69599
1.70088
1.69599
1.70088
1.69599
1.70088
1.72043
1.70577
1.70577
1.71065
1.70577
1.70577
1.70088
1.72532
1.69599
1.71554
1.70088
1.70088
1.70088
1.70088
1.70088
1.70088
1.70088
1.70088
1.70577
1.70088
1.70577
1.73509
1.70577
1.70577
1.70088
1.70577
1.69599
1.70577
1.72043
1.74487
1.75953
1.77419
1.78397
1.77908
1.78886
1.76442
1.76442
1.76931
1.76931
1.77908
1.79374
1.79863
1.80352
1.81818
1.82796
1.84262
1.86217
1.88661
1.92082
1.96481
2.01369
2.08211
2.14565
2.22874
2.31672
2.41447
2.50733
2.59042
2.66862
2.71750
2.76637
2.81036
2.84946
2.91300
2.92278
2.95699
2.98143
2.97654
2.96188
2.96188
2.94721
2.96188
3.00587
3.10850
3.17204
3.27957
3.22092
3.30401
3.28446
3.27468
3.32845
3.36266
3.33333
3.32845
3.32845
3.28446
3.33333
3.37243
3.31378
3.28446
3.27957
3.22581
3.41153
3.33333
3.27468
3.25513
3.43109
3.39198
3.34311
3.27468
3.24047
3.42131
3.36755
3.29912
3.26491
3.29423
3.41642
3.36755
3.33333
3.29423
3.25024
3.34800
3.39687
3.36755
3.29423
3.38221
3.36755
3.29912
3.22092
3.38710
3.29912
3.22092
3.37243
3.31378
3.25513
3.41642
3.37732
3.31867
3.25513
3.35288
3.40176
3.33822
3.25513
3.22581
3.37732
3.34800
3.30401
3.26491
3.22581
3.40665
3.35288
3.29423
3.24536
3.42620
3.39198
3.34311
3.28446
3.25024
3.42131
3.38710
3.32845
3.28446
3.22581
3.37732
3.34311
3.28935
3.25024
3.39687
3.35777
3.27957
3.42131
3.31378
3.42620
3.25024
3.31378
3.35288
3.30890
3.28935
3.22092
3.33333
3.24047
3.29912
3.26491
3.26002
3.23069
3.20137
3.16716
3.14272
3.10850
3.08407
3.05474
3.03519
3.03030
2.99120
2.96676
2.94721
2.92766
2.89834
2.87879
2.87879
2.83480
2.81036
2.79081
2.77126
2.75171
2.75660
2.70772
2.69306
2.67351
2.65396
2.63441
2.62463
2.60508
2.58553
2.57576
2.54643
2.53177
2.52199
2.50244
2.48778
2.48778
2.45846
2.44379
2.45846
2.41447
2.39980
2.39003
2.37537
2.36070
2.35093
2.33627
2.34115
2.31672
2.30205
2.29228
2.28250
2.27273
2.26295
2.24829
2.23851
2.22874
2.22385
2.23851
2.19941
2.18964
2.17986
2.19453
2.16031
2.15543
2.14565
2.15543
2.12610
2.12121
2.11632
2.11144
2.10655
2.09677
2.09189
2.09677
2.07722
2.07234
2.06745
2.06256
2.05767
2.04790
2.04790
2.06745
2.03812
2.03324
2.02835
2.02346
2.02835
2.01369
2.00880
2.00880
2.01857
1.99902
1.99413
1.98925
1.98436
1.99413
1.97458
1.96970
1.96970
1.95992
1.96481
1.95015
1.94037
1.93548
1.93060
1.92571
1.92082
1.91593
1.91105
1.91105
1.90127
1.89638
1.88661
1.88172
1.88172
1.90127
1.86706
1.85728
1.86706
1.84751
1.84262
1.84262
1.84262
1.83773
1.83773
1.84262
1.87683
1.85239
1.86217
1.86706
1.87195
1.88661
1.86217
1.85728
1.84751
1.84262
1.83773
1.84262
1.85728
1.87195
1.89150
1.92082
1.95015
1.95503
1.97458
1.99413
2.01857
2.04790
2.08211
2.11144
2.13587
2.18475
2.22874
2.27273
2.31672
2.35093
2.37537
2.43402
2.43891
2.47312
2.50733
2.52199
2.52688
2.52688
2.54643
2.51222
2.50244
2.49267
2.48289
2.47312
2.46334
2.46334
2.44868
2.43402
2.41447
2.39003
2.36559
2.35093
2.33627
2.35582
2.31672
2.30694
2.30694
2.27273
2.23851
2.20430
2.17009
2.17498
2.12610
2.12610
2.13587
2.15543
2.17498
2.18475
2.18475
2.21408
2.17498
2.16520
2.16520
2.13099
2.11144
2.09677
2.07722
2.05767
2.04301
2.00880
1.97947
1.94037
1.90127
1.85239
1.81818
1.74487
1.69599
1.65689
1.61290
1.57869
1.53470
1.50049
1.48583
1.41740
1.39296
1.38319
1.37830
1.38319
1.38807
1.38807
1.38807
1.35386
1.31476
1.27077
1.22678
1.15836
1.09971
1.04594
1.01173
0.97752
0.95797
0.93842
0.91887
0.87977
0.83089
0.76735
0.68426
0.58651
0.45455
0.32747
0.20039
0.11730
0.08798
0.12708
0.23949
0.38612
0.54252
0.68915
0.73314
0.75758
0.74780
0.73314
0.75758
0.80645
0.89932
0.99707
1.01173
0.95308
0.77713
0.47898
0.08798
0.00000
0.00000
0.00000
0.00000
0.00000
0.00000
0.00000
0.00000
0.01466
0.00000
0.00000
0.00000
0.00000
0.00000
0.00978
0.00000
0.00000
0.00000
0.00000
0.00978
0.00000
0.00000
0.00000
0.00000
0.00000
0.00000
0.00000
0.00000
0.00000
0.00000
0.00000
0.01466
0.00000
0.00000
0.00000
0.00000
0.00000
0.06843
0.39101
0.76246
1.09971
1.37341
1.56403
1.70577
1.81329
1.87195
1.92082
1.95992
2.01857
2.01369
2.03812
2.06745
2.09677
2.13099
2.17498
2.21896
2.26784
2.32160
2.37048
2.42913
2.48289
2.53177
2.58065
2.62952
2.66862
2.71750
2.75171
2.81036
2.84457
2.89345
2.94233
2.99609
3.04497
3.06940
3.09384
3.11828
3.11339
3.11828
3.14760
3.12317
3.12805
3.12805
3.12317
3.10362
3.08407
3.05474
3.02542
2.99120
2.96676
2.93255
2.90811
2.88368
2.86901
2.85435
2.85435
2.84946
2.84946
2.85435
2.83969
2.83480
2.82502
2.82014
2.81036
2.80059
2.79570
2.80059
2.78104
2.77615
2.77615
2.76637
2.78104
2.75660
2.75660
2.75171
2.74682
2.75660
2.74682
2.74682
2.74682
2.76149
2.74194
2.75660
2.73216
2.74682
2.71750
2.72727
2.70283
2.69306
2.68328
2.67840
2.69306
2.65885
2.68328
2.65396
2.64418
2.63930
2.62952
2.63930
2.61486
2.60020
2.59042
2.59531
2.57576
2.56598
2.56109
2.56598
2.54643
2.53177
2.52199
2.50733
2.49756
2.48289
2.46823
2.45357
2.43891
2.44868
2.43402
2.41935
2.38025
2.37537
2.36070
2.34604
2.36070
2.32649
2.31183
2.31183
2.29228
2.27761
2.29717
2.25318
2.24340
2.23363
2.23851
2.20430
2.19453
2.17986
2.17009
2.15543
2.15054
2.14076
2.13587
2.12610
2.11632
2.11144
2.12121
2.09677
2.09189
2.08700
2.08211
2.06745
2.06256
2.05767
2.07722
2.03812
2.03324
2.02346
2.01857
2.03324
1.99902
1.99413
1.98925
1.98436
1.99413
1.96970
1.95992
1.95503
1.94526
1.94037
1.93548
1.93060
1.95992
1.92571
1.92082
1.92082
1.92082
1.93548
1.91105
1.90616
1.90127
1.90127
1.89638
1.89638
1.89150
1.89150
1.90616
1.88172
1.87683
1.86706
1.87195
1.86217
1.85728
1.85728
1.86217
1.84262
1.84262
1.84262
1.83773
1.85239
1.83284
1.83284
1.83284
1.84751
1.81818
1.81329
1.81329
1.81818
1.79863
1.79863
1.79374
1.81329
1.78886
1.78397
1.78397
1.77908
1.77419
1.77419
1.78886
1.76931
1.76931
1.76931
1.76442
1.76931
1.76931
1.79863
1.76442
1.76442
1.76442
1.75953
1.75953
1.75953
1.77908
1.76442
1.75953
1.75953
1.76442
1.75464
1.75464
1.75464
1.74976
1.76931
1.74976
1.74976
1.77908
1.74976
1.74976
1.74976
1.75464
1.75464
1.75953
1.75953
1.75953
1.75953
1.75953
1.75464
1.75464
1.76442
1.75464
1.75464
1.76442
1.75464
1.75953
1.76931
1.75953
1.75953
1.75953
1.76442
1.78886
1.76442
1.78886
1.76931
1.76442
1.76442
1.76442
1.76442
1.76442
1.76442
1.75953
1.76442
1.75464
1.75464
1.75464
1.74976
1.75464
1.77908
1.75953
1.75464
1.75464
1.75464
1.75464
1.75953
1.75464
1.74976
1.74976
1.74976
1.74976
1.74487
1.75464
1.74487
1.74487
1.74487
1.74487
1.74976
1.74487
1.74487
1.74487
1.74487
1.75464
1.73998
1.73998
1.73998
1.76442
1.73998
1.73998
1.73998
1.74487
1.73998
1.73998
1.76442
1.73998
1.73509
1.74487
1.73998
1.73998
1.73998
1.74976
1.73998
1.74487
1.76931
1.74487
1.74487
1.74487
1.76931
1.74487
1.74487
1.74487
1.74976
1.73998
1.73998
1.75464
1.74487
1.74487
1.73998
1.75953
1.73998
1.73998
1.73998
1.74487
1.73509
1.73998
1.73998
1.73509
1.73998
1.73998
1.73998
1.73509
1.75464
1.73509
1.73509
1.73509
1.73509
1.73509
1.73509
1.73509
1.73021
1.73021
1.73021
1.73509
1.73021
1.72532
1.73021
1.72532
1.72532
1.72532
1.72532
1.72532
1.73509
1.72532
1.72532
1.72532
1.72532
1.72532
1.75953
1.73509
1.73509
1.73998
1.76442
1.73998
1.73998
1.73998
1.75953
1.73998
1.73509
1.74976
1.73509
1.73021
1.73509
1.73021
1.73021
1.73509
1.73021
1.73021
1.74487
1.73021
1.73021
1.73021
1.72532
1.72532
1.73998
1.72532
1.72532
1.75464
1.72532
1.72043
1.72043
1.72043
1.71554
1.71554
1.72043
1.71065
1.71065
1.71065
1.71065
1.71065
1.71554
1.71065
1.71065
1.71554
1.71065
1.71065
1.71065
1.72043
1.71554
1.71065
1.71065
1.71065
1.73021
1.71065
1.71065
1.71065
1.71554
1.70577
1.71065
1.72043
1.70577
1.71065
1.71065
1.71065
1.71065
1.70577
1.71065
1.71065
1.70577
1.71554
1.70577
1.70577
1.72043
1.70577
1.70577
1.70577
1.70577
1.70577
1.70577
1.71065
1.71065
1.71065
1.73509
1.71554
1.71065
1.71065
1.71065
1.71065
1.73998
1.71065
1.71065
1.71554
1.70577
1.70577
1.71065
1.70577
1.70577
1.71065
1.70577
1.70577
1.70577
1.70577
1.70577
1.71065
1.70088
1.71554
1.70088
1.70088
1.70088
1.70088
1.69599
1.69599
1.70088
1.69599
1.69599
1.70577
1.69599
1.69599
1.70088
1.70088
1.70088
1.70088
1.71554
1.70088
1.70088
1.73021
1.70088
1.70088
1.72043
1.69599
1.69599
1.69599
1.69110
1.69110
1.71065
1.69110
1.69110
1.69599
1.69599
1.69599
1.69599
1.71065
1.70088
1.70088
1.70577
1.70577
1.73021
1.70577
1.70577
1.70577
1.71065
1.70577
1.71065
1.71065
1.71065
1.71554
1.72043
1.71554
1.72043
1.71554
1.71554
1.71554
1.72043
1.72043
1.72532
1.72532
1.73021
1.72532
1.73998
1.72532
1.74976
1.72532
1.73021
1.73021
1.73021
1.73021
1.73021
1.73021
1.72532
1.72532
1.73998
1.72532
1.73998
1.72532
1.73021
1.72532
1.72043
1.72043
1.72043
1.71554
1.72532
1.72043
1.71554
1.72043
1.72043
1.72043
1.74976
1.72532
1.72532
1.72532
1.73021
1.73021
1.75464
1.74487
1.73509
1.75464
1.73509
1.73509
1.73021
1.73021
1.73021
1.73021
1.73509
1.73021
1.73509
1.73021
1.73021
1.72532
1.72532
1.72532
1.72043
1.72532
1.72532
1.72532
1.73998
1.72043
1.71554
1.72043
1.72532
1.74487
1.73509
1.73998
1.74487
1.74487
1.76442
1.73998
1.75464
1.73998
1.75464
1.74487
1.74976
1.74487
1.74487
1.74487
1.73998
1.73998
1.73509
1.73021
1.72532
1.72532
1.72532
1.72043
1.72532
1.73021
1.72532
1.73509
1.73998
1.74487
1.74976
1.74976
1.75953
1.74976
1.77419
1.74976
1.75953
1.74487
1.74976
1.74487
1.74976
1.75464
1.75464
1.75464
1.75464
1.74976
1.77419
1.73998
1.76442
1.73998
1.73509
1.73509
1.75953
1.74487
1.74487
1.75464
1.78397
1.76442
1.76442
1.76442
1.75953
1.76442
1.75464
1.78886
1.75464
1.76442
1.75953
1.76442
1.75953
1.76442
1.75953
1.75953
1.75464
1.74976
1.74487
1.74487
1.73509
1.73509
1.73998
1.74487
1.76442
1.75464
1.75953
1.79374
1.76442
1.78397
1.76442
1.76931
1.76442
1.78886
1.75953
1.75953
1.75953
1.76931
1.75464
1.76931
1.74976
1.74976
1.75464
1.74487
1.74487
1.73998
1.73998
1.73509
1.73509
1.73021
1.73021
1.73021
1.73021
1.72532
1.72532
1.75464
1.72043
1.72043
1.72043
1.72043
1.72532
1.72532
1.73998
1.72043
1.71065
1.70577
1.73509
1.71065
1.70577
1.71065
1.73509
1.70577
1.70577
1.70577
1.73021
1.71065
1.71554
1.72043
1.72043
1.71554
1.71554
1.73021
1.71554
1.71554
1.74487
1.72043
1.71554
1.71065
1.71554
1.71065
1.71065
1.71554
1.71554
1.72043
1.72043
1.72532
1.72532
1.73021
1.73509
1.73998
1.73998
1.74976
1.74976
1.75953
1.75464
1.77419
1.75953
1.79374
1.75464
1.77908
1.75464
1.77908
1.74487
1.73998
1.73998
1.73509
1.73021
1.74976
1.73509
1.73021
1.74976
1.73021
1.73021
1.75953
1.72532
1.72532
1.75464
1.72043
1.71554
1.71065
1.70577
1.69599
1.69110
1.68622
1.67644
1.68133
1.68622
1.69110
1.69599
1.69599
1.70088
1.70088
1.70088
1.70088
1.72532
1.69599
1.69599
1.70088
1.73509
1.71065
1.71554
1.74487
1.71065
1.70577
1.70088
1.70577
1.69110
1.68622
1.68622
1.68133
1.67644
1.67644
1.67644
1.69110
1.67155
1.67155
1.67155
1.69110
1.67644
1.67644
1.67155
1.69110
1.67155
1.66667
1.66667
1.66667
1.67155
1.66667
1.66667
1.66667
1.66667
1.67155
1.66667
1.67155
1.67155
1.67644
1.68133
1.68622
1.69599
1.70577
1.72043
1.73998
1.73998
1.74487
1.74487
1.75464
1.75953
1.75464
1.75953
1.75464
1.76442
1.74976
1.74487
1.73998
1.73021
1.72532
1.71065
1.70577
1.70088
1.69599
1.69110
1.69110
1.69110
1.68622
1.69110
1.71065
1.69599
1.69599
1.69110
1.71554
1.68133
1.67644
1.69110
1.66667
1.67155
1.67155
1.67644
1.68133
1.68133
1.68622
1.69599
1.69110
1.68133
1.68133
1.68622
1.68133
1.68622
1.68622
1.68133
1.67155
1.69110
1.64712
1.63245
1.61290
1.60313
1.58847
1.58358
1.57869
1.57869
1.58358
1.58847
1.58847
1.59335
1.60313
1.61290
1.65200
1.63245
1.64712
1.68133
1.66178
1.67155
1.68133
1.67155
1.67644
1.68133
1.68622
1.71554
1.70577
1.71554
1.72532
1.73509
1.74487
1.76442
1.75464
1.74976
1.74976
1.73998
1.74487
1.71554
1.70577
1.69599
1.70577
1.67155
1.66667
1.65689
1.66178
1.64712
1.64712
1.65689
1.64712
1.65200
1.69110
1.67155
1.67644
1.68622
1.70088
1.71065
1.72532
1.73509
1.73998
1.74976
1.75464
1.75464
1.75464
1.75953
1.74976
1.76442
1.73998
1.73509
1.73021
1.72532
1.72043
1.72043
1.72043
1.72043
1.72043
1.72043
1.72043
1.73998
1.72043
1.71554
1.74487
1.71554
1.71554
1.71554
1.71554
1.73509
1.71554
1.71554
1.72043
1.72043
1.73021
1.72532
1.72532
1.72043
1.72532
1.72043
1.72043
1.72043
1.72043
1.72043
1.72043
1.71554
1.72043
1.71065
1.72043
1.70577
1.70577
1.70577
1.70577
1.71554
1.71065
1.70577
1.70577
1.70577
1.70577
1.71065
1.70577
1.70577
1.70577
1.71065
1.70577
1.70088
1.70577
1.70088
1.70088
1.70088
1.70577
1.70088
1.70088
1.70577
1.70088
1.70088
1.70577
1.70088
1.72043
1.70088
1.70088
1.70088
1.71065
1.69599
1.70088
1.70088
1.69599
1.69599
1.69599
1.69599
1.69599
1.70088
1.69599
1.69599
1.69599
1.69599
1.69599
1.71554
1.69599
1.69599
1.72532
1.69599
1.69599
1.69599
1.69599
1.69599
1.69599
1.69599
1.69599
1.70088
1.69599
1.70088
1.70088
1.69599
1.70088
1.70088
1.70088
1.70088
1.71065
1.69599
1.69599
1.69599
1.69599
1.70088
1.70088
1.70577
1.73509
1.70577
1.70577
1.70577
1.70577
1.70577
1.70577
1.70577
1.70577
1.70577
1.70088
1.73509
1.70577
1.71065
1.70577
1.71065
1.70577
1.71065
1.70577
1.70577
1.70577
1.70577
1.73021
1.70577
1.70577
1.70577
1.70577
1.70577
1.70577
1.72532
1.70088
1.70577
1.72532
1.70088
1.70088
1.70577
1.70088
1.70088
1.70577
1.70577
1.70577
1.70577
1.70088
1.70577
1.70088
1.70577
1.69599
1.69599
1.70088
1.69599
1.70088
1.69599
1.69110
1.69599
1.69110
1.68622
1.68622
1.68133
1.71065
1.68133
1.67644
1.68622
1.68133
1.67644
1.69599
1.68133
1.68133
1.68133
1.70577
1.68133
1.68133
1.69110
1.68133
1.68133
1.70577
1.68622
1.68622
1.68622
1.68622
1.70577
1.68622
1.68622
1.69110
1.68622
1.68622
1.68622
1.68622
1.68622
1.68133
1.70577
1.68133
1.68133
1.68133
1.68622
1.68133
1.67644
1.68133
1.67644
1.67644
1.69110
1.67155
1.67155
1.67155
1.67155
1.67644
1.67644
1.67644
1.68133
1.67644
1.71065
1.68133
1.67644
1.69599
1.67155
1.67644
1.68133
1.68622
1.68133
1.68133
1.68133
1.67644
1.67644
1.70088
1.67644
1.67644
1.67644
1.68133
1.68133
1.68133
1.68622
1.68133
1.68133
1.68133
1.67644
1.71065
1.67644
1.67644
1.68133
1.67644
1.68133
1.67644
1.70577
1.68133
1.68133
1.69110
1.68133
1.68133
1.68133
1.68622
1.70088
1.68622
1.68622
1.70088
1.68622
1.68622
1.71065
1.67644
1.67644
1.68133
1.67644
1.70088
1.67644
1.67644
1.69599
1.68133
1.68133
1.68133
1.68133
1.68133
1.68133
1.67644
1.71065
1.68133
1.68133
1.70088
1.68133
1.68133
1.68133
1.67644
1.67644
1.68133
1.68133
1.68622
1.68133
1.68133
1.68133
1.68133
1.69599
1.68133
1.68133
1.68622
1.68133
1.68622
1.68133
1.68133
1.68133
1.68133
1.68133
1.68622
1.68133
1.71554
1.68622
1.68133
1.68622
1.68133
1.69110
1.68133
1.68133
1.68622
1.68622
1.68622
1.68622
1.69110
1.68622
1.68622
1.68622
1.71554
1.68622
1.70088
1.68622
1.68622
1.68622
1.68622
1.71554
1.68622
1.68622
1.68622
1.68133
1.70577
1.68622
1.69599
1.68622
1.71554
1.68622
1.68622
1.68622
1.68622
1.70577
1.68622
1.68622
1.69599
1.68622
1.68622
1.68622
1.68622
1.71554
1.68622
1.68622
1.70577
1.68622
1.68622
1.68622
1.68622
1.68622
1.68622
1.68622
1.69110
1.68622
1.69110
1.69110
1.69110
1.68622
1.68622
1.68622
1.68622
1.68622
1.68622
1.68622
1.68622
1.69110
1.68622
1.68622
1.69110
1.69110
1.69599
1.69110
1.69599
1.69110
1.69110
1.71554
1.69110
1.69599
1.69110
1.69599
1.69110
1.69110
1.69110
1.69110
1.72043
1.69599
1.69599
1.69599
1.69599
1.69599
1.69110
1.69110
1.69110
1.69110
1.69110
1.68622
1.69110
1.70088
1.68622
1.68622
1.69110
1.69110
1.69110
1.69110
1.71554
1.69110
1.69110
1.69599
1.68622
1.69110
1.70088
1.68622
1.68622
1.69110
1.68622
1.69110
1.69110
1.70577
1.69110
1.68622
1.68622
1.68622
1.68622
1.69110
1.68622
1.68622
1.69110
1.68622
1.69599
1.68622
1.68622
1.68622
1.68133
1.68622
1.68622
1.68622
1.68622
1.68622
1.69110
1.68622
1.69110
1.68622
1.68622
1.68622
1.68622
1.69110
1.68622
1.68133
1.68622
1.68133
1.68622
1.68622
1.68622
1.69599
1.69110
1.71065
1.68622
1.69110
1.69599
1.69110
1.72043
1.69110
1.68622
1.69110
1.68622
1.71554
1.69110
1.69110
1.71065
1.69110
1.69110
1.69110
1.69110
1.69599
1.69110
1.68622
1.69110
1.68622
1.69110
1.68622
1.69110
1.68622
1.68622
1.68133
1.68133
1.68133
1.68622
1.68133
1.68133
1.68133
1.68133
1.68622
1.68133
1.68622
1.68133
1.68133
1.68133
1.68133
1.68133
1.68133
1.68133
1.68133
1.68133
1.68133
1.68133
1.68622
1.68133
1.68133
1.68133
1.68133
1.68622
1.67644
1.69110
1.67644
1.67644
1.68622
1.68133
1.68133
1.68133
1.67644
1.70088
1.67644
1.67644
1.67644
1.67644
1.67155
1.67155
1.67644
1.67644
1.67644
1.67644
1.67644
1.67644
1.67644
1.68133
1.67644
1.68133
1.67644
1.68133
1.68133
1.71065
1.68133
1.67644
1.68133
1.68133
1.70577
1.68133
1.67644
1.70088
1.67644
1.67644
1.67155
1.67644
1.70577
1.67155
1.67155
1.67155
1.67155
1.69599
1.67155
1.66667
1.67155
1.66667
1.66667
1.69599
1.66667
1.66667
1.66667
1.67155
1.67155
1.67155
1.67155
1.67155
1.67155
1.67644
1.67155
1.68622
1.67644
1.67644
1.70577
1.67644
1.67644
1.67155
1.67644
1.67644
1.67644
1.67644
1.67644
1.68133
1.67644
1.70088
1.67644
1.67155
1.67155
1.67155
1.67644
1.67155
1.67155
1.67155
1.67155
1.67155
1.67155
1.67155
1.67155
1.67644
1.67155
1.68133
1.67155
1.67644
1.68133
1.67644
1.67644
1.67644
1.67644
1.67644
1.68133
1.67644
1.68622
1.67644
1.67644
1.68133
1.67644
1.68133
1.67644
1.67644
1.67644
1.67155
1.67155
1.67155
1.67155
1.67155
1.67155
1.67155
1.67155
1.67155
1.69599
1.67155
1.67155
1.70088
1.67644
1.67155
1.67644
1.67644
1.67644
1.67644
1.67644
1.67644
1.70088
1.67644
1.67644
1.67644
1.67155
1.67644
1.67155
1.67644
1.67155
1.67644
1.67155
1.70088
1.67155
1.68622
1.66667
1.66667
1.66667
1.66667
1.66667
1.67155
1.66667
1.66667
1.66667
1.66667
1.66667
1.66667
1.67155
1.67155
1.67155
1.67644
1.67155
1.67644
1.67155
1.68622
1.67644
1.68622
1.67644
1.67644
1.67644
1.67644
1.67644
1.68622
1.67644
1.68133
1.67644
1.67644
1.67644
1.67644
1.69110
1.67155
1.67644
1.66667
1.67155
1.68133
1.67155
1.67155
1.67644
1.67644
1.67155
1.67155
1.67155
1.67155
1.67155
1.67155
1.67155
1.67155
1.67644
1.67644
1.67644
1.69110
1.67644
1.67644
1.67644
1.67644
1.67644
1.69599
1.67155
1.67155
1.70088
1.67155
1.67155
1.67155
1.66667
1.70088
1.67155
1.67155
1.67644
1.67155
1.67644
1.67155
1.68622
1.67644
1.67644
1.67644
1.67644
1.67644
1.68133
1.67644
1.70577
1.68133
1.68133
1.68622
1.68133
1.68133
1.70088
1.68133
1.68622
1.68622
1.69110
1.68622
1.68622
1.68133
1.68133
1.68133
1.68133
1.67644
1.67644
1.67644
1.67644
1.67644
1.67644
1.67644
1.67644
1.67644
1.67644
1.67644
1.69599
1.67155
1.67155
1.68133
1.67644
1.67644
1.68133
1.67644
1.68133
1.67155
1.68133
1.67155
1.67155
1.69599
1.67155
1.67155
1.67155
1.67155
1.67155
1.67155
1.67644
1.67155
1.67644
1.67155
1.67155
1.67155
1.67155
1.67155
1.66667
1.67155
1.66667
1.66667
1.66667
1.66667
1.66667
1.66667
1.68133
1.66667
1.69110
1.66667
1.66667
1.67155
1.67155
1.67155
1.67155
1.66667
1.66667
1.66667
1.66667
1.67155
1.66667
1.67644
1.67155
1.67155
1.67644
1.67155
1.70088
1.66667
1.67155
1.67155
1.66667
1.67155
1.66667
1.68133
1.66667
1.66178
1.66667
1.66178
1.66667
1.66178
1.66178
1.66667
1.66667
1.67644
1.66667
1.66667
1.67644
1.67155
1.69599
1.67155
1.67155
1.67644
1.67155
1.67155
1.67155
1.67155
1.69599
1.67155
1.69599
1.67155
1.67155
1.68622
1.66667
1.66667
1.69110
1.66667
1.66667
1.68622
1.66667
1.69599
1.66667
1.66667
1.69599
1.66667
1.67155
1.67155
1.67155
1.67155
1.67155
1.67644
1.68133
1.67155
1.67644
1.67155
1.67155
1.67644
1.67644
1.69599
1.67644
1.68133
1.67644
1.67644
1.67644
1.67644
1.70577
1.67155
1.68133
1.67155
1.67155
1.67155
1.68622
1.66667
1.66667
1.67155
1.66667
1.70088
1.66667
1.67155
1.67644
1.67155
1.67644
1.66667
1.67155
1.67644
1.67155
1.67155
1.67644
1.67155
1.67155
1.67155
1.67155
1.67155
1.67155
1.67644
1.67155
1.67155
1.67155
1.67155
1.67155
1.66667
1.66667
1.66667
1.66667
1.67155
1.66667
1.67644
1.66667
1.67644
1.66667
1.66178
1.66667
1.66178
1.66178
1.66178
1.66667
1.67155
1.66667
1.67644
1.66667
1.67155
1.67155
1.67155
1.70088
1.67155
1.69599
1.67155
1.70088
1.67155
1.67155
1.67155
1.67155
1.67155
1.69110
1.67644
1.67644
1.68133
1.67644
1.67644
1.67155
1.67155
1.67155
1.67155
1.67155
1.69599
1.67155
1.67155
1.67155
1.67155
1.67155
1.67155
1.67155
1.67155
1.67644
1.67155
1.70088
1.67644
1.67644
1.67644
1.67644
1.67644
1.67155
1.67644
1.70577
1.67644
1.67155
1.67644
1.67155
1.70088
1.67155
1.67155
1.67155
1.67155
1.69599
1.66667
1.69110
1.67155
1.67155
1.67155
1.67155
1.67155
1.67155
1.66667
1.66667
1.66667
1.66667
1.67155
1.66667
1.68133
1.66667
1.66667
1.67155
1.66667
1.67155
1.66667
1.68133
1.66178
1.66178
1.66178
1.66178
1.67155
1.66178
1.69110
1.66178
1.67155
1.66667
1.66667
1.67155
1.66667
1.67155
1.66667
1.68133
1.66667
1.67155
1.66667
1.66667
1.67644
1.67155
1.68622
1.67155
1.66667
1.67155
1.66667
1.66667
1.66667
1.66667
1.66178
1.66667
1.66178
1.66178
1.66178
1.65689
1.66178
1.66178
1.66667
1.65689
1.65689
1.66178
1.65689
1.69110
1.66178
1.66178
1.66178
1.65689
1.66178
1.65689
1.66667
1.66178
1.65689
1.66178
1.66178
1.67155
1.66178
1.66178
1.66667
1.66178
1.66178
1.66667
1.66178
1.66178
1.66667
1.66667
1.66178
1.66667
1.66667
1.68622
1.66667
1.66178
1.66178
1.66178
1.66178
1.65689
1.65689
1.66178
1.65689
1.66178
1.65689
1.66178
1.65689
1.66178
1.66178
1.66667
1.66178
1.66178
1.66667
1.66178
1.67155
1.66178
1.66178
1.66667
1.66667
1.67155
1.66667
1.66667
1.67155
1.66667
1.66667
1.66667
1.66667
1.66667
1.67155
1.66667
1.67155
1.66667
1.66178
1.69110
1.66178
1.66178
1.66178
1.66178
1.66178
1.66178
1.66178
1.66667
1.66178
1.68133
1.66178
1.68622
1.66667
1.66178
1.66178
1.66667
1.66178
1.66178
1.66178
1.66667
1.66667
1.67644
1.66667
1.68622
1.66667
1.66667
1.66178
1.66178
1.66667
1.66178
1.67155
1.66178
1.66667
1.66178
1.66178
1.66667
1.66178
1.66178
1.65689
1.66178
1.66178
1.65689
1.66178
1.65689
1.65689
1.65689
1.66667
1.65689
1.66667
1.65689
1.65689
1.66178
1.66178
1.66667
1.66178
1.66178
1.66667
1.69110
1.66667
1.66667
1.67155
1.66667
1.66667
1.66667
1.68622
1.66667
1.66667
1.66667
1.67644
1.66667
1.66667
1.66667
1.66178
1.66178
1.66178
1.66178
1.65689
1.66178
1.65689
1.66178
1.66178
1.66178
1.66178
1.66178
1.66178
1.69110
1.66178
1.66178
1.66667
1.66178
1.66178
1.66667
1.66178
1.66178
1.66178
1.68622
1.66178
1.66178
1.66178
1.66178
1.66178
1.67644
1.66178
1.66178
1.66178
1.69599
1.66667
1.66178
1.66178
1.66178
1.68622
1.66178
1.67644
1.66178
1.66667
1.66178
1.66178
1.66178
1.67155
1.66178
1.69110
1.66178
1.66178
1.67155
1.66178
1.67644
1.66667
1.66667
1.66667
1.66667
1.67644
1.67155
1.66667
1.66667
1.70088
1.67155
1.67155
1.66667
1.67155
1.68622
1.67155
1.67155
1.67155
1.67155
1.67155
1.67155
1.67644
1.67155
1.66667
1.68622
1.66667
1.69599
1.66667
1.66667
1.66667
1.67155
1.66667
1.66667
1.66667
1.66667
1.66667
1.66667
1.66667
1.69599
1.66667
1.66667
1.66667
1.66667
1.67155
1.66667
1.66667
1.66667
1.66667
1.66178
1.66667
1.66667
1.66178
1.66667
1.65689
1.69110
1.66178
1.66178
1.66178
1.66178
1.66178
1.66178
1.69110
1.66178
1.66178
1.66178
1.65689
1.66178
1.65689
1.66178
1.65689
1.65689
1.65689
1.65200
1.65200
1.65689
1.66178
1.65689
1.65689
1.65200
1.65689
1.67644
1.65689
1.65689
1.65689
1.65689
1.66178
1.65689
1.66178
1.66178
1.66178
1.66178
1.66178
1.67155
1.66178
1.66667
1.66178
1.66667
1.66667
1.67644
1.66178
1.69599
1.66178
1.66178
1.66178
1.65689
1.65689
1.65689
1.66667
1.65689
1.66667
1.65689
1.68622
1.65689
1.68133
1.65689
1.65689
1.66178
1.65689
1.66178
1.66178
1.66178
1.66178
1.68133
1.66178
1.68622
1.66178
1.68133
1.65689
1.69110
1.65689
1.66667
1.66178
1.66178
1.66667
1.66178
1.67644
1.66178
1.66178
1.66178
1.66178
1.66178
1.65689
1.67644
1.65689
1.65689
1.66178
1.65689
1.65689
1.65689
1.65689
1.66178
1.65689
1.66178
1.66178
1.66667
1.66178
1.67155
1.66667
1.67644
1.66667
1.66667
1.66667
1.66667
1.66667
1.66667
1.66667
1.66178
1.66178
1.69599
1.66667
1.66667
1.66667
1.66178
1.66667
1.66178
1.66667
1.66178
1.67155
1.66178
1.66178
1.66178
1.67155
1.66178
1.69110
1.66667
1.66178
1.66667
1.66667
1.66667
1.66667
1.67155
1.66667
1.66667
1.66667
1.66667
1.68622
1.66667
1.68133
1.66667
1.66667
1.66178
1.66178
1.66667
1.66178
1.66667
1.66178
1.66667
1.65689
1.67155
1.65689
1.65689
1.66178
1.65689
1.67155
1.65689
1.65689
1.65689
1.65689
1.66178
1.65689
1.66178
1.65689
1.68133
1.65689
1.66667
1.66178
1.66667
1.66178
1.66667
1.66667
1.66667
1.66667
1.66667
1.66667
1.66178
1.66178
1.66667
1.66667
1.66667
1.66667
1.67644
1.66667
1.67155
1.66667
1.66178
1.66178
1.66178
1.66178
1.66178
1.66178
1.68133
1.66178
1.66178
1.66178
1.66178
1.66667
1.66178
1.68622
1.66178
1.66178
1.67644
1.66667
1.67644
1.66667
1.66667
1.67155
1.66667
1.67155
1.66667
1.66667
1.66667
1.67644
1.66667
1.69599
1.66667
1.69110
1.66667
1.66667
1.66667
1.66667
1.67155
1.66178
1.69110
1.66667
1.66667
1.66667
1.66178
1.68622
1.66178
1.68622
1.66178
1.66178
1.66178
1.65689
1.66178
1.65689
1.67155
1.65689
1.66178
1.66178
1.66178
1.66667
1.66178
1.67644
1.66667
1.66667
1.68622
1.67155
1.69599
1.68133
1.67155
1.67155
1.66667
1.66667
1.67644
1.66667
1.66667
1.66667
1.66667
1.66667
1.66667
1.66667
1.66667
1.68133
1.66667
1.66178
1.66178
1.66178
1.66178
1.69110
1.66178
1.65689
1.67644
1.65689
1.65689
1.66178
1.66178
1.67155
1.66178
1.68622
1.66178
1.66178
1.67155
1.66178
1.66178
1.65689
1.65689
1.65689
1.66178
1.65689
1.66178
1.65689
1.66178
1.65689
1.65689
1.65689
1.65689
1.65689
1.65689
1.66178
1.65689
1.68133
1.65200
1.65200
1.65689
1.65200
1.66178
1.65200
1.66178
1.64712
1.65200
1.65689
1.65200
1.66667
1.65200
1.65689
1.66178
1.65689
1.66178
1.66178
1.65689
1.66178
1.66178
1.68622
1.66178
1.66178
1.66667
1.65689
1.66178
1.66178
1.66178
1.66178
1.66178
1.66178
1.66178
1.69110
1.66178
1.66178
1.66178
1.66178
1.65689
1.65689
1.66667
1.65689
1.65689
1.66178
1.66178
1.66178
1.66178
1.66178
1.66178
1.67644
1.66178
1.66667
1.66178
1.66667
1.66178
1.66178
1.66178
1.66178
1.66178
1.66178
1.66178
1.66667
1.66178
1.69599
1.66178
1.66178
1.66178
1.66178
1.66178
1.66178
1.66178
1.66178
1.66178
1.65689
1.66178
1.65689
1.66667
1.65689
1.67644
1.65689
1.65689
1.65689
1.65689
1.66178
1.65689
1.66178
1.65689
1.66178
1.66178
1.69110
1.66178
1.66667
1.67155
1.66667
1.67155
1.66178
1.66667
1.66667
1.67644
1.66667
1.66667
1.66667
1.66667
1.67644
1.66667
1.66667
1.66667
1.66667
1.66178
1.66667
1.66667
1.69599
1.66667
1.66667
1.66667
1.66667
1.67155
1.66667
1.66667
1.67155
1.66667
1.66667
1.67644
1.66667
1.66178
1.66667
1.66667
1.66667
1.66667
1.67155
1.66667
1.69599
1.66667
1.67155
1.67155
1.66667
1.67155
1.66667
1.69110
1.66667
1.69110
1.66178
1.66667
1.66178
1.69599
1.66667
1.68133
1.66667
1.66667
1.66667
1.66667
1.66178
1.66178
1.66667
1.66178
1.66178
1.66178
1.66178
1.66178
1.66178
1.66178
1.66178
1.66667
1.66667
1.69599
1.67155
1.69599
1.67155
1.69110
1.66667
1.67155
1.67155
1.68133
1.67155
1.67155
1.70088
1.67155
1.69110
1.67155
1.67155
1.67155
1.67155
1.67155
1.67155
1.66667
1.67155
1.66667
1.69599
1.66667
1.66667
1.66178
1.66178
1.66667
1.66178
1.69599
1.66178
1.66667
1.66667
1.66178
1.66178
1.66178
1.66178
1.66667
1.66178
1.68622
1.66667
1.66667
1.66667
1.66667
1.66667
1.66667
1.66178
1.66667
1.66178
1.66178
1.66178
1.66178
1.66178
1.66178
1.66178
1.66178
1.66178
1.66178
1.66178
1.65689
1.67155
1.65689
1.66667
1.65689
1.65689
1.66178
1.65689
1.66667
1.65689
1.65689
1.66178
1.65689
1.66667
1.66178
1.66667
1.66178
1.66178
1.66667
1.68622
1.66667
1.69110
1.66667
1.67644
1.66667
1.66667
1.66667
1.66667
1.66667
1.66667
1.66667
1.67155
1.66667
1.66178
1.66667
1.66178
1.66178
1.66178
1.66178
1.66178
1.66178
1.66178
1.65689
1.66178
1.65689
1.66178
1.65689
1.65689
1.65689
1.65689
1.67155
1.65689
1.65689
1.66667
1.66178
1.66178
1.66667
1.67644
1.66667
1.66667
1.66667
1.66667
1.66667
1.66667
1.66667
1.66667
1.66667
1.66667
1.67644
1.66178
1.66178
1.69110
1.66178
1.66178
1.66178
1.66178
1.66178
1.66178
1.66178
1.65689
1.69110
1.66178
1.66178
1.66667
1.66667
1.67644
1.66667
1.67155
1.67155
1.67155
1.70088
1.66667
1.66667
1.67155
1.66667
1.66667
1.66667
1.66667
1.67644
1.66667
1.68622
1.66667
1.67644
1.66667
1.67155
1.66667
1.66667
1.67155
1.66667
1.67155
1.66178
1.66178
1.66667
1.66178
1.66667
1.65689
1.67644
1.66178
1.66178
1.66178
1.66178
1.68133
1.66178
1.68622
1.65689
1.66178
1.65689
1.66178
1.66178
1.66178
1.66178
1.66178
1.66667
1.66178
1.66667
1.65689
1.68622
1.66178
1.66178
1.66178
1.66178
1.68133
1.66178
1.65689
1.65689
1.65689
1.65689
1.65689
1.65689
1.65689
1.65689
1.65689
1.66667
1.65689
1.65689
1.66667
1.66178
1.66667
1.66178
1.66178
1.66178
1.66178
1.66667
1.66667
1.67155
1.66178
1.66178
1.66178
1.66178
1.66178
1.66667
1.66667
1.66667
1.66667
1.66667
1.66667
1.68133
1.66667
1.66178
1.66667
1.66667
1.66667
1.66178
1.66178
1.66178
1.66178
1.66178
1.66178
1.66178
1.66667
1.66667
1.66667
1.68622
1.66667
1.69110
1.66667
1.66667
1.66667
1.66667
1.67155
1.66667
1.67155
1.66667
1.68622
1.66667
1.66667
1.66178
1.66667
1.66667
1.66178
1.66178
1.66178
1.67155
1.66178
1.66178
1.66667
1.66178
1.66667
1.66178
1.68622
1.66178
1.65689
1.66667
1.65689
1.66667
1.65689
1.65689
1.65689
1.65689
1.65689
1.65689
1.66178
1.66178
1.66178
1.66667
1.66178
1.66667
1.66667
1.68622
1.67155
1.66667
1.67155
1.66667
1.66667
1.69110
1.66667
1.66667
1.66667
1.66667
1.66667
1.66667
1.66667
1.66667
1.66178
1.66178
1.66178
1.66178
1.66178
1.66667
1.66178
1.66178
1.66178
1.65689
1.66178
1.65689
1.66178
1.65689
1.66178
1.65689
1.67155
1.65689
1.66178
1.66178
1.65689
1.65689
1.67155
1.65689
1.67155
1.65689
1.66667
1.66178
1.67155
1.66178
1.65689
1.65200
1.65689
1.65689
1.65689
1.67644
1.65689
1.65689
1.65200
1.65689
1.65200
1.65200
1.65689
1.65200
1.65689
1.65200
1.65200
1.65200
1.65200
1.65689
1.66178
1.65689
1.65689
1.65689
1.66178
1.66178
1.65689
1.65689
1.65689
1.66178
1.65689
1.66178
1.66178
1.66178
1.66178
1.66178
1.66178
1.67644
1.66178
1.66667
1.66667
1.66667
1.66178
1.66667
1.66178
1.66667
1.66178
1.65689
1.65689
1.65689
1.66178
1.65689
1.67155
1.65689
1.68622
1.65689
1.65689
1.66178
1.65689
1.65689
1.66178
1.66178
1.66178
1.66178
1.66178
1.66178
1.66178
1.66178
1.66178
1.65689
1.66178
1.69110
1.66178
1.69110
1.66178
1.66178
1.66178
1.66178
1.66178
1.65689
1.66178
1.65689
1.68622
1.65689
1.67155
1.65689
1.65689
1.66178
1.65689
1.66178
1.65689
1.67155
1.65689
1.69110
1.66178
1.69110
1.66178
1.66667
1.66667
1.66667
1.66667
1.66667
1.69110
1.66667
1.67644
1.66667
1.66667
1.66667
1.66667
1.66667
1.66178
1.66667
1.66667
1.66178
1.66178
1.66178
1.66178
1.66178
1.68622
1.65689
1.68133
1.66178
1.67155
1.66178
1.67155
1.66178
1.67644
1.66178
1.67644
1.66178
1.66178
1.66178
1.66178
1.66667
1.66178
1.66667
1.66178
1.67155
1.66178
1.66178
1.65689
1.68133
1.66178
1.67155
1.66178
1.66178
1.65689
1.66178
1.66178
1.65689
1.65689
1.65689
1.65200
1.65689
1.65689
1.65689
1.65689
1.66178
1.66178
1.66178
1.66178
1.68133
1.66178
1.67155
1.66667
1.69110
1.66667
1.66667
1.66178
1.66178
1.66667
1.66178
1.68622
1.66667
1.69110
1.66667
1.66667
1.67644
1.66667
1.66667
1.69110
1.66178
1.66667
1.66178
1.66667
1.66178
1.67155
1.66178
1.66178
1.66178
1.66178
1.66178
1.66178
1.66667
1.66667
1.66178
1.66667
1.66667
1.66667
1.67155
1.66667
1.67155
1.68133
1.67155
1.66667
1.67644
1.67155
1.67644
1.67644
1.68133
1.69110
1.68622
1.69599
1.69599
1.70088
1.70088
1.70088
1.70088
1.70088
1.70577
1.70088
1.70088
1.69599
1.69599
1.70577
1.69599
1.70088
1.69599
1.69599
1.69599
1.69599
1.69599
1.70577
1.69599
1.69599
1.69599
1.69110
1.69599
1.69110
1.68622
1.68622
1.68622
1.68133
1.68133
1.68133
1.67644
1.68133
1.67644
1.67644
1.67155
1.67155
1.67155
1.67155
1.67155
1.67155
1.66667
1.67155
1.66667
1.67155
1.66667
1.67155
1.66667
1.67155
1.66178
1.66178
1.66178
1.66178
1.66178
1.66667
1.66667
1.66667
1.66667
1.66178
1.66667
1.66178
1.68133
1.65689
1.66178
1.65689
1.65689
1.66178
1.66178
1.66178
1.66178
1.67155
1.65689
1.65200
1.65200
1.65200
1.64712
1.67155
1.64712
1.64712
1.65200
1.65200
1.66667
1.65200
1.65689
1.65689
1.65689
1.66178
1.66178
1.66178
1.66178
1.66667
1.66178
1.68133
1.66178
1.66178
1.66667
1.66178
1.66178
1.66178
1.69110
1.66178
1.68622
1.66178
1.66178
1.66178
1.66178
1.66178
1.68622
1.65689
1.67155
1.65689
1.65689
1.65689
1.68133
1.65689
1.65689
1.65200
1.65689
1.66178
1.65689
1.66178
1.65689
1.65689
1.65689
1.68622
1.65689
1.68622
1.65689
1.67155
1.65689
1.66667
1.65689
1.67644
1.65689
1.65689
1.65689
1.65689
1.65689
1.65689
1.66667
1.65689
1.66178
1.65689
1.65689
1.65689
1.65689
1.65689
1.66667
1.65689
1.65689
1.66178
1.65689
1.66178
1.66178
1.67644
1.66667
1.67155
1.66667
1.66667
1.68622
1.66667
1.66667
1.69110
1.66667
1.66667
1.66667
1.66667
1.67155
1.66667
1.66667
1.66667
1.66667
1.66178
1.66178
1.66667
1.66178
1.66178
1.66178
1.66178
1.65689
1.66178
1.66178
1.66178
1.67155
1.66178
1.69110
1.66178
1.68622
1.65689
1.66667
1.65689
1.68133
1.65689
1.68622
1.65689
1.66178
1.66178
1.66178
1.66178
1.65689
1.65689
1.65689
1.65689
1.65689
1.65689
1.65689
1.67155
1.65689
1.67155
1.65689
1.65200
1.65200
1.66178
1.65689
1.65689
1.65689
1.65689
1.66178
1.66178
1.66667
1.66667
1.66667
1.66667
1.69599
1.66667
1.66667
1.67644
1.66667
1.66667
1.66667
1.66667
1.66667
1.66667
1.66667
1.66667
1.66667
1.66667
1.68622
1.66667
1.67155
1.66667
1.66667
1.69110
1.66667
1.66178
1.66178
1.66667
1.66178
1.66667
1.66178
1.66667
1.66667
1.66667
1.66667
1.66667
1.66667
1.66178
1.66178
1.66178
1.66178
1.66667
1.66667
1.66667
1.66178
1.66667
1.66667
1.66178
1.67155
1.66178
1.66178
1.66178
1.65689
1.66178
1.65689
1.66667
1.65689
1.66178
1.66178
1.66178
1.66178
1.65689
1.66178
1.65689
1.66178
1.65689
1.65689
1.65689
1.66178
1.66178
1.66178
1.66178
1.66667
1.66667
1.66667
1.66667
1.67155
1.66667
1.66667
1.67155
1.67155
1.66667
1.66667
1.66667
1.67155
1.66667
1.66667
1.67155
1.66667
1.66667
1.66667
1.66178
1.66667
1.66178
1.68133
1.66178
1.67644
1.66178
1.66667
1.66178
1.67644
1.65689
1.65689
1.65689
1.65689
1.65689
1.65689
1.65689
1.66178
1.65689
1.65689
1.65689
1.65689
1.66178
1.65689
1.66178
1.66178
1.66178
1.66178
1.66178
1.65689
1.66178
1.65689
1.66667
1.65689
1.66178
1.65689
1.65689
1.65200
1.65200
1.65200
1.65200
1.65200
1.65200
1.65200
1.65200
1.65200
1.65689
1.65689
1.66178
1.65689
1.65689
1.66178
1.65689
1.66667
1.65689
1.66178
1.66178
1.67155
1.66178
1.66178
1.65689
1.66178
1.66178
1.66178
1.66178
1.66667
1.66178
1.67644
1.66178
1.66178
1.66178
1.66178
1.66178
1.66667
1.65689
1.65689
1.65689
1.65200
1.65200
1.65689
1.65689
1.65689
1.65689
1.65689
1.65689
1.68622
1.65689
1.65689
1.66178
1.65689
1.66178
1.66178
1.66178
1.66178
1.66178
1.66178
1.67644
1.65689
1.66178
1.65689
1.65689
1.65689
1.65689
1.65689
1.65689
1.65200
1.65689
1.65200
1.65689
1.65689
1.65689
1.65689
1.66178
1.65689
1.66178
1.66178
1.66178
1.66178
1.66178
1.67155
1.66178
1.66667
1.66178
1.66178
1.66178
1.66178
1.66178
1.66178
1.66667
1.66178
1.66667
1.66178
1.66667
1.66178
1.66178
1.65689
1.66178
1.65689
1.66178
1.65689
1.66667
1.65689
1.66178
1.65689
1.68133
1.65689
1.65689
1.65689
1.65689
1.65689
1.65689
1.65689
1.65689
1.65689
1.65689
1.66178
1.65689
1.66667
1.65689
1.68133
1.65200
1.65200
1.65200
1.68133
1.65200
1.68133
1.65200
1.68133
1.65200
1.65200
1.65200
1.64712
1.65200
1.64712
1.65200
1.64712
1.65200
1.65200
1.65200
1.65689
1.65689
1.65689
1.65689
1.65689
1.66178
1.65689
1.66667
1.66178
1.66178
1.66178
1.66178
1.66667
1.65689
1.66178
1.66178
1.67644
1.66178
1.65689
1.66667
1.66178
1.65689
1.66667
1.65689
1.65689
1.65200
1.65689
1.65200
1.65689
1.65200
1.65689
1.65689
1.66667
1.65689
1.66178
1.65689
1.67155
1.65689
1.66178
1.65689
1.66178
1.66178
1.66178
1.66178
1.66178
1.66178
1.66667
1.65689
1.66667
1.65689
1.66178
1.65689
1.66667
1.66178
1.67644
1.65689
1.67644
1.65689
1.65689
1.65689
1.65689
1.65689
1.65689
1.65689
1.65689
1.66178
1.66178
1.66667
1.66667
1.66667
1.66667
1.67155
1.66667
1.67155
1.66667
1.66667
1.67155
1.66667
1.66667
1.68133
1.67155
1.67155
1.67155
1.67155
1.70088
1.66667
1.66667
1.66667
1.66667
1.66667
1.66178
1.66667
1.66178
1.66178
1.66178
1.66178
1.66178
1.66178
1.67155
1.66178
1.68133
1.66178
1.66667
1.66178
1.67155
1.65689
1.66178
1.66178
1.66178
1.67155
1.66178
1.67644
1.66178
1.67155
1.66178
1.69110
1.66178
1.65689
1.66178
1.65689
1.67155
1.65689
1.67644
1.65689
1.65689
1.65200
1.65200
1.65200
1.65200
1.65200
1.65200
1.65200
1.65200
1.65689
1.65200
1.65689
1.65689
1.66178
1.65689
1.68622
1.65689
1.68133
1.66178
1.66178
1.66178
1.66178
1.66178
1.69110
1.66178
1.67155
1.66178
1.66178
1.66178
1.66667
1.66178
1.66178
1.66667
1.68622
1.65689
1.66178
1.66178
1.65689
1.66178
1.65689
1.67155
1.65689
1.67644
1.65689
1.66178
1.65689
1.65689
1.65200
1.65200
1.65689
1.65689
1.66178
1.65689
1.66178
1.65689
1.65689
1.65689
1.67155
1.65689
1.68622
1.65689
1.65689
1.65689
1.67644
1.65689
1.66667
1.65200
1.68133
1.65200
1.65689
1.65200
1.65200
1.65200
1.68133
1.65200
1.66667
1.65689
1.67155
1.65689
1.66178
1.65689
1.66178
1.65689
1.66667
1.65689
1.67155
1.66178
1.66667
1.66178
1.66178
1.66178
1.66178
1.66178
1.66178
1.67155
1.66178
1.66178
1.68622
1.66178
1.66178
1.69110
1.65689
1.65689
1.68622
1.65689
1.66178
1.65689
1.68622
1.65689
1.65689
1.66178
1.65689
1.66178
1.65689
1.68133
1.65689
1.65689
1.65200
1.65200
1.65689
1.65200
1.65200
1.65200
1.65689
1.65200
1.65689
1.65689
1.65200
1.65200
1.65200
1.68133
1.65200
1.65200
1.65200
1.65200
1.65200
1.64712
1.64712
1.65200
1.66178
1.65200
1.67155
1.65689
1.65689
1.65689
1.66667
1.65689
1.66178
1.65689
1.66178
1.66178
1.66667
1.66178
1.66178
1.66178
1.66178
1.66178
1.68622
1.66178
1.66178
1.66178
1.66178
1.67155
1.66178
1.66178
1.67155
1.65689
1.66178
1.68622
1.65689
1.66178
1.65689
1.65689
1.65689
1.66178
1.65689
1.65689
1.65689
1.66178
1.65689
1.65689
1.65200
1.65200
1.65689
1.65689
1.65689
1.65689
1.65689
1.65689
1.65689
1.65689
1.65200
1.65200
1.65200
1.66178
1.65200
1.65689
1.65200
1.65689
1.65200
1.64712
1.65200
1.65200
1.65200
1.64712
1.65200
1.64712
1.64712
1.65200
1.65200
1.65689
1.65689
1.65689
1.65689
1.66178
1.66178
1.66667
1.66178
1.66178
1.66667
1.66178
1.66178
1.67155
1.66667
1.66667
1.67644
1.66178
1.66667
1.69110
1.66178
1.66178
1.67155
1.66667
1.66178
1.66178
1.66178
1.66178
1.65689
1.65689
1.65689
1.65689
1.65689
1.65689
1.65689
1.65689
1.65689
1.68133
1.65689
1.66178
1.65689
1.68622
1.66178
1.66178
1.66178
1.66178
1.66178
1.66178
1.66667
1.66178
1.66178
1.66178
1.66667
1.66178
1.67644
1.65689
1.65689
1.65689
1.65689
1.65689
1.65689
1.68622
1.65689
1.67155
1.65689
1.67155
1.65200
1.65200
1.65200
1.66178
1.65200
1.68133
1.65200
1.67644
1.65689
1.65689
1.65689
1.67155
1.66178
1.66178
1.66178
1.66178
1.66178
1.66178
1.68133
1.66178
1.69599
1.66178
1.66178
1.66178
1.66178
1.66178
1.67155
1.66178
1.66178
1.66178
1.68133
1.65689
1.68133
1.65689
1.66178
1.65689
1.66667
1.65689
1.65689
1.65689
1.65689
1.65689
1.66178
1.65689
1.66178
1.66178
1.66178
1.66178
1.66178
1.67155
1.66178
1.68133
1.66178
1.67644
1.65689
1.65689
1.65200
1.65689
1.65200
1.65689
1.65689
1.65689
1.65689
1.65689
1.65200
1.65200
1.65689
1.65200
1.65689
1.65200
1.65689
1.65200
1.65689
1.65689
1.67155
1.65689
1.66178
1.66178
1.66178
1.66178
1.66178
1.66178
1.66667
1.66178
1.66667
1.66178
1.66667
1.65689
1.65689
1.66178
1.66178
1.66178
1.65689
1.68133
1.66178
1.66178
1.65689
1.66178
1.65689
1.65689
1.65200
1.65200
1.65200
1.66667
1.65200
1.65200
1.65200
1.65200
1.65689
1.67644
1.65689
1.65689
1.65689
1.66178
1.65689
1.66178
1.65689
1.66178
1.65689
1.67644
1.65689
1.66178
1.65689
1.65200
1.65200
1.65200
1.68133
1.65200
1.65200
1.65200
1.65200
1.64712
1.65200
1.65200
1.66667
1.65200
1.65200
1.65689
1.65689
1.65689
1.65689
1.66178
1.66178
1.66178
1.66178
1.66178
1.66178
1.66667
1.66178
1.66178
1.66178
1.66178
1.65689
1.66667
1.66178
1.66178
1.66178
1.65689
1.66178
1.66178
1.66178
1.66178
1.69110
1.66178
1.65689
1.65689
1.65689
1.66178
1.65689
1.66178
1.65689
1.66178
1.65689
1.65689
1.65689
1.66178
1.65689
1.66178
1.66178
1.65689
1.67155
1.66178
1.67644
1.65689
1.66178
1.65689
1.66178
1.65689
1.65689
1.65689
1.65689
1.65689
1.65689
1.65689
1.65200
1.68133
1.65200
1.66667
1.65689
1.67644
1.65689
1.66667
1.65689
1.65689
1.65689
1.66178
1.66178
1.69110
1.66178
1.66178
1.66178
1.67644
1.66178
1.66178
1.66178
1.68622
1.66178
1.66178
1.66178
1.66178
1.66178
1.66178
1.66178
1.66667
1.66178
1.67644
1.66178
1.66178
1.66178
1.66178
1.65689
1.66178
1.65689
1.65689
1.68622
1.65689
1.67644
1.65689
1.66178
1.65689
1.65689
1.68133
1.65689
1.68622
1.65689
1.66178
1.65689
1.65689
1.65689
1.65689
1.67155
1.65689
1.68622
1.65689
1.65689
1.65689
1.65689
1.65689
1.65689
1.65689
1.65689
1.65689
1.65689
1.65689
1.65689
1.65200
1.65689
1.65689
1.65689
1.66178
1.66178
1.66667
1.66667
1.66178
1.66667
1.66667
1.67155
1.66667
1.66667
1.67644
1.66667
1.66667
1.68133
1.66667
1.67155
1.66667
1.66667
1.67155
1.68133
1.66667
1.66667
1.69599
1.66667
1.66667
1.66178
1.66178
1.66178
1.66178
1.66178
1.66178
1.66178
1.66178
1.66667
1.66178
1.66667
1.66667
1.66667
1.67644
1.66667
1.66667
1.66667
1.66667
1.66667
1.66667
1.66178
1.66178
1.66667
1.66667
1.66667
1.66667
1.66178
1.66178
1.68133
1.65689
1.66178
1.66178
1.66178
1.66178
1.66178
1.65689
1.68133
1.65689
1.65689
1.65689
1.65689
1.65689
1.65689
1.65689
1.65689
1.66178
1.66178
1.67155
1.66178
1.66667
1.66178
1.69110
1.66667
1.68622
1.66667
1.70088
1.69599
1.67155
1.67155
1.67155
1.69110
1.66667
1.66667
1.68133
1.66667
1.66667
1.68622
1.66667
1.66178
1.66667
1.66178
1.68133
1.65689
1.66667
1.66178
1.66178
1.65689
1.65689
1.66178
1.65689
1.65689
1.65689
1.66178
1.65689
1.65200
1.65689
1.65689
1.65689
1.65689
1.65689
1.66178
1.65689
1.65689
1.65689
1.66178
1.65689
1.65200
1.65200
1.65200
1.65689
1.65200
1.65200
1.65200
1.65200
1.65200
1.64712
1.66178
1.64712
1.65200
1.64712
1.68133
1.65200
1.65200
1.65200
1.65200
1.65200
1.65689
1.65689
1.68133
1.65689
1.66178
1.66178
1.67155
1.66178
1.66178
1.66178
1.66178
1.66178
1.66178
1.65689
1.65689
1.66667
1.65689
1.66178
1.65689
1.66178
1.65689
1.65689
1.65689
1.65689
1.65689
1.66667
1.65689
1.66178
1.65200
1.65689
1.65200
1.65689
1.65689
1.65689
1.65689
1.65689
1.65689
1.65689
1.66667
1.65689
1.67644
1.65689
1.65689
1.65689
1.68133
1.65200
1.66667
1.65200
1.65200
1.65200
1.65689
1.65200
1.65200
1.65200
1.65200
1.65200
1.65200
1.67155
1.65200
1.65200
1.65200
1.68133
1.65689
1.67155
1.65689
1.67644
1.65689
1.65689
1.65689
1.65200
1.65200
1.66178
1.65689
1.67155
1.65689
1.65689
1.65689
1.65689
1.68622
1.65689
1.65689
1.65689
1.65689
1.65689
1.65689
1.65689
1.65689
1.65689
1.67155
1.65200
1.65200
1.65200
1.65200
1.65200
1.65200
1.65200
1.65200
1.65689
1.65200
1.65200
1.65200
1.65200
1.65200
1.65200
1.66667
1.65689
1.67644
1.65689
1.68133
1.65689
1.66667
1.65200
1.65689
1.65200
1.65689
1.65200
1.65689
1.65200
1.65200
1.65200
1.64712
1.66178
1.65200
1.64712
1.65200
1.64712
1.65200
1.64712
1.65200
1.65200
1.65200
1.65200
1.65200
1.68133
1.65200
1.68133
1.65689
1.65689
1.65689
1.65689
1.65689
1.66178
1.65689
1.65689
1.65200
1.66667
1.65200
1.65689
1.65200
1.65689
1.65200
1.65200
1.65689
1.65200
1.65200
1.65689
1.65200
1.65689
1.65200
1.65200
1.65200
1.65200
1.65200
1.65200
1.65200
1.65200
1.65689
1.65689
1.68622
1.65689
1.65689
1.65200
1.65689
1.65689
1.65689
1.65689
1.65689
1.65689
1.66178
1.66178
1.65689
1.65689
1.65689
1.65689
1.65689
1.65200
1.65200
1.65200
1.68622
1.65689
1.67155
1.65689
1.65689
1.65689
1.66178
1.65689
1.65200
1.65200
1.65200
1.65200
1.65689
1.65689
1.65689
1.65689
1.66178
1.66178
1.66178
1.66178
1.66178
1.66667
1.67155
1.66667
1.66667
1.67155
1.66667
1.66667
1.69599
1.66667
1.66667
1.66667
1.66667
1.69110
1.66667
1.66667
1.66667
1.66178
1.66667
1.66667
1.69110
1.66178
1.66667
1.65689
1.66178
1.65689
1.66178
1.65689
1.65689
1.65689
1.65689
1.65689
1.65689
1.65689
1.65689
1.65689
1.65689
1.65689
1.65689
1.65689
1.65689
1.65689
1.66178
1.65689
1.65689
1.65689
1.65689
1.65689
1.65689
1.65689
1.65200
1.65689
1.65689
1.65689
1.65200
1.65200
1.65200
1.67644
1.64712
1.65200
1.64712
1.65200
1.64712
1.65200
1.64712
1.65200
1.64712
1.65200
1.65200
1.65689
1.65689
1.65200
1.65689
1.65200
1.65200
1.65689
1.65200
1.65200
1.65689
1.65689
1.65689
1.65689
1.65689
1.65689
1.65689
1.65689
1.65689
1.65689
1.68133
1.65689
1.68622
1.65200
1.66178
1.64712
1.65200
1.64712
1.65200
1.64712
1.65200
1.64712
1.64712
1.64712
1.67644
1.64712
1.66178
1.65200
1.65689
1.65200
1.66667
1.65200
1.64712
1.64712
1.64712
1.64712
1.64712
1.64712
1.66178
1.65200
1.67644
1.65200
1.67155
1.65200
1.64712
1.64712
1.67644
1.64712
1.65689
1.64712
1.64712
1.64712
1.65200
1.64712
1.65200
1.65200
1.65200
1.65200
1.65689
1.65689
1.66667
1.65689
1.66178
1.66178
1.65689
1.65689
1.66178
1.68133
1.65689
1.66178
1.66178
1.65689
1.65689
1.68622
1.65689
1.65689
1.66178
1.65689
1.65689
1.66178
1.65689
1.65689
1.65689
1.68622
1.65689
1.65200
1.65200
1.65200
1.65200
1.68133
1.65200
1.65200
1.65200
1.65200
1.65689
1.65200
1.65689
1.65200
1.65689
1.65200
1.65689
1.65689
1.65689
1.65200
1.65200
1.65200
1.65200
1.65200
1.64712
1.65200
1.65200
1.65200
1.65200
1.65200
1.65689
1.65200
1.65200
1.64712
1.64712
1.64712
1.64712
1.64712
1.65200
1.65200
1.65200
1.65200
1.65200
1.65200
1.65200
1.65689
1.65689
1.68622
1.65689
1.68133
1.65689
1.66178
1.65689
1.65689
1.65689
1.65689
1.65689
1.65689
1.65689
1.65689
1.65689
1.68622
1.65200
1.65200
1.65200
1.65689
1.65200
1.65689
1.65200
1.65689
1.64712
1.66178
1.64712
1.64712
1.64712
1.64712
1.64712
1.64712
1.65200
1.65200
1.66178
1.65200
1.65200
1.64712
1.65200
1.64712
1.65200
1.64712
1.64712
1.65200
1.65200
1.65200
1.65200
1.64712
1.65200
1.65200
1.66667
1.64712
1.65689
1.64712
1.64712
1.64712
1.64712
1.64712
1.65689
1.64712
1.65689
1.64712
1.65689
1.64712
1.64712
1.64712
1.64712
1.64712
1.64712
1.64712
1.65200
1.65689
1.68622
1.65689
1.66178
1.65689
1.66178
1.66178
1.66178
1.65689
1.66667
1.65689
1.66178
1.66178
1.66178
1.66178
1.66178
1.66667
1.66178
1.67644
1.66667
1.66178
1.69110
1.66178
1.66178
1.65689
1.65689
1.65689
1.65689
1.65689
1.68622
1.65689
1.67644
1.66178
1.66667
1.66667
1.66667
1.66667
1.69110
1.66667
1.66667
1.69110
1.66667
1.66178
1.67155
1.66178
1.66178
1.66667
1.67644
1.66178
1.66178
1.67155
1.66178
1.68622
1.66178
1.69110
1.65689
1.66178
1.66178
1.65689
1.65689
1.66667
1.65689
1.66178
1.66178
1.66178
1.66178
1.65689
1.65689
1.66178
1.66178
1.65689
1.66178
1.65689
1.65689
1.66178
1.66178
1.65689
1.66178
1.66178
1.66178
1.66178
1.68622
1.66667
1.67644
1.66667
1.66667
1.66178
1.66178
1.68133
1.66178
1.66667
1.66667
1.66178
1.66178
1.66178
1.66178
1.66178
1.66178
1.66178
1.66178
1.66178
1.66178
1.65689
1.66178
1.65689
1.66178
1.65689
1.65689
1.65689
1.65689
1.65200
1.65689
1.65200
1.67644
1.65689
1.65689
1.65200
1.65200
1.65689
1.65689
1.65689
1.65689
1.65200
1.65689
1.65689
1.65200
1.65200
1.65200
1.65200
1.64712
1.64712
1.65689
1.65200
1.65200
1.64712
1.65200
1.64712
1.65200
1.64712
1.65200
1.64223
1.64712
1.64223
1.64223
1.64223
1.64712
1.64712
1.64712
1.65200
1.65200
1.65200
1.65200
1.66667
1.65200
1.66178
1.65200
1.65689
1.65200
1.65689
1.65689
1.65689
1.65689
1.65689
1.65689
1.65689
1.66178
1.65689
1.65689
1.65689
1.65689
1.65689
1.65689
1.65200
1.65200
1.65200
1.65200
1.64712
1.65689
1.64712
1.65200
1.64712
1.65200
1.65200
1.65200
1.65200
1.65200
1.65200
1.65200
1.65200
1.65200
1.65200
1.65200
1.65200
1.65200
1.65200
1.65200
1.65200
1.65200
1.64712
1.65200
1.64712
1.64712
1.65200
1.65200
1.64712
1.65200
1.65200
1.65200
1.65200
1.64712
1.64712
1.64712
1.67644
1.64712
1.65200
1.64712
1.65200
1.65200
1.65689
1.65689
1.68133
1.65689
1.65689
1.65689
1.65689
1.65689
1.68133
1.65689
1.66178
1.67155
1.65689
1.65689
1.66178
1.65689
1.65689
1.65689
1.65689
1.65689
1.66667
1.65689
1.68133
1.65200
1.68133
1.65200
1.65689
1.64712
1.65200
1.65200
1.65200
1.65200
1.64712
1.65200
1.66667
1.65200
1.65689
1.65200
1.66178
1.65200
1.65200
1.65200
1.65200
1.65200
1.67155
1.65200
1.65200
1.65200
1.65200
1.65200
1.65200
1.65200
1.65200
1.67155
1.65200
1.65200
1.64712
1.65200
1.64712
1.64712
1.67155
1.64712
1.66178
1.64712
1.67644
1.65200
1.65200
1.65200
1.65200
1.67644
1.65200
1.68133
1.65689
1.65689
1.65689
1.65689
1.65689
1.67644
1.65689
1.66178
1.68622
1.65689
1.66178
1.65689
1.65689
1.65689
1.66178
1.65689
1.65689
1.66178
1.65689
1.65200
1.65200
1.65200
1.68133
1.65200
1.68133
1.65200
1.65200
1.65200
1.68133
1.65689
1.65200
1.65689
1.65689
1.65689
1.66178
1.65200
1.65689
1.65689
1.65689
1.65689
1.66178
1.65689
1.65689
1.65689
1.65689
1.67155
1.65689
1.66178
1.65689
1.66178
1.68133
1.65689
1.67644
1.65689
1.65200
1.65200
1.65200
1.65200
1.65689
1.65689
1.65200
1.65689
1.65689
1.65689
1.65689
1.65689
1.65689
1.68133
1.65689
1.65689
1.65689
1.66178
1.66178
1.66178
1.66667
1.66178
1.66667
1.67155
1.66667
1.66667
1.69599
1.66667
1.67155
1.66667
1.66667
1.67155
1.66667
1.66667
1.66667
1.66667
1.66667
1.66667
1.66667
1.66667
1.66667
1.66667
1.66667
1.69599
1.66667
1.66178
1.66667
1.66178
1.69110
1.66178
1.67644
1.66667
1.67155
1.66667
1.66178
1.67155
1.66667
1.66667
1.66667
1.67644
1.66667
1.67155
1.66667
1.66667
1.66178
1.66178
1.66178
1.66178
1.67155
1.65689
1.66178
1.66178
1.68622
1.66178
1.69110
1.66178
1.66178
1.65689
1.65689
1.65689
1.65689
1.68622
1.65689
1.65689
1.65689
1.65689
1.66178
1.65689
1.66178
1.65689
1.66178
1.66178
1.66667
1.66178
1.67644
1.66178
1.67155
1.66667
1.66667
1.66178
1.67155
1.66178
1.66667
1.66667
1.66667
1.66667
1.66667
1.67644
1.66178
1.66667
1.66178
1.66178
1.66178
1.66178
1.65689
1.65689
1.67644
1.65689
1.65689
1.65689
1.65200
1.65689
1.65689
1.68622
1.65689
1.66178
1.65689
1.65689
1.65689
1.65689
1.68622
1.65689
1.68622
1.65689
1.66178
1.65689
1.65689
1.65689
1.65689
1.65200
1.65689
1.65200
1.65689
1.65200
1.65200
1.65200
1.64712
1.64712
1.64712
1.64712
1.65200
1.68133
1.64712
1.66178
1.64712
1.67155
1.65200
1.65689
1.65200
1.65689
1.65689
1.65689
1.67155
1.65689
1.67644
1.65689
1.66667
1.65689
1.66178
1.65689
1.65689
1.65689
1.65689
1.66667
1.66667
1.66178
1.66178
1.65689
1.65689
1.65689
1.65689
1.65689
1.65200
1.65689
1.65200
1.65689
1.65689
1.65689
1.66667
1.65689
1.67644
1.65689
1.66178
1.65689
1.65689
1.65689
1.65689
1.65689
1.65689
1.68622
1.65689
1.65689
1.65200
1.65689
1.66667
1.65200
1.65689
1.65200
1.65200
1.64712
1.65200
1.65200
1.65200
1.64712
1.64712
1.67644
1.64712
1.64712
1.64712
1.64712
1.64712
1.64712
1.64712
1.68133
1.64712
1.65200
1.65200
1.66667
1.65689
1.66178
1.65689
1.66178
1.65689
1.67155
1.66178
1.65689
1.66178
1.66178
1.67155
1.65689
1.66178
1.65689
1.65689
1.66178
1.65689
1.65689
1.65689
1.66667
1.65689
1.65689
1.66667
1.67155
1.65200
1.65200
1.65200
1.65200
1.65200
1.65200
1.65200
1.65689
1.65200
1.65689
1.65689
1.65689
1.65689
1.65689
1.65689
1.65689
1.65689
1.65200
1.65200
1.65689
1.65200
1.66667
1.65200
1.66178
1.65200
1.65200
1.65200
1.67644
1.65200
1.65689
1.65200
1.65200
1.64712
1.65200
1.65200
1.65200
1.65200
1.64712
1.67644
1.65200
1.67644
1.64712
1.67644
1.64712
1.64712
1.64712
1.65200
1.65200
1.65200
1.65689
1.66178
1.66178
1.66178
1.66178
1.66178
1.66178
1.66667
1.66178
1.66178
1.66667
1.66667
1.66667
1.66667
1.66667
1.66667
1.66667
1.66667
1.66667
1.67644
1.66667
1.66667
1.66667
1.66667
1.66178
1.66178
1.69110
1.66178
1.66178
1.69110
1.68622
1.66178
1.67644
1.66178
1.66667
1.66178
1.66178
1.66178
1.66667
1.66667
1.66178
1.66667
1.66667
1.67155
1.66178
1.66667
1.66178
1.66178
1.66178
1.66178
1.66178
1.66178
1.66178
1.66178
1.68133
1.66178
1.67644
1.65689
1.65689
1.65689
1.65689
1.66178
1.65689
1.68133
1.65689
1.68133
1.65200
1.66178
1.65200
1.68133
1.65200
1.65200
1.65200
1.65200
1.65200
1.65200
1.66178
1.65689
1.65689
1.65689
1.68133
1.65689
1.66178
1.66178
1.66178
1.66178
1.66178
1.66178
1.66178
1.66178
1.66178
1.66178
1.66178
1.66667
1.68622
1.66178
1.66178
1.66178
1.66178
1.66178
1.66178
1.65689
1.65689
1.67644
1.65689
1.65200
1.65689
1.65200
1.65689
1.65689
1.65689
1.65689
1.67155
1.65689
1.66667
1.65689
1.65689
1.65689
1.65689
1.65689
1.66178
1.65200
1.66178
1.65200
1.65200
1.68133
1.65200
1.65200
1.65200
1.65200
1.65200
1.65200
1.65200
1.65200
1.67644
1.65200
1.67644
1.64712
1.65200
1.64712
1.64712
1.64712
1.64712
1.64712
1.65200
1.64712
1.65689
1.65200
1.65200
1.65200
1.65200
1.65200
1.65689
1.65689
1.65689
1.65689
1.65689
1.65689
1.65689
1.65689
1.66178
1.67155
1.65689
1.65689
1.65689
1.67644
1.65689
1.65689
1.67155
1.65689
1.65200
1.66178
1.65200
1.65689
1.65200
1.65200
1.68133
1.65200
1.66178
1.65689
1.65689
1.65689
1.66667
1.65200
1.65200
1.65200
1.65200
1.65200
1.65200
1.65689
1.65689
1.65689
1.65689
1.65689
1.65689
1.68622
1.65689
1.67644
1.65200
1.66667
1.65200
1.66178
1.64712
1.65689
1.64712
1.64712
1.64712
1.65200
1.64712
1.64712
1.68133
1.64712
1.65200
1.64712
1.65200
1.64712
1.64712
1.64712
1.65200
1.64712
1.65200
1.65200
1.65200
1.66178
1.65689
1.65689
1.65689
1.66178
1.65689
1.66178
1.66178
1.66178
1.66178
1.67644
1.65689
1.65689
1.66178
1.65689
1.65689
1.66178
1.65689
1.65689
1.66178
1.65200
1.65689
1.65200
1.65200
1.65200
1.65200
1.65200
1.65200
1.67644
1.65200
1.65689
1.65200
1.65200
1.66667
1.65689
1.65689
1.65689
1.66178
1.65689
1.65689
1.65689
1.66178
1.65200
1.67644
1.65689
1.65689
1.65689
1.68133
1.65689
1.68133
1.65689
1.67644
1.65689
1.65689
1.65689
1.65200
1.65200
1.65689
1.66178
1.65200
1.65689
1.65200
1.65689
1.65200
1.66667
1.65200
1.67644
1.65200
1.66178
1.65200
1.65689
1.65200
1.65689
1.65200
1.65689
1.65689
1.66178
1.66178
1.66667
1.66178
1.66178
1.67155
1.66667
1.66667
1.66667
1.66667
1.66667
1.66178
1.69599
1.66667
1.66667
1.69599
1.66667
1.66178
1.69110
1.66178
1.66178
1.67644
1.66178
1.66178
1.66667
1.65689
1.66178
1.65689
1.65689
1.65689
1.66178
1.68622
1.66178
1.65689
1.65689
1.67644
1.66178
1.66178
1.66178
1.66178
1.66178
1.66178
1.68622
1.66178
1.66178
1.66178
1.66178
1.66178
1.65689
1.65689
1.65689
1.65689
1.65689
1.68622
1.65689
1.68622
1.65689
1.67644
1.65689
1.66178
1.65200
1.65200
1.65200
1.65200
1.68133
1.65200
1.66178
1.65200
1.66667
1.65200
1.66178
1.65200
1.65200
1.65200
1.68133
1.65200
1.65200
1.65200
1.68133
1.65200
1.66178
1.65200
1.66178
1.65689
1.65689
1.65689
1.66178
1.65689
1.65689
1.65689
1.65689
1.68622
1.65689
1.66178
1.65689
1.66178
1.65689
1.66178
1.65689
1.65689
1.65689
1.65689
1.65200
1.67155
1.65200
1.65200
1.64712
1.64712
1.67155
1.65200
1.65689
1.64712
1.64712
1.64712
1.64712
1.64712
1.66178
1.64712
1.68133
1.64712
1.65689
1.65200
1.65200
1.65200
1.65200
1.65200
1.65689
1.65200
1.65200
1.65200
1.65200
1.64712
1.65200
1.64712
1.64712
1.64712
1.64712
1.64712
1.65200
1.65200
1.64712
1.64712
1.64712
1.67644
1.64712
1.67644
1.64712
1.64712
1.64712
1.64712
1.65200
1.68133
1.65689
1.68133
1.65689
1.65689
1.66178
1.66178
1.66178
1.66178
1.66667
1.66178
1.66178
1.66178
1.65689
1.65689
1.65689
1.65689
1.65689
1.65689
1.66178
1.65689
1.65689
1.65200
1.65689
1.68622
1.65689
1.65689
1.65689
1.65689
1.68133
1.66178
1.67644
1.65689
1.66178
1.65689
1.66178
1.67155
1.65689
1.65689
1.65689
1.68622
1.65200
1.65689
1.65200
1.65200
1.65200
1.65200
1.65689
1.65200
1.65689
1.65200
1.66178
1.65200
1.65200
1.64712
1.65200
1.66178
1.64712
1.66667
1.64712
1.66178
1.64712
1.65689
1.64712
1.65689
1.64712
1.65200
1.64712
1.64712
1.67155
1.64712
1.67155
1.64712
1.65689
1.64712
1.65200
1.64712
1.64712
1.64712
1.65200
1.65200
1.65200
1.65200
1.65200
1.67644
1.65200
1.68133
1.65200
1.67644
1.65200
1.65689
1.65689
1.66178
1.65689
1.65689
1.66178
1.65689
1.65689
1.66178
1.65200
1.65200
1.65689
1.67644
1.65200
1.65200
1.65200
1.64712
1.65200
1.65200
1.65200
1.65200
1.65200
1.65200
1.67155
1.65200
1.68133
1.65689
1.65689
1.65689
1.68622
1.65200
1.66178
1.65200
1.65689
1.65200
1.65689
1.65200
1.65200
1.66178
1.65689
1.67644
1.65689
1.65689
1.65689
1.67644
1.65689
1.68133
1.65689
1.65689
1.65689
1.65689
1.65689
1.66178
1.65689
1.65689
1.65689
1.65689
1.65689
1.65689
1.65689
1.65689
1.68622
1.65689
1.66178
1.65689
1.65689
1.65689
1.67155
1.65689
1.67155
1.66178
1.66667
1.66667
1.67644
1.66667
1.66178
1.66667
1.66667
1.66667
1.69599
1.66667
1.66178
1.66667
1.66178
1.66178
1.66178
1.67155
1.66178
1.66178
1.66178
1.66178
1.65689
1.65689
1.67155
1.65689
1.65200
1.65689
1.65200
1.65200
1.65200
1.65200
1.65200
1.64712
1.65200
1.65200
1.65200
1.65200
1.67644
1.65200
1.67155
1.65200
1.65689
1.65200
1.65689
1.66667
1.66178
1.66178
1.66178
1.66178
1.65689
1.66178
1.65689
1.65689
1.68622
1.66178
1.66178
1.65689
1.65689
1.65689
1.65689
1.68133
1.65200
1.65200
1.65200
1.65200
1.65200
1.67644
1.65200
1.66178
1.65200
1.65689
1.65689
1.65689
1.65689
1.66178
1.66178
1.66178
1.66178
1.66178
1.66178
1.66178
1.68622
1.66178
1.66178
1.66178
1.65689
1.65689
1.66178
1.69110
1.66178
1.66178
1.67644
1.65689
1.65689
1.65689
1.65689
1.65689
1.65200
1.65689
1.65200
1.65689
1.65200
1.65200
1.65200
1.65200
1.65200
1.65200
1.65200
1.65689
1.65200
1.65200
1.65200
1.65200
1.65689
1.65200
1.68622
1.65689
1.66178
1.65689
1.68622
1.65689
1.66178
1.65689
1.65689
1.65200
1.65200
1.66178
1.65689
1.66178
1.65689
1.65689
1.65200
1.65689
1.65689
1.65689
1.65689
1.65689
1.65689
1.65689
1.67644
1.65689
1.68622
1.65689
1.66178
1.66178
1.66178
1.66178
1.66178
1.66178
1.66178
1.66178
1.65689
1.66178
1.65689
1.66178
1.66178
1.66178
1.65689
1.66667
1.65689
1.66178
1.65689
1.65689
1.67644
1.65689
1.66667
1.65689
1.66178
1.65689
1.66178
1.65689
1.66178
1.65689
1.65689
1.66667
1.65689
1.66178
1.65689
1.66178
1.65689
1.65689
1.65689
1.65689
1.66178
1.65689
1.66178
1.65200
1.66178
1.65689
1.65689
1.65200
1.65200
1.64712
1.65200
1.65200
1.65200
1.65200
1.64712
1.67644
1.65200
1.65689
1.65200
1.65200
1.65689
1.65689
1.65689
1.66178
1.66178
1.66178
1.69110
1.66178
1.66178
1.66178
1.67155
1.66178
1.66178
1.66178
1.65689
1.66667
1.66178
1.66178
1.66667
1.66178
1.66178
1.66178
1.66667
1.66178
1.65689
1.66178
1.65689
1.66178
1.65689
1.66178
1.65689
1.66178
1.65689
1.66178
1.65689
1.66178
1.66178
1.65689
1.67155
1.66178
1.66667
1.66178
1.66667
1.66178
1.66178
1.66178
1.66667
1.66178
1.66178
1.65689
1.65689
1.65689
1.65689
1.68133
1.65689
1.66178
1.65689
1.66178
1.65689
1.65689
1.68133
1.65200
1.65689
1.65200
1.68133
1.65200
1.68133
1.65689
1.66178
1.66178
1.67155
1.66667
1.67155
1.67155
1.67155
1.67155
1.67155
1.70088
1.67155
1.67155
1.67155
1.68622
1.66667
1.67155
1.67155
1.67155
1.67155
1.67155
1.67155
1.67644
1.67155
1.67155
1.66667
1.68133
1.66667
1.66667
1.66178
1.66178
1.66178
1.69110
1.66667
1.69599
1.66667
1.66667
1.66667
1.67644
1.66667
1.67155
1.66667
1.66667
1.69599
1.66667
1.68133
1.66667
1.66667
1.66667
1.66667
1.66667
1.66667
1.68133
1.66667
1.66667
1.66667
1.69599
1.66667
1.66667
1.66667
1.67155
1.66178
1.66178
1.66178
1.66178
1.65689
1.65689
1.65689
1.65689
1.66178
1.65689
1.65689
1.66178
1.66178
1.66667
1.66667
1.66667
1.66667
1.66667
1.66667
1.66667
1.67155
1.66667
1.67644
1.66667
1.67155
1.69599
1.67155
1.67155
1.67644
1.68622
1.66667
1.66667
1.66667
1.66667
1.66178
1.66667
1.66178
1.66178
1.65689
1.65689
1.65689
1.65200
1.65689
1.65200
1.65689
1.65689
1.65689
1.65689
1.66667
1.65689
1.67155
1.65689
1.68622
1.65689
1.66178
1.65200
1.65689
1.65200
1.65200
1.65689
1.65689
1.65689
1.65689
1.65689
1.65689
1.65200
1.68133
1.65200
1.65689
1.64712
1.64712
1.65200
1.64712
1.64712
1.67155
1.65200
1.66178
1.65200
1.65200
1.65689
1.65200
1.65689
1.65689
1.66178
1.65689
1.65689
1.67644
1.65689
1.65689
1.65689
1.66667
1.66178
1.66667
1.65689
1.66178
1.66667
1.66178
1.66178
1.65689
1.66178
1.68622
1.65689
1.67644
1.65689
1.65689
1.65200
1.65689
1.66667
1.65689
1.65689
1.65689
1.65689
1.65689
1.65689
1.65689
1.65689
1.66667
1.65689
1.67155
1.65689
1.65689
1.65689
1.65689
1.65689
1.65200
1.65689
1.65200
1.65689
1.65200
1.65689
1.65200
1.67155
1.65689
1.65689
1.65200
1.65200
1.65200
1.65200
1.65200
1.65200
1.65689
1.65200
1.66178
1.65200
1.65200
1.65200
1.65689
1.67644
1.65689
1.66178
1.66178
1.66178
1.66178
1.65689
1.66178
1.68622
1.66178
1.66178
1.66178
1.66178
1.66178
1.66667
1.66178
1.66178
1.66178
1.66178
1.66178
1.65689
1.66178
1.65689
1.67155
1.65689
1.65689
1.65200
1.65200
1.68133
1.65689
1.68622
1.65689
1.66667
1.65689
1.65200
1.65689
1.66178
1.65689
1.65689
1.65689
1.65689
1.65689
1.65689
1.66667
1.65689
1.65689
1.65689
1.65689
1.68622
1.65689
1.65689
1.65200
1.65200
1.65689
1.65200
1.65200
1.65200
1.67644
1.65200
1.66178
1.64712
1.65689
1.64712
1.65200
1.64712
1.64712
1.64712
1.65200
1.64712
1.65200
1.65200
1.65689
1.66178
1.65689
1.67155
1.65689
1.65689
1.65689
1.68622
1.65689
1.66178
1.65689
1.66178
1.66178
1.65689
1.66667
1.65689
1.65689
1.66178
1.68622
1.65689
1.65689
1.68133
1.66178
1.66178
1.67155
1.65689
1.65689
1.67644
1.65689
1.65689
1.65689
1.66178
1.65689
1.65689
1.65689
1.65689
1.68133
1.66178
1.66667
1.66178
1.66178
1.68133
1.65689
1.66178
1.65689
1.66667
1.65689
1.66178
1.65689
1.65689
1.65689
1.65689
1.69110
1.65689
1.67644
1.65689
1.66178
1.65200
1.65200
1.65689
1.65689
1.65200
1.65200
1.65200
1.65689
1.67155
1.65689
1.65689
1.65689
1.65689
1.65689
1.65689
1.65689
1.65200
1.65689
1.65689
1.68622
1.65689
1.67155
1.65689
1.66667
1.65689
1.66178
1.66178
1.66178
1.66178
1.66667
1.66667
1.69110
1.66178
1.66178
1.69110
1.66178
1.66667
1.66178
1.66178
1.66178
1.66178
1.66178
1.66178
1.66178
1.66178
1.66178
1.65689
1.67155
1.66178
1.66178
1.66178
1.65689
1.66178
1.66178
1.68133
1.65689
1.66178
1.65689
1.65200
1.65689
1.65200
1.66667
1.65689
1.67155
1.65200
1.65689
1.65200
1.65200
1.65200
1.65200
1.65200
1.65200
1.65200
1.64712
1.67644
1.64712
1.65200
1.64712
1.65200
1.64712
1.64223
1.64223
1.64223
1.67155
1.64223
1.65689
1.64223
1.64712
1.64223
1.64712
1.64223
1.64712
1.64712
1.64712
1.64712
1.65200
1.64712
1.64712
1.65200
1.65200
1.65689
1.65200
1.65200
1.65200
1.65200
1.66667
1.65200
1.65689
1.65200
1.65200
1.65200
1.65200
1.65689
1.65689
1.65689
1.65689
1.65689
1.65200
1.65200
1.64712
1.64712
1.64712
1.64712
1.64712
1.64712
1.64223
1.64223
1.67644
1.64712
1.65200
1.64712
1.65200
1.64712
1.65200
1.64223
1.64223
1.64223
1.64223
1.64223
1.64223
1.66178
1.64712
1.64223
1.64223
1.64223
1.67155
1.64223
1.64712
1.64223
1.65689
1.64712
1.64223
1.64223
1.64223
1.65689
1.64223
1.64223
1.64223
1.64223
1.64223
1.64223
1.64223
1.64223
1.64223
1.64223
1.65689
1.64223
1.65689
1.64712
1.65200
1.64712
1.65200
1.64712
1.64712
1.67644
1.64712
1.66178
1.64712
1.65200
1.64712
1.65200
1.64712
1.65200
1.64712
1.65200
1.64712
1.64712
1.64712
1.64712
1.64712
1.64712
1.64223
1.64712
1.64223
1.64223
1.64223
1.63734
1.64223
1.67155
1.64223
1.66667
1.64223
1.64712
1.64223
1.64223
1.66667
1.64223
1.64223
1.64223
1.64712
1.63734
1.64712
1.64223
1.64712
1.64712
1.64223
1.64223
1.64223
1.64223
1.64223
1.63734
1.64223
1.64223
1.64223
1.66667
1.64223
1.67644
1.64712
1.65689
1.64712
1.64223
1.64712
1.64712
1.67155
1.64223
1.66667
1.64223
1.65200
1.64223
1.64712
1.64223
1.65689
1.64712
1.64712
1.65200
1.65200
1.65200
1.65200
1.65689
1.65200
1.65200
1.67155
1.65200
1.65200
1.65689
1.65689
1.65689
1.65689
1.67155
1.65689
1.66178
1.66667
1.65689
1.65200
1.65689
1.65200
1.65200
1.64712
1.65200
1.67644
1.65689
1.65200
1.65200
1.65200
1.65200
1.65689
1.65200
1.67644
1.65200
1.66178
1.65689
1.65689
1.65200
1.65200
1.65689
1.65689
1.65200
1.65200
1.68133
1.65200
1.67155
1.65689
1.68133
1.65200
1.67644
1.65200
1.65200
1.65200
1.65200
1.66178
1.65200
1.65200
1.64712
1.64712
1.64712
1.64712
1.64712
1.64712
1.66667
1.64712
1.65689
1.64712
1.64712
1.64712
1.64712
1.67644
1.65200
1.66178
1.65200
1.65689
1.65200
1.66667
1.65200
1.66667
1.65689
1.66178
1.65689
1.66178
1.65689
1.65689
1.66178
1.65689
1.65689
1.65689
1.66178
1.65200
1.65200
1.65689
1.65200
1.64712
1.64712
1.64712
1.64712
1.64712
1.64712
1.64712
1.64712
1.64712
1.64712
1.64712
1.64712
1.64712
1.65200
1.67155
1.64712
1.65689
1.64712
1.65200
1.65200
1.65200
1.65200
1.65200
1.64712
1.64712
1.67644
1.64712
1.64712
1.64712
1.64712
1.64712
1.64223
1.64223
1.64223
1.64223
1.64223
1.66667
1.63734
1.64223
1.63734
1.64712
1.63734
1.64223
1.63734
1.64223
1.63734
1.64223
1.66667
1.64223
1.65200
1.64712
1.65200
1.64712
1.65200
1.64712
1.64712
1.66667
1.64712
1.66178
1.64712
1.65200
1.64712
1.68133
1.64712
1.65200
1.64712
1.64712
1.65200
1.64712
1.64712
1.67155
1.64712
1.64712
1.64223
1.64712
1.64712
1.64223
1.64712
1.64712
1.64223
1.67155
1.64223
1.64223
1.64223
1.65200
1.64712
1.64223
1.64223
1.64223
1.66178
1.64712
1.65689
1.64712
1.65200
1.64223
1.64223
1.64223
1.64223
1.64223
1.64223
1.64223
1.64223
1.64223
1.64223
1.64223
1.64223
1.64223
1.64223
1.64223
1.64223
1.63734
1.64712
1.63734
1.64223
1.63734
1.64223
1.63734
1.64223
1.64223
1.64223
1.64223
1.64223
1.65689
1.64712
1.65200
1.64712
1.65200
1.64712
1.64712
1.64712
1.64712
1.64712
1.67644
1.64712
1.64712
1.64712
1.66178
1.67644
1.64712
1.65200
1.64712
1.64712
1.64223
1.64223
1.64223
1.64712
1.64223
1.64223
1.65689
1.64223
1.65200
1.64712
1.64712
1.64712
1.65689
1.65200
1.65200
1.64712
1.64712
1.65200
1.67644
1.64712
1.64712
1.64712
1.65200
1.64712
1.64712
1.64712
1.64712
1.64712
1.65200
1.64712
1.65200
1.64712
1.65200
1.64712
1.64712
1.64712
1.64223
1.64223
1.64223
1.66178
1.64223
1.64712
1.64223
1.64223
1.64712
1.64712
1.64712
1.64712
1.64712
1.64712
1.65200
1.65200
1.67644
1.65689
1.66178
1.65200
1.65200
1.65200
1.68133
1.65200
1.65200
1.65689
1.65200
1.65200
1.65200
1.65689
1.65200
1.65200
1.65200
1.65689
1.64712
1.64712
1.64712
1.64712
1.66667
1.64712
1.66178
1.64712
1.65200
1.64712
1.65200
1.64712
1.65200
1.65200
1.65200
1.65200
1.64712
1.68133
1.65200
1.66178
1.65200
1.65689
1.65200
1.65200
1.65200
1.65200
1.64712
1.64712
1.66178
1.64712
1.65200
1.64712
1.64712
1.65200
1.65200
1.65200
1.64712
1.66178
1.65200
1.64712
1.64712
1.64712
1.64712
1.64712
1.65689
1.64712
1.65200
1.65200
1.65689
1.65200
1.65689
1.65689
1.66178
1.66178
1.66178
1.66178
1.66178
1.66178
1.66178
1.66667
1.66178
1.66178
1.66667
1.66178
1.66178
1.66667
1.66178
1.66178
1.66667
1.67644
1.66178
1.66667
1.66178
1.66178
1.66667
1.66178
1.66178
1.66178
1.66667
1.66178
1.66178
1.66178
1.66178
1.66178
1.66178
1.67155
1.66178
1.66178
1.66178
1.66178
1.66178
1.66178
1.66178
1.66178
1.66178
1.66178
1.66178
1.66178
1.67155
1.66178
1.65689
1.66178
1.66178
1.66178
1.66178
1.65689
1.68622
1.66178
1.66667
1.66178
1.66178
1.65689
1.65689
1.68133
1.65200
1.65689
1.65200
1.65200
1.65200
1.65689
1.66667
1.65689
1.68622
1.65689
1.67155
1.66667
1.66178
1.66667
1.66667
1.66667
1.66178
1.66178
1.68622
1.66178
1.66178
1.66667
1.66178
1.66178
1.66178
1.66178
1.66178
1.66178
1.65689
1.65689
1.66178
1.65689
1.65689
1.65200
1.65200
1.66178
1.65200
1.65689
1.65200
1.65200
1.65200
1.65200
1.66178
1.65200
1.65689
1.65689
1.65200
1.65689
1.65689
1.68622
1.65200
1.65689
1.65200
1.65200
1.65200
1.65200
1.65200
1.64712
1.67644
1.65200
1.64712
1.64712
1.64712
1.65200
1.64712
1.64712
1.64712
1.65200
1.64712
1.64712
1.64712
1.64712
1.64712
1.64712
1.66667
1.64712
1.65200
1.65200
1.65200
1.65689
1.65689
1.68622
1.65689
1.66667
1.65689
1.66667
1.66178
1.66178
1.66178
1.68622
1.65689
1.65689
1.66667
1.65689
1.65689
1.65689
1.68133
1.65689
1.65689
1.65689
1.67155
1.65689
1.65200
1.64712
1.65200
1.68133
1.65200
1.65200
1.65200
1.65200
1.65200
1.65200
1.65200
1.65689
1.65200
1.65200
1.65200
1.65200
1.68133
1.65200
1.68622
1.65689
1.67644
1.65689
1.66178
1.65689
1.65200
1.67155
1.64712
1.67644
1.64712
1.64712
1.65200
1.65200
1.64712
1.65689
1.64712
1.65689
1.64712
1.64712
1.64712
1.64712
1.64712
1.64712
1.64712
1.64712
1.65689
1.64712
1.65200
1.65200
1.65200
1.65689
1.65689
1.68622
1.65689
1.65689
1.65689
1.65689
1.65689
1.65689
1.66178
1.65689
1.65689
1.65689
1.67155
1.65689
1.65689
1.66178
1.68622
1.65689
1.65689
1.65689
1.65689
1.66667
1.65200
1.66667
1.65200
1.65689
1.65200
1.65689
1.65689
1.65689
1.68133
1.65689
1.65689
1.65689
1.65200
1.65200
1.65200
1.65200
1.65200
1.68133
1.65200
1.65689
1.65689
1.67155
1.65689
1.65689
1.65200
1.65200
1.64712
1.64712
1.64712
1.64712
1.64712
1.64712
1.65200
1.64712
1.64712
1.65200
1.64712
1.64712
1.64712
1.64712
1.64712
1.64712
1.64712
1.65689
1.64712
1.65200
1.65200
1.65200
1.65200
1.65200
1.65689
1.65689
1.66667
1.65689
1.67155
1.66178
1.66178
1.66178
1.66667
1.66178
1.65689
1.65689
1.66178
1.67644
1.65689
1.65689
1.66178
1.65689
1.65689
1.65689
1.66667
1.66178
1.65200
1.65689
1.65200
1.65200
1.67644
1.65200
1.65689
1.65689
1.65689
1.65689
1.66178
1.65689
1.66178
1.65689
1.66178
1.66178
1.66178
1.65689
1.65689
1.65689
1.66178
1.67644
1.65689
1.65200
1.65200
1.65200
1.65689
1.65200
1.65200
1.68133
1.65689
1.65689
1.65689
1.66667
1.65689
1.65689
1.65689
1.65689
1.65689
1.65689
1.65689
1.65689
1.68133
1.65689
1.66667
1.65689
1.65689
1.65689
1.66178
1.65200
1.68133
1.65200
1.65200
1.64712
1.64712
1.65200
1.65200
1.66178
1.65689
1.66178
1.65689
1.65689
1.68622
1.66178
1.66178
1.65689
1.66178
1.66667
1.66178
1.66178
1.67644
1.66178
1.66178
1.68133
1.66178
1.66178
1.69110
1.66178
1.66178
1.66178
1.66667
1.65689
1.65689
1.66178
1.65689
1.66178
1.65689
1.65689
1.65689
1.65200
1.65200
1.65200
1.65689
1.65689
1.65689
1.65689
1.68133
1.65200
1.65689
1.65689
1.65689
1.65689
1.65200
1.65200
1.65200
1.65200
1.65200
1.65200
1.65200
1.67155
1.65200
1.65200
1.65200
1.65200
1.64712
1.64712
1.65689
1.65200
1.65200
1.64712
1.64712
1.64712
1.64712
1.64223
1.64223
1.64223
1.64712
1.64712
1.64712
1.65200
1.65200
1.65200
1.65200
1.65689
1.68133
1.65689
1.66178
1.66178
1.66178
1.65689
1.66178
1.68133
1.66178
1.66178
1.65689
1.66178
1.65689
1.66178
1.66178
1.67155
1.66178
1.65689
1.66178
1.65689
1.65689
1.65200
1.65200
1.65689
1.64712
1.64712
1.64712
1.65689
1.65200
1.65200
1.64712
1.64712
1.67644
1.65200
1.65689
1.65200
1.65200
1.66178
1.65200
1.65689
1.65689
1.65200
1.65200
1.65200
1.65200
1.65200
1.66178
1.65200
1.66667
1.65200
1.65200
1.65200
1.64712
1.65200
1.65200
1.67644
1.65689
1.67155
1.65200
1.65689
1.64712
1.64712
1.64712
1.64712
1.66667
1.64712
1.66667
1.65200
1.66667
1.65200
1.67155
1.65200
1.66178
1.65689
1.66178
1.65689
1.65689
1.65689
1.65689
1.66178
1.65689
1.66667
1.65689
1.65689
1.66178
1.65689
1.65689
1.65689
1.65689
1.65689
1.65689
1.65689
1.65200
1.68622
1.65689
1.65689
1.65689
1.65689
1.65689
1.68622
1.66178
1.66178
1.66178
1.66178
1.66667
1.66178
1.66178
1.65689
1.66178
1.68133
1.66178
1.66178
1.66667
1.66178
1.66178
1.66178
1.68133
1.66178
1.65689
1.65689
1.67155
1.65689
1.65689
1.65689
1.66178
1.66667
1.65689
1.67644
1.66178
1.68622
1.66178
1.67155
1.67155
1.67155
1.67644
1.68133
1.67644
1.67644
1.67644
1.68622
1.67644
1.67644
1.67644
1.69110
1.67644
1.68133
1.70577
1.68622
1.68622
1.71554
1.69599
1.69599
1.70577
1.69599
1.69599
1.70088
1.70088
1.70088
1.70088
1.72532
1.70088
1.69599
1.70088
1.70577
1.69599
1.69599
1.71065
1.69110
1.69110
1.71554
1.68622
1.68622
1.69110
1.70088
1.68622
1.68622
1.68622
1.68622
1.68622
1.68622
1.68622
1.68622
1.69599
1.68622
1.69110
1.68622
1.68622
1.69599
1.68622
1.68622
1.68133
1.68622
1.68622
1.68133
1.68622
1.68133
1.71065
1.68622
1.71554
1.68622
1.68622
1.68622
1.68622
1.69599
1.69110
1.69110
1.69110
1.69110
1.69110
1.70577
1.68622
1.70088
1.68622
1.69110
1.68622
1.69110
1.69599
1.69599
1.69110
1.72043
1.69599
1.69599
1.71065
1.69599
1.69599
1.70088
1.70088
1.70088
1.70088
1.71065
1.70088
1.70088
1.70088
1.70088
1.69599
1.69599
1.70088
1.71554
1.70088
1.70088
1.70577
1.70577
1.70577
1.71065
1.73509
1.71554
1.71554
1.71554
1.71554
1.71554
1.72532
1.71554
1.71554
1.71554
1.73509
1.71065
1.71065
1.73998
1.71065
1.70577
1.71065
1.73021
1.70088
1.70577
1.70088
1.70088
1.71554
1.70088
1.71065
1.70577
1.70577
1.70577
1.70088
1.70088
1.70088
1.69599
1.69110
1.72043
1.69110
1.69110
1.68622
1.68622
1.68622
1.68622
1.68133
1.68133
1.67644
1.68133
1.70088
1.67644
1.70088
1.68133
1.68622
1.68622
1.69110
1.69110
1.69599
1.69110
1.69599
1.70577
1.70088
1.70577
1.70088
1.70088
1.70577
1.70577
1.71554
1.72043
1.72532
1.73021
1.73509
1.73998
1.73509
1.73509
1.73509
1.73021
1.73998
1.72532
1.72532
1.73021
1.73021
1.73021
1.73509
1.75953
1.73509
1.73998
1.73998
1.74487
1.74487
1.74487
1.75464
1.74976
1.74976
1.76442
1.74487
1.74487
1.76931
1.73998
1.73998
1.76442
1.73998
1.74487
1.76442
1.74487
1.74487
1.75953
1.74976
1.74976
1.75953
1.75464
1.76442
1.76931
1.77419
1.78397
1.79374
1.80352
1.80841
1.82307
1.82307
1.82796
1.84751
1.84262
1.84751
1.87195
1.85239
1.85239
1.87683
1.85728
1.86706
1.86706
1.87683
1.90616
1.89150
1.90127
1.93548
1.93060
1.94037
1.97458
1.96970
1.98436
2.02835
2.00880
2.01857
2.02835
2.03324
2.04301
2.04790
2.05279
2.05767
2.09189
2.06745
2.07234
2.07234
2.07234
2.07234
2.07234
2.08211
2.07234
2.07722
2.09677
2.08700
2.09677
2.11144
2.12610
2.14076
2.15543
2.17009
2.21408
2.20430
2.22874
2.25806
2.32160
2.33627
2.38025
2.42913
2.47312
2.51222
2.54643
2.57576
2.59531
2.60508
2.60997
2.60508
2.60020
2.59042
2.57576
2.56109
2.54154
2.53666
2.50733
2.49267
2.47801
2.45846
2.44868
2.42913
2.42424
2.40469
2.39003
2.37537
2.36070
2.35093
2.33138
2.31672
2.30694
2.28739
2.27273
2.25806
2.24340
2.22874
2.21408
2.19453
2.17986
2.16031
2.14565
2.13099
2.11632
2.10166
2.08700
2.07722
2.06745
2.05767
2.04301
2.03812
2.02835
2.01857
2.01369
2.00391
1.99413
1.97947
1.96970
1.95992
1.94526
1.93060
1.91105
1.92082
1.91593
1.87683
1.86706
1.86217
1.85728
1.85728
1.85239
1.84751
1.84262
1.84262
1.85239
1.84751
1.82796
1.82307
1.81818
1.80841
1.80841
1.80352
1.79863
1.79863
1.79374
1.79374
1.78886
1.78886
1.78397
1.78397
1.77908
1.77908
1.77419
1.76931
1.78397
1.76442
1.76931
1.75953
1.75464
1.76442
1.77419
1.76931
1.75464
1.74487
1.73998
1.73998
1.73509
1.73509
1.73509
1.73021
1.73021
1.73021
1.74487
1.74976
1.72532
1.73509
1.73021
1.72532
1.72532
1.72532
1.72532
1.72532
1.72532
1.72532
1.72043
1.74976
1.73021
1.72532
1.72043
1.72043
1.71554
1.71065
1.70577
1.70577
1.70577
1.70088
1.70088
1.69599
1.69599
1.69110
1.69110
1.69110
1.69110
1.69110
1.69110
1.69110
1.69110
1.69110
1.69110
1.69110
1.69110
1.68622
1.68622
1.68622
1.68622
1.70577
1.69599
1.68622
1.68133
1.68133
1.68133
1.67644
1.67644
1.68133
1.68133
1.70088
1.69599
1.68622
1.69110
1.70088
1.67644
1.67644
1.69110
1.67155
1.70088
1.70088
1.67155
1.66667
1.66667
1.66667
1.66667
1.66667
1.66178
1.66178
1.66178
1.66667
1.66667
1.66667
1.66667
1.66667
1.66667
1.66667
1.66667
1.67155
1.67155
1.67155
1.67644
1.69599
1.67644
1.67644
1.67644
1.68133
1.68133
1.68133
1.67644
1.67644
1.67644
1.67644
1.67644
1.67155
1.69110
1.67155
1.67155
1.68622
1.67644
1.70577
1.67644
1.67644
1.68133
1.67644
1.67644
1.68133
1.67155
1.67155
1.67155
1.67155
1.67155
1.67155
1.67155
1.67155
1.67155
1.66667
1.67155
1.66667
1.67155
1.66667
1.67644
1.66667
1.66667
1.66667
1.66667
1.68622
1.66667
1.67155
1.66667
1.68622
1.66667
1.67155
1.66667
1.67155
1.66667
1.66667
1.66667
1.66178
1.66178
1.66178
1.66178
1.65689
1.67155
1.66178
1.68133
1.66178
1.66667
1.66178
1.66178
1.66178
1.68622
1.66667
1.67155
1.66667
1.67155
1.66667
1.67155
1.67155
1.67155
1.67644
1.67155
1.67644
1.67644
1.67644
1.67644
1.68133
1.68133
1.67644
1.68622
1.68622
1.67644
1.67644
1.67644
1.67155
1.67644
1.67155
1.67644
1.67155
1.68133
1.67155
1.68133
1.67155
1.68133
1.66667
1.67155
1.66667
1.66667
1.66667
1.66667
1.67644
1.66667
1.66667
1.66667
1.66667
1.66667
1.66667
1.66667
1.67155
1.66667
1.66667
1.66667
1.66667
1.67155
1.66667
1.66667
1.66667
1.66667
1.66667
1.66667
1.66667
1.66667
1.66667
1.66667
1.66667
1.66178
1.66178
1.66178
1.66178
1.66178
1.65689
1.66667
1.65689
1.66178
1.65689
1.65689
1.65689
1.65689
1.65689
1.65689
1.67155
1.66178
1.67155
1.66178
1.66667
1.65689
1.67155
1.66178
1.67644
1.66667
1.67155
1.67155
1.67644
1.68622
1.68133
1.67644
1.67155
1.67644
1.67155
1.70577
1.67644
1.67155
1.67644
1.67155
1.67155
1.67155
1.69599
1.67155
1.67155
1.67155
1.67644
1.67155
1.67155
1.67155
1.67155
1.70088
1.67155
1.66667
1.67155
1.66667
1.67155
1.66667
1.66667
1.66667
1.66667
1.70088
1.66667
1.67644
1.66667
1.66667
1.66667
1.66667
1.66667
1.66667
1.66667
1.66667
1.66178
1.66178
1.66178
1.65689
1.66178
1.68622
1.65689
1.66667
1.65689
1.65689
1.65689
1.65689
1.66178
1.65689
1.66178
1.65689
1.66178
1.65689
1.66178
1.65689
1.65689
1.65689
1.65200
1.65689
1.65689
1.65689
1.65200
1.65689
1.65689
1.65689
1.65689
1.66667
1.66178
1.66178
1.65689
1.65689
1.66667
1.66178
1.66667
1.66178
1.66667
1.66667
1.66667
1.66667
1.67644
1.67155
1.67155
1.66667
1.67644
1.66667
1.66667
1.66667
1.67644
1.66667
1.66667
1.66667
1.69110
1.66667
1.66667
1.69110
1.66667
1.66667
1.69110
1.66667
1.66667
1.66178
1.66178
1.66178
1.66178
1.66667
1.66178
1.66667
1.66178
1.66178
1.66178
1.66178
1.66667
1.66178
1.66178
1.66178
1.65689
1.68622
1.66178
1.66667
1.66178
1.66178
1.66178
1.66667
1.65689
1.66178
1.65689
1.65689
1.65689
1.65689
1.65689
1.65689
1.65200
1.65689
1.65689
1.67155
1.65200
1.66667
1.65200
1.65689
1.65689
1.66667
1.65689
1.65689
1.65200
1.65200
1.67155
1.65689
1.66178
1.65689
1.66178
1.66178
1.66178
1.66178
1.66178
1.66667
1.66667
1.67155
1.66667
1.67155
1.69599
1.67155
1.66667
1.67155
1.68622
1.66667
1.67155
1.66667
1.66667
1.66667
1.67155
1.66667
1.67155
1.67155
1.67155
1.67155
1.66667
1.68133
1.66667
1.66667
1.66667
1.68133
1.66667
1.66667
1.66667
1.67155
1.66667
1.67155
1.66667
1.66667
1.66667
1.66667
1.66667
1.66178
1.66667
1.66178
1.66667
1.66667
1.66667
1.66178
1.66667
1.66178
1.66667
1.67644
1.66178
1.68133
1.66178
1.66667
1.66178
1.66178
1.66178
1.66178
1.66178
1.66178
1.66667
1.66178
1.66178
1.66178
1.66178
1.68622
1.66178
1.66667
1.66178
1.66178
1.67155
1.66667
1.67155
1.67155
1.67155
1.67644
1.67155
1.69110
1.67644
1.67644
1.68133
1.67644
1.67644
1.67155
1.70577
1.67644
1.67644
1.67644
1.70088
1.67155
1.67644
1.67644
1.70088
1.67155
1.67155
1.67644
1.67155
1.67155
1.70088
1.67155
1.67155
1.67155
1.67155
1.70088
1.67155
1.67155
1.67155
1.67155
1.67155
1.67155
1.67155
1.66667
1.70088
1.67155
1.67644
1.66667
1.67155
1.66667
1.66667
1.66667
1.66667
1.66667
1.66667
1.67644
1.66667
1.69110
1.66667
1.68133
1.66667
1.69599
1.66178
1.68133
1.66178
1.67155
1.66178
1.66178
1.66178
1.66178
1.66178
1.66178
1.66667
1.66178
1.66178
1.66667
1.68622
1.66667
1.67155
1.67155
1.67644
1.67644
1.67644
1.68133
1.68133
1.68133
1.68133
1.68133
1.68622
1.68133
1.68133
1.69599
1.68133
1.68133
1.68133
1.70088
1.68133
1.68133
1.69110
1.68133
1.68133
1.69110
1.68133
1.68133
1.68622
1.68133
1.68133
1.68133
1.69599
1.67644
1.67644
1.68133
1.67644
1.68133
1.70088
1.67644
1.68133
1.67644
1.67644
1.67644
1.67644
1.70577
1.67644
1.70577
1.67155
1.67644
1.67155
1.67644
1.67155
1.67155
1.67155
1.67155
1.67155
1.67155
1.66667
1.66667
1.66667
1.66667
1.66667
1.66178
1.68133
1.66178
1.66667
1.66667
1.66667
1.66667
1.66667
1.67155
1.66178
1.66667
1.66178
1.66667
1.66178
1.66178
1.66178
1.66667
1.66667
1.66667
1.66667
1.67155
1.69599
1.67644
1.68133
1.67644
1.68133
1.67644
1.68133
1.68133
1.71065
1.67644
1.67644
1.68133
1.67644
1.67644
1.67644
1.70088
1.67644
1.67644
1.67644
1.70577
1.67644
1.67644
1.68133
1.67155
1.69599
1.67155
1.67155
1.67155
1.67155
1.67155
1.67155
1.66667
1.67155
1.66667
1.66667
1.69599
1.66667
1.68133
1.66667
1.66667
1.66667
1.66667
1.66178
1.66178
1.66178
1.66178
1.66178
1.66178
1.66178
1.66178
1.66178
1.65689
1.66178
1.65689
1.65689
1.67155
1.65200
1.65200
1.65200
1.68622
1.65200
1.67155
1.65689
1.66667
1.65200
1.65200
1.65200
1.65200
1.65200
1.65200
1.66667
1.65689
1.66178
1.66178
1.66178
1.66667
1.66667
1.67155
1.67155
1.67155
1.67155
1.67155
1.66667
1.66667
1.66667
1.69599
1.66667
1.66667
1.66667
1.66667
1.69599
1.66667
1.66667
1.67155
1.66667
1.66667
1.67155
1.68133
1.66667
1.66667
1.66667
1.66667
1.67155
1.66178
1.66178
1.66178
1.66178
1.66667
1.66667
1.67155
1.66667
1.66667
1.66667
1.66667
1.67155
1.66667
1.66667
1.66667
1.66667
1.66178
1.66667
1.66178
1.66178
1.66667
1.66178
1.66178
1.66178
1.66178
1.68622
1.65689
1.66178
1.65689
1.66667
1.66178
1.66178
1.66178
1.65689
1.66667
1.66178
1.66178
1.66667
1.66667
1.68622
1.66667
1.67644
1.67155
1.70577
1.67644
1.67644
1.68133
1.67644
1.67644
1.67644
1.68622
1.67644
1.67644
1.68622
1.67644
1.67644
1.68133
1.67644
1.67644
1.68133
1.70577
1.67644
1.68133
1.68133
1.67644
1.67644
1.67644
1.70088
1.67644
1.67644
1.67644
1.67155
1.67155
1.67155
1.66667
1.68622
1.67155
1.67155
1.67155
1.66667
1.67155
1.67155
1.67155
1.67155
1.66667
1.66667
1.66667
1.66667
1.66178
1.66178
1.66178
1.66178
1.66667
1.66667
1.66178
1.66178
1.66178
1.68622
1.66178
1.68133
1.65689
1.66178
1.65689
1.66178
1.65689
1.66178
1.65689
1.66178
1.67155
1.66178
1.68133
1.66178
1.68133
1.66667
1.67155
1.66667
1.67155
1.67155
1.67644
1.67644
1.67644
1.68133
1.68622
1.67644
1.68133
1.68133
1.68622
1.68622
1.68133
1.68133
1.68133
1.67644
1.68133
1.68133
1.67644
1.67644
1.68133
1.67644
1.67644
1.68133
1.68133
1.67644
1.67644
1.67644
1.67155
1.67155
1.67155
1.67155
1.68133
1.67155
1.67644
1.67155
1.67155
1.70088
1.67155
1.67644
1.67155
1.67644
1.66667
1.66667
1.69599
1.66667
1.67644
1.66667
1.67644
1.66667
1.66667
1.66178
1.69110
1.66178
1.67644
1.66178
1.66667
1.65689
1.67155
1.65689
1.66178
1.66178
1.66178
1.65689
1.65689
1.65689
1.65689
1.66667
1.65689
1.65689
1.65689
1.65689
1.65689
1.65689
1.65689
1.65689
1.65689
1.65689
1.66178
1.65689
1.65689
1.66667
1.65689
1.67155
1.66178
1.67644
1.66667
1.66667
1.66667
1.68622
1.67155
1.67155
1.68622
1.67155
1.67155
1.67644
1.67155
1.67155
1.67644
1.67155
1.67155
1.67155
1.67155
1.67155
1.66667
1.67155
1.70088
1.67155
1.66667
1.66667
1.66667
1.66667
1.66667
1.66178
1.66667
1.69110
1.66178
1.66178
1.66667
1.66667
1.69599
1.66667
1.68622
1.66178
1.66667
1.66178
1.66178
1.67155
1.66178
1.67155
1.66178
1.66178
1.65689
1.66178
1.65689
1.66178
1.65689
1.65200
1.65689
1.65689
1.67644
1.65200
1.65689
1.65200
1.65200
1.65200
1.64712
1.67155
1.65200
1.65200
1.65200
1.65200
1.65200
1.65200
1.65200
1.64712
1.65200
1.65200
1.64712
1.65200
1.65200
1.67644
1.65689
1.65689
1.65689
1.66178
1.66178
1.66178
1.68622
1.66667
1.66667
1.66667
1.67155
1.69599
1.66667
1.67155
1.67644
1.66667
1.66667
1.67155
1.67644
1.66667
1.66667
1.68622
1.66667
1.66667
1.66667
1.68622
1.66667
1.66667
1.66667
1.67155
1.66178
1.67155
1.66178
1.67644
1.66178
1.66667
1.66178
1.66667
1.66667
1.67155
1.66178
1.66667
1.66178
1.66178
1.66178
1.66178
1.66667
1.66178
1.66178
1.66178
1.66178
1.66178
1.66667
1.65689
1.66178
1.65689
1.66667
1.65689
1.66178
1.65689
1.65689
1.66178
1.65689
1.68622
1.65689
1.66667
1.65689
1.65689
1.65689
1.65689
1.65689
1.66178
1.65689
1.66667
1.65689
1.66178
1.65689
1.68133
1.66178
1.66667
1.66667
1.67155
1.67155
1.67155
1.67644
1.67644
1.67644
1.67644
1.67644
1.70577
1.67644
1.67644
1.69110
1.67644
1.67644
1.67644
1.67155
1.67155
1.67644
1.67155
1.66667
1.67644
1.67155
1.67155
1.66667
1.67155
1.66667
1.68133
1.66667
1.66178
1.68622
1.66667
1.67155
1.66667
1.66667
1.66178
1.66667
1.66178
1.66178
1.66178
1.66178
1.68622
1.66178
1.69110
1.66178
1.66667
1.65689
1.65689
1.65689
1.65689
1.67644
1.65689
1.66178
1.65689
1.66667
1.65689
1.66178
1.65689
1.65200
1.68133
1.65200
1.67155
1.65200
1.65689
1.65200
1.65200
1.65200
1.65200
1.65200
1.65200
1.65200
1.65200
1.65689
1.65200
1.65200
1.65200
1.65200
1.65689
1.66178
1.66178
1.66178
1.66667
1.66667
1.66667
1.67155
1.68133
1.66667
1.67155
1.67155
1.66667
1.67155
1.67155
1.67155
1.66667
1.66667
1.69599
1.66667
1.66667
1.66667
1.67155
1.66667
1.66667
1.66667
1.66667
1.66667
1.66178
1.66178
1.66178
1.68622
1.66178
1.68622
1.66178
1.69110
1.66178
1.67155
1.66178
1.66178
1.66178
1.66178
1.66178
1.65689
1.68622
1.66178
1.66178
1.65689
1.65689
1.65689
1.65689
1.65689
1.66667
1.65689
1.65200
1.65200
1.65689
1.66667
1.65200
1.66178
1.65200
1.68133
1.64712
1.65200
1.64712
1.65200
1.64712
1.64712
1.64712
1.64712
1.64712
1.64712
1.64223
1.64223
1.64223
1.64223
1.64223
1.64712
1.65200
1.64712
1.64712
1.64712
1.64712
1.64712
1.65200
1.64712
1.65200
1.65200
1.65689
1.66178
1.65689
1.66178
1.66178
1.66178
1.66178
1.67155
1.66178
1.66178
1.66178
1.66178
1.66178
1.66178
1.66667
1.65689
1.66178
1.68133
1.65689
1.65689
1.66667
1.65689
1.65689
1.65689
1.65689
1.65689
1.65689
1.66178
1.65200
1.65689
1.65200
1.65689
1.65200
1.66178
1.65200
1.65689
1.65200
1.65200
1.65200
1.65200
1.65200
1.65200
1.66178
1.65200
1.66178
1.65200
1.65200
1.64712
1.65200
1.65200
1.65200
1.65200
1.65200
1.64712
1.64712
1.64712
1.64712
1.67644
1.64712
1.64712
1.64712
1.66178
1.64712
1.67155
1.64712
1.65200
1.64712
1.65200
1.64712
1.65200
1.64712
1.65200
1.64712
1.65200
1.65200
1.65200
1.65689
1.65689
1.67644
1.66178
1.66178
1.66178
1.66178
1.67644
1.66178
1.66178
1.66178
1.69110
1.66178
1.66178
1.69110
1.66178
1.65689
1.66667
1.66178
1.65689
1.66178
1.68133
1.66178
1.66178
1.66178
1.66667
1.66178
1.66178
1.66178
1.65689
1.65200
1.68622
1.65200
1.65689
1.65689
1.65200
1.65200
1.65689
1.65689
1.65689
1.65200
1.65689
1.65689
1.67644
1.65200
1.65200
1.65200
1.65200
1.65200
1.65200
1.65200
1.65200
1.67644
1.65200
1.65689
1.65200
1.65200
1.64712
1.64712
1.64712
1.64712
1.64712
1.64712
1.65200
1.64712
1.65200
1.64712
1.65200
1.64712
1.65200
1.64712
1.65200
1.65200
1.65200
1.65200
1.65689
1.65200
1.65200
1.65689
1.65689
1.66667
1.66178
1.66178
1.66178
1.66178
1.66178
1.66178
1.66667
1.68622
1.66178
1.66178
1.66178
1.66178
1.65689
1.65689
1.66178
1.65689
1.65689
1.66178
1.66667
1.65689
1.65689
1.65689
1.65689
1.65200
1.65200
1.65200
1.65200
1.67155
1.65689
1.66667
1.65200
1.65689
1.65200
1.65200
1.68133
1.65689
1.68133
1.65200
1.65200
1.65200
1.65200
1.64712
1.65200
1.65200
1.64712
1.65200
1.64712
1.64712
1.64712
1.64712
1.64712
1.64712
1.64712
1.64712
1.65689
1.64223
1.64223
1.64223
1.64712
1.64223
1.64223
1.64223
1.64223
1.64712
1.64223
1.66178
1.64712
1.65200
1.64712
1.65200
1.65200
1.65200
1.65689
1.65689
1.67155
1.66178
1.66178
1.66178
1.66178
1.68622
1.66178
1.66178
1.69110
1.65689
1.65689
1.66178
1.69110
1.65689
1.65689
1.66178
1.65689
1.65689
1.66178
1.66178
1.65689
1.66178
1.66178
1.66178
1.66667
1.65689
1.65689
1.65200
1.68133
1.65200
1.65689
1.65200
1.65689
1.68622
1.65689
1.66667
1.65689
1.65689
1.65689
1.65200
1.65200
1.65200
1.67155
1.65200
1.67644
1.65200
1.65200
1.65200
1.65200
1.65200
1.65200
1.65200
1.64712
1.64712
1.64712
1.64712
1.64712
1.64712
1.64712
1.64712
1.64712
1.64712
1.67644
1.64223
1.64712
1.64712
1.64223
1.64712
1.65689
1.64223
1.64712
1.64223
1.64223
1.64223
1.64712
1.64712
1.64712
1.65689
1.65200
1.66667
1.65689
1.66178
1.65689
1.66178
1.66178
1.66178
1.66667
1.65689
1.65689
1.67644
1.65689
1.65689
1.66178
1.65689
1.65689
1.66178
1.66178
1.66178
1.65689
1.67155
1.65689
1.65689
1.66178
1.67155
1.65689
1.65689
1.65689
1.65200
1.65689
1.65689
1.68622
1.65689
1.65689
1.65689
1.65689
1.65200
1.65689
1.65200
1.65200
1.65200
1.65200
1.65200
1.65200
1.65200
1.65689
1.65200
1.66667
1.65200
1.65200
1.65200
1.64712
1.65200
1.65200
1.65200
1.64712
1.64712
1.65200
1.64712
1.64712
1.67644
1.64712
1.65689
1.64712
1.64712
1.64712
1.64712
1.66667
1.64712
1.65200
1.65200
1.65689
1.65689
1.66178
1.68622
1.66178
1.66178
1.66667
1.66178
1.66667
1.66667
1.66178
1.66178
1.66178
1.68133
1.66178
1.65689
1.66178
1.66178
1.66178
1.66178
1.66667
1.65689
1.66178
1.66178
1.68622
1.65689
1.65689
1.66667
1.65689
1.68622
1.65689
1.66667
1.65689
1.65689
1.65689
1.65689
1.65689
1.65689
1.66178
1.65689
1.65200
1.65689
1.65689
1.67644
1.65200
1.65689
1.65689
1.65689
1.65200
1.65200
1.65200
1.65200
1.66178
1.64712
1.67644
1.64712
1.65689
1.64712
1.65200
1.65200
1.65200
1.65200
1.65200
1.64712
1.65200
1.65689
1.65200
1.66667
1.65200
1.65689
1.65689
1.66667
1.66178
1.68133
1.66178
1.66667
1.66667
1.68133
1.66667
1.66667
1.69110
1.66667
1.66178
1.67644
1.66178
1.66178
1.66178
1.66178
1.66178
1.66667
1.66178
1.66178
1.66667
1.66178
1.67155
1.66178
1.66178
1.65689
1.65689
1.66667
1.65689
1.66178
1.65689
1.65689
1.65689
1.65689
1.68622
1.65689
1.67155
1.65689
1.65689
1.65689
1.65689
1.65689
1.65689
1.65200
1.65689
1.65689
1.65689
1.65200
1.65689
1.65200
1.65689
1.65200
1.65200
1.64712
1.65200
1.65200
1.65200
1.65689
1.65200
1.65200
1.64712
1.65200
1.65200
1.64712
1.65200
1.65200
1.67155
1.65200
1.65689
1.65200
1.65200
1.65689
1.66178
1.66178
1.66178
1.65689
1.66178
1.66178
1.66178
1.66178
1.67155
1.66667
1.66667
1.66178
1.69110
1.66178
1.66178
1.67155
1.66178
1.66178
1.66178
1.69110
1.66178
1.66178
1.66178
1.66178
1.65689
1.68133
1.65689
1.68622
1.65689
1.66178
1.66178
1.66178
1.67155
1.66178
1.66178
1.66178
1.66178
1.69110
1.65689
1.66667
1.65689
1.66178
1.65689
1.65689
1.65689
1.65689
1.68622
1.65689
1.68622
1.65689
1.66178
1.65200
1.65200
1.65200
1.65200
1.68622
1.65200
1.65200
1.65200
1.65689
1.65200
1.65200
1.65200
1.64712
1.64712
1.64712
1.64712
1.64712
1.64712
1.64712
1.68133
1.65200
1.65200
1.65200
1.66667
1.65200
1.65200
1.65200
1.65689
1.67155
1.66178
1.66667
1.66178
1.66178
1.66178
1.66178
1.68622
1.66178
1.66178
1.66178
1.66667
1.66178
1.66178
1.66178
1.66178
1.65689
1.65689
1.65689
1.66178
1.66178
1.66178
1.66178
1.67155
1.66178
1.65689
1.65689
1.67644
1.65689
1.68622
1.65689
1.65689
1.65689
1.65689
1.68622
1.65689
1.66178
1.65689
1.65689
1.65689
1.65689
1.65689
1.65689
1.65689
1.65689
1.65689
1.65200
1.65200
1.66178
1.65200
1.65689
1.65200
1.65689
1.65200
1.65689
1.65200
1.65200
1.65200
1.65200
1.67644
1.65200
1.65200
1.64712
1.65200
1.64712
1.65200
1.64712
1.65689
1.64712
1.64712
1.64712
1.64712
1.64712
1.65200
1.65200
1.65200
1.66667
1.65689
1.66178
1.66178
1.66178
1.66178
1.66178
1.66667
1.66178
1.66178
1.66178
1.65689
1.65689
1.65689
1.65200
1.67644
1.65689
1.65689
1.66178
1.65689
1.65689
1.65689
1.65689
1.68133
1.65689
1.65689
1.65689
1.66667
1.65200
1.67644
1.65200
1.65689
1.65200
1.65200
1.65200
1.65200
1.66178
1.65200
1.65689
1.65689
1.65200
1.65200
1.65200
1.65689
1.65200
1.65689
1.65200
1.65200
1.65200
1.65200
1.65689
1.64712
1.65200
1.64712
1.64712
1.64712
1.64712
1.66178
1.64712
1.65200
1.64223
1.64712
1.64712
1.64712
1.64712
1.64712
1.65200
1.64712
1.65200
1.64712
1.64712
1.67155
1.64712
1.65689
1.65200
1.65689
1.65689
1.67155
1.65689
1.68133
1.67644
1.66178
1.65689
1.66178
1.66667
1.66178
1.65689
1.66178
1.68133
1.65689
1.65689
1.66178
1.65689
1.65689
1.65689
1.66178
1.65689
1.65689
1.66178
1.68622
1.65689
1.65689
1.65689
1.65689
1.65689
1.66178
1.65689
1.65689
1.65689
1.65689
1.65689
1.65689
1.65689
1.65689
1.65689
1.65689
1.65689
1.65689
1.65689
1.65689
1.65200
1.68622
1.65200
1.66178
1.65200
1.65689
1.65200
1.65200
1.64712
1.64712
1.67644
1.64712
1.64712
1.64712
1.67644
1.65200
1.65200
1.64712
1.65689
1.64712
1.64712
1.65689
1.64712
1.67644
1.64712
1.64712
1.64223
1.64712
1.64712
1.64712
1.64712
1.65200
1.64712
1.65200
1.64712
1.64712
1.64712
1.65200
1.64712
1.64712
1.67644
1.65200
1.66178
1.65689
1.66178
1.65689
1.66667
1.69110
1.66178
1.66178
1.66178
1.66667
1.66178
1.66178
1.69599
1.66178
1.66178
1.66667
1.66178
1.65689
1.66178
1.65689
1.65689
1.66178
1.66178
1.65689
1.65689
1.65689
1.65689
1.65689
1.65689
1.65689
1.65689
1.67644
1.65689
1.66178
1.65689
1.66178
1.65689
1.65689
1.65689
1.65689
1.65689
1.65689
1.67155
1.65689
1.65689
1.65689
1.65689
1.65200
1.66178
1.65200
1.65689
1.65200
1.64712
1.65200
1.64712
1.67644
1.65200
1.66178
1.65200
1.65200
1.64712
1.65689
1.64712
1.66178
1.64712
1.64712
1.64712
1.64712
1.65200
1.65200
1.65200
1.65200
1.67644
1.65200
1.65689
1.64712
1.65200
1.64712
1.65200
1.64712
1.65200
1.65200
1.65200
1.65689
1.65689
1.68622
1.65689
1.67155
1.65689
1.65689
1.65689
1.66178
1.65200
1.65200
1.65200
1.65200
1.65200
1.65689
1.65200
1.65200
1.65200
1.65200
1.68133
1.65200
1.67644
1.65689
1.65689
1.65200
1.65689
1.65200
1.65200
1.67155
1.65200
1.65689
1.64712
1.65200
1.65200
1.65200
1.65689
1.65200
1.65689
1.65200
1.64712
1.65200
1.64712
1.64712
1.64712
1.65689
1.64712
1.65200
1.65200
1.65200
1.66178
1.65200
1.66178
1.65200
1.65200
1.64712
1.64712
1.66667
1.64712
1.65200
1.64712
1.64712
1.66178
1.65200
1.67155
1.65200
1.66178
1.65200
1.65200
1.65200
1.65200
1.65200
1.65200
1.65689
1.65689
1.67644
1.65689
1.68622
1.65689
1.65689
1.66667
1.66667
1.66178
1.66178
1.66667
1.65689
1.65689
1.66178
1.68133
1.65689
1.65689
1.66178
1.65689
1.65689
1.65689
1.65689
1.65689
1.68133
1.65689
1.66667
1.65689
1.65689
1.65689
1.65689
1.65689
1.65689
1.65200
1.65689
1.66667
1.65689
1.67644
1.65689
1.67644
1.65200
1.65689
1.65200
1.65200
1.65200
1.65200
1.65200
1.65200
1.65200
1.65200
1.64712
1.64712
1.65689
1.64712
1.65200
1.64712
1.65689
1.64712
1.64712
1.64712
1.64712
1.64712
1.65200
1.64712
1.66178
1.64712
1.64712
1.64712
1.64712
1.65689
1.65200
1.65689
1.65689
1.65200
1.65200
1.65200
1.65200
1.65200
1.66178
1.65689
1.66178
1.65689
1.66178
1.65689
1.65689
1.66178
1.67644
1.65689
1.65689
1.66178
1.66178
1.66178
1.66178
1.66667
1.65689
1.65689
1.66178
1.68133
1.65689
1.65689
1.65689
1.68133
1.65689
1.65200
1.68133
1.65200
1.66178
1.65200
1.64712
1.65200
1.65200
1.65689
1.65200
1.65200
1.65200
1.65200
1.65200
1.65200
1.65200
1.64712
1.64712
1.65200
1.64712
1.64712
1.65200
1.64712
1.67644
1.64712
1.68133
1.65200
1.65689
1.64712
1.65200
1.64712
1.64712
1.67155
1.64712
1.66667
1.64712
1.65200
1.64223
1.64712
1.64223
1.64223
1.64223
1.64223
1.66178
1.64223
1.64712
1.64223
1.64223
1.64223
1.64223
1.63734
1.64223
1.63734
1.64223
1.64223
1.64223
1.65689
1.64712
1.66178
1.64712
1.65689
1.65200
1.65200
1.65200
1.64712
1.65689
1.64712
1.65200
1.64712
1.64712
1.64712
1.64712
1.65689
1.64712
1.65200
1.64223
1.64712
1.64223
1.64712
1.64712
1.64712
1.64712
1.64712
1.67155
1.64712
1.66178
1.64712
1.65200
1.64712
1.65200
1.67644
1.64712
1.64712
1.64712
1.65200
1.64712
1.67155
1.65200
1.65200
1.65200
1.65200
1.65200
1.65200
1.65200
1.67644
1.65200
1.64712
1.64712
1.64712
1.64712
1.65200
1.64712
1.64712
1.64712
1.64712
1.65200
1.64712
1.65200
1.64712
1.65200
1.65200
1.64712
1.65200
1.64712
1.65200
1.64712
1.65200
1.64712
1.64712
1.65200
1.65200
1.65689
1.65689
1.66178
1.66178
1.68133
1.66178
1.66178
1.66178
1.66178
1.66178
1.66178
1.69110
1.66178
1.66178
1.66178
1.66178
1.66178
1.66178
1.66178
1.66178
1.66667
1.66178
1.66178
1.66178
1.68133
1.65689
1.65689
1.65689
1.65689
1.65689
1.65689
1.65689
1.65689
1.65689
1.67644
1.65689
1.66178
1.66178
1.66178
1.65689
1.65689
1.65689
1.65689
1.66667
1.65689
1.65689
1.65689
1.65200
1.65200
1.65200
1.65200
1.65200
1.68133
1.65200
1.66178
1.65200
1.66667
1.65200
1.65689
1.64712
1.65200
1.64712
1.65200
1.65200
1.64712
1.66178
1.65200
1.65689
1.65200
1.66178
1.65200
1.65200
1.65200
1.65689
1.65689
1.66178
1.66178
1.66178
1.66178
1.66178
1.66667
1.66667
1.66178
1.66178
1.66178
1.66667
1.66178
1.66178
1.66178
1.65689
1.65689
1.66178
1.68133
1.65689
1.65689
1.66178
1.65689
1.66178
1.65689
1.66178
1.65689
1.65689
1.65689
1.65200
1.65200
1.65200
1.68133
1.65200
1.66178
1.65200
1.65689
1.65200
1.64712
1.65200
1.65200
1.64712
1.64712
1.67155
1.64712
1.65689
1.64712
1.65200
1.64712
1.64712
1.64712
1.64712
1.65200
1.64223
1.66178
1.64223
1.65689
1.63734
1.65689
1.64223
1.64223
1.63734
1.63245
1.65200
1.61779
1.61779
1.59335
1.58847
1.57380
1.55914
1.53470
1.51026
1.46628
1.42717
1.38807
1.35386
1.32942
1.30499
1.29521
1.29521
1.29521
1.30010
1.30499
1.32942
1.29032
1.27566
1.26100
1.24633
1.23167
1.21701
1.21212
1.20723
1.19257
1.18768
1.18768
1.18280
1.18768
1.20723
1.22678
1.26100
1.27566
1.31965
1.36852
1.41740
1.46628
1.50049
1.53470
1.55425
1.56891
1.58847
1.59335
1.61290
1.64712
1.71554
1.73021
1.76442
1.79374
1.79863
1.79863
1.78397
1.77419
1.75953
1.74487
1.73509
1.73021
1.71554
1.69599
1.67644
1.65200
1.63734
1.60802
1.59335
1.58358
1.57380
1.56891
1.56403
1.54936
1.52981
1.52493
1.48094
1.45161
1.42229
1.39296
1.36364
1.33920
1.32454
1.31476
1.30499
1.32454
1.29032
1.29032
1.28055
1.27077
1.26100
1.24145
1.23656
1.22678
1.18768
1.17791
1.18280
1.18768
1.19746
1.22190
1.24145
1.24633
1.26588
1.27566
1.28543
1.30010
1.30987
1.31965
1.32942
1.32942
1.33920
1.34409
1.35386
1.35875
1.37341
1.39785
1.38319
1.38807
1.39296
1.40274
1.40762
1.41740
1.42229
1.42717
1.43206
1.45161
1.44184
1.44673
1.47605
1.46628
1.47116
1.48094
1.50538
1.50538
1.51026
1.52004
1.53470
1.53959
1.54936
1.56403
1.56891
1.58847
1.59335
1.62268
1.62268
1.63245
1.64712
1.65689
1.66178
1.66178
1.66178
1.66667
1.66667
1.69599
1.67644
1.68133
1.72532
1.70577
1.72532
1.72532
1.73998
1.74487
1.74976
1.75464
1.75464
1.75464
1.75464
1.77419
1.74976
1.75464
1.75464
1.75464
1.76442
1.76442
1.77419
1.77908
1.78886
1.80352
1.80841
1.81818
1.83773
1.85239
1.87683
1.87683
1.88661
1.90127
1.91105
1.92571
1.94037
1.95015
1.96481
1.98925
1.97947
1.98436
2.01857
1.98925
1.98925
1.99413
1.98436
1.97947
1.98436
1.97458
1.97458
1.97458
1.96481
1.96481
1.96481
1.95503
1.95015
1.95015
1.95015
1.96970
1.94037
1.94526
1.93548
1.95503
1.93060
1.92571
1.92082
1.94526
1.91105
1.91105
1.89638
1.88661
1.87195
1.86217
1.84751
1.83773
1.82796
1.81818
1.83284
1.81818
1.80841
1.80352
1.79374
1.78886
1.77908
1.77419
1.78886
1.75464
1.74487
1.73998
1.73021
1.72532
1.72043
1.71554
1.71065
1.70577
1.69110
1.67644
1.66178
1.65200
1.65200
1.62757
1.58358
1.56891
1.54448
1.50538
1.48583
1.46139
1.43695
1.41740
1.39785
1.37341
1.34897
1.34897
1.31476
1.29521
1.28543
1.28543
1.30010
1.28055
1.30010
1.27566
1.30499
1.32454
1.32454
1.32942
1.35875
1.37341
1.35386
1.36364
1.37341
1.41251
1.41740
1.41740
1.44673
1.45161
1.46628
1.48583
1.49560
1.50538
1.51515
1.52493
1.52981
1.53959
1.54448
1.54936
1.55425
1.55914
1.55914
1.55914
1.55914
1.55914
1.57380
1.56891
1.57869
1.58847
1.60313
1.60802
1.60802
1.61290
1.63245
1.61779
1.60313
1.59824
1.60313
1.60802
1.61779
1.62757
1.63734
1.64223
1.65200
1.65200
1.65200
1.64223
1.63245
1.61779
1.60802
1.59335
1.58358
1.56891
1.55914
1.55914
1.55425
1.55425
1.55425
1.55914
1.56891
1.56891
1.57869
1.58847
1.59824
1.59335
1.60313
1.58847
1.60802
1.61290
1.61779
1.61290
1.59335
1.60313
1.58358
1.58358
1.58847
1.59824
1.60313
1.61290
1.61779
1.62757
1.63245
1.64712
1.63734
1.64712
1.64223
1.65200
1.64712
1.65689
1.65200
1.65200
1.67644
1.65689
1.66178
1.66667
1.67155
1.67155
1.68133
1.68622
1.68133
1.68622
1.69110
1.69110
1.70088
1.71065
1.70088
1.70088
1.70577
1.70577
1.70577
1.70577
1.70577
1.72532
1.70088
1.70088
1.70088
1.70088
1.72532
1.70088
1.70088
1.69599
1.70088
1.69599
1.69110
1.68622
1.68622
1.70088
1.68133
1.68133
1.68133
1.68133
1.67644
1.67644
1.67644
1.67155
1.67155
1.67155
1.66667
1.66667
1.68622
1.66667
1.66667
1.66667
1.67155
1.67644
1.67155
1.67155
1.67644
1.67644
1.67644
1.67644
1.67644
1.68622
1.68133
1.68622
1.69599
1.68622
1.69110
1.69110
1.69599
1.70088
1.70088
1.73021
1.71065
1.71554
1.72043
1.73021
1.72532
1.72532
1.72532
1.73021
1.73998
1.72532
1.72532
1.72532
1.72532
1.73509
1.72532
1.72532
1.72532
1.72532
1.73021
1.72532
1.72532
1.72532
1.73021
1.73509
1.73021
1.73021
1.73021
1.72532
1.72532
1.72532
1.72532
1.73509
1.74976
1.72532
1.72532
1.72532
1.72532
1.74487
1.72043
1.72532
1.72043
1.72532
1.74976
1.72532
1.72532
1.72532
1.72532
1.73021
1.72532
1.72043
1.73021
1.72532
1.73021
1.73509
1.74976
1.75464
1.73509
1.73509
1.73998
1.73998
1.74487
1.76931
1.74976
1.74976
1.74976
1.75953
1.77908
1.75464
1.75464
1.75953
1.75953
1.75953
1.75953
1.75953
1.75953
1.76931
1.77908
1.74976
1.74976
1.74976
1.74487
1.74976
1.74976
1.73509
1.73509
1.73021
1.73021
1.73509
1.72532
1.72532
1.72532
1.72532
1.72532
1.72532
1.72043
1.72043
1.72043
1.72043
1.71554
1.71065
1.71065
1.70577
1.71065
1.70577
1.70088
1.72532
1.70088
1.70577
1.70088
1.70088
1.72043
1.69599
1.70577
1.69110
1.71554
1.68622
1.68622
1.68622
1.68622
1.68622
1.68133
1.68133
1.68133
1.67644
1.68133
1.67644
1.68133
1.67644
1.68133
1.67644
1.67644
1.67644
1.68133
1.69110
1.67644
1.67644
1.67644
1.68133
1.67644
1.67644
1.70577
1.67644
1.68622
1.67644
1.68133
1.68133
1.68133
1.68622
1.68133
1.68133
1.68133
1.68133
1.68622
1.67644
1.67155
1.67155
1.67155
1.69599
1.67155
1.67155
1.67155
1.67155
1.69110
1.67155
1.67155
1.66667
1.66667
1.69110
1.66178
1.66178
1.65689
1.65200
1.68133
1.65200
1.65689
1.65200
1.65200
1.65200
1.65689
1.68133
1.65689
1.66178
1.66178
1.66178
1.68622
1.66667
1.66178
1.66178
1.66178
1.67155
1.66178
1.66178
1.67644
1.66667
1.67155
1.66667
1.66667
1.68133
1.66667
1.67155
1.66667
1.66667
1.67644
1.66667
1.66667
1.69599
1.66667
1.67155
1.66667
1.66667
1.68133
1.67155
1.67155
1.69599
1.67644
1.68133
1.69599
1.69599
1.67644
1.68133
1.68133
1.68133
1.69110
1.68622
1.68622
1.68622
1.69110
1.69110
1.68622
1.68622
1.68622
1.69110
1.71554
1.68622
1.68622
1.68622
1.69599
1.71554
1.69599
1.69599
1.70577
1.73021
1.70088
1.70088
1.70088
1.70577
1.72532
1.70088
1.69599
1.69599
1.69599
1.72043
1.69110
1.69110
1.69110
1.69599
1.69599
1.72043
1.69599
1.69599
1.69599
1.69599
1.69110
1.69110
1.70088
1.69110
1.69110
1.68622
1.68622
1.69110
1.68133
1.68622
1.70088
1.68622
1.68622
1.71554
1.68622
1.69110
1.68622
1.68622
1.68622
1.69110
1.69110
1.69599
1.70577
1.69599
1.70577
1.70088
1.70088
1.70088
1.70577
1.70088
1.70088
1.70577
1.70577
1.72532
1.70577
1.70088
1.70088
1.69599
1.69599
1.70088
1.72043
1.69599
1.70088
1.70088
1.70088
1.70577
1.72532
1.70088
1.70088
1.70088
1.70577
1.70577
1.70577
1.71065
1.71065
1.71065
1.71065
1.71554
1.71065
1.70577
1.70577
1.70577
1.71065
1.71065
1.71065
1.70577
1.70577
1.71065
1.70577
1.70088
1.70088
1.69599
1.71554
1.69599
1.69110
1.68622
1.68133
1.68133
1.67644
1.69599
1.67644
1.67644
1.67155
1.67155
1.68133
1.67644
1.68133
1.67644
1.67644
1.67644
1.67155
1.68622
1.66667
1.66667
1.65689
1.65689
1.65200
1.64712
1.67644
1.64223
1.64712
1.64223
1.66178
1.64223
1.64712
1.65200
1.65200
1.65689
1.66667
1.67644
1.67644
1.68133
1.68622
1.69110
1.70088
1.70577
1.71065
1.71554
1.73021
1.73509
1.74487
1.75464
1.76442
1.77419
1.78886
1.79374
1.80841
1.82796
1.83284
1.84262
1.85728
1.89638
1.87683
1.88661
1.90127
1.90127
1.91593
1.92571
1.94526
1.95503
1.96970
1.99902
1.99413
2.00391
2.01369
2.01857
2.01857
2.01857
2.02835
2.01857
2.01857
2.01369
2.01857
2.00391
1.99902
1.99902
1.99413
1.98925
1.98436
1.98436
1.99902
1.97458
1.96970
1.96481
1.95992
1.95992
1.95503
1.95015
1.94037
1.94037
1.95015
1.92571
1.92571
1.91593
1.91105
1.92082
1.90127
1.91105
1.88661
1.88172
1.88172
1.89638
1.87195
1.87683
1.86217
1.85728
1.85239
1.85728
1.84262
1.83773
1.83773
1.83284
1.82796
1.85239
1.82307
1.81818
1.81329
1.83284
1.79863
1.79374
1.78886
1.78886
1.78397
1.77908
1.78397
1.77908
1.76931
1.76442
1.76442
1.75953
1.75953
1.75953
1.75464
1.76931
1.74487
1.74487
1.74487
1.73998
1.73509
1.73509
1.73509
1.73509
1.72532
1.72532
1.72532
1.72043
1.72532
1.73509
1.72043
1.73509
1.71554
1.71554
1.71554
1.73509
1.71065
1.70577
1.70577
1.70577
1.70577
1.70577
1.70577
1.70577
1.70577
1.70577
1.70577
1.71554
1.70577
1.70577
1.70577
1.71065
1.71065
1.71065
1.71554
1.71065
1.71065
1.71554
1.71554
1.71554
1.71065
1.71554
1.71065
1.71554
1.71065
1.71065
1.70577
1.70577
1.70577
1.70577
1.70577
1.70088
1.70088
1.70577
1.70088
1.70577
1.70088
1.70088
1.70577
1.69599
1.69599
1.72043
1.69599
1.71554
1.69110
1.69110
1.68622
1.69110
1.68622
1.68133
1.68133
1.68622
1.68622
1.68133
1.68622
1.68133
1.68622
1.68622
1.68622
1.71554
1.68622
1.70577
1.68622
1.70088
1.68133
1.68133
1.68133
1.70577
1.68133
1.68622
1.68133
1.68133
1.68622
1.68133
1.68622
1.68133
1.68133
1.68133
1.68133
1.71065
1.68133
1.68133
1.68133
1.68133
1.71554
1.68622
1.71065
1.69110
1.69110
1.69599
1.69599
1.71065
1.69599
1.70577
1.69599
1.70577
1.69599
1.69599
1.69110
1.69110
1.69110
1.68622
1.68622
1.71065
1.68622
1.68622
1.68622
1.68622
1.70577
1.68622
1.68622
1.68133
1.68133
1.68133
1.68133
1.68622
1.68133
1.68133
1.69110
1.67644
1.68133
1.67644
1.67644
1.67644
1.67155
1.70088
1.67155
1.67644
1.67155
1.67155
1.67644
1.67155
1.66667
1.66667
1.68133
1.66667
1.66667
1.66667
1.66667
1.68622
1.66667
1.67155
1.66178
1.66178
1.66178
1.66178
1.67155
1.66178
1.67155
1.66667
1.66667
1.66667
1.66667
1.66667
1.66667
1.68622
1.67155
1.67155
1.67155
1.67155
1.67644
1.67644
1.67644
1.67644
1.67644
1.67155
1.69599
1.67644
1.67644
1.67644
1.67644
1.67644
1.67644
1.68622
1.67155
1.67155
1.66667
1.66178
1.66667
1.66667
1.68133
1.66667
1.66667
1.66667
1.66178
1.67644
1.66178
1.66178
1.68622
1.65689
1.67155
1.66178
1.66667
1.65689
1.66178
1.65689
1.65689
1.67155
1.65200
1.65689
1.65200
1.65689
1.65200
1.65689
1.65689
1.65200
1.65200
1.65200
1.65200
1.65689
1.64712
1.64712
1.67644
1.64712
1.67155
1.64712
1.66178
1.64712
1.64712
1.64712
1.64223
1.64712
1.64712
1.64712
1.65200
1.65689
1.65200
1.65200
1.65689
1.65689
