2022-12-01 16:22:19.877634, 2.08700
2022-12-01 16:22:19.886673, 2.08700
2022-12-01 16:22:19.894649, 2.08700
2022-12-01 16:22:19.906884, 2.07722
2022-12-01 16:22:19.915365, 2.07234
2022-12-01 16:22:19.923661, 2.06256
2022-12-01 16:22:19.935642, 2.05279
2022-12-01 16:22:19.944151, 2.03812
2022-12-01 16:22:19.952698, 2.02346
2022-12-01 16:22:19.960476, 2.00391
2022-12-01 16:22:19.972563, 1.98925
2022-12-01 16:22:19.981475, 1.96970
2022-12-01 16:22:19.989655, 1.95015
2022-12-01 16:22:20.001794, 1.92571
2022-12-01 16:22:20.009428, 1.91593
2022-12-01 16:22:20.017771, 1.87195
2022-12-01 16:22:20.025962, 1.86706
2022-12-01 16:22:20.038005, 1.80841
2022-12-01 16:22:20.046120, 1.78397
2022-12-01 16:22:20.054649, 1.73998
2022-12-01 16:22:20.066928, 1.71554
2022-12-01 16:22:20.074863, 1.69110
2022-12-01 16:22:20.083872, 1.69599
2022-12-01 16:22:20.091696, 1.65689
2022-12-01 16:22:20.103252, 1.64712
2022-12-01 16:22:20.112056, 1.65200
2022-12-01 16:22:20.119910, 1.63734
2022-12-01 16:22:20.132523, 1.62757
2022-12-01 16:22:20.140746, 1.62268
2022-12-01 16:22:20.148250, 1.63245
2022-12-01 16:22:20.156857, 1.60313
2022-12-01 16:22:20.168258, 1.59335
2022-12-01 16:22:20.178083, 1.58358
2022-12-01 16:22:20.185792, 1.56891
2022-12-01 16:22:20.194432, 1.55425
2022-12-01 16:22:20.206758, 1.53959
2022-12-01 16:22:20.213887, 1.52981
2022-12-01 16:22:20.223178, 1.51515
2022-12-01 16:22:20.234745, 1.50538
2022-12-01 16:22:20.243613, 1.50538
2022-12-01 16:22:20.250990, 1.49560
2022-12-01 16:22:20.258907, 1.49071
2022-12-01 16:22:20.271516, 1.49071
2022-12-01 16:22:20.280016, 1.49071
2022-12-01 16:22:20.288197, 1.52004
2022-12-01 16:22:20.300431, 1.49071
2022-12-01 16:22:20.308372, 1.49560
2022-12-01 16:22:20.316869, 1.49560
2022-12-01 16:22:20.324753, 1.51026
2022-12-01 16:22:20.336494, 1.50538
2022-12-01 16:22:20.345455, 1.51026
2022-12-01 16:22:20.353539, 1.51515
2022-12-01 16:22:20.366500, 1.51515
2022-12-01 16:22:20.374679, 1.51515
2022-12-01 16:22:20.382030, 1.52004
2022-12-01 16:22:20.389863, 1.52493
2022-12-01 16:22:20.402055, 1.54448
2022-12-01 16:22:20.410115, 1.52981
2022-12-01 16:22:20.418747, 1.53470
2022-12-01 16:22:20.430938, 1.53959
2022-12-01 16:22:20.440010, 1.53959
2022-12-01 16:22:20.447392, 1.53959
2022-12-01 16:22:20.456117, 1.55425
2022-12-01 16:22:20.468414, 1.54448
2022-12-01 16:22:20.475984, 1.54936
2022-12-01 16:22:20.484746, 1.55425
2022-12-01 16:22:20.496695, 1.57380
2022-12-01 16:22:20.505225, 1.54936
2022-12-01 16:22:20.513359, 1.55425
2022-12-01 16:22:20.521181, 1.55425
2022-12-01 16:22:20.533677, 1.55914
2022-12-01 16:22:20.542619, 1.55914
2022-12-01 16:22:20.551157, 1.56403
2022-12-01 16:22:20.563096, 1.56891
2022-12-01 16:22:20.570537, 1.58847
2022-12-01 16:22:20.579490, 1.57869
2022-12-01 16:22:20.586963, 1.57869
2022-12-01 16:22:20.598366, 1.58358
2022-12-01 16:22:20.608013, 1.60802
2022-12-01 16:22:20.615586, 1.58358
2022-12-01 16:22:20.627754, 1.58358
2022-12-01 16:22:20.636378, 1.58847
2022-12-01 16:22:20.643509, 1.58847
2022-12-01 16:22:20.652031, 1.58847
2022-12-01 16:22:20.664781, 1.61290
2022-12-01 16:22:20.672771, 1.59824
2022-12-01 16:22:20.681226, 1.60313
2022-12-01 16:22:20.693167, 1.60802
2022-12-01 16:22:20.701812, 1.60802
2022-12-01 16:22:20.709998, 1.60802
2022-12-01 16:22:20.718232, 1.60802
2022-12-01 16:22:20.730513, 1.61779
2022-12-01 16:22:20.738537, 1.61779
2022-12-01 16:22:20.746877, 1.61779
2022-12-01 16:22:20.759197, 1.61779
2022-12-01 16:22:20.767311, 1.63734
2022-12-01 16:22:20.775566, 1.61779
2022-12-01 16:22:20.783351, 1.62268
2022-12-01 16:22:20.796060, 1.65200
2022-12-01 16:22:20.803784, 1.62268
2022-12-01 16:22:20.813349, 1.61779
2022-12-01 16:22:20.824712, 1.63245
2022-12-01 16:22:20.832556, 1.61779
2022-12-01 16:22:20.840774, 1.60802
2022-12-01 16:22:20.849095, 1.62268
2022-12-01 16:22:20.861341, 1.60313
2022-12-01 16:22:20.869541, 1.59824
2022-12-01 16:22:20.877676, 1.59824
2022-12-01 16:22:20.890092, 1.62757
2022-12-01 16:22:20.898964, 1.59824
2022-12-01 16:22:20.906682, 1.58847
2022-12-01 16:22:20.915353, 1.61290
2022-12-01 16:22:20.927659, 1.58358
2022-12-01 16:22:20.934499, 1.58358
2022-12-01 16:22:20.944005, 1.58358
2022-12-01 16:22:20.956264, 1.57869
2022-12-01 16:22:20.964691, 1.57869
2022-12-01 16:22:20.972272, 1.57869
2022-12-01 16:22:20.980435, 1.59335
2022-12-01 16:22:20.992670, 1.57869
2022-12-01 16:22:21.000708, 1.57380
2022-12-01 16:22:21.008776, 1.56891
2022-12-01 16:22:21.021075, 1.56403
2022-12-01 16:22:21.030058, 1.55425
2022-12-01 16:22:21.037667, 1.54936
2022-12-01 16:22:21.046459, 1.54448
2022-12-01 16:22:21.057960, 1.54936
2022-12-01 16:22:21.066913, 1.57869
2022-12-01 16:22:21.074304, 1.54448
2022-12-01 16:22:21.082347, 1.54936
2022-12-01 16:22:21.095568, 1.56891
2022-12-01 16:22:21.102864, 1.54936
2022-12-01 16:22:21.111479, 1.55425
2022-12-01 16:22:21.124268, 1.56403
2022-12-01 16:22:21.131910, 1.56403
2022-12-01 16:22:21.140278, 1.57380
2022-12-01 16:22:21.147226, 1.57869
2022-12-01 16:22:21.160682, 1.57869
2022-12-01 16:22:21.168512, 1.57380
2022-12-01 16:22:21.176569, 1.58358
2022-12-01 16:22:21.189788, 1.55914
2022-12-01 16:22:21.197968, 1.55914
2022-12-01 16:22:21.206199, 1.56891
2022-12-01 16:22:21.214378, 1.54936
2022-12-01 16:22:21.225549, 1.54448
2022-12-01 16:22:21.234828, 1.53470
2022-12-01 16:22:21.243058, 1.48583
2022-12-01 16:22:21.254414, 1.39296
2022-12-01 16:22:21.263543, 1.23656
2022-12-01 16:22:21.271092, 1.02639
2022-12-01 16:22:21.279886, 0.74780
2022-12-01 16:22:21.292203, 0.43500
2022-12-01 16:22:21.299961, 0.10753
2022-12-01 16:22:21.308264, 0.00000
2022-12-01 16:22:21.320061, 0.00000
2022-12-01 16:22:21.328662, 0.00000
2022-12-01 16:22:21.335882, 0.00000
2022-12-01 16:22:21.345152, 0.00000
2022-12-01 16:22:21.356705, 0.00000
2022-12-01 16:22:21.365111, 0.00000
2022-12-01 16:22:21.374382, 0.00978
2022-12-01 16:22:21.384788, 0.00000
2022-12-01 16:22:21.393934, 0.00000
2022-12-01 16:22:21.402391, 0.00000
2022-12-01 16:22:21.410425, 0.00000
2022-12-01 16:22:21.421570, 0.00000
2022-12-01 16:22:21.430937, 0.00000
2022-12-01 16:22:21.438720, 0.00000
2022-12-01 16:22:21.451081, 0.00000
2022-12-01 16:22:21.459668, 0.00000
2022-12-01 16:22:21.468033, 0.00000
2022-12-01 16:22:21.476268, 0.00000
2022-12-01 16:22:21.488241, 0.00000
2022-12-01 16:22:21.496497, 0.00000
2022-12-01 16:22:21.504301, 0.00000
2022-12-01 16:22:21.517456, 0.00000
2022-12-01 16:22:21.525677, 0.00000
2022-12-01 16:22:21.533851, 0.01466
2022-12-01 16:22:21.542064, 0.00978
2022-12-01 16:22:21.553665, 0.00000
2022-12-01 16:22:21.561610, 0.00000
2022-12-01 16:22:21.569602, 0.00000
2022-12-01 16:22:21.581737, 0.00000
2022-12-01 16:22:21.590327, 0.00000
2022-12-01 16:22:21.598324, 0.00000
2022-12-01 16:22:21.605967, 0.00000
2022-12-01 16:22:21.618861, 0.00000
2022-12-01 16:22:21.628058, 0.00000
2022-12-01 16:22:21.635544, 0.00000
2022-12-01 16:22:21.648050, 0.00000
2022-12-01 16:22:21.656179, 0.00000
2022-12-01 16:22:21.664446, 0.00000
2022-12-01 16:22:21.672735, 0.00000
2022-12-01 16:22:21.684226, 0.00000
2022-12-01 16:22:21.693094, 0.00000
2022-12-01 16:22:21.701181, 0.00000
2022-12-01 16:22:21.712979, 0.00000
2022-12-01 16:22:21.721742, 0.00000
2022-12-01 16:22:21.728739, 0.00000
2022-12-01 16:22:21.738160, 0.00000
2022-12-01 16:22:21.750430, 0.00000
2022-12-01 16:22:21.758877, 0.00000
2022-12-01 16:22:21.767335, 0.00000
2022-12-01 16:22:21.779106, 0.00000
2022-12-01 16:22:21.786742, 0.00000
2022-12-01 16:22:21.795324, 0.16129
2022-12-01 16:22:21.803950, 0.61095
2022-12-01 16:22:21.815319, 1.08504
2022-12-01 16:22:21.823196, 1.47605
2022-12-01 16:22:21.832162, 1.75464
2022-12-01 16:22:21.844441, 1.93060
2022-12-01 16:22:21.852779, 2.03812
2022-12-01 16:22:21.860436, 2.12121
2022-12-01 16:22:21.868864, 2.18475
2022-12-01 16:22:21.881114, 2.27761
2022-12-01 16:22:21.888937, 2.39003
2022-12-01 16:22:21.897096, 2.54643
2022-12-01 16:22:21.905143, 2.75660
2022-12-01 16:22:21.917820, 3.02542
2022-12-01 16:22:21.925844, 3.29912
2022-12-01 16:22:21.934458, 3.37732
2022-12-01 16:22:21.946759, 3.22092
2022-12-01 16:22:21.954780, 3.28935
2022-12-01 16:22:21.963404, 3.36755
2022-12-01 16:22:21.970779, 3.29423
2022-12-01 16:22:21.983221, 3.29912
2022-12-01 16:22:21.991832, 3.37243
2022-12-01 16:22:21.999829, 3.25024
2022-12-01 16:22:22.012583, 3.42620
2022-12-01 16:22:22.020055, 3.31378
2022-12-01 16:22:22.028997, 3.38710
2022-12-01 16:22:22.036196, 3.22092
2022-12-01 16:22:22.049405, 3.39687
2022-12-01 16:22:22.058209, 3.32845
2022-12-01 16:22:22.066349, 3.21603
2022-12-01 16:22:22.078639, 3.29912
2022-12-01 16:22:22.085624, 3.39687
2022-12-01 16:22:22.095024, 3.26002
2022-12-01 16:22:22.102601, 3.33333
2022-12-01 16:22:22.115504, 3.42620
2022-12-01 16:22:22.123674, 3.25024
2022-12-01 16:22:22.131894, 3.33333
2022-12-01 16:22:22.142829, 3.26002
2022-12-01 16:22:22.151426, 3.26002
2022-12-01 16:22:22.159768, 3.41153
2022-12-01 16:22:22.168031, 3.34800
2022-12-01 16:22:22.180520, 3.29912
2022-12-01 16:22:22.188532, 3.24047
2022-12-01 16:22:22.196582, 3.33822
2022-12-01 16:22:22.208792, 3.42620
2022-12-01 16:22:22.217312, 3.37732
2022-12-01 16:22:22.226097, 3.30401
2022-12-01 16:22:22.233850, 3.22581
2022-12-01 16:22:22.246600, 3.15738
2022-12-01 16:22:22.254773, 3.05474
2022-12-01 16:22:22.262749, 2.96188
2022-12-01 16:22:22.275230, 2.88368
2022-12-01 16:22:22.281943, 2.82014
2022-12-01 16:22:22.291633, 2.77126
2022-12-01 16:22:22.299834, 2.72727
2022-12-01 16:22:22.310642, 2.69306
2022-12-01 16:22:22.319522, 2.66373
2022-12-01 16:22:22.327771, 2.63441
2022-12-01 16:22:22.340138, 2.60020
2022-12-01 16:22:22.348125, 2.57576
2022-12-01 16:22:22.356771, 2.54154
2022-12-01 16:22:22.364690, 2.51222
2022-12-01 16:22:22.376796, 2.47312
2022-12-01 16:22:22.384529, 2.42913
2022-12-01 16:22:22.392843, 2.38514
2022-12-01 16:22:22.406302, 2.35093
2022-12-01 16:22:22.414506, 2.29717
2022-12-01 16:22:22.422730, 2.25318
2022-12-01 16:22:22.430886, 2.21896
2022-12-01 16:22:22.443203, 2.19941
2022-12-01 16:22:22.450052, 2.20430
2022-12-01 16:22:22.459559, 2.21408
2022-12-01 16:22:22.470603, 2.23363
2022-12-01 16:22:22.479383, 2.24340
2022-12-01 16:22:22.487554, 2.24829
2022-12-01 16:22:22.495514, 2.24340
2022-12-01 16:22:22.508559, 2.22874
2022-12-01 16:22:22.516377, 2.22874
2022-12-01 16:22:22.524462, 2.18964
2022-12-01 16:22:22.536750, 2.17498
2022-12-01 16:22:22.544764, 2.16031
2022-12-01 16:22:22.553106, 2.15543
2022-12-01 16:22:22.561401, 2.15543
2022-12-01 16:22:22.572790, 2.15543
2022-12-01 16:22:22.581749, 2.17986
2022-12-01 16:22:22.589617, 2.15543
2022-12-01 16:22:22.602204, 2.15054
2022-12-01 16:22:22.609932, 2.15054
2022-12-01 16:22:22.617580, 2.15054
2022-12-01 16:22:22.627513, 2.15054
2022-12-01 16:22:22.639801, 2.15054
2022-12-01 16:22:22.647206, 2.14565
2022-12-01 16:22:22.656045, 2.14076
2022-12-01 16:22:22.667897, 2.14076
2022-12-01 16:22:22.676278, 2.16031
2022-12-01 16:22:22.684383, 2.12610
2022-12-01 16:22:22.692757, 2.12121
2022-12-01 16:22:22.704728, 2.11144
2022-12-01 16:22:22.712799, 2.10655
2022-12-01 16:22:22.721026, 2.09677
2022-12-01 16:22:22.733999, 2.09189
2022-12-01 16:22:22.741645, 2.08211
2022-12-01 16:22:22.750378, 2.07722
2022-12-01 16:22:22.757540, 2.06745
2022-12-01 16:22:22.770281, 2.06256
2022-12-01 16:22:22.779079, 2.05767
2022-12-01 16:22:22.786732, 2.04790
2022-12-01 16:22:22.795452, 2.04301
2022-12-01 16:22:22.807727, 2.04301
2022-12-01 16:22:22.814997, 2.04790
2022-12-01 16:22:22.823351, 2.04790
2022-12-01 16:22:22.835312, 2.06256
2022-12-01 16:22:22.844067, 2.03812
2022-12-01 16:22:22.851792, 2.03324
2022-12-01 16:22:22.860681, 2.02346
2022-12-01 16:22:22.872694, 2.01857
2022-12-01 16:22:22.880714, 2.01369
2022-12-01 16:22:22.888723, 2.00880
2022-12-01 16:22:22.901016, 2.01369
2022-12-01 16:22:22.909365, 1.99413
2022-12-01 16:22:22.917794, 1.98925
2022-12-01 16:22:22.926522, 1.98436
2022-12-01 16:22:22.938000, 1.97947
2022-12-01 16:22:22.945751, 1.97458
2022-12-01 16:22:22.954474, 1.95992
2022-12-01 16:22:22.966010, 1.95015
2022-12-01 16:22:22.975682, 1.94037
2022-12-01 16:22:22.982606, 1.93060
2022-12-01 16:22:22.992045, 1.94037
2022-12-01 16:22:23.003592, 1.91593
2022-12-01 16:22:23.012199, 1.91105
2022-12-01 16:22:23.019978, 1.90616
2022-12-01 16:22:23.032507, 1.90616
2022-12-01 16:22:23.040684, 1.90127
2022-12-01 16:22:23.048732, 1.89638
2022-12-01 16:22:23.056689, 1.89150
2022-12-01 16:22:23.068796, 1.87683
2022-12-01 16:22:23.077286, 1.87195
2022-12-01 16:22:23.085267, 1.87195
2022-12-01 16:22:23.097953, 1.87195
2022-12-01 16:22:23.106151, 1.88172
2022-12-01 16:22:23.114960, 1.86706
2022-12-01 16:22:23.121808, 1.86706
2022-12-01 16:22:23.134757, 1.86217
2022-12-01 16:22:23.143609, 1.86217
2022-12-01 16:22:23.151976, 1.86217
2022-12-01 16:22:23.164095, 1.88172
2022-12-01 16:22:23.171505, 1.85728
2022-12-01 16:22:23.180622, 1.85728
2022-12-01 16:22:23.188108, 1.85239
2022-12-01 16:22:23.200354, 1.85239
2022-12-01 16:22:23.208647, 1.84751
2022-12-01 16:22:23.216936, 1.84751
2022-12-01 16:22:23.228587, 1.85728
2022-12-01 16:22:23.237068, 1.84262
2022-12-01 16:22:23.245408, 1.84262
2022-12-01 16:22:23.254214, 1.84262
2022-12-01 16:22:23.265507, 1.84262
2022-12-01 16:22:23.273667, 1.84262
2022-12-01 16:22:23.282861, 1.85239
2022-12-01 16:22:23.295220, 1.84751
2022-12-01 16:22:23.302849, 1.84751
2022-12-01 16:22:23.311556, 1.85239
2022-12-01 16:22:23.319234, 1.85239
2022-12-01 16:22:23.332011, 1.84751
2022-12-01 16:22:23.339732, 1.84751
2022-12-01 16:22:23.348304, 1.84262
2022-12-01 16:22:23.360164, 1.84262
2022-12-01 16:22:23.367483, 1.84262
2022-12-01 16:22:23.376501, 1.83773
2022-12-01 16:22:23.384135, 1.83284
2022-12-01 16:22:23.396127, 1.82796
2022-12-01 16:22:23.404235, 1.82796
2022-12-01 16:22:23.413168, 1.82796
2022-12-01 16:22:23.425269, 1.82796
2022-12-01 16:22:23.434247, 1.82307
2022-12-01 16:22:23.441461, 1.82307
2022-12-01 16:22:23.450813, 1.81818
2022-12-01 16:22:23.461881, 1.81818
2022-12-01 16:22:23.470400, 1.82307
2022-12-01 16:22:23.479478, 1.80841
2022-12-01 16:22:23.491750, 1.80841
2022-12-01 16:22:23.499940, 1.80352
2022-12-01 16:22:23.508229, 1.79863
2022-12-01 16:22:23.515201, 1.79863
2022-12-01 16:22:23.528112, 1.79863
2022-12-01 16:22:23.536034, 1.82307
2022-12-01 16:22:23.544514, 1.79374
2022-12-01 16:22:23.556779, 1.79863
2022-12-01 16:22:23.564920, 1.79863
2022-12-01 16:22:23.573690, 1.79863
2022-12-01 16:22:23.581119, 1.79863
2022-12-01 16:22:23.593222, 1.79863
2022-12-01 16:22:23.601710, 1.79374
2022-12-01 16:22:23.609739, 1.78397
2022-12-01 16:22:23.622109, 1.79374
2022-12-01 16:22:23.631046, 1.76442
2022-12-01 16:22:23.638568, 1.75953
2022-12-01 16:22:23.646512, 1.75464
2022-12-01 16:22:23.658235, 1.74976
2022-12-01 16:22:23.666376, 1.74976
2022-12-01 16:22:23.674897, 1.74976
2022-12-01 16:22:23.683738, 1.74976
2022-12-01 16:22:23.695375, 1.74976
2022-12-01 16:22:23.703668, 1.74976
2022-12-01 16:22:23.713297, 1.76442
2022-12-01 16:22:23.724720, 1.75464
2022-12-01 16:22:23.733432, 1.74487
2022-12-01 16:22:23.741614, 1.74487
2022-12-01 16:22:23.749822, 1.74487
2022-12-01 16:22:23.761424, 1.74487
2022-12-01 16:22:23.769259, 1.74487
2022-12-01 16:22:23.777778, 1.74487
2022-12-01 16:22:23.789802, 1.74487
2022-12-01 16:22:23.798747, 1.74487
2022-12-01 16:22:23.806228, 1.73509
2022-12-01 16:22:23.815356, 1.73509
2022-12-01 16:22:23.827658, 1.73509
2022-12-01 16:22:23.834755, 1.76442
2022-12-01 16:22:23.843293, 1.73509
2022-12-01 16:22:23.855742, 1.73509
2022-12-01 16:22:23.863955, 1.73998
2022-12-01 16:22:23.872133, 1.73509
2022-12-01 16:22:23.880392, 1.73509
2022-12-01 16:22:23.891829, 1.73509
2022-12-01 16:22:23.900012, 1.73998
2022-12-01 16:22:23.908269, 1.72532
2022-12-01 16:22:23.920978, 1.72532
2022-12-01 16:22:23.928190, 1.72043
2022-12-01 16:22:23.937480, 1.72043
2022-12-01 16:22:23.945288, 1.72532
2022-12-01 16:22:23.957743, 1.71554
2022-12-01 16:22:23.966909, 1.72043
2022-12-01 16:22:23.974520, 1.72043
2022-12-01 16:22:23.986438, 1.71554
2022-12-01 16:22:23.994846, 1.71554
2022-12-01 16:22:24.003711, 1.72532
2022-12-01 16:22:24.011968, 1.71065
2022-12-01 16:22:24.024043, 1.71065
2022-12-01 16:22:24.032051, 1.71065
2022-12-01 16:22:24.040175, 1.71065
2022-12-01 16:22:24.051871, 1.72043
2022-12-01 16:22:24.060594, 1.71554
2022-12-01 16:22:24.068346, 1.71554
2022-12-01 16:22:24.076629, 1.71554
2022-12-01 16:22:24.088713, 1.71065
2022-12-01 16:22:24.096653, 1.72532
2022-12-01 16:22:24.104884, 1.71065
2022-12-01 16:22:24.116886, 1.71065
2022-12-01 16:22:24.126126, 1.73998
2022-12-01 16:22:24.133974, 1.71554
2022-12-01 16:22:24.142602, 1.71554
2022-12-01 16:22:24.155770, 1.71554
2022-12-01 16:22:24.162267, 1.71554
2022-12-01 16:22:24.171398, 1.71554
2022-12-01 16:22:24.183955, 1.71065
2022-12-01 16:22:24.191454, 1.72043
2022-12-01 16:22:24.200045, 1.71554
2022-12-01 16:22:24.207852, 1.71554
2022-12-01 16:22:24.220190, 1.71554
2022-12-01 16:22:24.228541, 1.71554
2022-12-01 16:22:24.236236, 1.71554
2022-12-01 16:22:24.248487, 1.71554
2022-12-01 16:22:24.256914, 1.73509
2022-12-01 16:22:24.265750, 1.71065
2022-12-01 16:22:24.273615, 1.70577
2022-12-01 16:22:24.285641, 1.70088
2022-12-01 16:22:24.293931, 1.69599
2022-12-01 16:22:24.302044, 1.69110
2022-12-01 16:22:24.315094, 1.69110
2022-12-01 16:22:24.323263, 1.69599
2022-12-01 16:22:24.331443, 1.70088
2022-12-01 16:22:24.338944, 1.70577
2022-12-01 16:22:24.350546, 1.70577
2022-12-01 16:22:24.360053, 1.70577
2022-12-01 16:22:24.367203, 1.70577
2022-12-01 16:22:24.380304, 1.69599
2022-12-01 16:22:24.387866, 1.69110
2022-12-01 16:22:24.395998, 1.69110
2022-12-01 16:22:24.404042, 1.68622
2022-12-01 16:22:24.416018, 1.71065
2022-12-01 16:22:24.424549, 1.69110
2022-12-01 16:22:24.433176, 1.69599
2022-12-01 16:22:24.445001, 1.72532
2022-12-01 16:22:24.452754, 1.70088
2022-12-01 16:22:24.461599, 1.69599
2022-12-01 16:22:24.469761, 1.70088
2022-12-01 16:22:24.481455, 1.69599
2022-12-01 16:22:24.490415, 1.70088
2022-12-01 16:22:24.497768, 1.69599
2022-12-01 16:22:24.506577, 1.70088
2022-12-01 16:22:24.519174, 1.72043
2022-12-01 16:22:24.527511, 1.70577
2022-12-01 16:22:24.535675, 1.70577
2022-12-01 16:22:24.548311, 1.71065
2022-12-01 16:22:24.556308, 1.70577
2022-12-01 16:22:24.564440, 1.70577
2022-12-01 16:22:24.572656, 1.70088
2022-12-01 16:22:24.584636, 1.72532
2022-12-01 16:22:24.592809, 1.69599
2022-12-01 16:22:24.601049, 1.71554
2022-12-01 16:22:24.613507, 1.70088
2022-12-01 16:22:24.622267, 1.70088
2022-12-01 16:22:24.629437, 1.70088
2022-12-01 16:22:24.638661, 1.70088
2022-12-01 16:22:24.650425, 1.70088
2022-12-01 16:22:24.658840, 1.70088
2022-12-01 16:22:24.667088, 1.70088
2022-12-01 16:22:24.678308, 1.70088
2022-12-01 16:22:24.688154, 1.70577
2022-12-01 16:22:24.695538, 1.70088
2022-12-01 16:22:24.704351, 1.70577
2022-12-01 16:22:24.716305, 1.73509
2022-12-01 16:22:24.723753, 1.70577
2022-12-01 16:22:24.732403, 1.70577
2022-12-01 16:22:24.744714, 1.70088
2022-12-01 16:22:24.752539, 1.70577
2022-12-01 16:22:24.760812, 1.69599
2022-12-01 16:22:24.768906, 1.70577
2022-12-01 16:22:24.780603, 1.72043
2022-12-01 16:22:24.790239, 1.74487
2022-12-01 16:22:24.797427, 1.75953
2022-12-01 16:22:24.811182, 1.77419
2022-12-01 16:22:24.817782, 1.78397
2022-12-01 16:22:24.826601, 1.77908
2022-12-01 16:22:24.834472, 1.78886
2022-12-01 16:22:24.847575, 1.76442
2022-12-01 16:22:24.854330, 1.76442
2022-12-01 16:22:24.863166, 1.76931
2022-12-01 16:22:24.875436, 1.76931
2022-12-01 16:22:24.883505, 1.77908
2022-12-01 16:22:24.892059, 1.79374
2022-12-01 16:22:24.900197, 1.79863
2022-12-01 16:22:24.912515, 1.80352
2022-12-01 16:22:24.920816, 1.81818
2022-12-01 16:22:24.928820, 1.82796
2022-12-01 16:22:24.941792, 1.84262
2022-12-01 16:22:24.949307, 1.86217
2022-12-01 16:22:24.957613, 1.88661
2022-12-01 16:22:24.965164, 1.92082
2022-12-01 16:22:24.978075, 1.96481
2022-12-01 16:22:24.986062, 2.01369
2022-12-01 16:22:24.993831, 2.08211
2022-12-01 16:22:25.006752, 2.14565
2022-12-01 16:22:25.014275, 2.22874
2022-12-01 16:22:25.022220, 2.31672
2022-12-01 16:22:25.030844, 2.41447
2022-12-01 16:22:25.043061, 2.50733
2022-12-01 16:22:25.050978, 2.59042
2022-12-01 16:22:25.060124, 2.66862
2022-12-01 16:22:25.072021, 2.71750
2022-12-01 16:22:25.080339, 2.76637
2022-12-01 16:22:25.088657, 2.81036
2022-12-01 16:22:25.096129, 2.84946
2022-12-01 16:22:25.108113, 2.91300
2022-12-01 16:22:25.116830, 2.92278
2022-12-01 16:22:25.125196, 2.95699
2022-12-01 16:22:25.137354, 2.98143
2022-12-01 16:22:25.145332, 2.97654
2022-12-01 16:22:25.153333, 2.96188
2022-12-01 16:22:25.162075, 2.96188
2022-12-01 16:22:25.174194, 2.94721
2022-12-01 16:22:25.182584, 2.96188
2022-12-01 16:22:25.190576, 3.00587
2022-12-01 16:22:25.202985, 3.10850
2022-12-01 16:22:25.210907, 3.17204
2022-12-01 16:22:25.218842, 3.27957
2022-12-01 16:22:25.227709, 3.22092
2022-12-01 16:22:25.240199, 3.30401
2022-12-01 16:22:25.247696, 3.28446
2022-12-01 16:22:25.255911, 3.27468
2022-12-01 16:22:25.268884, 3.32845
2022-12-01 16:22:25.277130, 3.36266
2022-12-01 16:22:25.284969, 3.33333
2022-12-01 16:22:25.293482, 3.32845
2022-12-01 16:22:25.305570, 3.32845
2022-12-01 16:22:25.313937, 3.28446
2022-12-01 16:22:25.322126, 3.33333
2022-12-01 16:22:25.334106, 3.37243
2022-12-01 16:22:25.342700, 3.31378
2022-12-01 16:22:25.350161, 3.28446
2022-12-01 16:22:25.359965, 3.27957
2022-12-01 16:22:25.370427, 3.22581
2022-12-01 16:22:25.380066, 3.41153
2022-12-01 16:22:25.388237, 3.33333
2022-12-01 16:22:25.396329, 3.27468
2022-12-01 16:22:25.407954, 3.25513
2022-12-01 16:22:25.416181, 3.43109
2022-12-01 16:22:25.424583, 3.39198
2022-12-01 16:22:25.436571, 3.34311
2022-12-01 16:22:25.444507, 3.27468
2022-12-01 16:22:25.453093, 3.24047
2022-12-01 16:22:25.461984, 3.42131
2022-12-01 16:22:25.474234, 3.36755
2022-12-01 16:22:25.482861, 3.29912
2022-12-01 16:22:25.490626, 3.26491
2022-12-01 16:22:25.502920, 3.29423
2022-12-01 16:22:25.510572, 3.41642
2022-12-01 16:22:25.518606, 3.36755
2022-12-01 16:22:25.527849, 3.33333
2022-12-01 16:22:25.539056, 3.29423
2022-12-01 16:22:25.546662, 3.25024
2022-12-01 16:22:25.555623, 3.34800
2022-12-01 16:22:25.567640, 3.39687
2022-12-01 16:22:25.576097, 3.36755
2022-12-01 16:22:25.584203, 3.29423
2022-12-01 16:22:25.591900, 3.38221
2022-12-01 16:22:25.604246, 3.36755
2022-12-01 16:22:25.612157, 3.29912
2022-12-01 16:22:25.621064, 3.22092
2022-12-01 16:22:25.633003, 3.38710
2022-12-01 16:22:25.642237, 3.29912
2022-12-01 16:22:25.650210, 3.22092
2022-12-01 16:22:25.658571, 3.37243
2022-12-01 16:22:25.670858, 3.31378
2022-12-01 16:22:25.679062, 3.25513
2022-12-01 16:22:25.687250, 3.41642
2022-12-01 16:22:25.699518, 3.37732
2022-12-01 16:22:25.707622, 3.31867
2022-12-01 16:22:25.715312, 3.25513
2022-12-01 16:22:25.723318, 3.35288
2022-12-01 16:22:25.735664, 3.40176
2022-12-01 16:22:25.743390, 3.33822
2022-12-01 16:22:25.752512, 3.25513
2022-12-01 16:22:25.763799, 3.22581
2022-12-01 16:22:25.772609, 3.37732
2022-12-01 16:22:25.780675, 3.34800
2022-12-01 16:22:25.788900, 3.30401
2022-12-01 16:22:25.801234, 3.26491
2022-12-01 16:22:25.809717, 3.22581
2022-12-01 16:22:25.817393, 3.40665
2022-12-01 16:22:25.830591, 3.35288
2022-12-01 16:22:25.838812, 3.29423
2022-12-01 16:22:25.847258, 3.24536
2022-12-01 16:22:25.855255, 3.42620
2022-12-01 16:22:25.866625, 3.39198
2022-12-01 16:22:25.875665, 3.34311
2022-12-01 16:22:25.883267, 3.28446
2022-12-01 16:22:25.896046, 3.25024
2022-12-01 16:22:25.903804, 3.42131
2022-12-01 16:22:25.911917, 3.38710
2022-12-01 16:22:25.919914, 3.32845
2022-12-01 16:22:25.932463, 3.28446
2022-12-01 16:22:25.940414, 3.22581
2022-12-01 16:22:25.948925, 3.37732
2022-12-01 16:22:25.960836, 3.34311
2022-12-01 16:22:25.968870, 3.28935
2022-12-01 16:22:25.977537, 3.25024
2022-12-01 16:22:25.985424, 3.39687
2022-12-01 16:22:25.997114, 3.35777
2022-12-01 16:22:26.006766, 3.27957
2022-12-01 16:22:26.014229, 3.42131
2022-12-01 16:22:26.027695, 3.31378
2022-12-01 16:22:26.034757, 3.42620
2022-12-01 16:22:26.043401, 3.25024
2022-12-01 16:22:26.051014, 3.31378
2022-12-01 16:22:26.064068, 3.35288
2022-12-01 16:22:26.072434, 3.30890
2022-12-01 16:22:26.080069, 3.28935
2022-12-01 16:22:26.091950, 3.22092
2022-12-01 16:22:26.099850, 3.33333
2022-12-01 16:22:26.108682, 3.24047
2022-12-01 16:22:26.116441, 3.29912
2022-12-01 16:22:26.128827, 3.26491
2022-12-01 16:22:26.136612, 3.26002
2022-12-01 16:22:26.145397, 3.23069
2022-12-01 16:22:26.158290, 3.20137
2022-12-01 16:22:26.165784, 3.16716
2022-12-01 16:22:26.174687, 3.14272
2022-12-01 16:22:26.182272, 3.10850
2022-12-01 16:22:26.195164, 3.08407
2022-12-01 16:22:26.201947, 3.05474
2022-12-01 16:22:26.210534, 3.03519
2022-12-01 16:22:26.223838, 3.03030
2022-12-01 16:22:26.232031, 2.99120
2022-12-01 16:22:26.240068, 2.96676
2022-12-01 16:22:26.248080, 2.94721
2022-12-01 16:22:26.260129, 2.92766
2022-12-01 16:22:26.268449, 2.89834
2022-12-01 16:22:26.276234, 2.87879
2022-12-01 16:22:26.284650, 2.87879
2022-12-01 16:22:26.296836, 2.83480
2022-12-01 16:22:26.304760, 2.81036
2022-12-01 16:22:26.313339, 2.79081
2022-12-01 16:22:26.325232, 2.77126
2022-12-01 16:22:26.333056, 2.75171
2022-12-01 16:22:26.342606, 2.75660
2022-12-01 16:22:26.350133, 2.70772
2022-12-01 16:22:26.363070, 2.69306
2022-12-01 16:22:26.370631, 2.67351
2022-12-01 16:22:26.379473, 2.65396
2022-12-01 16:22:26.391767, 2.63441
2022-12-01 16:22:26.399349, 2.62463
2022-12-01 16:22:26.408066, 2.60508
2022-12-01 16:22:26.416076, 2.58553
2022-12-01 16:22:26.427590, 2.57576
2022-12-01 16:22:26.436062, 2.54643
2022-12-01 16:22:26.443660, 2.53177
2022-12-01 16:22:26.456750, 2.52199
2022-12-01 16:22:26.464838, 2.50244
2022-12-01 16:22:26.472256, 2.48778
2022-12-01 16:22:26.481133, 2.48778
2022-12-01 16:22:26.494156, 2.45846
2022-12-01 16:22:26.501686, 2.44379
2022-12-01 16:22:26.510121, 2.45846
2022-12-01 16:22:26.522117, 2.41447
2022-12-01 16:22:26.531036, 2.39980
2022-12-01 16:22:26.538675, 2.39003
2022-12-01 16:22:26.547418, 2.37537
2022-12-01 16:22:26.559382, 2.36070
2022-12-01 16:22:26.566822, 2.35093
2022-12-01 16:22:26.576079, 2.33627
2022-12-01 16:22:26.588334, 2.34115
2022-12-01 16:22:26.595746, 2.31672
2022-12-01 16:22:26.604339, 2.30205
2022-12-01 16:22:26.612525, 2.29228
2022-12-01 16:22:26.624734, 2.28250
2022-12-01 16:22:26.632767, 2.27273
2022-12-01 16:22:26.640833, 2.26295
2022-12-01 16:22:26.653911, 2.24829
2022-12-01 16:22:26.661509, 2.23851
2022-12-01 16:22:26.670279, 2.22874
2022-12-01 16:22:26.678514, 2.22385
2022-12-01 16:22:26.689431, 2.23851
2022-12-01 16:22:26.698948, 2.19941
2022-12-01 16:22:26.706392, 2.18964
2022-12-01 16:22:26.718711, 2.17986
2022-12-01 16:22:26.727634, 2.19453
2022-12-01 16:22:26.734234, 2.16031
2022-12-01 16:22:26.744032, 2.15543
2022-12-01 16:22:26.756325, 2.14565
2022-12-01 16:22:26.763245, 2.15543
2022-12-01 16:22:26.772335, 2.12610
2022-12-01 16:22:26.783928, 2.12121
2022-12-01 16:22:26.792632, 2.11632
2022-12-01 16:22:26.800582, 2.11144
2022-12-01 16:22:26.809670, 2.10655
2022-12-01 16:22:26.821866, 2.09677
2022-12-01 16:22:26.830039, 2.09189
2022-12-01 16:22:26.838264, 2.09677
2022-12-01 16:22:26.849178, 2.07722
2022-12-01 16:22:26.857957, 2.07234
2022-12-01 16:22:26.866209, 2.06745
2022-12-01 16:22:26.875121, 2.06256
2022-12-01 16:22:26.886470, 2.05767
2022-12-01 16:22:26.895131, 2.04790
2022-12-01 16:22:26.902921, 2.04790
2022-12-01 16:22:26.916074, 2.06745
2022-12-01 16:22:26.923082, 2.03812
2022-12-01 16:22:26.931055, 2.03324
2022-12-01 16:22:26.939895, 2.02835
2022-12-01 16:22:26.952012, 2.02346
2022-12-01 16:22:26.960562, 2.02835
2022-12-01 16:22:26.968438, 2.01369
2022-12-01 16:22:26.980727, 2.00880
2022-12-01 16:22:26.989288, 2.00880
2022-12-01 16:22:26.997489, 2.01857
2022-12-01 16:22:27.005635, 1.99902
2022-12-01 16:22:27.017888, 1.99413
2022-12-01 16:22:27.026035, 1.98925
2022-12-01 16:22:27.033673, 1.98436
2022-12-01 16:22:27.046603, 1.99413
2022-12-01 16:22:27.054946, 1.97458
2022-12-01 16:22:27.063089, 1.96970
2022-12-01 16:22:27.071523, 1.96970
2022-12-01 16:22:27.082437, 1.95992
2022-12-01 16:22:27.091771, 1.96481
2022-12-01 16:22:27.099462, 1.95015
2022-12-01 16:22:27.112209, 1.94037
2022-12-01 16:22:27.120157, 1.93548
2022-12-01 16:22:27.128557, 1.93060
2022-12-01 16:22:27.136091, 1.92571
2022-12-01 16:22:27.148723, 1.92082
2022-12-01 16:22:27.157199, 1.91593
2022-12-01 16:22:27.165353, 1.91105
2022-12-01 16:22:27.173643, 1.91105
2022-12-01 16:22:27.185772, 1.90127
2022-12-01 16:22:27.193674, 1.89638
2022-12-01 16:22:27.201855, 1.88661
2022-12-01 16:22:27.215075, 1.88172
2022-12-01 16:22:27.222628, 1.88172
2022-12-01 16:22:27.230931, 1.90127
2022-12-01 16:22:27.238989, 1.86706
2022-12-01 16:22:27.251020, 1.85728
2022-12-01 16:22:27.259604, 1.86706
2022-12-01 16:22:27.267778, 1.84751
2022-12-01 16:22:27.280043, 1.84262
2022-12-01 16:22:27.288231, 1.84262
2022-12-01 16:22:27.296492, 1.84262
2022-12-01 16:22:27.304641, 1.83773
2022-12-01 16:22:27.316174, 1.83773
2022-12-01 16:22:27.325654, 1.84262
2022-12-01 16:22:27.333297, 1.87683
2022-12-01 16:22:27.345410, 1.85239
2022-12-01 16:22:27.354352, 1.86217
2022-12-01 16:22:27.361672, 1.86706
2022-12-01 16:22:27.369981, 1.87195
2022-12-01 16:22:27.382682, 1.88661
2022-12-01 16:22:27.390866, 1.86217
2022-12-01 16:22:27.398899, 1.85728
2022-12-01 16:22:27.411108, 1.84751
2022-12-01 16:22:27.420178, 1.84262
2022-12-01 16:22:27.428083, 1.83773
2022-12-01 16:22:27.435918, 1.84262
2022-12-01 16:22:27.448083, 1.85728
2022-12-01 16:22:27.456245, 1.87195
2022-12-01 16:22:27.464475, 1.89150
2022-12-01 16:22:27.475743, 1.92082
2022-12-01 16:22:27.483812, 1.95015
2022-12-01 16:22:27.492971, 1.95503
2022-12-01 16:22:27.501227, 1.97458
2022-12-01 16:22:27.512951, 1.99413
2022-12-01 16:22:27.522263, 2.01857
2022-12-01 16:22:27.529664, 2.04790
2022-12-01 16:22:27.541831, 2.08211
2022-12-01 16:22:27.550424, 2.11144
2022-12-01 16:22:27.558429, 2.13587
2022-12-01 16:22:27.566783, 2.18475
2022-12-01 16:22:27.579063, 2.22874
2022-12-01 16:22:27.587268, 2.27273
2022-12-01 16:22:27.595507, 2.31672
2022-12-01 16:22:27.607513, 2.35093
2022-12-01 16:22:27.615907, 2.37537
2022-12-01 16:22:27.624202, 2.43402
2022-12-01 16:22:27.632357, 2.43891
2022-12-01 16:22:27.644392, 2.47312
2022-12-01 16:22:27.652322, 2.50733
2022-12-01 16:22:27.660384, 2.52199
2022-12-01 16:22:27.672924, 2.52688
2022-12-01 16:22:27.681167, 2.52688
2022-12-01 16:22:27.689766, 2.54643
2022-12-01 16:22:27.697917, 2.51222
2022-12-01 16:22:27.710678, 2.50244
2022-12-01 16:22:27.718106, 2.49267
2022-12-01 16:22:27.727599, 2.48289
2022-12-01 16:22:27.739346, 2.47312
2022-12-01 16:22:27.746840, 2.46334
2022-12-01 16:22:27.755738, 2.46334
2022-12-01 16:22:27.763471, 2.44868
2022-12-01 16:22:27.775015, 2.43402
2022-12-01 16:22:27.783516, 2.41447
2022-12-01 16:22:27.791851, 2.39003
2022-12-01 16:22:27.804077, 2.36559
2022-12-01 16:22:27.812101, 2.35093
2022-12-01 16:22:27.820513, 2.33627
2022-12-01 16:22:27.828532, 2.35582
2022-12-01 16:22:27.840530, 2.31672
2022-12-01 16:22:27.848505, 2.30694
2022-12-01 16:22:27.857308, 2.30694
2022-12-01 16:22:27.869879, 2.27273
2022-12-01 16:22:27.878643, 2.23851
2022-12-01 16:22:27.886828, 2.20430
2022-12-01 16:22:27.894490, 2.17009
2022-12-01 16:22:27.907292, 2.17498
2022-12-01 16:22:27.915384, 2.12610
2022-12-01 16:22:27.923461, 2.12610
2022-12-01 16:22:27.935140, 2.13587
2022-12-01 16:22:27.943427, 2.15543
2022-12-01 16:22:27.951570, 2.17498
2022-12-01 16:22:27.960102, 2.18475
2022-12-01 16:22:27.971788, 2.18475
2022-12-01 16:22:27.980529, 2.21408
2022-12-01 16:22:27.988675, 2.17498
2022-12-01 16:22:28.000334, 2.16520
2022-12-01 16:22:28.008794, 2.16520
2022-12-01 16:22:28.017035, 2.13099
2022-12-01 16:22:28.025569, 2.11144
2022-12-01 16:22:28.038360, 2.09677
2022-12-01 16:22:28.046576, 2.07722
2022-12-01 16:22:28.054785, 2.05767
2022-12-01 16:22:28.062154, 2.04301
2022-12-01 16:22:28.075090, 2.00880
2022-12-01 16:22:28.082274, 1.97947
2022-12-01 16:22:28.091923, 1.94037
2022-12-01 16:22:28.103447, 1.90127
2022-12-01 16:22:28.111365, 1.85239
2022-12-01 16:22:28.119541, 1.81818
2022-12-01 16:22:28.128101, 1.74487
2022-12-01 16:22:28.139124, 1.69599
2022-12-01 16:22:28.148462, 1.65689
2022-12-01 16:22:28.156415, 1.61290
2022-12-01 16:22:28.167874, 1.57869
2022-12-01 16:22:28.176853, 1.53470
2022-12-01 16:22:28.184614, 1.50049
2022-12-01 16:22:28.193249, 1.48583
2022-12-01 16:22:28.206316, 1.41740
2022-12-01 16:22:28.213857, 1.39296
2022-12-01 16:22:28.222700, 1.38319
2022-12-01 16:22:28.233927, 1.37830
2022-12-01 16:22:28.243186, 1.38319
2022-12-01 16:22:28.250858, 1.38807
2022-12-01 16:22:28.258943, 1.38807
2022-12-01 16:22:28.271353, 1.38807
2022-12-01 16:22:28.279025, 1.35386
2022-12-01 16:22:28.287875, 1.31476
2022-12-01 16:22:28.299129, 1.27077
2022-12-01 16:22:28.307690, 1.22678
2022-12-01 16:22:28.315661, 1.15836
2022-12-01 16:22:28.324117, 1.09971
2022-12-01 16:22:28.336749, 1.04594
2022-12-01 16:22:28.344517, 1.01173
2022-12-01 16:22:28.353109, 0.97752
2022-12-01 16:22:28.364767, 0.95797
2022-12-01 16:22:28.373422, 0.93842
2022-12-01 16:22:28.381399, 0.91887
2022-12-01 16:22:28.389393, 0.87977
2022-12-01 16:22:28.401653, 0.83089
2022-12-01 16:22:28.409695, 0.76735
2022-12-01 16:22:28.418759, 0.68426
2022-12-01 16:22:28.430123, 0.58651
2022-12-01 16:22:28.438830, 0.45455
2022-12-01 16:22:28.446199, 0.32747
2022-12-01 16:22:28.455427, 0.20039
2022-12-01 16:22:28.467586, 0.11730
2022-12-01 16:22:28.475428, 0.08798
2022-12-01 16:22:28.483456, 0.12708
2022-12-01 16:22:28.496054, 0.23949
2022-12-01 16:22:28.503943, 0.38612
2022-12-01 16:22:28.512667, 0.54252
2022-12-01 16:22:28.521219, 0.68915
2022-12-01 16:22:28.533213, 0.73314
2022-12-01 16:22:28.542174, 0.75758
2022-12-01 16:22:28.549735, 0.74780
2022-12-01 16:22:28.561293, 0.73314
2022-12-01 16:22:28.569271, 0.75758
2022-12-01 16:22:28.579053, 0.80645
2022-12-01 16:22:28.587274, 0.89932
2022-12-01 16:22:28.598871, 0.99707
2022-12-01 16:22:28.606992, 1.01173
2022-12-01 16:22:28.615069, 0.95308
2022-12-01 16:22:28.626855, 0.77713
2022-12-01 16:22:28.635849, 0.47898
2022-12-01 16:22:28.643715, 0.08798
2022-12-01 16:22:28.652217, 0.00000
2022-12-01 16:22:28.664514, 0.00000
2022-12-01 16:22:28.672757, 0.00000
2022-12-01 16:22:28.680894, 0.00000
2022-12-01 16:22:28.693741, 0.00000
2022-12-01 16:22:28.700891, 0.00000
2022-12-01 16:22:28.710145, 0.00000
2022-12-01 16:22:28.717284, 0.00000
2022-12-01 16:22:28.730069, 0.01466
2022-12-01 16:22:28.737973, 0.00000
2022-12-01 16:22:28.746975, 0.00000
2022-12-01 16:22:28.759283, 0.00000
2022-12-01 16:22:28.766738, 0.00000
2022-12-01 16:22:28.775177, 0.00000
2022-12-01 16:22:28.783052, 0.00978
2022-12-01 16:22:28.796144, 0.00000
2022-12-01 16:22:28.804320, 0.00000
2022-12-01 16:22:28.812342, 0.00000
2022-12-01 16:22:28.824346, 0.00000
2022-12-01 16:22:28.832098, 0.00978
2022-12-01 16:22:28.840679, 0.00000
2022-12-01 16:22:28.848664, 0.00000
2022-12-01 16:22:28.859999, 0.00000
2022-12-01 16:22:28.869875, 0.00000
2022-12-01 16:22:28.877227, 0.00000
2022-12-01 16:22:28.889784, 0.00000
2022-12-01 16:22:28.897538, 0.00000
2022-12-01 16:22:28.905980, 0.00000
2022-12-01 16:22:28.914201, 0.00000
2022-12-01 16:22:28.927269, 0.00000
2022-12-01 16:22:28.934970, 0.00000
2022-12-01 16:22:28.943466, 0.01466
2022-12-01 16:22:28.951457, 0.00000
2022-12-01 16:22:28.963318, 0.00000
2022-12-01 16:22:28.971482, 0.00000
2022-12-01 16:22:28.979495, 0.00000
2022-12-01 16:22:28.992292, 0.00000
2022-12-01 16:22:29.000557, 0.06843
2022-12-01 16:22:29.008573, 0.39101
2022-12-01 16:22:29.016191, 0.76246
2022-12-01 16:22:29.027782, 1.09971
2022-12-01 16:22:29.037312, 1.37341
2022-12-01 16:22:29.045468, 1.56403
2022-12-01 16:22:29.057307, 1.70577
2022-12-01 16:22:29.065807, 1.81329
2022-12-01 16:22:29.073616, 1.87195
2022-12-01 16:22:29.081838, 1.92082
2022-12-01 16:22:29.094682, 1.95992
2022-12-01 16:22:29.102599, 2.01857
2022-12-01 16:22:29.111048, 2.01369
2022-12-01 16:22:29.123805, 2.03812
2022-12-01 16:22:29.132840, 2.06745
2022-12-01 16:22:29.140176, 2.09677
2022-12-01 16:22:29.148877, 2.13099
2022-12-01 16:22:29.160241, 2.17498
2022-12-01 16:22:29.168127, 2.21896
2022-12-01 16:22:29.176543, 2.26784
2022-12-01 16:22:29.188863, 2.32160
2022-12-01 16:22:29.196748, 2.37048
2022-12-01 16:22:29.205762, 2.42913
2022-12-01 16:22:29.212893, 2.48289
2022-12-01 16:22:29.224738, 2.53177
2022-12-01 16:22:29.234429, 2.58065
2022-12-01 16:22:29.242098, 2.62952
2022-12-01 16:22:29.254912, 2.66862
2022-12-01 16:22:29.261907, 2.71750
2022-12-01 16:22:29.270345, 2.75171
2022-12-01 16:22:29.279052, 2.81036
2022-12-01 16:22:29.291755, 2.84457
2022-12-01 16:22:29.299314, 2.89345
2022-12-01 16:22:29.307920, 2.94233
2022-12-01 16:22:29.320112, 2.99609
2022-12-01 16:22:29.328133, 3.04497
2022-12-01 16:22:29.335614, 3.06940
2022-12-01 16:22:29.344521, 3.09384
2022-12-01 16:22:29.356595, 3.11828
2022-12-01 16:22:29.364322, 3.11339
2022-12-01 16:22:29.373682, 3.11828
2022-12-01 16:22:29.385360, 3.14760
2022-12-01 16:22:29.393737, 3.12317
2022-12-01 16:22:29.401589, 3.12805
2022-12-01 16:22:29.408993, 3.12805
2022-12-01 16:22:29.422823, 3.12317
2022-12-01 16:22:29.430786, 3.10362
2022-12-01 16:22:29.439133, 3.08407
2022-12-01 16:22:29.451490, 3.05474
2022-12-01 16:22:29.459683, 3.02542
2022-12-01 16:22:29.466951, 2.99120
2022-12-01 16:22:29.476062, 2.96676
2022-12-01 16:22:29.487571, 2.93255
2022-12-01 16:22:29.496118, 2.90811
2022-12-01 16:22:29.504111, 2.88368
2022-12-01 16:22:29.516425, 2.86901
2022-12-01 16:22:29.524451, 2.85435
2022-12-01 16:22:29.532616, 2.85435
2022-12-01 16:22:29.540942, 2.84946
2022-12-01 16:22:29.552340, 2.84946
2022-12-01 16:22:29.561101, 2.85435
2022-12-01 16:22:29.569069, 2.83969
2022-12-01 16:22:29.581117, 2.83480
2022-12-01 16:22:29.590159, 2.82502
2022-12-01 16:22:29.597530, 2.82014
2022-12-01 16:22:29.606385, 2.81036
2022-12-01 16:22:29.618702, 2.80059
2022-12-01 16:22:29.627541, 2.79570
2022-12-01 16:22:29.635688, 2.80059
2022-12-01 16:22:29.648099, 2.78104
2022-12-01 16:22:29.655798, 2.77615
2022-12-01 16:22:29.664108, 2.77615
2022-12-01 16:22:29.672060, 2.76637
2022-12-01 16:22:29.684034, 2.78104
2022-12-01 16:22:29.692679, 2.75660
2022-12-01 16:22:29.701116, 2.75660
2022-12-01 16:22:29.713224, 2.75171
2022-12-01 16:22:29.721087, 2.74682
2022-12-01 16:22:29.729560, 2.75660
2022-12-01 16:22:29.737722, 2.74682
2022-12-01 16:22:29.749392, 2.74682
2022-12-01 16:22:29.758398, 2.74682
2022-12-01 16:22:29.765961, 2.76149
2022-12-01 16:22:29.773872, 2.74194
2022-12-01 16:22:29.787374, 2.75660
2022-12-01 16:22:29.795593, 2.73216
2022-12-01 16:22:29.803652, 2.74682
2022-12-01 16:22:29.814743, 2.71750
2022-12-01 16:22:29.823589, 2.72727
2022-12-01 16:22:29.831688, 2.70283
2022-12-01 16:22:29.840159, 2.69306
2022-12-01 16:22:29.852497, 2.68328
2022-12-01 16:22:29.860600, 2.67840
2022-12-01 16:22:29.868906, 2.69306
2022-12-01 16:22:29.880851, 2.65885
2022-12-01 16:22:29.888280, 2.68328
2022-12-01 16:22:29.897160, 2.65396
2022-12-01 16:22:29.905366, 2.64418
2022-12-01 16:22:29.917177, 2.63930
2022-12-01 16:22:29.925789, 2.62952
2022-12-01 16:22:29.934257, 2.63930
2022-12-01 16:22:29.945798, 2.61486
2022-12-01 16:22:29.953896, 2.60020
2022-12-01 16:22:29.962488, 2.59042
2022-12-01 16:22:29.971746, 2.59531
2022-12-01 16:22:29.983212, 2.57576
2022-12-01 16:22:29.991407, 2.56598
2022-12-01 16:22:29.999130, 2.56109
2022-12-01 16:22:30.012148, 2.56598
2022-12-01 16:22:30.020052, 2.54643
2022-12-01 16:22:30.028602, 2.53177
2022-12-01 16:22:30.036541, 2.52199
2022-12-01 16:22:30.048497, 2.50733
2022-12-01 16:22:30.056821, 2.49756
2022-12-01 16:22:30.064632, 2.48289
2022-12-01 16:22:30.077688, 2.46823
2022-12-01 16:22:30.085829, 2.45357
2022-12-01 16:22:30.094028, 2.43891
2022-12-01 16:22:30.102773, 2.44868
2022-12-01 16:22:30.114913, 2.43402
2022-12-01 16:22:30.123098, 2.41935
2022-12-01 16:22:30.131456, 2.38025
2022-12-01 16:22:30.143278, 2.37537
2022-12-01 16:22:30.151026, 2.36070
2022-12-01 16:22:30.160107, 2.34604
2022-12-01 16:22:30.168898, 2.36070
2022-12-01 16:22:30.180363, 2.32649
2022-12-01 16:22:30.188375, 2.31183
2022-12-01 16:22:30.196475, 2.31183
2022-12-01 16:22:30.208774, 2.29228
2022-12-01 16:22:30.216856, 2.27761
2022-12-01 16:22:30.224876, 2.29717
2022-12-01 16:22:30.233106, 2.25318
2022-12-01 16:22:30.245340, 2.24340
2022-12-01 16:22:30.254351, 2.23363
2022-12-01 16:22:30.261513, 2.23851
2022-12-01 16:22:30.274328, 2.20430
2022-12-01 16:22:30.282157, 2.19453
2022-12-01 16:22:30.290131, 2.17986
2022-12-01 16:22:30.298884, 2.17009
2022-12-01 16:22:30.311495, 2.15543
2022-12-01 16:22:30.319869, 2.15054
2022-12-01 16:22:30.328076, 2.14076
2022-12-01 16:22:30.338563, 2.13587
2022-12-01 16:22:30.348154, 2.12610
2022-12-01 16:22:30.356083, 2.11632
2022-12-01 16:22:30.364448, 2.11144
2022-12-01 16:22:30.375986, 2.12121
2022-12-01 16:22:30.383666, 2.09677
2022-12-01 16:22:30.392877, 2.09189
2022-12-01 16:22:30.405860, 2.08700
2022-12-01 16:22:30.413340, 2.08211
2022-12-01 16:22:30.422300, 2.06745
2022-12-01 16:22:30.430024, 2.06256
2022-12-01 16:22:30.442765, 2.05767
2022-12-01 16:22:30.450125, 2.07722
2022-12-01 16:22:30.459630, 2.03812
2022-12-01 16:22:30.470937, 2.03324
2022-12-01 16:22:30.479600, 2.02346
2022-12-01 16:22:30.487816, 2.01857
2022-12-01 16:22:30.495984, 2.03324
2022-12-01 16:22:30.507290, 1.99902
2022-12-01 16:22:30.515958, 1.99413
2022-12-01 16:22:30.523891, 1.98925
2022-12-01 16:22:30.536451, 1.98436
2022-12-01 16:22:30.544574, 1.99413
2022-12-01 16:22:30.552728, 1.96970
2022-12-01 16:22:30.560811, 1.95992
2022-12-01 16:22:30.573157, 1.95503
2022-12-01 16:22:30.581016, 1.94526
2022-12-01 16:22:30.589646, 1.94037
2022-12-01 16:22:30.601717, 1.93548
2022-12-01 16:22:30.610669, 1.93060
2022-12-01 16:22:30.618514, 1.95992
2022-12-01 16:22:30.627074, 1.92571
2022-12-01 16:22:30.638862, 1.92082
2022-12-01 16:22:30.646796, 1.92082
2022-12-01 16:22:30.655708, 1.92082
2022-12-01 16:22:30.663866, 1.93548
2022-12-01 16:22:30.675552, 1.91105
2022-12-01 16:22:30.684369, 1.90616
2022-12-01 16:22:30.691801, 1.90127
2022-12-01 16:22:30.704198, 1.90127
2022-12-01 16:22:30.712552, 1.89638
2022-12-01 16:22:30.720522, 1.89638
2022-12-01 16:22:30.728887, 1.89150
2022-12-01 16:22:30.740407, 1.89150
2022-12-01 16:22:30.749332, 1.90616
2022-12-01 16:22:30.756874, 1.88172
2022-12-01 16:22:30.768897, 1.87683
2022-12-01 16:22:30.777630, 1.86706
2022-12-01 16:22:30.786029, 1.87195
2022-12-01 16:22:30.794269, 1.86217
2022-12-01 16:22:30.806547, 1.85728
2022-12-01 16:22:30.814640, 1.85728
2022-12-01 16:22:30.823060, 1.86217
2022-12-01 16:22:30.835126, 1.84262
2022-12-01 16:22:30.843621, 1.84262
2022-12-01 16:22:30.851662, 1.84262
2022-12-01 16:22:30.859960, 1.83773
2022-12-01 16:22:30.871064, 1.85239
2022-12-01 16:22:30.880090, 1.83284
2022-12-01 16:22:30.887989, 1.83284
2022-12-01 16:22:30.900714, 1.83284
2022-12-01 16:22:30.909692, 1.84751
2022-12-01 16:22:30.917378, 1.81818
2022-12-01 16:22:30.926095, 1.81329
2022-12-01 16:22:30.938380, 1.81329
2022-12-01 16:22:30.946713, 1.81818
2022-12-01 16:22:30.954763, 1.79863
2022-12-01 16:22:30.966239, 1.79863
2022-12-01 16:22:30.975305, 1.79374
2022-12-01 16:22:30.982234, 1.81329
2022-12-01 16:22:30.991987, 1.78886
2022-12-01 16:22:31.003726, 1.78397
2022-12-01 16:22:31.011533, 1.78397
2022-12-01 16:22:31.020300, 1.77908
2022-12-01 16:22:31.031221, 1.77419
2022-12-01 16:22:31.040124, 1.77419
2022-12-01 16:22:31.047868, 1.78886
2022-12-01 16:22:31.056390, 1.76931
2022-12-01 16:22:31.068353, 1.76931
2022-12-01 16:22:31.077083, 1.76931
2022-12-01 16:22:31.084958, 1.76442
2022-12-01 16:22:31.097575, 1.76931
2022-12-01 16:22:31.105565, 1.76931
2022-12-01 16:22:31.114891, 1.79863
2022-12-01 16:22:31.122129, 1.76442
2022-12-01 16:22:31.134528, 1.76442
2022-12-01 16:22:31.142641, 1.76442
2022-12-01 16:22:31.150822, 1.75953
2022-12-01 16:22:31.162669, 1.75953
2022-12-01 16:22:31.171349, 1.75953
2022-12-01 16:22:31.179459, 1.77908
2022-12-01 16:22:31.187775, 1.76442
2022-12-01 16:22:31.199672, 1.75953
2022-12-01 16:22:31.207635, 1.75953
2022-12-01 16:22:31.216371, 1.76442
2022-12-01 16:22:31.228604, 1.75464
2022-12-01 16:22:31.236985, 1.75464
2022-12-01 16:22:31.245566, 1.75464
2022-12-01 16:22:31.253199, 1.74976
2022-12-01 16:22:31.264343, 1.76931
2022-12-01 16:22:31.273670, 1.74976
2022-12-01 16:22:31.281898, 1.74976
2022-12-01 16:22:31.294725, 1.77908
2022-12-01 16:22:31.302923, 1.74976
2022-12-01 16:22:31.311101, 1.74976
2022-12-01 16:22:31.318027, 1.74976
2022-12-01 16:22:31.330943, 1.75464
2022-12-01 16:22:31.339250, 1.75464
2022-12-01 16:22:31.347195, 1.75953
2022-12-01 16:22:31.359754, 1.75953
2022-12-01 16:22:31.367881, 1.75953
2022-12-01 16:22:31.375718, 1.75953
2022-12-01 16:22:31.384327, 1.75953
2022-12-01 16:22:31.396376, 1.75464
2022-12-01 16:22:31.404318, 1.75464
2022-12-01 16:22:31.412773, 1.76442
2022-12-01 16:22:31.425018, 1.75464
2022-12-01 16:22:31.433275, 1.75464
2022-12-01 16:22:31.441902, 1.76442
2022-12-01 16:22:31.449565, 1.75464
2022-12-01 16:22:31.461836, 1.75953
2022-12-01 16:22:31.470150, 1.76931
2022-12-01 16:22:31.478879, 1.75953
2022-12-01 16:22:31.491351, 1.75953
2022-12-01 16:22:31.498932, 1.75953
2022-12-01 16:22:31.507242, 1.76442
2022-12-01 16:22:31.514720, 1.78886
2022-12-01 16:22:31.527534, 1.76442
2022-12-01 16:22:31.535355, 1.78886
2022-12-01 16:22:31.543265, 1.76931
2022-12-01 16:22:31.551440, 1.76442
2022-12-01 16:22:31.565219, 1.76442
2022-12-01 16:22:31.572553, 1.76442
2022-12-01 16:22:31.580873, 1.76442
2022-12-01 16:22:31.592961, 1.76442
2022-12-01 16:22:31.601269, 1.76442
2022-12-01 16:22:31.609020, 1.75953
2022-12-01 16:22:31.617701, 1.76442
2022-12-01 16:22:31.629432, 1.75464
2022-12-01 16:22:31.637775, 1.75464
2022-12-01 16:22:31.645756, 1.75464
2022-12-01 16:22:31.658275, 1.74976
2022-12-01 16:22:31.666757, 1.75464
2022-12-01 16:22:31.674882, 1.77908
2022-12-01 16:22:31.683082, 1.75953
2022-12-01 16:22:31.695306, 1.75464
2022-12-01 16:22:31.702929, 1.75464
2022-12-01 16:22:31.711833, 1.75464
2022-12-01 16:22:31.723474, 1.75464
2022-12-01 16:22:31.732285, 1.75953
2022-12-01 16:22:31.740342, 1.75464
2022-12-01 16:22:31.748567, 1.74976
2022-12-01 16:22:31.760538, 1.74976
2022-12-01 16:22:31.768861, 1.74976
2022-12-01 16:22:31.776882, 1.74976
2022-12-01 16:22:31.789083, 1.74487
2022-12-01 16:22:31.797573, 1.75464
2022-12-01 16:22:31.805987, 1.74487
2022-12-01 16:22:31.814228, 1.74487
2022-12-01 16:22:31.827214, 1.74487
2022-12-01 16:22:31.834991, 1.74487
2022-12-01 16:22:31.842843, 1.74976
2022-12-01 16:22:31.854726, 1.74487
2022-12-01 16:22:31.863637, 1.74487
2022-12-01 16:22:31.871816, 1.74487
2022-12-01 16:22:31.880032, 1.74487
2022-12-01 16:22:31.891509, 1.75464
2022-12-01 16:22:31.900464, 1.73998
2022-12-01 16:22:31.908695, 1.73998
2022-12-01 16:22:31.920897, 1.73998
2022-12-01 16:22:31.928900, 1.76442
2022-12-01 16:22:31.936893, 1.73998
2022-12-01 16:22:31.945319, 1.73998
2022-12-01 16:22:31.957581, 1.73998
2022-12-01 16:22:31.965645, 1.74487
2022-12-01 16:22:31.974137, 1.73998
2022-12-01 16:22:31.985405, 1.73998
2022-12-01 16:22:31.993652, 1.76442
2022-12-01 16:22:32.002579, 1.73998
2022-12-01 16:22:32.010593, 1.73509
2022-12-01 16:22:32.022914, 1.74487
2022-12-01 16:22:32.031533, 1.73998
2022-12-01 16:22:32.040138, 1.73998
2022-12-01 16:22:32.052391, 1.73998
2022-12-01 16:22:32.059957, 1.74976
2022-12-01 16:22:32.068388, 1.73998
2022-12-01 16:22:32.076639, 1.74487
2022-12-01 16:22:32.088810, 1.76931
2022-12-01 16:22:32.096901, 1.74487
2022-12-01 16:22:32.104898, 1.74487
2022-12-01 16:22:32.117299, 1.74487
2022-12-01 16:22:32.125468, 1.76931
2022-12-01 16:22:32.133867, 1.74487
2022-12-01 16:22:32.141686, 1.74487
2022-12-01 16:22:32.154357, 1.74487
2022-12-01 16:22:32.162577, 1.74976
2022-12-01 16:22:32.170766, 1.73998
2022-12-01 16:22:32.181874, 1.73998
2022-12-01 16:22:32.191733, 1.75464
2022-12-01 16:22:32.199158, 1.74487
2022-12-01 16:22:32.208127, 1.74487
2022-12-01 16:22:32.220400, 1.73998
2022-12-01 16:22:32.227616, 1.75953
2022-12-01 16:22:32.236394, 1.73998
2022-12-01 16:22:32.248406, 1.73998
2022-12-01 16:22:32.256732, 1.73998
2022-12-01 16:22:32.264059, 1.74487
2022-12-01 16:22:32.273521, 1.73509
2022-12-01 16:22:32.285958, 1.73998
2022-12-01 16:22:32.294140, 1.73998
2022-12-01 16:22:32.302350, 1.73509
2022-12-01 16:22:32.314036, 1.73998
2022-12-01 16:22:32.322057, 1.73998
2022-12-01 16:22:32.330688, 1.73998
2022-12-01 16:22:32.338597, 1.73509
2022-12-01 16:22:32.350825, 1.75464
2022-12-01 16:22:32.359681, 1.73509
2022-12-01 16:22:32.367032, 1.73509
2022-12-01 16:22:32.379615, 1.73509
2022-12-01 16:22:32.388382, 1.73509
2022-12-01 16:22:32.395799, 1.73509
2022-12-01 16:22:32.404388, 1.73509
2022-12-01 16:22:32.416595, 1.73509
2022-12-01 16:22:32.424695, 1.73021
2022-12-01 16:22:32.432672, 1.73021
2022-12-01 16:22:32.441364, 1.73021
2022-12-01 16:22:32.453885, 1.73509
2022-12-01 16:22:32.462100, 1.73021
2022-12-01 16:22:32.470331, 1.72532
2022-12-01 16:22:32.481544, 1.73021
2022-12-01 16:22:32.490164, 1.72532
2022-12-01 16:22:32.498141, 1.72532
2022-12-01 16:22:32.506369, 1.72532
2022-12-01 16:22:32.518940, 1.72532
2022-12-01 16:22:32.527618, 1.72532
2022-12-01 16:22:32.535128, 1.73509
2022-12-01 16:22:32.547278, 1.72532
2022-12-01 16:22:32.556320, 1.72532
2022-12-01 16:22:32.563924, 1.72532
2022-12-01 16:22:32.572206, 1.72532
2022-12-01 16:22:32.584396, 1.72532
2022-12-01 16:22:32.592661, 1.75953
2022-12-01 16:22:32.600585, 1.73509
2022-12-01 16:22:32.612212, 1.73509
2022-12-01 16:22:32.621858, 1.73998
2022-12-01 16:22:32.629289, 1.76442
2022-12-01 16:22:32.638231, 1.73998
2022-12-01 16:22:32.649740, 1.73998
2022-12-01 16:22:32.657891, 1.73998
2022-12-01 16:22:32.666873, 1.75953
2022-12-01 16:22:32.678894, 1.73998
2022-12-01 16:22:32.687710, 1.73509
2022-12-01 16:22:32.694492, 1.74976
2022-12-01 16:22:32.702971, 1.73509
2022-12-01 16:22:32.714693, 1.73021
2022-12-01 16:22:32.723383, 1.73509
2022-12-01 16:22:32.731250, 1.73021
2022-12-01 16:22:32.744165, 1.73021
2022-12-01 16:22:32.751296, 1.73509
2022-12-01 16:22:32.760565, 1.73021
2022-12-01 16:22:32.768572, 1.73021
2022-12-01 16:22:32.780426, 1.74487
2022-12-01 16:22:32.789759, 1.73021
2022-12-01 16:22:32.797106, 1.73021
2022-12-01 16:22:32.808835, 1.73021
2022-12-01 16:22:32.817312, 1.72532
2022-12-01 16:22:32.826090, 1.72532
2022-12-01 16:22:32.833376, 1.73998
2022-12-01 16:22:32.846023, 1.72532
2022-12-01 16:22:32.854538, 1.72532
2022-12-01 16:22:32.862467, 1.75464
2022-12-01 16:22:32.874785, 1.72532
2022-12-01 16:22:32.882833, 1.72043
2022-12-01 16:22:32.891411, 1.72043
2022-12-01 16:22:32.899886, 1.72043
2022-12-01 16:22:32.911750, 1.71554
2022-12-01 16:22:32.920028, 1.71554
2022-12-01 16:22:32.927954, 1.72043
2022-12-01 16:22:32.940271, 1.71065
2022-12-01 16:22:32.948534, 1.71065
2022-12-01 16:22:32.956948, 1.71065
2022-12-01 16:22:32.964933, 1.71065
2022-12-01 16:22:32.977089, 1.71065
2022-12-01 16:22:32.985250, 1.71554
2022-12-01 16:22:32.993331, 1.71065
2022-12-01 16:22:33.005169, 1.71065
2022-12-01 16:22:33.013605, 1.71554
2022-12-01 16:22:33.021921, 1.71065
2022-12-01 16:22:33.030637, 1.71065
2022-12-01 16:22:33.042268, 1.71065
2022-12-01 16:22:33.051279, 1.72043
2022-12-01 16:22:33.059323, 1.71554
2022-12-01 16:22:33.070803, 1.71065
2022-12-01 16:22:33.079826, 1.71065
2022-12-01 16:22:33.088116, 1.71065
2022-12-01 16:22:33.095711, 1.73021
2022-12-01 16:22:33.107960, 1.71065
2022-12-01 16:22:33.116844, 1.71065
2022-12-01 16:22:33.124997, 1.71065
2022-12-01 16:22:33.137243, 1.71554
2022-12-01 16:22:33.145154, 1.70577
2022-12-01 16:22:33.153146, 1.71065
2022-12-01 16:22:33.161492, 1.72043
2022-12-01 16:22:33.173879, 1.70577
2022-12-01 16:22:33.181895, 1.71065
2022-12-01 16:22:33.190399, 1.71065
2022-12-01 16:22:33.201893, 1.71065
2022-12-01 16:22:33.210379, 1.71065
2022-12-01 16:22:33.218304, 1.70577
2022-12-01 16:22:33.226250, 1.71065
2022-12-01 16:22:33.239186, 1.71065
2022-12-01 16:22:33.247953, 1.70577
2022-12-01 16:22:33.255100, 1.71554
2022-12-01 16:22:33.263672, 1.70577
2022-12-01 16:22:33.276051, 1.70577
2022-12-01 16:22:33.284289, 1.72043
2022-12-01 16:22:33.292743, 1.70577
2022-12-01 16:22:33.304604, 1.70577
2022-12-01 16:22:33.312909, 1.70577
2022-12-01 16:22:33.321132, 1.70577
2022-12-01 16:22:33.329522, 1.70577
2022-12-01 16:22:33.341425, 1.70577
2022-12-01 16:22:33.350013, 1.71065
2022-12-01 16:22:33.358184, 1.71065
2022-12-01 16:22:33.370156, 1.71065
2022-12-01 16:22:33.378053, 1.73509
2022-12-01 16:22:33.386971, 1.71554
2022-12-01 16:22:33.395028, 1.71065
2022-12-01 16:22:33.407475, 1.71065
2022-12-01 16:22:33.415698, 1.71065
2022-12-01 16:22:33.423290, 1.71065
2022-12-01 16:22:33.435862, 1.73998
2022-12-01 16:22:33.444249, 1.71065
2022-12-01 16:22:33.452386, 1.71065
2022-12-01 16:22:33.460801, 1.71554
2022-12-01 16:22:33.472341, 1.70577
2022-12-01 16:22:33.481445, 1.70577
2022-12-01 16:22:33.489064, 1.71065
2022-12-01 16:22:33.500967, 1.70577
2022-12-01 16:22:33.509721, 1.70577
2022-12-01 16:22:33.518263, 1.71065
2022-12-01 16:22:33.526180, 1.70577
2022-12-01 16:22:33.538612, 1.70577
2022-12-01 16:22:33.546428, 1.70577
2022-12-01 16:22:33.554924, 1.70577
2022-12-01 16:22:33.566846, 1.70577
2022-12-01 16:22:33.574914, 1.71065
2022-12-01 16:22:33.583761, 1.70088
2022-12-01 16:22:33.592048, 1.71554
2022-12-01 16:22:33.604317, 1.70088
2022-12-01 16:22:33.613128, 1.70088
2022-12-01 16:22:33.620559, 1.70088
2022-12-01 16:22:33.632479, 1.70088
2022-12-01 16:22:33.640872, 1.69599
2022-12-01 16:22:33.648972, 1.69599
2022-12-01 16:22:33.656986, 1.70088
2022-12-01 16:22:33.669654, 1.69599
2022-12-01 16:22:33.677325, 1.69599
2022-12-01 16:22:33.686799, 1.70577
2022-12-01 16:22:33.698441, 1.69599
2022-12-01 16:22:33.706689, 1.69599
2022-12-01 16:22:33.715498, 1.70088
2022-12-01 16:22:33.722903, 1.70088
2022-12-01 16:22:33.735168, 1.70088
2022-12-01 16:22:33.743436, 1.70088
2022-12-01 16:22:33.751482, 1.71554
2022-12-01 16:22:33.763274, 1.70088
2022-12-01 16:22:33.772310, 1.70088
2022-12-01 16:22:33.780506, 1.73021
2022-12-01 16:22:33.788679, 1.70088
2022-12-01 16:22:33.800837, 1.70088
2022-12-01 16:22:33.808916, 1.72043
2022-12-01 16:22:33.817160, 1.69599
2022-12-01 16:22:33.830103, 1.69599
2022-12-01 16:22:33.838378, 1.69599
2022-12-01 16:22:33.846569, 1.69110
2022-12-01 16:22:33.854748, 1.69110
2022-12-01 16:22:33.866297, 1.71065
2022-12-01 16:22:33.874428, 1.69110
2022-12-01 16:22:33.882517, 1.69110
2022-12-01 16:22:33.895716, 1.69599
2022-12-01 16:22:33.903160, 1.69599
2022-12-01 16:22:33.912106, 1.69599
2022-12-01 16:22:33.919640, 1.69599
2022-12-01 16:22:33.931812, 1.71065
2022-12-01 16:22:33.940278, 1.70088
2022-12-01 16:22:33.948561, 1.70088
2022-12-01 16:22:33.960676, 1.70577
2022-12-01 16:22:33.968180, 1.70577
2022-12-01 16:22:33.976756, 1.73021
2022-12-01 16:22:33.985364, 1.70577
2022-12-01 16:22:33.997387, 1.70577
2022-12-01 16:22:34.005278, 1.70577
2022-12-01 16:22:34.013346, 1.71065
2022-12-01 16:22:34.025565, 1.70577
2022-12-01 16:22:34.034001, 1.71065
2022-12-01 16:22:34.041833, 1.71065
2022-12-01 16:22:34.050608, 1.71065
2022-12-01 16:22:34.062422, 1.71554
2022-12-01 16:22:34.070900, 1.72043
2022-12-01 16:22:34.079148, 1.71554
2022-12-01 16:22:34.091574, 1.72043
2022-12-01 16:22:34.099979, 1.71554
2022-12-01 16:22:34.108203, 1.71554
2022-12-01 16:22:34.116418, 1.71554
2022-12-01 16:22:34.128582, 1.72043
2022-12-01 16:22:34.136867, 1.72043
2022-12-01 16:22:34.144925, 1.72532
2022-12-01 16:22:34.152914, 1.72532
2022-12-01 16:22:34.165267, 1.73021
2022-12-01 16:22:34.174250, 1.72532
2022-12-01 16:22:34.182421, 1.73998
2022-12-01 16:22:34.194374, 1.72532
2022-12-01 16:22:34.202237, 1.74976
2022-12-01 16:22:34.210245, 1.72532
2022-12-01 16:22:34.218098, 1.73021
2022-12-01 16:22:34.230706, 1.73021
2022-12-01 16:22:34.238854, 1.73021
2022-12-01 16:22:34.247440, 1.73021
2022-12-01 16:22:34.258878, 1.73021
2022-12-01 16:22:34.266852, 1.73021
2022-12-01 16:22:34.275723, 1.72532
2022-12-01 16:22:34.283459, 1.72532
2022-12-01 16:22:34.296489, 1.73998
2022-12-01 16:22:34.304828, 1.72532
2022-12-01 16:22:34.313361, 1.73998
2022-12-01 16:22:34.325802, 1.72532
2022-12-01 16:22:34.333991, 1.73021
2022-12-01 16:22:34.342154, 1.72532
2022-12-01 16:22:34.350379, 1.72043
2022-12-01 16:22:34.361551, 1.72043
2022-12-01 16:22:34.370260, 1.72043
2022-12-01 16:22:34.377901, 1.71554
2022-12-01 16:22:34.390139, 1.72532
2022-12-01 16:22:34.397984, 1.72043
2022-12-01 16:22:34.407056, 1.71554
2022-12-01 16:22:34.415479, 1.72043
2022-12-01 16:22:34.428193, 1.72043
2022-12-01 16:22:34.435794, 1.72043
2022-12-01 16:22:34.444231, 1.74976
2022-12-01 16:22:34.456404, 1.72532
2022-12-01 16:22:34.464229, 1.72532
2022-12-01 16:22:34.472337, 1.72532
2022-12-01 16:22:34.480936, 1.73021
2022-12-01 16:22:34.492726, 1.73021
2022-12-01 16:22:34.501323, 1.75464
2022-12-01 16:22:34.509378, 1.74487
2022-12-01 16:22:34.521317, 1.73509
2022-12-01 16:22:34.529693, 1.75464
2022-12-01 16:22:34.537939, 1.73509
2022-12-01 16:22:34.546461, 1.73509
2022-12-01 16:22:34.558409, 1.73021
2022-12-01 16:22:34.566712, 1.73021
2022-12-01 16:22:34.575028, 1.73021
2022-12-01 16:22:34.587166, 1.73021
2022-12-01 16:22:34.595286, 1.73509
2022-12-01 16:22:34.603241, 1.73021
2022-12-01 16:22:34.611580, 1.73509
2022-12-01 16:22:34.623412, 1.73021
2022-12-01 16:22:34.631915, 1.73021
2022-12-01 16:22:34.640219, 1.72532
2022-12-01 16:22:34.652113, 1.72532
2022-12-01 16:22:34.660844, 1.72532
2022-12-01 16:22:34.668934, 1.72043
2022-12-01 16:22:34.676891, 1.72532
2022-12-01 16:22:34.689489, 1.72532
2022-12-01 16:22:34.697776, 1.72532
2022-12-01 16:22:34.705882, 1.73998
2022-12-01 16:22:34.717710, 1.72043
2022-12-01 16:22:34.726257, 1.71554
2022-12-01 16:22:34.734672, 1.72043
2022-12-01 16:22:34.743183, 1.72532
2022-12-01 16:22:34.755330, 1.74487
2022-12-01 16:22:34.762876, 1.73509
2022-12-01 16:22:34.771375, 1.73998
2022-12-01 16:22:34.784165, 1.74487
2022-12-01 16:22:34.791745, 1.74487
2022-12-01 16:22:34.800373, 1.76442
2022-12-01 16:22:34.808186, 1.73998
2022-12-01 16:22:34.820743, 1.75464
2022-12-01 16:22:34.828797, 1.73998
2022-12-01 16:22:34.837180, 1.75464
2022-12-01 16:22:34.849264, 1.74487
2022-12-01 16:22:34.856751, 1.74976
2022-12-01 16:22:34.865608, 1.74487
2022-12-01 16:22:34.873645, 1.74487
2022-12-01 16:22:34.885461, 1.74487
2022-12-01 16:22:34.893679, 1.73998
2022-12-01 16:22:34.902170, 1.73998
2022-12-01 16:22:34.914913, 1.73509
2022-12-01 16:22:34.923477, 1.73021
2022-12-01 16:22:34.931300, 1.72532
2022-12-01 16:22:34.939476, 1.72532
2022-12-01 16:22:34.951146, 1.72532
2022-12-01 16:22:34.959926, 1.72043
2022-12-01 16:22:34.968092, 1.72532
2022-12-01 16:22:34.980062, 1.73021
2022-12-01 16:22:34.988296, 1.72532
2022-12-01 16:22:34.996155, 1.73509
2022-12-01 16:22:35.005239, 1.73998
2022-12-01 16:22:35.016998, 1.74487
2022-12-01 16:22:35.025752, 1.74976
2022-12-01 16:22:35.034109, 1.74976
2022-12-01 16:22:35.042933, 1.75953
2022-12-01 16:22:35.054842, 1.74976
2022-12-01 16:22:35.062942, 1.77419
2022-12-01 16:22:35.071345, 1.74976
2022-12-01 16:22:35.082538, 1.75953
2022-12-01 16:22:35.090468, 1.74487
2022-12-01 16:22:35.098593, 1.74976
2022-12-01 16:22:35.107246, 1.74487
2022-12-01 16:22:35.119671, 1.74976
2022-12-01 16:22:35.127683, 1.75464
2022-12-01 16:22:35.136352, 1.75464
2022-12-01 16:22:35.148323, 1.75464
2022-12-01 16:22:35.155961, 1.75464
2022-12-01 16:22:35.164718, 1.74976
2022-12-01 16:22:35.173033, 1.77419
2022-12-01 16:22:35.185007, 1.73998
2022-12-01 16:22:35.193406, 1.76442
2022-12-01 16:22:35.201610, 1.73998
2022-12-01 16:22:35.214002, 1.73509
2022-12-01 16:22:35.222156, 1.73509
2022-12-01 16:22:35.229573, 1.75953
2022-12-01 16:22:35.238689, 1.74487
2022-12-01 16:22:35.250926, 1.74487
2022-12-01 16:22:35.259022, 1.75464
2022-12-01 16:22:35.267322, 1.78397
2022-12-01 16:22:35.279355, 1.76442
2022-12-01 16:22:35.287282, 1.76442
2022-12-01 16:22:35.296175, 1.76442
2022-12-01 16:22:35.303916, 1.75953
2022-12-01 16:22:35.316551, 1.76442
2022-12-01 16:22:35.324681, 1.75464
2022-12-01 16:22:35.333197, 1.78886
2022-12-01 16:22:35.344938, 1.75464
2022-12-01 16:22:35.353222, 1.76442
2022-12-01 16:22:35.361523, 1.75953
2022-12-01 16:22:35.370351, 1.76442
2022-12-01 16:22:35.381511, 1.75953
2022-12-01 16:22:35.389825, 1.76442
2022-12-01 16:22:35.398535, 1.75953
2022-12-01 16:22:35.410073, 1.75953
2022-12-01 16:22:35.418855, 1.75464
2022-12-01 16:22:35.426742, 1.74976
2022-12-01 16:22:35.435272, 1.74487
2022-12-01 16:22:35.446973, 1.74487
2022-12-01 16:22:35.455827, 1.73509
2022-12-01 16:22:35.463621, 1.73509
2022-12-01 16:22:35.475984, 1.73998
2022-12-01 16:22:35.484387, 1.74487
2022-12-01 16:22:35.492523, 1.76442
2022-12-01 16:22:35.500828, 1.75464
2022-12-01 16:22:35.512611, 1.75953
2022-12-01 16:22:35.521021, 1.79374
2022-12-01 16:22:35.529595, 1.76442
2022-12-01 16:22:35.541348, 1.78397
2022-12-01 16:22:35.549685, 1.76442
2022-12-01 16:22:35.557918, 1.76931
2022-12-01 16:22:35.566116, 1.76442
2022-12-01 16:22:35.578892, 1.78886
2022-12-01 16:22:35.586904, 1.75953
2022-12-01 16:22:35.594861, 1.75953
2022-12-01 16:22:35.607357, 1.75953
2022-12-01 16:22:35.615495, 1.76931
2022-12-01 16:22:35.623036, 1.75464
2022-12-01 16:22:35.631672, 1.76931
2022-12-01 16:22:35.644436, 1.74976
2022-12-01 16:22:35.652403, 1.74976
2022-12-01 16:22:35.660574, 1.75464
2022-12-01 16:22:35.672485, 1.74487
2022-12-01 16:22:35.680444, 1.74487
2022-12-01 16:22:35.689189, 1.73998
2022-12-01 16:22:35.697086, 1.73998
2022-12-01 16:22:35.709226, 1.73509
2022-12-01 16:22:35.717541, 1.73509
2022-12-01 16:22:35.726139, 1.73021
2022-12-01 16:22:35.737620, 1.73021
2022-12-01 16:22:35.745880, 1.73021
2022-12-01 16:22:35.755350, 1.73021
2022-12-01 16:22:35.762972, 1.72532
2022-12-01 16:22:35.775777, 1.72532
2022-12-01 16:22:35.784000, 1.75464
2022-12-01 16:22:35.791673, 1.72043
2022-12-01 16:22:35.804432, 1.72043
2022-12-01 16:22:35.812435, 1.72043
2022-12-01 16:22:35.820432, 1.72043
2022-12-01 16:22:35.828593, 1.72532
2022-12-01 16:22:35.840744, 1.72532
2022-12-01 16:22:35.848937, 1.73998
2022-12-01 16:22:35.856926, 1.72043
2022-12-01 16:22:35.868928, 1.71065
2022-12-01 16:22:35.878214, 1.70577
2022-12-01 16:22:35.886027, 1.73509
2022-12-01 16:22:35.894583, 1.71065
2022-12-01 16:22:35.906868, 1.70577
2022-12-01 16:22:35.914954, 1.71065
2022-12-01 16:22:35.922097, 1.73509
2022-12-01 16:22:35.930834, 1.70577
2022-12-01 16:22:35.943277, 1.70577
2022-12-01 16:22:35.950820, 1.70577
2022-12-01 16:22:35.959252, 1.73021
2022-12-01 16:22:35.971445, 1.71065
2022-12-01 16:22:35.979233, 1.71554
2022-12-01 16:22:35.987470, 1.72043
2022-12-01 16:22:35.996398, 1.72043
2022-12-01 16:22:36.007909, 1.71554
2022-12-01 16:22:36.016261, 1.71554
2022-12-01 16:22:36.024825, 1.73021
2022-12-01 16:22:36.037114, 1.71554
2022-12-01 16:22:36.045873, 1.71554
2022-12-01 16:22:36.053632, 1.74487
2022-12-01 16:22:36.062534, 1.72043
2022-12-01 16:22:36.074772, 1.71554
2022-12-01 16:22:36.081879, 1.71065
2022-12-01 16:22:36.091167, 1.71554
2022-12-01 16:22:36.102631, 1.71065
2022-12-01 16:22:36.110673, 1.71065
2022-12-01 16:22:36.118671, 1.71554
2022-12-01 16:22:36.126761, 1.71554
2022-12-01 16:22:36.139652, 1.72043
2022-12-01 16:22:36.147418, 1.72043
2022-12-01 16:22:36.155974, 1.72532
2022-12-01 16:22:36.168490, 1.72532
2022-12-01 16:22:36.176272, 1.73021
2022-12-01 16:22:36.184879, 1.73509
2022-12-01 16:22:36.192102, 1.73998
2022-12-01 16:22:36.205395, 1.73998
2022-12-01 16:22:36.213429, 1.74976
2022-12-01 16:22:36.222093, 1.74976
2022-12-01 16:22:36.234532, 1.75953
2022-12-01 16:22:36.241759, 1.75464
2022-12-01 16:22:36.250411, 1.77419
2022-12-01 16:22:36.258439, 1.75953
2022-12-01 16:22:36.270609, 1.79374
2022-12-01 16:22:36.278973, 1.75464
2022-12-01 16:22:36.287252, 1.77908
2022-12-01 16:22:36.299278, 1.75464
2022-12-01 16:22:36.308268, 1.77908
2022-12-01 16:22:36.315009, 1.74487
2022-12-01 16:22:36.324588, 1.73998
2022-12-01 16:22:36.336488, 1.73998
2022-12-01 16:22:36.343620, 1.73509
2022-12-01 16:22:36.352843, 1.73021
2022-12-01 16:22:36.364903, 1.74976
2022-12-01 16:22:36.382393, 1.73509
2022-12-01 16:22:36.393874, 1.73021
2022-12-01 16:22:36.458113, 1.74976
2022-12-01 16:22:36.497761, 1.73021
2022-12-01 16:22:36.547744, 1.73021
2022-12-01 16:22:36.561203, 1.75953
2022-12-01 16:22:36.567352, 1.72532
2022-12-01 16:22:36.570734, 1.72532
2022-12-01 16:22:36.573554, 1.75464
2022-12-01 16:22:36.574724, 1.72043
2022-12-01 16:22:36.575425, 1.71554
2022-12-01 16:22:36.575921, 1.71065
2022-12-01 16:22:36.576420, 1.70577
2022-12-01 16:22:36.577160, 1.69599
2022-12-01 16:22:36.577656, 1.69110
2022-12-01 16:22:36.578153, 1.68622
2022-12-01 16:22:36.578650, 1.67644
2022-12-01 16:22:36.579643, 1.68133
2022-12-01 16:22:36.580140, 1.68622
2022-12-01 16:22:36.581223, 1.69110
2022-12-01 16:22:36.581722, 1.69599
2022-12-01 16:22:36.582216, 1.69599
2022-12-01 16:22:36.582719, 1.70088
2022-12-01 16:22:36.586065, 1.70088
2022-12-01 16:22:36.598326, 1.70088
2022-12-01 16:22:36.606760, 1.70088
2022-12-01 16:22:36.614999, 1.72532
2022-12-01 16:22:36.627016, 1.69599
2022-12-01 16:22:36.634980, 1.69599
2022-12-01 16:22:36.642966, 1.70088
2022-12-01 16:22:36.651456, 1.73509
2022-12-01 16:22:36.663044, 1.71065
2022-12-01 16:22:36.672268, 1.71554
2022-12-01 16:22:36.679822, 1.74487
2022-12-01 16:22:36.692769, 1.71065
2022-12-01 16:22:36.700665, 1.70577
2022-12-01 16:22:36.709661, 1.70088
2022-12-01 16:22:36.719668, 1.70577
2022-12-01 16:22:36.728787, 1.69110
2022-12-01 16:22:36.737495, 1.68622
2022-12-01 16:22:36.745226, 1.68622
2022-12-01 16:22:36.758853, 1.68133
2022-12-01 16:22:36.766585, 1.67644
2022-12-01 16:22:36.774653, 1.67644
2022-12-01 16:22:36.782630, 1.67644
2022-12-01 16:22:36.794954, 1.69110
2022-12-01 16:22:36.803348, 1.67155
2022-12-01 16:22:36.811416, 1.67155
2022-12-01 16:22:36.819730, 1.67155
2022-12-01 16:22:36.831814, 1.69110
2022-12-01 16:22:36.840048, 1.67644
2022-12-01 16:22:36.848199, 1.67644
2022-12-01 16:22:36.860730, 1.67155
2022-12-01 16:22:36.868924, 1.69110
2022-12-01 16:22:36.876803, 1.67155
2022-12-01 16:22:36.885828, 1.66667
2022-12-01 16:22:36.897527, 1.66667
2022-12-01 16:22:36.905766, 1.66667
2022-12-01 16:22:36.913799, 1.67155
2022-12-01 16:22:36.926629, 1.66667
2022-12-01 16:22:36.934022, 1.66667
2022-12-01 16:22:36.943178, 1.66667
2022-12-01 16:22:36.950395, 1.66667
2022-12-01 16:22:36.962170, 1.67155
2022-12-01 16:22:36.971843, 1.66667
2022-12-01 16:22:36.979536, 1.67155
2022-12-01 16:22:36.992184, 1.67155
2022-12-01 16:22:36.999738, 1.67644
2022-12-01 16:22:37.008249, 1.68133
2022-12-01 16:22:37.016399, 1.68622
2022-12-01 16:22:37.027969, 1.69599
2022-12-01 16:22:37.036891, 1.70577
2022-12-01 16:22:37.044809, 1.72043
2022-12-01 16:22:37.056365, 1.73998
2022-12-01 16:22:37.065135, 1.73998
2022-12-01 16:22:37.073323, 1.74487
2022-12-01 16:22:37.081680, 1.74487
2022-12-01 16:22:37.093675, 1.75464
2022-12-01 16:22:37.102147, 1.75953
2022-12-01 16:22:37.110136, 1.75464
2022-12-01 16:22:37.122038, 1.75953
2022-12-01 16:22:37.130658, 1.75464
2022-12-01 16:22:37.139007, 1.76442
2022-12-01 16:22:37.147541, 1.74976
2022-12-01 16:22:37.158505, 1.74487
2022-12-01 16:22:37.167748, 1.73998
2022-12-01 16:22:37.175540, 1.73021
2022-12-01 16:22:37.187834, 1.72532
2022-12-01 16:22:37.195627, 1.71065
2022-12-01 16:22:37.204449, 1.70577
2022-12-01 16:22:37.211981, 1.70088
2022-12-01 16:22:37.224224, 1.69599
2022-12-01 16:22:37.233217, 1.69110
2022-12-01 16:22:37.241432, 1.69110
2022-12-01 16:22:37.254437, 1.69110
2022-12-01 16:22:37.261455, 1.68622
2022-12-01 16:22:37.270319, 1.69110
2022-12-01 16:22:37.278243, 1.71065
2022-12-01 16:22:37.290609, 1.69599
2022-12-01 16:22:37.298980, 1.69599
2022-12-01 16:22:37.307189, 1.69110
2022-12-01 16:22:37.318255, 1.71554
2022-12-01 16:22:37.328197, 1.68133
2022-12-01 16:22:37.334611, 1.67644
2022-12-01 16:22:37.344189, 1.69110
2022-12-01 16:22:37.356454, 1.66667
2022-12-01 16:22:37.364220, 1.67155
2022-12-01 16:22:37.372718, 1.67155
2022-12-01 16:22:37.384682, 1.67644
2022-12-01 16:22:37.392881, 1.68133
2022-12-01 16:22:37.401255, 1.68133
2022-12-01 16:22:37.409293, 1.68622
2022-12-01 16:22:37.421400, 1.69599
2022-12-01 16:22:37.429836, 1.69110
2022-12-01 16:22:37.438796, 1.68133
2022-12-01 16:22:37.450620, 1.68133
2022-12-01 16:22:37.457775, 1.68622
2022-12-01 16:22:37.466623, 1.68133
2022-12-01 16:22:37.474524, 1.68622
2022-12-01 16:22:37.487272, 1.68622
2022-12-01 16:22:37.494986, 1.68133
2022-12-01 16:22:37.503731, 1.67155
2022-12-01 16:22:37.515610, 1.69110
2022-12-01 16:22:37.523928, 1.64712
2022-12-01 16:22:37.531254, 1.63245
2022-12-01 16:22:37.540645, 1.61290
2022-12-01 16:22:37.551854, 1.60313
2022-12-01 16:22:37.560487, 1.58847
2022-12-01 16:22:37.568984, 1.58358
2022-12-01 16:22:37.581282, 1.57869
2022-12-01 16:22:37.589741, 1.57869
2022-12-01 16:22:37.597793, 1.58358
2022-12-01 16:22:37.605896, 1.58847
2022-12-01 16:22:37.618926, 1.58847
2022-12-01 16:22:37.626749, 1.59335
2022-12-01 16:22:37.635340, 1.60313
2022-12-01 16:22:37.642433, 1.61290
2022-12-01 16:22:37.654922, 1.65200
2022-12-01 16:22:37.663474, 1.63245
2022-12-01 16:22:37.671471, 1.64712
2022-12-01 16:22:37.683677, 1.68133
2022-12-01 16:22:37.691664, 1.66178
2022-12-01 16:22:37.700316, 1.67155
2022-12-01 16:22:37.708597, 1.68133
2022-12-01 16:22:37.720836, 1.67155
2022-12-01 16:22:37.728761, 1.67644
2022-12-01 16:22:37.737319, 1.68133
2022-12-01 16:22:37.749078, 1.68622
2022-12-01 16:22:37.757580, 1.71554
2022-12-01 16:22:37.765285, 1.70577
2022-12-01 16:22:37.773289, 1.71554
2022-12-01 16:22:37.785372, 1.72532
2022-12-01 16:22:37.794144, 1.73509
2022-12-01 16:22:37.802631, 1.74487
2022-12-01 16:22:37.815510, 1.76442
2022-12-01 16:22:37.823028, 1.75464
2022-12-01 16:22:37.831474, 1.74976
2022-12-01 16:22:37.840193, 1.74976
2022-12-01 16:22:37.851840, 1.73998
2022-12-01 16:22:37.860178, 1.74487
2022-12-01 16:22:37.867887, 1.71554
2022-12-01 16:22:37.880599, 1.70577
2022-12-01 16:22:37.888862, 1.69599
2022-12-01 16:22:37.896135, 1.70577
2022-12-01 16:22:37.904963, 1.67155
2022-12-01 16:22:37.918026, 1.66667
2022-12-01 16:22:37.926510, 1.65689
2022-12-01 16:22:37.934409, 1.66178
2022-12-01 16:22:37.945298, 1.64712
2022-12-01 16:22:37.954464, 1.64712
2022-12-01 16:22:37.962403, 1.65689
2022-12-01 16:22:37.971278, 1.64712
2022-12-01 16:22:37.983554, 1.65200
2022-12-01 16:22:37.990996, 1.69110
2022-12-01 16:22:37.999945, 1.67155
2022-12-01 16:22:38.011567, 1.67644
2022-12-01 16:22:38.019749, 1.68622
2022-12-01 16:22:38.027876, 1.70088
2022-12-01 16:22:38.040525, 1.71065
2022-12-01 16:22:38.069332, 1.72532
2022-12-01 16:22:38.074165, 1.73509
2022-12-01 16:22:38.075711, 1.73998
2022-12-01 16:22:38.076834, 1.74976
2022-12-01 16:22:38.085204, 1.75464
2022-12-01 16:22:38.093672, 1.75464
2022-12-01 16:22:38.101589, 1.75464
2022-12-01 16:22:38.113605, 1.75953
2022-12-01 16:22:38.121973, 1.74976
2022-12-01 16:22:38.130621, 1.76442
2022-12-01 16:22:38.141775, 1.73998
2022-12-01 16:22:38.151083, 1.73509
2022-12-01 16:22:38.158838, 1.73021
2022-12-01 16:22:38.166941, 1.72532
2022-12-01 16:22:38.178453, 1.72043
2022-12-01 16:22:38.187687, 1.72043
2022-12-01 16:22:38.195478, 1.72043
2022-12-01 16:22:38.207209, 1.72043
2022-12-01 16:22:38.216044, 1.72043
2022-12-01 16:22:38.224525, 1.72043
2022-12-01 16:22:38.232443, 1.72043
2022-12-01 16:22:38.244215, 1.73998
2022-12-01 16:22:38.252470, 1.72043
2022-12-01 16:22:38.260451, 1.71554
2022-12-01 16:22:38.273561, 1.74487
2022-12-01 16:22:38.280978, 1.71554
2022-12-01 16:22:38.289576, 1.71554
2022-12-01 16:22:38.298439, 1.71554
2022-12-01 16:22:38.310525, 1.71554
2022-12-01 16:22:38.318897, 1.73509
2022-12-01 16:22:38.327323, 1.71554
2022-12-01 16:22:38.338858, 1.71554
2022-12-01 16:22:38.347288, 1.72043
2022-12-01 16:22:38.355452, 1.72043
2022-12-01 16:22:38.364455, 1.73021
2022-12-01 16:22:38.376279, 1.72532
2022-12-01 16:22:38.383383, 1.72532
2022-12-01 16:22:38.392648, 1.72043
2022-12-01 16:22:38.404967, 1.72532
2022-12-01 16:22:38.412591, 1.72043
2022-12-01 16:22:38.421824, 1.72043
2022-12-01 16:22:38.429658, 1.72043
2022-12-01 16:22:38.442290, 1.72043
2022-12-01 16:22:38.449767, 1.72043
2022-12-01 16:22:38.458814, 1.72043
2022-12-01 16:22:38.470904, 1.71554
2022-12-01 16:22:38.478099, 1.72043
2022-12-01 16:22:38.487389, 1.71065
2022-12-01 16:22:38.494890, 1.72043
2022-12-01 16:22:38.506746, 1.70577
2022-12-01 16:22:38.516037, 1.70577
2022-12-01 16:22:38.523476, 1.70577
2022-12-01 16:22:38.531913, 1.70577
2022-12-01 16:22:38.543547, 1.71554
2022-12-01 16:22:38.551521, 1.71065
2022-12-01 16:22:38.560291, 1.70577
2022-12-01 16:22:38.572450, 1.70577
2022-12-01 16:22:38.580645, 1.70577
2022-12-01 16:22:38.589134, 1.70577
2022-12-01 16:22:38.597507, 1.71065
2022-12-01 16:22:38.609315, 1.70577
2022-12-01 16:22:38.617416, 1.70577
2022-12-01 16:22:38.625901, 1.70577
2022-12-01 16:22:38.637467, 1.71065
2022-12-01 16:22:38.646004, 1.70577
2022-12-01 16:22:38.654403, 1.70088
2022-12-01 16:22:38.662104, 1.70577
2022-12-01 16:22:38.675006, 1.70088
2022-12-01 16:22:38.683902, 1.70088
2022-12-01 16:22:38.691436, 1.70088
2022-12-01 16:22:38.703257, 1.70577
2022-12-01 16:22:38.712120, 1.70088
2022-12-01 16:22:38.720104, 1.70088
2022-12-01 16:22:38.728523, 1.70577
2022-12-01 16:22:38.740538, 1.70088
2022-12-01 16:22:38.748689, 1.70088
2022-12-01 16:22:38.757728, 1.70577
2022-12-01 16:22:38.769697, 1.70088
2022-12-01 16:22:38.777979, 1.72043
2022-12-01 16:22:38.785694, 1.70088
2022-12-01 16:22:38.794054, 1.70088
2022-12-01 16:22:38.806860, 1.70088
2022-12-01 16:22:38.814740, 1.71065
2022-12-01 16:22:38.822487, 1.69599
2022-12-01 16:22:38.835538, 1.70088
2022-12-01 16:22:38.842707, 1.70088
2022-12-01 16:22:38.851909, 1.69599
2022-12-01 16:22:38.860124, 1.69599
2022-12-01 16:22:38.871688, 1.69599
2022-12-01 16:22:38.879991, 1.69599
2022-12-01 16:22:38.887544, 1.69599
2022-12-01 16:22:38.900616, 1.70088
2022-12-01 16:22:38.908778, 1.69599
2022-12-01 16:22:38.917126, 1.69599
2022-12-01 16:22:38.925667, 1.69599
2022-12-01 16:22:38.937083, 1.69599
2022-12-01 16:22:38.945574, 1.69599
2022-12-01 16:22:38.954377, 1.71554
2022-12-01 16:22:38.965832, 1.69599
2022-12-01 16:22:38.974815, 1.69599
2022-12-01 16:22:38.982350, 1.72532
2022-12-01 16:22:38.990155, 1.69599
2022-12-01 16:22:39.002573, 1.69599
2022-12-01 16:22:39.010930, 1.69599
2022-12-01 16:22:39.019294, 1.69599
2022-12-01 16:22:39.031371, 1.69599
2022-12-01 16:22:39.039567, 1.69599
2022-12-01 16:22:39.048215, 1.69599
2022-12-01 16:22:39.056127, 1.69599
2022-12-01 16:22:39.068463, 1.70088
2022-12-01 16:22:39.076716, 1.69599
2022-12-01 16:22:39.085285, 1.70088
2022-12-01 16:22:39.096871, 1.70088
2022-12-01 16:22:39.104970, 1.69599
2022-12-01 16:22:39.113364, 1.70088
2022-12-01 16:22:39.121980, 1.70088
2022-12-01 16:22:39.134516, 1.70088
2022-12-01 16:22:39.142742, 1.70088
2022-12-01 16:22:39.150365, 1.71065
2022-12-01 16:22:39.162873, 1.69599
2022-12-01 16:22:39.170472, 1.69599
2022-12-01 16:22:39.178745, 1.69599
2022-12-01 16:22:39.186989, 1.69599
2022-12-01 16:22:39.199109, 1.70088
2022-12-01 16:22:39.207501, 1.70088
2022-12-01 16:22:39.215708, 1.70577
2022-12-01 16:22:39.227609, 1.73509
2022-12-01 16:22:39.235904, 1.70577
2022-12-01 16:22:39.244286, 1.70577
2022-12-01 16:22:39.252987, 1.70577
2022-12-01 16:22:39.264897, 1.70577
2022-12-01 16:22:39.272996, 1.70577
2022-12-01 16:22:39.281422, 1.70577
2022-12-01 16:22:39.294311, 1.70577
2022-12-01 16:22:39.301482, 1.70577
2022-12-01 16:22:39.309659, 1.70577
2022-12-01 16:22:39.318150, 1.70088
2022-12-01 16:22:39.330454, 1.73509
2022-12-01 16:22:39.338859, 1.70577
2022-12-01 16:22:39.346206, 1.71065
2022-12-01 16:22:39.359282, 1.70577
2022-12-01 16:22:39.367998, 1.71065
2022-12-01 16:22:39.375805, 1.70577
2022-12-01 16:22:39.384222, 1.71065
2022-12-01 16:22:39.395358, 1.70577
2022-12-01 16:22:39.404468, 1.70577
2022-12-01 16:22:39.412206, 1.70577
2022-12-01 16:22:39.421368, 1.70577
2022-12-01 16:22:39.432980, 1.73021
2022-12-01 16:22:39.440979, 1.70577
2022-12-01 16:22:39.449011, 1.70577
2022-12-01 16:22:39.461058, 1.70577
2022-12-01 16:22:39.469730, 1.70577
2022-12-01 16:22:39.477835, 1.70577
2022-12-01 16:22:39.486820, 1.70577
2022-12-01 16:22:39.498433, 1.72532
2022-12-01 16:22:39.506744, 1.70088
2022-12-01 16:22:39.515117, 1.70577
2022-12-01 16:22:39.526259, 1.72532
2022-12-01 16:22:39.535420, 1.70088
2022-12-01 16:22:39.543356, 1.70088
2022-12-01 16:22:39.551874, 1.70577
2022-12-01 16:22:39.564059, 1.70088
2022-12-01 16:22:39.572466, 1.70088
2022-12-01 16:22:39.580054, 1.70577
2022-12-01 16:22:39.592730, 1.70577
2022-12-01 16:22:39.600979, 1.70577
2022-12-01 16:22:39.608910, 1.70577
2022-12-01 16:22:39.616978, 1.70088
2022-12-01 16:22:39.629551, 1.70577
2022-12-01 16:22:39.637712, 1.70088
2022-12-01 16:22:39.646557, 1.70577
2022-12-01 16:22:39.658815, 1.69599
2022-12-01 16:22:39.666428, 1.69599
2022-12-01 16:22:39.675204, 1.70088
2022-12-01 16:22:39.682996, 1.69599
2022-12-01 16:22:39.695447, 1.70088
2022-12-01 16:22:39.703357, 1.69599
2022-12-01 16:22:39.711324, 1.69110
2022-12-01 16:22:39.723876, 1.69599
2022-12-01 16:22:39.732016, 1.69110
2022-12-01 16:22:39.739807, 1.68622
2022-12-01 16:22:39.748394, 1.68622
2022-12-01 16:22:39.760617, 1.68133
2022-12-01 16:22:39.768916, 1.71065
2022-12-01 16:22:39.776957, 1.68133
2022-12-01 16:22:39.788284, 1.67644
2022-12-01 16:22:39.797345, 1.68622
2022-12-01 16:22:39.805210, 1.68133
2022-12-01 16:22:39.813183, 1.67644
2022-12-01 16:22:39.826776, 1.69599
2022-12-01 16:22:39.834467, 1.68133
2022-12-01 16:22:39.843247, 1.68133
2022-12-01 16:22:39.855428, 1.68133
2022-12-01 16:22:39.862611, 1.70577
2022-12-01 16:22:39.871826, 1.68133
2022-12-01 16:22:39.879042, 1.68133
2022-12-01 16:22:39.890845, 1.69110
2022-12-01 16:22:39.900470, 1.68133
2022-12-01 16:22:39.908118, 1.68133
2022-12-01 16:22:39.920462, 1.70577
2022-12-01 16:22:39.928599, 1.68622
2022-12-01 16:22:39.936647, 1.68622
2022-12-01 16:22:39.945219, 1.68622
2022-12-01 16:22:39.957872, 1.68622
2022-12-01 16:22:39.965874, 1.70577
2022-12-01 16:22:39.974227, 1.68622
2022-12-01 16:22:39.986015, 1.68622
2022-12-01 16:22:39.994288, 1.69110
2022-12-01 16:22:40.002903, 1.68622
2022-12-01 16:22:40.010947, 1.68622
2022-12-01 16:22:40.022971, 1.68622
2022-12-01 16:22:40.030765, 1.68622
2022-12-01 16:22:40.039064, 1.68622
2022-12-01 16:22:40.052031, 1.68133
2022-12-01 16:22:40.059354, 1.70577
2022-12-01 16:22:40.068422, 1.68133
2022-12-01 16:22:40.075988, 1.68133
2022-12-01 16:22:40.088474, 1.68133
2022-12-01 16:22:40.096358, 1.68622
2022-12-01 16:22:40.103816, 1.68133
2022-12-01 16:22:40.117051, 1.67644
2022-12-01 16:22:40.125797, 1.68133
2022-12-01 16:22:40.134745, 1.67644
2022-12-01 16:22:40.141084, 1.67644
2022-12-01 16:22:40.153682, 1.69110
2022-12-01 16:22:40.161704, 1.67155
2022-12-01 16:22:40.169370, 1.67155
2022-12-01 16:22:40.181418, 1.67155
2022-12-01 16:22:40.190825, 1.67155
2022-12-01 16:22:40.198282, 1.67644
2022-12-01 16:22:40.206837, 1.67644
2022-12-01 16:22:40.220007, 1.67644
2022-12-01 16:22:40.227311, 1.68133
2022-12-01 16:22:40.236395, 1.67644
2022-12-01 16:22:40.248229, 1.71065
2022-12-01 16:22:40.256477, 1.68133
2022-12-01 16:22:40.264117, 1.67644
2022-12-01 16:22:40.272218, 1.69599
2022-12-01 16:22:40.284785, 1.67155
2022-12-01 16:22:40.293104, 1.67644
2022-12-01 16:22:40.301147, 1.68133
2022-12-01 16:22:40.309004, 1.68622
2022-12-01 16:22:40.321143, 1.68133
2022-12-01 16:22:40.329793, 1.68133
2022-12-01 16:22:40.337662, 1.68133
2022-12-01 16:22:40.350512, 1.67644
2022-12-01 16:22:40.358789, 1.67644
2022-12-01 16:22:40.366648, 1.70088
2022-12-01 16:22:40.375108, 1.67644
2022-12-01 16:22:40.387421, 1.67644
2022-12-01 16:22:40.395385, 1.67644
2022-12-01 16:22:40.404302, 1.68133
2022-12-01 16:22:40.416227, 1.68133
2022-12-01 16:22:40.424222, 1.68133
2022-12-01 16:22:40.432196, 1.68622
2022-12-01 16:22:40.440511, 1.68133
2022-12-01 16:22:40.452192, 1.68133
2022-12-01 16:22:40.460701, 1.68133
2022-12-01 16:22:40.470495, 1.67644
2022-12-01 16:22:40.481574, 1.71065
2022-12-01 16:22:40.489439, 1.67644
2022-12-01 16:22:40.498539, 1.67644
2022-12-01 16:22:40.506706, 1.68133
2022-12-01 16:22:40.518421, 1.67644
2022-12-01 16:22:40.525975, 1.68133
2022-12-01 16:22:40.534289, 1.67644
2022-12-01 16:22:40.548389, 1.70577
2022-12-01 16:22:40.555124, 1.68133
2022-12-01 16:22:40.563355, 1.68133
2022-12-01 16:22:40.572264, 1.69110
2022-12-01 16:22:40.584227, 1.68133
2022-12-01 16:22:40.592825, 1.68133
2022-12-01 16:22:40.600453, 1.68133
2022-12-01 16:22:40.611733, 1.68622
2022-12-01 16:22:40.619966, 1.70088
2022-12-01 16:22:40.628395, 1.68622
2022-12-01 16:22:40.638361, 1.68622
2022-12-01 16:22:40.649288, 1.70088
2022-12-01 16:22:40.657325, 1.68622
2022-12-01 16:22:40.666166, 1.68622
2022-12-01 16:22:40.677352, 1.71065
2022-12-01 16:22:40.686401, 1.67644
2022-12-01 16:22:40.694017, 1.67644
2022-12-01 16:22:40.702153, 1.68133
2022-12-01 16:22:40.714520, 1.67644
2022-12-01 16:22:40.723443, 1.70088
2022-12-01 16:22:40.730637, 1.67644
2022-12-01 16:22:40.743267, 1.67644
2022-12-01 16:22:40.752227, 1.69599
2022-12-01 16:22:40.759752, 1.68133
2022-12-01 16:22:40.768009, 1.68133
2022-12-01 16:22:40.780624, 1.68133
2022-12-01 16:22:40.788840, 1.68133
2022-12-01 16:22:40.796793, 1.68133
2022-12-01 16:22:40.809075, 1.68133
2022-12-01 16:22:40.817240, 1.67644
2022-12-01 16:22:40.825933, 1.71065
2022-12-01 16:22:40.834396, 1.68133
2022-12-01 16:22:40.846702, 1.68133
2022-12-01 16:22:40.852932, 1.70088
2022-12-01 16:22:40.862396, 1.68133
2022-12-01 16:22:40.874598, 1.68133
2022-12-01 16:22:40.882735, 1.68133
2022-12-01 16:22:40.891217, 1.67644
2022-12-01 16:22:40.899506, 1.67644
2022-12-01 16:22:40.911435, 1.68133
2022-12-01 16:22:40.919918, 1.68133
2022-12-01 16:22:40.927909, 1.68622
2022-12-01 16:22:40.940489, 1.68133
2022-12-01 16:22:40.948625, 1.68133
2022-12-01 16:22:40.956755, 1.68133
2022-12-01 16:22:40.964711, 1.68133
2022-12-01 16:22:40.976347, 1.69599
2022-12-01 16:22:40.985265, 1.68133
2022-12-01 16:22:40.993445, 1.68133
2022-12-01 16:22:41.004920, 1.68622
2022-12-01 16:22:41.013571, 1.68133
2022-12-01 16:22:41.022340, 1.68622
2022-12-01 16:22:41.030271, 1.68133
2022-12-01 16:22:41.042744, 1.68133
2022-12-01 16:22:41.050614, 1.68133
2022-12-01 16:22:41.059139, 1.68133
2022-12-01 16:22:41.071451, 1.68133
2022-12-01 16:22:41.080688, 1.68622
2022-12-01 16:22:41.088251, 1.68133
2022-12-01 16:22:41.095850, 1.71554
2022-12-01 16:22:41.108313, 1.68622
2022-12-01 16:22:41.115931, 1.68133
2022-12-01 16:22:41.124183, 1.68622
2022-12-01 16:22:41.136067, 1.68133
2022-12-01 16:22:41.144411, 1.69110
2022-12-01 16:22:41.153520, 1.68133
2022-12-01 16:22:41.161061, 1.68133
2022-12-01 16:22:41.173605, 1.68622
2022-12-01 16:22:41.181678, 1.68622
2022-12-01 16:22:41.189874, 1.68622
2022-12-01 16:22:41.198967, 1.68622
2022-12-01 16:22:41.210471, 1.69110
2022-12-01 16:22:41.218959, 1.68622
2022-12-01 16:22:41.227137, 1.68622
2022-12-01 16:22:41.239895, 1.68622
2022-12-01 16:22:41.247776, 1.71554
2022-12-01 16:22:41.255814, 1.68622
2022-12-01 16:22:41.263411, 1.70088
2022-12-01 16:22:41.276481, 1.68622
2022-12-01 16:22:41.284538, 1.68622
2022-12-01 16:22:41.292627, 1.68622
2022-12-01 16:22:41.304939, 1.68622
2022-12-01 16:22:41.313137, 1.71554
2022-12-01 16:22:41.320876, 1.68622
2022-12-01 16:22:41.328770, 1.68622
2022-12-01 16:22:41.341477, 1.68622
2022-12-01 16:22:41.349464, 1.68133
2022-12-01 16:22:41.356860, 1.70577
2022-12-01 16:22:41.369959, 1.68622
2022-12-01 16:22:41.378400, 1.69599
2022-12-01 16:22:41.386890, 1.68622
2022-12-01 16:22:41.394979, 1.71554
2022-12-01 16:22:41.406329, 1.68622
2022-12-01 16:22:41.415769, 1.68622
2022-12-01 16:22:41.423654, 1.68622
2022-12-01 16:22:41.435622, 1.68622
2022-12-01 16:22:41.443550, 1.70577
2022-12-01 16:22:41.452108, 1.68622
2022-12-01 16:22:41.460031, 1.68622
2022-12-01 16:22:41.471819, 1.69599
2022-12-01 16:22:41.480435, 1.68622
2022-12-01 16:22:41.488418, 1.68622
2022-12-01 16:22:41.500635, 1.68622
2022-12-01 16:22:41.509229, 1.68622
2022-12-01 16:22:41.517301, 1.71554
2022-12-01 16:22:41.525496, 1.68622
2022-12-01 16:22:41.537922, 1.68622
2022-12-01 16:22:41.547105, 1.70577
2022-12-01 16:22:41.554003, 1.68622
2022-12-01 16:22:41.567091, 1.68622
2022-12-01 16:22:41.575784, 1.68622
2022-12-01 16:22:41.583572, 1.68622
2022-12-01 16:22:41.592146, 1.68622
2022-12-01 16:22:41.604463, 1.68622
2022-12-01 16:22:41.611327, 1.68622
2022-12-01 16:22:41.620484, 1.69110
2022-12-01 16:22:41.632129, 1.68622
2022-12-01 16:22:41.640800, 1.69110
2022-12-01 16:22:41.648763, 1.69110
2022-12-01 16:22:41.656996, 1.69110
2022-12-01 16:22:41.669643, 1.68622
2022-12-01 16:22:41.677174, 1.68622
2022-12-01 16:22:41.686423, 1.68622
2022-12-01 16:22:41.698386, 1.68622
2022-12-01 16:22:41.705885, 1.68622
2022-12-01 16:22:41.715057, 1.68622
2022-12-01 16:22:41.722474, 1.68622
2022-12-01 16:22:41.734735, 1.68622
2022-12-01 16:22:41.743238, 1.69110
2022-12-01 16:22:41.751192, 1.68622
2022-12-01 16:22:41.764185, 1.68622
2022-12-01 16:22:41.771949, 1.69110
2022-12-01 16:22:41.779570, 1.69110
2022-12-01 16:22:41.788487, 1.69599
2022-12-01 16:22:41.800500, 1.69110
2022-12-01 16:22:41.808738, 1.69599
2022-12-01 16:22:41.816948, 1.69110
2022-12-01 16:22:41.828772, 1.69110
2022-12-01 16:22:41.837046, 1.71554
2022-12-01 16:22:41.845524, 1.69110
2022-12-01 16:22:41.853695, 1.69599
2022-12-01 16:22:41.865033, 1.69110
2022-12-01 16:22:41.874044, 1.69599
2022-12-01 16:22:41.882983, 1.69110
2022-12-01 16:22:41.894535, 1.69110
2022-12-01 16:22:41.902976, 1.69110
2022-12-01 16:22:41.910125, 1.69110
2022-12-01 16:22:41.919109, 1.72043
2022-12-01 16:22:41.932166, 1.69599
2022-12-01 16:22:41.939565, 1.69599
2022-12-01 16:22:41.948502, 1.69599
2022-12-01 16:22:41.960166, 1.69599
2022-12-01 16:22:41.968435, 1.69599
2022-12-01 16:22:41.976708, 1.69110
2022-12-01 16:22:41.984538, 1.69110
2022-12-01 16:22:41.997045, 1.69110
2022-12-01 16:22:42.004497, 1.69110
2022-12-01 16:22:42.012746, 1.69110
2022-12-01 16:22:42.025579, 1.68622
2022-12-01 16:22:42.033933, 1.69110
2022-12-01 16:22:42.041907, 1.70088
2022-12-01 16:22:42.050393, 1.68622
2022-12-01 16:22:42.062422, 1.68622
2022-12-01 16:22:42.070912, 1.69110
2022-12-01 16:22:42.078820, 1.69110
2022-12-01 16:22:42.087684, 1.69110
2022-12-01 16:22:42.100076, 1.69110
2022-12-01 16:22:42.106949, 1.71554
2022-12-01 16:22:42.116460, 1.69110
2022-12-01 16:22:42.127779, 1.69110
2022-12-01 16:22:42.136429, 1.69599
2022-12-01 16:22:42.144297, 1.68622
2022-12-01 16:22:42.152730, 1.69110
2022-12-01 16:22:42.164205, 1.70088
2022-12-01 16:22:42.173809, 1.68622
2022-12-01 16:22:42.181448, 1.68622
2022-12-01 16:22:42.193007, 1.69110
2022-12-01 16:22:42.202479, 1.68622
2022-12-01 16:22:42.209984, 1.69110
2022-12-01 16:22:42.218832, 1.69110
2022-12-01 16:22:42.230947, 1.70577
2022-12-01 16:22:42.238793, 1.69110
2022-12-01 16:22:42.247000, 1.68622
2022-12-01 16:22:42.259310, 1.68622
2022-12-01 16:22:42.267254, 1.68622
2022-12-01 16:22:42.275689, 1.68622
2022-12-01 16:22:42.283595, 1.69110
2022-12-01 16:22:42.296256, 1.68622
2022-12-01 16:22:42.303849, 1.68622
2022-12-01 16:22:42.311842, 1.69110
2022-12-01 16:22:42.324906, 1.68622
2022-12-01 16:22:42.332598, 1.69599
2022-12-01 16:22:42.341133, 1.68622
2022-12-01 16:22:42.349456, 1.68622
2022-12-01 16:22:42.360796, 1.68622
2022-12-01 16:22:42.369371, 1.68133
2022-12-01 16:22:42.377634, 1.68622
2022-12-01 16:22:42.389371, 1.68622
2022-12-01 16:22:42.398106, 1.68622
2022-12-01 16:22:42.407778, 1.68622
2022-12-01 16:22:42.414622, 1.68622
2022-12-01 16:22:42.426307, 1.69110
2022-12-01 16:22:42.435197, 1.68622
2022-12-01 16:22:42.443147, 1.69110
2022-12-01 16:22:42.455684, 1.68622
2022-12-01 16:22:42.464124, 1.68622
2022-12-01 16:22:42.472264, 1.68622
2022-12-01 16:22:42.480505, 1.68622
2022-12-01 16:22:42.492794, 1.69110
2022-12-01 16:22:42.500717, 1.68622
2022-12-01 16:22:42.509678, 1.68133
2022-12-01 16:22:42.521263, 1.68622
2022-12-01 16:22:42.529594, 1.68133
2022-12-01 16:22:42.538341, 1.68622
2022-12-01 16:22:42.544995, 1.68622
2022-12-01 16:22:42.558876, 1.68622
2022-12-01 16:22:42.567032, 1.69599
2022-12-01 16:22:42.575330, 1.69110
2022-12-01 16:22:42.587494, 1.71065
2022-12-01 16:22:42.595164, 1.68622
2022-12-01 16:22:42.603378, 1.69110
2022-12-01 16:22:42.611577, 1.69599
2022-12-01 16:22:42.623878, 1.69110
2022-12-01 16:22:42.632039, 1.72043
2022-12-01 16:22:42.640028, 1.69110
2022-12-01 16:22:42.651588, 1.68622
2022-12-01 16:22:42.659901, 1.69110
2022-12-01 16:22:42.668689, 1.68622
2022-12-01 16:22:42.676501, 1.71554
2022-12-01 16:22:42.689013, 1.69110
2022-12-01 16:22:42.697020, 1.69110
2022-12-01 16:22:42.705507, 1.71065
2022-12-01 16:22:42.718555, 1.69110
2022-12-01 16:22:42.726259, 1.69110
2022-12-01 16:22:42.734121, 1.69110
2022-12-01 16:22:42.741474, 1.69110
2022-12-01 16:22:42.755188, 1.69599
2022-12-01 16:22:42.762875, 1.69110
2022-12-01 16:22:42.771756, 1.68622
2022-12-01 16:22:42.783526, 1.69110
2022-12-01 16:22:42.791714, 1.68622
2022-12-01 16:22:42.800031, 1.69110
2022-12-01 16:22:42.808254, 1.68622
2022-12-01 16:22:42.820210, 1.69110
2022-12-01 16:22:42.828186, 1.68622
2022-12-01 16:22:42.836300, 1.68622
2022-12-01 16:22:42.848803, 1.68133
2022-12-01 16:22:42.857183, 1.68133
2022-12-01 16:22:42.864936, 1.68133
2022-12-01 16:22:42.873647, 1.68622
2022-12-01 16:22:42.886489, 1.68133
2022-12-01 16:22:42.893766, 1.68133
2022-12-01 16:22:42.902924, 1.68133
2022-12-01 16:22:42.909563, 1.68133
2022-12-01 16:22:42.923034, 1.68622
2022-12-01 16:22:42.931564, 1.68133
2022-12-01 16:22:42.939642, 1.68622
2022-12-01 16:22:42.952033, 1.68133
2022-12-01 16:22:42.959779, 1.68133
2022-12-01 16:22:42.968244, 1.68133
2022-12-01 16:22:42.976247, 1.68133
2022-12-01 16:22:42.988509, 1.68133
2022-12-01 16:22:42.996653, 1.68133
2022-12-01 16:22:43.004723, 1.68133
2022-12-01 16:22:43.016098, 1.68133
2022-12-01 16:22:43.025014, 1.68133
2022-12-01 16:22:43.033548, 1.68133
2022-12-01 16:22:43.041483, 1.68133
2022-12-01 16:22:43.054438, 1.68622
2022-12-01 16:22:43.061957, 1.68133
2022-12-01 16:22:43.070835, 1.68133
2022-12-01 16:22:43.082446, 1.68133
2022-12-01 16:22:43.091473, 1.68133
2022-12-01 16:22:43.098443, 1.68622
2022-12-01 16:22:43.107304, 1.67644
2022-12-01 16:22:43.119996, 1.69110
2022-12-01 16:22:43.127385, 1.67644
2022-12-01 16:22:43.135704, 1.67644
2022-12-01 16:22:43.148518, 1.68622
2022-12-01 16:22:43.155389, 1.68133
2022-12-01 16:22:43.164575, 1.68133
2022-12-01 16:22:43.172763, 1.68133
2022-12-01 16:22:43.184539, 1.67644
2022-12-01 16:22:43.192914, 1.70088
2022-12-01 16:22:43.201161, 1.67644
2022-12-01 16:22:43.213483, 1.67644
2022-12-01 16:22:43.221467, 1.67644
2022-12-01 16:22:43.229307, 1.67644
2022-12-01 16:22:43.238249, 1.67155
2022-12-01 16:22:43.250357, 1.67155
2022-12-01 16:22:43.258726, 1.67644
2022-12-01 16:22:43.266894, 1.67644
2022-12-01 16:22:43.278901, 1.67644
2022-12-01 16:22:43.287420, 1.67644
2022-12-01 16:22:43.295251, 1.67644
2022-12-01 16:22:43.303814, 1.67644
2022-12-01 16:22:43.316067, 1.67644
2022-12-01 16:22:43.324178, 1.68133
2022-12-01 16:22:43.332509, 1.67644
2022-12-01 16:22:43.343964, 1.68133
2022-12-01 16:22:43.353075, 1.67644
2022-12-01 16:22:43.360611, 1.68133
2022-12-01 16:22:43.369321, 1.68133
2022-12-01 16:22:43.382197, 1.71065
2022-12-01 16:22:43.390331, 1.68133
2022-12-01 16:22:43.398282, 1.67644
2022-12-01 16:22:43.409154, 1.68133
2022-12-01 16:22:43.418272, 1.68133
2022-12-01 16:22:43.426065, 1.70577
2022-12-01 16:22:43.434572, 1.68133
2022-12-01 16:22:43.446867, 1.67644
2022-12-01 16:22:43.454786, 1.70088
2022-12-01 16:22:43.463230, 1.67644
2022-12-01 16:22:43.475216, 1.67644
2022-12-01 16:22:43.483336, 1.67155
2022-12-01 16:22:43.492209, 1.67644
2022-12-01 16:22:43.499484, 1.70577
2022-12-01 16:22:43.512476, 1.67155
2022-12-01 16:22:43.520620, 1.67155
2022-12-01 16:22:43.528186, 1.67155
2022-12-01 16:22:43.540544, 1.67155
2022-12-01 16:22:43.548735, 1.69599
2022-12-01 16:22:43.556986, 1.67155
2022-12-01 16:22:43.565401, 1.66667
2022-12-01 16:22:43.578135, 1.67155
2022-12-01 16:22:43.585338, 1.66667
2022-12-01 16:22:43.593945, 1.66667
2022-12-01 16:22:43.606336, 1.69599
2022-12-01 16:22:43.615054, 1.66667
2022-12-01 16:22:43.623312, 1.66667
2022-12-01 16:22:43.631428, 1.66667
2022-12-01 16:22:43.642822, 1.67155
2022-12-01 16:22:43.651934, 1.67155
2022-12-01 16:22:43.659661, 1.67155
2022-12-01 16:22:43.672123, 1.67155
2022-12-01 16:22:43.680607, 1.67155
2022-12-01 16:22:43.688649, 1.67155
2022-12-01 16:22:43.696942, 1.67644
2022-12-01 16:22:43.709493, 1.67155
2022-12-01 16:22:43.717776, 1.68622
2022-12-01 16:22:43.725649, 1.67644
2022-12-01 16:22:43.737463, 1.67644
2022-12-01 16:22:43.745923, 1.70577
2022-12-01 16:22:43.754861, 1.67644
2022-12-01 16:22:43.762398, 1.67644
2022-12-01 16:22:43.774825, 1.67155
2022-12-01 16:22:43.783567, 1.67644
2022-12-01 16:22:43.791733, 1.67644
2022-12-01 16:22:43.799407, 1.67644
2022-12-01 16:22:43.811486, 1.67644
2022-12-01 16:22:43.820451, 1.67644
2022-12-01 16:22:43.827247, 1.68133
2022-12-01 16:22:43.840007, 1.67644
2022-12-01 16:22:43.848587, 1.70088
2022-12-01 16:22:43.856402, 1.67644
2022-12-01 16:22:43.864992, 1.67155
2022-12-01 16:22:43.877165, 1.67155
2022-12-01 16:22:43.884444, 1.67155
2022-12-01 16:22:43.892689, 1.67644
2022-12-01 16:22:43.905222, 1.67155
2022-12-01 16:22:43.914286, 1.67155
2022-12-01 16:22:43.922817, 1.67155
2022-12-01 16:22:43.930696, 1.67155
2022-12-01 16:22:43.942707, 1.67155
2022-12-01 16:22:43.951477, 1.67155
2022-12-01 16:22:43.959371, 1.67155
2022-12-01 16:22:43.971945, 1.67155
2022-12-01 16:22:43.978930, 1.67644
2022-12-01 16:22:43.988338, 1.67155
2022-12-01 16:22:43.995697, 1.68133
2022-12-01 16:22:44.007681, 1.67155
2022-12-01 16:22:44.016125, 1.67644
2022-12-01 16:22:44.024242, 1.68133
2022-12-01 16:22:44.036957, 1.67644
2022-12-01 16:22:44.044879, 1.67644
2022-12-01 16:22:44.053189, 1.67644
2022-12-01 16:22:44.061325, 1.67644
2022-12-01 16:22:44.073559, 1.67644
2022-12-01 16:22:44.082557, 1.68133
2022-12-01 16:22:44.090739, 1.67644
2022-12-01 16:22:44.103052, 1.68622
2022-12-01 16:22:44.110259, 1.67644
2022-12-01 16:22:44.119447, 1.67644
2022-12-01 16:22:44.126978, 1.68133
2022-12-01 16:22:44.138628, 1.67644
2022-12-01 16:22:44.147328, 1.68133
2022-12-01 16:22:44.155771, 1.67644
2022-12-01 16:22:44.167331, 1.67644
2022-12-01 16:22:44.176107, 1.67644
2022-12-01 16:22:44.184484, 1.67155
2022-12-01 16:22:44.192428, 1.67155
2022-12-01 16:22:44.204932, 1.67155
2022-12-01 16:22:44.213002, 1.67155
2022-12-01 16:22:44.221996, 1.67155
2022-12-01 16:22:44.233341, 1.67155
2022-12-01 16:22:44.242297, 1.67155
2022-12-01 16:22:44.249963, 1.67155
2022-12-01 16:22:44.258703, 1.67155
2022-12-01 16:22:44.270236, 1.69599
2022-12-01 16:22:44.279185, 1.67155
2022-12-01 16:22:44.286417, 1.67155
2022-12-01 16:22:44.298832, 1.70088
2022-12-01 16:22:44.307823, 1.67644
2022-12-01 16:22:44.315341, 1.67155
2022-12-01 16:22:44.323701, 1.67644
2022-12-01 16:22:44.335610, 1.67644
2022-12-01 16:22:44.343792, 1.67644
2022-12-01 16:22:44.352366, 1.67644
2022-12-01 16:22:44.364685, 1.67644
2022-12-01 16:22:44.373065, 1.67644
2022-12-01 16:22:44.380838, 1.70088
2022-12-01 16:22:44.389159, 1.67644
2022-12-01 16:22:44.401383, 1.67644
2022-12-01 16:22:44.409691, 1.67644
2022-12-01 16:22:44.417232, 1.67155
2022-12-01 16:22:44.429688, 1.67644
2022-12-01 16:22:44.437871, 1.67155
2022-12-01 16:22:44.446390, 1.67644
2022-12-01 16:22:44.453849, 1.67155
2022-12-01 16:22:44.466648, 1.67644
2022-12-01 16:22:44.475115, 1.67155
2022-12-01 16:22:44.482831, 1.70088
2022-12-01 16:22:44.495240, 1.67155
2022-12-01 16:22:44.503449, 1.68622
2022-12-01 16:22:44.511332, 1.66667
2022-12-01 16:22:44.520137, 1.66667
2022-12-01 16:22:44.532319, 1.66667
2022-12-01 16:22:44.540920, 1.66667
2022-12-01 16:22:44.548791, 1.66667
2022-12-01 16:22:44.560937, 1.67155
2022-12-01 16:22:44.568913, 1.66667
2022-12-01 16:22:44.577979, 1.66667
2022-12-01 16:22:44.584993, 1.66667
2022-12-01 16:22:44.597892, 1.66667
2022-12-01 16:22:44.605511, 1.66667
2022-12-01 16:22:44.614433, 1.66667
2022-12-01 16:22:44.626250, 1.67155
2022-12-01 16:22:44.633679, 1.67155
2022-12-01 16:22:44.642383, 1.67155
2022-12-01 16:22:44.650844, 1.67644
2022-12-01 16:22:44.663161, 1.67155
2022-12-01 16:22:44.671580, 1.67644
2022-12-01 16:22:44.679643, 1.67155
2022-12-01 16:22:44.687863, 1.68622
2022-12-01 16:22:44.699594, 1.67644
2022-12-01 16:22:44.708498, 1.68622
2022-12-01 16:22:44.716668, 1.67644
2022-12-01 16:22:44.728929, 1.67644
2022-12-01 16:22:44.736879, 1.67644
2022-12-01 16:22:44.745112, 1.67644
2022-12-01 16:22:44.753748, 1.67644
2022-12-01 16:22:44.765941, 1.68622
2022-12-01 16:22:44.774237, 1.67644
2022-12-01 16:22:44.782443, 1.68133
2022-12-01 16:22:44.794512, 1.67644
2022-12-01 16:22:44.802589, 1.67644
2022-12-01 16:22:44.811645, 1.67644
2022-12-01 16:22:44.819089, 1.67644
2022-12-01 16:22:44.830846, 1.69110
2022-12-01 16:22:44.840270, 1.67155
2022-12-01 16:22:44.847403, 1.67644
2022-12-01 16:22:44.860021, 1.66667
2022-12-01 16:22:44.868530, 1.67155
2022-12-01 16:22:44.876080, 1.68133
2022-12-01 16:22:44.884981, 1.67155
2022-12-01 16:22:44.896968, 1.67155
2022-12-01 16:22:44.905037, 1.67644
2022-12-01 16:22:44.913440, 1.67644
2022-12-01 16:22:44.925482, 1.67155
2022-12-01 16:22:44.933996, 1.67155
2022-12-01 16:22:44.942159, 1.67155
2022-12-01 16:22:44.950402, 1.67155
2022-12-01 16:22:44.962642, 1.67155
2022-12-01 16:22:44.970665, 1.67155
2022-12-01 16:22:44.979076, 1.67155
2022-12-01 16:22:44.991354, 1.67155
2022-12-01 16:22:44.998521, 1.67644
2022-12-01 16:22:45.007761, 1.67644
2022-12-01 16:22:45.015983, 1.67644
2022-12-01 16:22:45.027263, 1.69110
2022-12-01 16:22:45.036643, 1.67644
2022-12-01 16:22:45.044208, 1.67644
2022-12-01 16:22:45.056937, 1.67644
2022-12-01 16:22:45.064299, 1.67644
2022-12-01 16:22:45.072305, 1.67644
2022-12-01 16:22:45.081275, 1.69599
2022-12-01 16:22:45.093442, 1.67155
2022-12-01 16:22:45.102156, 1.67155
2022-12-01 16:22:45.109542, 1.70088
2022-12-01 16:22:45.122206, 1.67155
2022-12-01 16:22:45.130201, 1.67155
2022-12-01 16:22:45.138616, 1.67155
2022-12-01 16:22:45.147029, 1.66667
2022-12-01 16:22:45.158515, 1.70088
2022-12-01 16:22:45.167220, 1.67155
2022-12-01 16:22:45.175448, 1.67155
2022-12-01 16:22:45.187660, 1.67644
2022-12-01 16:22:45.196152, 1.67155
2022-12-01 16:22:45.203497, 1.67644
2022-12-01 16:22:45.211889, 1.67155
2022-12-01 16:22:45.224609, 1.68622
2022-12-01 16:22:45.232294, 1.67644
2022-12-01 16:22:45.240272, 1.67644
2022-12-01 16:22:45.254015, 1.67644
2022-12-01 16:22:45.262240, 1.67644
2022-12-01 16:22:45.270449, 1.67644
2022-12-01 16:22:45.277668, 1.68133
2022-12-01 16:22:45.289898, 1.67644
2022-12-01 16:22:45.299085, 1.70577
2022-12-01 16:22:45.307279, 1.68133
2022-12-01 16:22:45.318603, 1.68133
2022-12-01 16:22:45.326510, 1.68622
2022-12-01 16:22:45.334808, 1.68133
2022-12-01 16:22:45.343154, 1.68133
2022-12-01 16:22:45.356204, 1.70088
2022-12-01 16:22:45.363975, 1.68133
2022-12-01 16:22:45.372531, 1.68622
2022-12-01 16:22:45.384579, 1.68622
2022-12-01 16:22:45.392134, 1.69110
2022-12-01 16:22:45.400995, 1.68622
2022-12-01 16:22:45.409732, 1.68622
2022-12-01 16:22:45.421163, 1.68133
2022-12-01 16:22:45.430157, 1.68133
2022-12-01 16:22:45.437237, 1.68133
2022-12-01 16:22:45.450631, 1.68133
2022-12-01 16:22:45.457701, 1.67644
2022-12-01 16:22:45.467015, 1.67644
2022-12-01 16:22:45.474467, 1.67644
2022-12-01 16:22:45.486694, 1.67644
2022-12-01 16:22:45.494906, 1.67644
2022-12-01 16:22:45.503336, 1.67644
2022-12-01 16:22:45.515616, 1.67644
2022-12-01 16:22:45.523803, 1.67644
2022-12-01 16:22:45.531773, 1.67644
2022-12-01 16:22:45.540206, 1.67644
2022-12-01 16:22:45.552532, 1.67644
2022-12-01 16:22:45.560613, 1.69599
2022-12-01 16:22:45.568905, 1.67155
2022-12-01 16:22:45.576394, 1.67155
2022-12-01 16:22:45.589883, 1.68133
2022-12-01 16:22:45.597323, 1.67644
2022-12-01 16:22:45.606276, 1.67644
2022-12-01 16:22:45.618139, 1.68133
2022-12-01 16:22:45.626113, 1.67644
2022-12-01 16:22:45.634315, 1.68133
2022-12-01 16:22:45.641863, 1.67155
2022-12-01 16:22:45.654721, 1.68133
2022-12-01 16:22:45.663642, 1.67155
2022-12-01 16:22:45.671237, 1.67155
2022-12-01 16:22:45.684110, 1.69599
2022-12-01 16:22:45.691818, 1.67155
2022-12-01 16:22:45.699919, 1.67155
2022-12-01 16:22:45.708536, 1.67155
2022-12-01 16:22:45.720301, 1.67155
2022-12-01 16:22:45.728571, 1.67155
2022-12-01 16:22:45.737128, 1.67155
2022-12-01 16:22:45.748846, 1.67644
2022-12-01 16:22:45.757860, 1.67155
2022-12-01 16:22:45.765400, 1.67644
2022-12-01 16:22:45.773838, 1.67155
2022-12-01 16:22:45.786507, 1.67155
2022-12-01 16:22:45.793615, 1.67155
2022-12-01 16:22:45.802892, 1.67155
2022-12-01 16:22:45.814997, 1.67155
2022-12-01 16:22:45.822976, 1.66667
2022-12-01 16:22:45.831546, 1.67155
2022-12-01 16:22:45.839960, 1.66667
2022-12-01 16:22:45.852060, 1.66667
2022-12-01 16:22:45.859630, 1.66667
2022-12-01 16:22:45.867988, 1.66667
2022-12-01 16:22:45.880293, 1.66667
2022-12-01 16:22:45.888149, 1.66667
2022-12-01 16:22:45.896614, 1.68133
2022-12-01 16:22:45.904528, 1.66667
2022-12-01 16:22:45.916663, 1.69110
2022-12-01 16:22:45.924706, 1.66667
2022-12-01 16:22:45.932651, 1.66667
2022-12-01 16:22:45.945476, 1.67155
2022-12-01 16:22:45.954462, 1.67155
2022-12-01 16:22:45.961172, 1.67155
2022-12-01 16:22:45.970838, 1.67155
2022-12-01 16:22:45.983123, 1.66667
2022-12-01 16:22:45.990654, 1.66667
2022-12-01 16:22:45.999015, 1.66667
2022-12-01 16:22:46.010809, 1.66667
2022-12-01 16:22:46.019970, 1.67155
2022-12-01 16:22:46.027406, 1.66667
2022-12-01 16:22:46.035901, 1.67644
2022-12-01 16:22:46.048300, 1.67155
2022-12-01 16:22:46.056380, 1.67155
2022-12-01 16:22:46.064570, 1.67644
2022-12-01 16:22:46.076206, 1.67155
2022-12-01 16:22:46.084952, 1.70088
2022-12-01 16:22:46.092849, 1.66667
2022-12-01 16:22:46.101504, 1.67155
2022-12-01 16:22:46.112539, 1.67155
2022-12-01 16:22:46.121830, 1.66667
2022-12-01 16:22:46.129811, 1.67155
2022-12-01 16:22:46.142041, 1.66667
2022-12-01 16:22:46.151075, 1.68133
2022-12-01 16:22:46.158652, 1.66667
2022-12-01 16:22:46.166429, 1.66178
2022-12-01 16:22:46.179728, 1.66667
2022-12-01 16:22:46.187140, 1.66178
2022-12-01 16:22:46.195519, 1.66667
2022-12-01 16:22:46.208290, 1.66178
2022-12-01 16:22:46.216291, 1.66178
2022-12-01 16:22:46.224282, 1.66667
2022-12-01 16:22:46.232263, 1.66667
2022-12-01 16:22:46.244525, 1.67644
2022-12-01 16:22:46.252992, 1.66667
2022-12-01 16:22:46.262168, 1.66667
2022-12-01 16:22:46.273051, 1.67644
2022-12-01 16:22:46.281444, 1.67155
2022-12-01 16:22:46.289747, 1.69599
2022-12-01 16:22:46.298505, 1.67155
2022-12-01 16:22:46.309706, 1.67155
2022-12-01 16:22:46.318982, 1.67644
2022-12-01 16:22:46.326428, 1.67155
2022-12-01 16:22:46.338091, 1.67155
2022-12-01 16:22:46.347650, 1.67155
2022-12-01 16:22:46.354811, 1.67155
2022-12-01 16:22:46.364063, 1.69599
2022-12-01 16:22:46.375069, 1.67155
2022-12-01 16:22:46.383987, 1.69599
2022-12-01 16:22:46.391733, 1.67155
2022-12-01 16:22:46.404519, 1.67155
2022-12-01 16:22:46.412720, 1.68622
2022-12-01 16:22:46.420924, 1.66667
2022-12-01 16:22:46.428641, 1.66667
2022-12-01 16:22:46.441152, 1.69110
2022-12-01 16:22:46.449315, 1.66667
2022-12-01 16:22:46.458054, 1.66667
2022-12-01 16:22:46.466473, 1.68622
2022-12-01 16:22:46.477522, 1.66667
2022-12-01 16:22:46.485662, 1.69599
2022-12-01 16:22:46.493596, 1.66667
2022-12-01 16:22:46.506499, 1.66667
2022-12-01 16:22:46.514220, 1.69599
2022-12-01 16:22:46.522926, 1.66667
2022-12-01 16:22:46.531177, 1.67155
2022-12-01 16:22:46.543501, 1.67155
2022-12-01 16:22:46.551354, 1.67155
2022-12-01 16:22:46.559862, 1.67155
2022-12-01 16:22:46.572359, 1.67155
2022-12-01 16:22:46.580245, 1.67644
2022-12-01 16:22:46.588836, 1.68133
2022-12-01 16:22:46.596746, 1.67155
2022-12-01 16:22:46.609176, 1.67644
2022-12-01 16:22:46.617297, 1.67155
2022-12-01 16:22:46.626054, 1.67155
2022-12-01 16:22:46.638472, 1.67644
2022-12-01 16:22:46.646671, 1.67644
2022-12-01 16:22:46.654860, 1.69599
2022-12-01 16:22:46.663082, 1.67644
2022-12-01 16:22:46.674692, 1.68133
2022-12-01 16:22:46.683552, 1.67644
2022-12-01 16:22:46.691620, 1.67644
2022-12-01 16:22:46.703045, 1.67644
2022-12-01 16:22:46.712074, 1.67644
2022-12-01 16:22:46.720100, 1.70577
2022-12-01 16:22:46.728059, 1.67155
2022-12-01 16:22:46.740348, 1.68133
2022-12-01 16:22:46.747854, 1.67155
2022-12-01 16:22:46.756738, 1.67155
2022-12-01 16:22:46.768986, 1.67155
2022-12-01 16:22:46.776816, 1.68622
2022-12-01 16:22:46.784877, 1.66667
2022-12-01 16:22:46.792743, 1.66667
2022-12-01 16:22:46.805852, 1.67155
2022-12-01 16:22:46.813703, 1.66667
2022-12-01 16:22:46.821359, 1.70088
2022-12-01 16:22:46.834375, 1.66667
2022-12-01 16:22:46.842323, 1.67155
2022-12-01 16:22:46.850896, 1.67644
2022-12-01 16:22:46.859019, 1.67155
2022-12-01 16:22:46.871093, 1.67644
2022-12-01 16:22:46.880128, 1.66667
2022-12-01 16:22:46.887737, 1.67155
2022-12-01 16:22:46.899585, 1.67644
2022-12-01 16:22:46.908196, 1.67155
2022-12-01 16:22:46.915984, 1.67155
2022-12-01 16:22:46.924750, 1.67644
2022-12-01 16:22:46.936967, 1.67155
2022-12-01 16:22:46.944831, 1.67155
2022-12-01 16:22:46.953063, 1.67155
2022-12-01 16:22:46.966170, 1.67155
2022-12-01 16:22:46.974344, 1.67155
2022-12-01 16:22:46.982573, 1.67155
2022-12-01 16:22:46.990255, 1.67644
2022-12-01 16:22:47.002264, 1.67155
2022-12-01 16:22:47.010056, 1.67155
2022-12-01 16:22:47.018847, 1.67155
2022-12-01 16:22:47.031200, 1.67155
2022-12-01 16:22:47.038682, 1.67155
2022-12-01 16:22:47.047649, 1.66667
2022-12-01 16:22:47.056294, 1.66667
2022-12-01 16:22:47.067703, 1.66667
2022-12-01 16:22:47.075798, 1.66667
2022-12-01 16:22:47.083670, 1.67155
2022-12-01 16:22:47.096614, 1.66667
2022-12-01 16:22:47.104955, 1.67644
2022-12-01 16:22:47.112240, 1.66667
2022-12-01 16:22:47.121062, 1.67644
2022-12-01 16:22:47.134114, 1.66667
2022-12-01 16:22:47.141613, 1.66178
2022-12-01 16:22:47.150480, 1.66667
2022-12-01 16:22:47.162786, 1.66178
2022-12-01 16:22:47.170990, 1.66178
2022-12-01 16:22:47.178421, 1.66178
2022-12-01 16:22:47.187254, 1.66667
2022-12-01 16:22:47.199654, 1.67155
2022-12-01 16:22:47.207133, 1.66667
2022-12-01 16:22:47.216025, 1.67644
2022-12-01 16:22:47.227314, 1.66667
2022-12-01 16:22:47.235906, 1.67155
2022-12-01 16:22:47.244551, 1.67155
2022-12-01 16:22:47.252089, 1.67155
2022-12-01 16:22:47.264113, 1.70088
2022-12-01 16:22:47.272854, 1.67155
2022-12-01 16:22:47.280590, 1.69599
2022-12-01 16:22:47.289063, 1.67155
2022-12-01 16:22:47.302036, 1.70088
2022-12-01 16:22:47.309041, 1.67155
2022-12-01 16:22:47.318489, 1.67155
2022-12-01 16:22:47.330740, 1.67155
2022-12-01 16:22:47.338900, 1.67155
2022-12-01 16:22:47.347092, 1.67155
2022-12-01 16:22:47.355287, 1.69110
2022-12-01 16:22:47.367586, 1.67644
2022-12-01 16:22:47.375116, 1.67644
2022-12-01 16:22:47.383948, 1.68133
2022-12-01 16:22:47.396268, 1.67644
2022-12-01 16:22:47.403963, 1.67644
2022-12-01 16:22:47.411945, 1.67155
2022-12-01 16:22:47.419879, 1.67155
2022-12-01 16:22:47.432270, 1.67155
2022-12-01 16:22:47.440575, 1.67155
2022-12-01 16:22:47.449161, 1.67155
2022-12-01 16:22:47.461775, 1.69599
2022-12-01 16:22:47.470003, 1.67155
2022-12-01 16:22:47.477635, 1.67155
2022-12-01 16:22:47.486348, 1.67155
2022-12-01 16:22:47.498058, 1.67155
2022-12-01 16:22:47.506859, 1.67155
2022-12-01 16:22:47.514320, 1.67155
2022-12-01 16:22:47.526261, 1.67155
2022-12-01 16:22:47.535509, 1.67155
2022-12-01 16:22:47.543698, 1.67644
2022-12-01 16:22:47.551912, 1.67155
2022-12-01 16:22:47.564178, 1.70088
2022-12-01 16:22:47.571384, 1.67644
2022-12-01 16:22:47.580038, 1.67644
2022-12-01 16:22:47.591927, 1.67644
2022-12-01 16:22:47.600241, 1.67644
2022-12-01 16:22:47.608769, 1.67644
2022-12-01 16:22:47.615948, 1.67155
2022-12-01 16:22:47.629188, 1.67644
2022-12-01 16:22:47.637408, 1.70577
2022-12-01 16:22:47.645414, 1.67644
2022-12-01 16:22:47.657735, 1.67155
2022-12-01 16:22:47.666568, 1.67644
2022-12-01 16:22:47.674547, 1.67155
2022-12-01 16:22:47.682995, 1.70088
2022-12-01 16:22:47.694175, 1.67155
2022-12-01 16:22:47.703489, 1.67155
2022-12-01 16:22:47.710702, 1.67155
2022-12-01 16:22:47.722700, 1.67155
2022-12-01 16:22:47.732141, 1.69599
2022-12-01 16:22:47.739532, 1.66667
2022-12-01 16:22:47.748392, 1.69110
2022-12-01 16:22:47.760378, 1.67155
2022-12-01 16:22:47.768351, 1.67155
2022-12-01 16:22:47.776270, 1.67155
2022-12-01 16:22:47.787910, 1.67155
2022-12-01 16:22:47.796873, 1.67155
2022-12-01 16:22:47.805357, 1.67155
2022-12-01 16:22:47.815737, 1.66667
2022-12-01 16:22:47.825358, 1.66667
2022-12-01 16:22:47.833862, 1.66667
2022-12-01 16:22:47.841974, 1.66667
2022-12-01 16:22:47.853965, 1.67155
2022-12-01 16:22:47.862219, 1.66667
2022-12-01 16:22:47.870300, 1.68133
2022-12-01 16:22:47.878968, 1.66667
2022-12-01 16:22:47.890809, 1.66667
2022-12-01 16:22:47.898452, 1.67155
2022-12-01 16:22:47.907233, 1.66667
2022-12-01 16:22:47.919596, 1.67155
2022-12-01 16:22:47.927388, 1.66667
2022-12-01 16:22:47.936158, 1.68133
2022-12-01 16:22:47.944135, 1.66178
2022-12-01 16:22:47.956543, 1.66178
2022-12-01 16:22:47.964517, 1.66178
2022-12-01 16:22:47.973288, 1.66178
2022-12-01 16:22:47.985317, 1.67155
2022-12-01 16:22:47.993350, 1.66178
2022-12-01 16:22:48.001150, 1.69110
2022-12-01 16:22:48.009273, 1.66178
2022-12-01 16:22:48.021395, 1.67155
2022-12-01 16:22:48.030384, 1.66667
2022-12-01 16:22:48.039343, 1.66667
2022-12-01 16:22:48.050581, 1.67155
2022-12-01 16:22:48.059085, 1.66667
2022-12-01 16:22:48.068011, 1.67155
2022-12-01 16:22:48.075308, 1.66667
2022-12-01 16:22:48.087132, 1.68133
2022-12-01 16:22:48.096304, 1.66667
2022-12-01 16:22:48.104228, 1.67155
2022-12-01 16:22:48.116670, 1.66667
2022-12-01 16:22:48.124368, 1.66667
2022-12-01 16:22:48.132996, 1.67644
2022-12-01 16:22:48.140678, 1.67155
2022-12-01 16:22:48.153299, 1.68622
2022-12-01 16:22:48.161974, 1.67155
2022-12-01 16:22:48.169874, 1.66667
2022-12-01 16:22:48.178087, 1.67155
2022-12-01 16:22:48.190332, 1.66667
2022-12-01 16:22:48.198576, 1.66667
2022-12-01 16:22:48.207653, 1.66667
2022-12-01 16:22:48.219555, 1.66667
2022-12-01 16:22:48.226968, 1.66178
2022-12-01 16:22:48.234677, 1.66667
2022-12-01 16:22:48.243331, 1.66178
2022-12-01 16:22:48.255679, 1.66178
2022-12-01 16:22:48.264127, 1.66178
2022-12-01 16:22:48.272261, 1.65689
2022-12-01 16:22:48.284096, 1.66178
2022-12-01 16:22:48.292704, 1.66178
2022-12-01 16:22:48.300272, 1.66667
2022-12-01 16:22:48.308638, 1.65689
2022-12-01 16:22:48.321088, 1.65689
2022-12-01 16:22:48.328540, 1.66178
2022-12-01 16:22:48.338342, 1.65689
2022-12-01 16:22:48.350615, 1.69110
2022-12-01 16:22:48.357617, 1.66178
2022-12-01 16:22:48.366973, 1.66178
2022-12-01 16:22:48.375071, 1.66178
2022-12-01 16:22:48.387503, 1.65689
2022-12-01 16:22:48.395710, 1.66178
2022-12-01 16:22:48.403873, 1.65689
2022-12-01 16:22:48.416137, 1.66667
2022-12-01 16:22:48.423030, 1.66178
2022-12-01 16:22:48.432311, 1.65689
2022-12-01 16:22:48.440325, 1.66178
2022-12-01 16:22:48.452369, 1.66178
2022-12-01 16:22:48.460645, 1.67155
2022-12-01 16:22:48.468794, 1.66178
2022-12-01 16:22:48.481116, 1.66178
2022-12-01 16:22:48.489077, 1.66667
2022-12-01 16:22:48.496662, 1.66178
2022-12-01 16:22:48.505987, 1.66178
2022-12-01 16:22:48.518580, 1.66667
2022-12-01 16:22:48.526210, 1.66178
2022-12-01 16:22:48.534980, 1.66178
2022-12-01 16:22:48.547233, 1.66667
2022-12-01 16:22:48.555421, 1.66667
2022-12-01 16:22:48.562371, 1.66178
2022-12-01 16:22:48.570423, 1.66667
2022-12-01 16:22:48.582824, 1.66667
2022-12-01 16:22:48.591582, 1.68622
2022-12-01 16:22:48.599852, 1.66667
2022-12-01 16:22:48.611342, 1.66178
2022-12-01 16:22:48.619490, 1.66178
2022-12-01 16:22:48.628617, 1.66178
2022-12-01 16:22:48.636340, 1.66178
2022-12-01 16:22:48.648737, 1.65689
2022-12-01 16:22:48.657124, 1.65689
2022-12-01 16:22:48.665547, 1.66178
2022-12-01 16:22:48.678512, 1.65689
2022-12-01 16:22:48.686510, 1.66178
2022-12-01 16:22:48.694456, 1.65689
2022-12-01 16:22:48.702890, 1.66178
2022-12-01 16:22:48.715188, 1.65689
2022-12-01 16:22:48.723369, 1.66178
2022-12-01 16:22:48.730985, 1.66178
2022-12-01 16:22:48.743491, 1.66667
2022-12-01 16:22:48.752058, 1.66178
2022-12-01 16:22:48.759538, 1.66178
2022-12-01 16:22:48.768307, 1.66667
2022-12-01 16:22:48.780584, 1.66178
2022-12-01 16:22:48.788578, 1.67155
2022-12-01 16:22:48.796617, 1.66178
2022-12-01 16:22:48.808435, 1.66178
2022-12-01 16:22:48.816469, 1.66667
2022-12-01 16:22:48.824572, 1.66667
2022-12-01 16:22:48.833049, 1.67155
2022-12-01 16:22:48.845068, 1.66667
2022-12-01 16:22:48.853981, 1.66667
2022-12-01 16:22:48.861382, 1.67155
2022-12-01 16:22:48.873934, 1.66667
2022-12-01 16:22:48.882578, 1.66667
2022-12-01 16:22:48.890562, 1.66667
2022-12-01 16:22:48.898949, 1.66667
2022-12-01 16:22:48.910927, 1.66667
2022-12-01 16:22:48.919970, 1.67155
2022-12-01 16:22:48.928203, 1.66667
2022-12-01 16:22:48.939605, 1.67155
2022-12-01 16:22:48.948569, 1.66667
2022-12-01 16:22:48.956568, 1.66178
2022-12-01 16:22:48.964573, 1.69110
2022-12-01 16:22:48.976768, 1.66178
2022-12-01 16:22:48.984649, 1.66178
2022-12-01 16:22:48.993007, 1.66178
2022-12-01 16:22:49.005986, 1.66178
2022-12-01 16:22:49.013871, 1.66178
2022-12-01 16:22:49.021363, 1.66178
2022-12-01 16:22:49.029964, 1.66178
2022-12-01 16:22:49.041765, 1.66667
2022-12-01 16:22:49.051058, 1.66178
2022-12-01 16:22:49.058227, 1.68133
2022-12-01 16:22:49.066952, 1.66178
2022-12-01 16:22:49.079431, 1.68622
2022-12-01 16:22:49.087925, 1.66667
2022-12-01 16:22:49.095370, 1.66178
2022-12-01 16:22:49.106670, 1.66178
2022-12-01 16:22:49.116082, 1.66667
2022-12-01 16:22:49.123812, 1.66178
2022-12-01 16:22:49.132417, 1.66178
2022-12-01 16:22:49.144541, 1.66178
2022-12-01 16:22:49.152808, 1.66667
2022-12-01 16:22:49.161097, 1.66667
2022-12-01 16:22:49.173935, 1.67644
2022-12-01 16:22:49.181688, 1.66667
2022-12-01 16:22:49.190326, 1.68622
2022-12-01 16:22:49.196986, 1.66667
2022-12-01 16:22:49.209580, 1.66667
2022-12-01 16:22:49.218385, 1.66178
2022-12-01 16:22:49.227788, 1.66178
2022-12-01 16:22:49.239040, 1.66667
2022-12-01 16:22:49.246744, 1.66178
2022-12-01 16:22:49.256528, 1.67155
2022-12-01 16:22:49.264082, 1.66178
2022-12-01 16:22:49.275562, 1.66667
2022-12-01 16:22:49.284537, 1.66178
2022-12-01 16:22:49.292205, 1.66178
2022-12-01 16:22:49.304372, 1.66667
2022-12-01 16:22:49.312719, 1.66178
2022-12-01 16:22:49.320857, 1.66178
2022-12-01 16:22:49.329055, 1.65689
2022-12-01 16:22:49.340474, 1.66178
2022-12-01 16:22:49.349239, 1.66178
2022-12-01 16:22:49.357464, 1.65689
2022-12-01 16:22:49.370543, 1.66178
2022-12-01 16:22:49.378272, 1.65689
2022-12-01 16:22:49.386921, 1.65689
2022-12-01 16:22:49.394152, 1.65689
2022-12-01 16:22:49.407187, 1.66667
2022-12-01 16:22:49.415127, 1.65689
2022-12-01 16:22:49.424659, 1.66667
2022-12-01 16:22:49.436066, 1.65689
2022-12-01 16:22:49.443800, 1.65689
2022-12-01 16:22:49.452498, 1.66178
2022-12-01 16:22:49.460099, 1.66178
2022-12-01 16:22:49.472356, 1.66667
2022-12-01 16:22:49.480645, 1.66178
2022-12-01 16:22:49.488553, 1.66178
2022-12-01 16:22:49.500590, 1.66667
2022-12-01 16:22:49.509813, 1.69110
2022-12-01 16:22:49.517144, 1.66667
2022-12-01 16:22:49.525807, 1.66667
2022-12-01 16:22:49.538508, 1.67155
2022-12-01 16:22:49.545899, 1.66667
2022-12-01 16:22:49.554854, 1.66667
2022-12-01 16:22:49.566314, 1.66667
2022-12-01 16:22:49.574270, 1.68622
2022-12-01 16:22:49.582337, 1.66667
2022-12-01 16:22:49.590264, 1.66667
2022-12-01 16:22:49.604019, 1.66667
2022-12-01 16:22:49.611351, 1.67644
2022-12-01 16:22:49.619834, 1.66667
2022-12-01 16:22:49.632162, 1.66667
2022-12-01 16:22:49.639820, 1.66667
2022-12-01 16:22:49.648553, 1.66178
2022-12-01 16:22:49.656702, 1.66178
2022-12-01 16:22:49.668423, 1.66178
2022-12-01 16:22:49.677762, 1.66178
2022-12-01 16:22:49.685151, 1.65689
2022-12-01 16:22:49.697296, 1.66178
2022-12-01 16:22:49.705909, 1.65689
2022-12-01 16:22:49.714218, 1.66178
2022-12-01 16:22:49.722796, 1.66178
2022-12-01 16:22:49.735073, 1.66178
2022-12-01 16:22:49.743273, 1.66178
2022-12-01 16:22:49.751525, 1.66178
2022-12-01 16:22:49.763758, 1.66178
2022-12-01 16:22:49.771955, 1.69110
2022-12-01 16:22:49.780132, 1.66178
2022-12-01 16:22:49.788340, 1.66178
2022-12-01 16:22:49.799960, 1.66667
2022-12-01 16:22:49.807708, 1.66178
2022-12-01 16:22:49.815700, 1.66178
2022-12-01 16:22:49.828197, 1.66667
2022-12-01 16:22:49.836810, 1.66178
2022-12-01 16:22:49.844526, 1.66178
2022-12-01 16:22:49.853384, 1.66178
2022-12-01 16:22:49.865340, 1.68622
2022-12-01 16:22:49.873313, 1.66178
2022-12-01 16:22:49.881701, 1.66178
2022-12-01 16:22:49.893327, 1.66178
2022-12-01 16:22:49.901823, 1.66178
2022-12-01 16:22:49.910590, 1.66178
2022-12-01 16:22:49.918355, 1.67644
2022-12-01 16:22:49.930870, 1.66178
2022-12-01 16:22:49.938549, 1.66178
2022-12-01 16:22:49.946618, 1.66178
2022-12-01 16:22:49.956283, 1.69599
2022-12-01 16:22:49.968335, 1.66667
2022-12-01 16:22:49.975993, 1.66178
2022-12-01 16:22:49.984446, 1.66178
2022-12-01 16:22:49.996771, 1.66178
2022-12-01 16:22:50.004618, 1.68622
2022-12-01 16:22:50.013133, 1.66178
2022-12-01 16:22:50.021232, 1.67644
2022-12-01 16:22:50.033193, 1.66178
2022-12-01 16:22:50.041719, 1.66667
2022-12-01 16:22:50.049642, 1.66178
2022-12-01 16:22:50.062769, 1.66178
2022-12-01 16:22:50.070947, 1.66178
2022-12-01 16:22:50.079035, 1.67155
2022-12-01 16:22:50.087331, 1.66178
2022-12-01 16:22:50.098818, 1.69110
2022-12-01 16:22:50.106911, 1.66178
2022-12-01 16:22:50.116037, 1.66178
2022-12-01 16:22:50.126881, 1.67155
2022-12-01 16:22:50.136057, 1.66178
2022-12-01 16:22:50.143923, 1.67644
2022-12-01 16:22:50.152425, 1.66667
2022-12-01 16:22:50.164683, 1.66667
2022-12-01 16:22:50.173489, 1.66667
2022-12-01 16:22:50.181045, 1.66667
2022-12-01 16:22:50.192947, 1.67644
2022-12-01 16:22:50.201224, 1.67155
2022-12-01 16:22:50.209477, 1.66667
