2022-12-01 16:22:19.877634
2022-12-01 16:22:19.886673
2022-12-01 16:22:19.894649
2022-12-01 16:22:19.906884
2022-12-01 16:22:19.915365
2022-12-01 16:22:19.923661
2022-12-01 16:22:19.935642
2022-12-01 16:22:19.944151
2022-12-01 16:22:19.952698
2022-12-01 16:22:19.960476
2022-12-01 16:22:19.972563
2022-12-01 16:22:19.981475
2022-12-01 16:22:19.989655
2022-12-01 16:22:20.001794
2022-12-01 16:22:20.009428
2022-12-01 16:22:20.017771
2022-12-01 16:22:20.025962
2022-12-01 16:22:20.038005
2022-12-01 16:22:20.046120
2022-12-01 16:22:20.054649
2022-12-01 16:22:20.066928
2022-12-01 16:22:20.074863
2022-12-01 16:22:20.083872
2022-12-01 16:22:20.091696
2022-12-01 16:22:20.103252
2022-12-01 16:22:20.112056
2022-12-01 16:22:20.119910
2022-12-01 16:22:20.132523
2022-12-01 16:22:20.140746
2022-12-01 16:22:20.148250
2022-12-01 16:22:20.156857
2022-12-01 16:22:20.168258
2022-12-01 16:22:20.178083
2022-12-01 16:22:20.185792
2022-12-01 16:22:20.194432
2022-12-01 16:22:20.206758
2022-12-01 16:22:20.213887
2022-12-01 16:22:20.223178
2022-12-01 16:22:20.234745
2022-12-01 16:22:20.243613
2022-12-01 16:22:20.250990
2022-12-01 16:22:20.258907
2022-12-01 16:22:20.271516
2022-12-01 16:22:20.280016
2022-12-01 16:22:20.288197
2022-12-01 16:22:20.300431
2022-12-01 16:22:20.308372
2022-12-01 16:22:20.316869
2022-12-01 16:22:20.324753
2022-12-01 16:22:20.336494
2022-12-01 16:22:20.345455
2022-12-01 16:22:20.353539
2022-12-01 16:22:20.366500
2022-12-01 16:22:20.374679
2022-12-01 16:22:20.382030
2022-12-01 16:22:20.389863
2022-12-01 16:22:20.402055
2022-12-01 16:22:20.410115
2022-12-01 16:22:20.418747
2022-12-01 16:22:20.430938
2022-12-01 16:22:20.440010
2022-12-01 16:22:20.447392
2022-12-01 16:22:20.456117
2022-12-01 16:22:20.468414
2022-12-01 16:22:20.475984
2022-12-01 16:22:20.484746
2022-12-01 16:22:20.496695
2022-12-01 16:22:20.505225
2022-12-01 16:22:20.513359
2022-12-01 16:22:20.521181
2022-12-01 16:22:20.533677
2022-12-01 16:22:20.542619
2022-12-01 16:22:20.551157
2022-12-01 16:22:20.563096
2022-12-01 16:22:20.570537
2022-12-01 16:22:20.579490
2022-12-01 16:22:20.586963
2022-12-01 16:22:20.598366
2022-12-01 16:22:20.608013
2022-12-01 16:22:20.615586
2022-12-01 16:22:20.627754
2022-12-01 16:22:20.636378
2022-12-01 16:22:20.643509
2022-12-01 16:22:20.652031
2022-12-01 16:22:20.664781
2022-12-01 16:22:20.672771
2022-12-01 16:22:20.681226
2022-12-01 16:22:20.693167
2022-12-01 16:22:20.701812
2022-12-01 16:22:20.709998
2022-12-01 16:22:20.718232
2022-12-01 16:22:20.730513
2022-12-01 16:22:20.738537
2022-12-01 16:22:20.746877
2022-12-01 16:22:20.759197
2022-12-01 16:22:20.767311
2022-12-01 16:22:20.775566
2022-12-01 16:22:20.783351
2022-12-01 16:22:20.796060
2022-12-01 16:22:20.803784
2022-12-01 16:22:20.813349
2022-12-01 16:22:20.824712
2022-12-01 16:22:20.832556
2022-12-01 16:22:20.840774
2022-12-01 16:22:20.849095
2022-12-01 16:22:20.861341
2022-12-01 16:22:20.869541
2022-12-01 16:22:20.877676
2022-12-01 16:22:20.890092
2022-12-01 16:22:20.898964
2022-12-01 16:22:20.906682
2022-12-01 16:22:20.915353
2022-12-01 16:22:20.927659
2022-12-01 16:22:20.934499
2022-12-01 16:22:20.944005
2022-12-01 16:22:20.956264
2022-12-01 16:22:20.964691
2022-12-01 16:22:20.972272
2022-12-01 16:22:20.980435
2022-12-01 16:22:20.992670
2022-12-01 16:22:21.000708
2022-12-01 16:22:21.008776
2022-12-01 16:22:21.021075
2022-12-01 16:22:21.030058
2022-12-01 16:22:21.037667
2022-12-01 16:22:21.046459
2022-12-01 16:22:21.057960
2022-12-01 16:22:21.066913
2022-12-01 16:22:21.074304
2022-12-01 16:22:21.082347
2022-12-01 16:22:21.095568
2022-12-01 16:22:21.102864
2022-12-01 16:22:21.111479
2022-12-01 16:22:21.124268
2022-12-01 16:22:21.131910
2022-12-01 16:22:21.140278
2022-12-01 16:22:21.147226
2022-12-01 16:22:21.160682
2022-12-01 16:22:21.168512
2022-12-01 16:22:21.176569
2022-12-01 16:22:21.189788
2022-12-01 16:22:21.197968
2022-12-01 16:22:21.206199
2022-12-01 16:22:21.214378
2022-12-01 16:22:21.225549
2022-12-01 16:22:21.234828
2022-12-01 16:22:21.243058
2022-12-01 16:22:21.254414
2022-12-01 16:22:21.263543
2022-12-01 16:22:21.271092
2022-12-01 16:22:21.279886
2022-12-01 16:22:21.292203
2022-12-01 16:22:21.299961
2022-12-01 16:22:21.308264
2022-12-01 16:22:21.320061
2022-12-01 16:22:21.328662
2022-12-01 16:22:21.335882
2022-12-01 16:22:21.345152
2022-12-01 16:22:21.356705
2022-12-01 16:22:21.365111
2022-12-01 16:22:21.374382
2022-12-01 16:22:21.384788
2022-12-01 16:22:21.393934
2022-12-01 16:22:21.402391
2022-12-01 16:22:21.410425
2022-12-01 16:22:21.421570
2022-12-01 16:22:21.430937
2022-12-01 16:22:21.438720
2022-12-01 16:22:21.451081
2022-12-01 16:22:21.459668
2022-12-01 16:22:21.468033
2022-12-01 16:22:21.476268
2022-12-01 16:22:21.488241
2022-12-01 16:22:21.496497
2022-12-01 16:22:21.504301
2022-12-01 16:22:21.517456
2022-12-01 16:22:21.525677
2022-12-01 16:22:21.533851
2022-12-01 16:22:21.542064
2022-12-01 16:22:21.553665
2022-12-01 16:22:21.561610
2022-12-01 16:22:21.569602
2022-12-01 16:22:21.581737
2022-12-01 16:22:21.590327
2022-12-01 16:22:21.598324
2022-12-01 16:22:21.605967
2022-12-01 16:22:21.618861
2022-12-01 16:22:21.628058
2022-12-01 16:22:21.635544
2022-12-01 16:22:21.648050
2022-12-01 16:22:21.656179
2022-12-01 16:22:21.664446
2022-12-01 16:22:21.672735
2022-12-01 16:22:21.684226
2022-12-01 16:22:21.693094
2022-12-01 16:22:21.701181
2022-12-01 16:22:21.712979
2022-12-01 16:22:21.721742
2022-12-01 16:22:21.728739
2022-12-01 16:22:21.738160
2022-12-01 16:22:21.750430
2022-12-01 16:22:21.758877
2022-12-01 16:22:21.767335
2022-12-01 16:22:21.779106
2022-12-01 16:22:21.786742
2022-12-01 16:22:21.795324
2022-12-01 16:22:21.803950
2022-12-01 16:22:21.815319
2022-12-01 16:22:21.823196
2022-12-01 16:22:21.832162
2022-12-01 16:22:21.844441
2022-12-01 16:22:21.852779
2022-12-01 16:22:21.860436
2022-12-01 16:22:21.868864
2022-12-01 16:22:21.881114
2022-12-01 16:22:21.888937
2022-12-01 16:22:21.897096
2022-12-01 16:22:21.905143
2022-12-01 16:22:21.917820
2022-12-01 16:22:21.925844
2022-12-01 16:22:21.934458
2022-12-01 16:22:21.946759
2022-12-01 16:22:21.954780
2022-12-01 16:22:21.963404
2022-12-01 16:22:21.970779
2022-12-01 16:22:21.983221
2022-12-01 16:22:21.991832
2022-12-01 16:22:21.999829
2022-12-01 16:22:22.012583
2022-12-01 16:22:22.020055
2022-12-01 16:22:22.028997
2022-12-01 16:22:22.036196
2022-12-01 16:22:22.049405
2022-12-01 16:22:22.058209
2022-12-01 16:22:22.066349
2022-12-01 16:22:22.078639
2022-12-01 16:22:22.085624
2022-12-01 16:22:22.095024
2022-12-01 16:22:22.102601
2022-12-01 16:22:22.115504
2022-12-01 16:22:22.123674
2022-12-01 16:22:22.131894
2022-12-01 16:22:22.142829
2022-12-01 16:22:22.151426
2022-12-01 16:22:22.159768
2022-12-01 16:22:22.168031
2022-12-01 16:22:22.180520
2022-12-01 16:22:22.188532
2022-12-01 16:22:22.196582
2022-12-01 16:22:22.208792
2022-12-01 16:22:22.217312
2022-12-01 16:22:22.226097
2022-12-01 16:22:22.233850
2022-12-01 16:22:22.246600
2022-12-01 16:22:22.254773
2022-12-01 16:22:22.262749
2022-12-01 16:22:22.275230
2022-12-01 16:22:22.281943
2022-12-01 16:22:22.291633
2022-12-01 16:22:22.299834
2022-12-01 16:22:22.310642
2022-12-01 16:22:22.319522
2022-12-01 16:22:22.327771
2022-12-01 16:22:22.340138
2022-12-01 16:22:22.348125
2022-12-01 16:22:22.356771
2022-12-01 16:22:22.364690
2022-12-01 16:22:22.376796
2022-12-01 16:22:22.384529
2022-12-01 16:22:22.392843
2022-12-01 16:22:22.406302
2022-12-01 16:22:22.414506
2022-12-01 16:22:22.422730
2022-12-01 16:22:22.430886
2022-12-01 16:22:22.443203
2022-12-01 16:22:22.450052
2022-12-01 16:22:22.459559
2022-12-01 16:22:22.470603
2022-12-01 16:22:22.479383
2022-12-01 16:22:22.487554
2022-12-01 16:22:22.495514
2022-12-01 16:22:22.508559
2022-12-01 16:22:22.516377
2022-12-01 16:22:22.524462
2022-12-01 16:22:22.536750
2022-12-01 16:22:22.544764
2022-12-01 16:22:22.553106
2022-12-01 16:22:22.561401
2022-12-01 16:22:22.572790
2022-12-01 16:22:22.581749
2022-12-01 16:22:22.589617
2022-12-01 16:22:22.602204
2022-12-01 16:22:22.609932
2022-12-01 16:22:22.617580
2022-12-01 16:22:22.627513
2022-12-01 16:22:22.639801
2022-12-01 16:22:22.647206
2022-12-01 16:22:22.656045
2022-12-01 16:22:22.667897
2022-12-01 16:22:22.676278
2022-12-01 16:22:22.684383
2022-12-01 16:22:22.692757
2022-12-01 16:22:22.704728
2022-12-01 16:22:22.712799
2022-12-01 16:22:22.721026
2022-12-01 16:22:22.733999
2022-12-01 16:22:22.741645
2022-12-01 16:22:22.750378
2022-12-01 16:22:22.757540
2022-12-01 16:22:22.770281
2022-12-01 16:22:22.779079
2022-12-01 16:22:22.786732
2022-12-01 16:22:22.795452
2022-12-01 16:22:22.807727
2022-12-01 16:22:22.814997
2022-12-01 16:22:22.823351
2022-12-01 16:22:22.835312
2022-12-01 16:22:22.844067
2022-12-01 16:22:22.851792
2022-12-01 16:22:22.860681
2022-12-01 16:22:22.872694
2022-12-01 16:22:22.880714
2022-12-01 16:22:22.888723
2022-12-01 16:22:22.901016
2022-12-01 16:22:22.909365
2022-12-01 16:22:22.917794
2022-12-01 16:22:22.926522
2022-12-01 16:22:22.938000
2022-12-01 16:22:22.945751
2022-12-01 16:22:22.954474
2022-12-01 16:22:22.966010
2022-12-01 16:22:22.975682
2022-12-01 16:22:22.982606
2022-12-01 16:22:22.992045
2022-12-01 16:22:23.003592
2022-12-01 16:22:23.012199
2022-12-01 16:22:23.019978
2022-12-01 16:22:23.032507
2022-12-01 16:22:23.040684
2022-12-01 16:22:23.048732
2022-12-01 16:22:23.056689
2022-12-01 16:22:23.068796
2022-12-01 16:22:23.077286
2022-12-01 16:22:23.085267
2022-12-01 16:22:23.097953
2022-12-01 16:22:23.106151
2022-12-01 16:22:23.114960
2022-12-01 16:22:23.121808
2022-12-01 16:22:23.134757
2022-12-01 16:22:23.143609
2022-12-01 16:22:23.151976
2022-12-01 16:22:23.164095
2022-12-01 16:22:23.171505
2022-12-01 16:22:23.180622
2022-12-01 16:22:23.188108
2022-12-01 16:22:23.200354
2022-12-01 16:22:23.208647
2022-12-01 16:22:23.216936
2022-12-01 16:22:23.228587
2022-12-01 16:22:23.237068
2022-12-01 16:22:23.245408
2022-12-01 16:22:23.254214
2022-12-01 16:22:23.265507
2022-12-01 16:22:23.273667
2022-12-01 16:22:23.282861
2022-12-01 16:22:23.295220
2022-12-01 16:22:23.302849
2022-12-01 16:22:23.311556
2022-12-01 16:22:23.319234
2022-12-01 16:22:23.332011
2022-12-01 16:22:23.339732
2022-12-01 16:22:23.348304
2022-12-01 16:22:23.360164
2022-12-01 16:22:23.367483
2022-12-01 16:22:23.376501
2022-12-01 16:22:23.384135
2022-12-01 16:22:23.396127
2022-12-01 16:22:23.404235
2022-12-01 16:22:23.413168
2022-12-01 16:22:23.425269
2022-12-01 16:22:23.434247
2022-12-01 16:22:23.441461
2022-12-01 16:22:23.450813
2022-12-01 16:22:23.461881
2022-12-01 16:22:23.470400
2022-12-01 16:22:23.479478
2022-12-01 16:22:23.491750
2022-12-01 16:22:23.499940
2022-12-01 16:22:23.508229
2022-12-01 16:22:23.515201
2022-12-01 16:22:23.528112
2022-12-01 16:22:23.536034
2022-12-01 16:22:23.544514
2022-12-01 16:22:23.556779
2022-12-01 16:22:23.564920
2022-12-01 16:22:23.573690
2022-12-01 16:22:23.581119
2022-12-01 16:22:23.593222
2022-12-01 16:22:23.601710
2022-12-01 16:22:23.609739
2022-12-01 16:22:23.622109
2022-12-01 16:22:23.631046
2022-12-01 16:22:23.638568
2022-12-01 16:22:23.646512
2022-12-01 16:22:23.658235
2022-12-01 16:22:23.666376
2022-12-01 16:22:23.674897
2022-12-01 16:22:23.683738
2022-12-01 16:22:23.695375
2022-12-01 16:22:23.703668
2022-12-01 16:22:23.713297
2022-12-01 16:22:23.724720
2022-12-01 16:22:23.733432
2022-12-01 16:22:23.741614
2022-12-01 16:22:23.749822
2022-12-01 16:22:23.761424
2022-12-01 16:22:23.769259
2022-12-01 16:22:23.777778
2022-12-01 16:22:23.789802
2022-12-01 16:22:23.798747
2022-12-01 16:22:23.806228
2022-12-01 16:22:23.815356
2022-12-01 16:22:23.827658
2022-12-01 16:22:23.834755
2022-12-01 16:22:23.843293
2022-12-01 16:22:23.855742
2022-12-01 16:22:23.863955
2022-12-01 16:22:23.872133
2022-12-01 16:22:23.880392
2022-12-01 16:22:23.891829
2022-12-01 16:22:23.900012
2022-12-01 16:22:23.908269
2022-12-01 16:22:23.920978
2022-12-01 16:22:23.928190
2022-12-01 16:22:23.937480
2022-12-01 16:22:23.945288
2022-12-01 16:22:23.957743
2022-12-01 16:22:23.966909
2022-12-01 16:22:23.974520
2022-12-01 16:22:23.986438
2022-12-01 16:22:23.994846
2022-12-01 16:22:24.003711
2022-12-01 16:22:24.011968
2022-12-01 16:22:24.024043
2022-12-01 16:22:24.032051
2022-12-01 16:22:24.040175
2022-12-01 16:22:24.051871
2022-12-01 16:22:24.060594
2022-12-01 16:22:24.068346
2022-12-01 16:22:24.076629
2022-12-01 16:22:24.088713
2022-12-01 16:22:24.096653
2022-12-01 16:22:24.104884
2022-12-01 16:22:24.116886
2022-12-01 16:22:24.126126
2022-12-01 16:22:24.133974
2022-12-01 16:22:24.142602
2022-12-01 16:22:24.155770
2022-12-01 16:22:24.162267
2022-12-01 16:22:24.171398
2022-12-01 16:22:24.183955
2022-12-01 16:22:24.191454
2022-12-01 16:22:24.200045
2022-12-01 16:22:24.207852
2022-12-01 16:22:24.220190
2022-12-01 16:22:24.228541
2022-12-01 16:22:24.236236
2022-12-01 16:22:24.248487
2022-12-01 16:22:24.256914
2022-12-01 16:22:24.265750
2022-12-01 16:22:24.273615
2022-12-01 16:22:24.285641
2022-12-01 16:22:24.293931
2022-12-01 16:22:24.302044
2022-12-01 16:22:24.315094
2022-12-01 16:22:24.323263
2022-12-01 16:22:24.331443
2022-12-01 16:22:24.338944
2022-12-01 16:22:24.350546
2022-12-01 16:22:24.360053
2022-12-01 16:22:24.367203
2022-12-01 16:22:24.380304
2022-12-01 16:22:24.387866
2022-12-01 16:22:24.395998
2022-12-01 16:22:24.404042
2022-12-01 16:22:24.416018
2022-12-01 16:22:24.424549
2022-12-01 16:22:24.433176
2022-12-01 16:22:24.445001
2022-12-01 16:22:24.452754
2022-12-01 16:22:24.461599
2022-12-01 16:22:24.469761
2022-12-01 16:22:24.481455
2022-12-01 16:22:24.490415
2022-12-01 16:22:24.497768
2022-12-01 16:22:24.506577
2022-12-01 16:22:24.519174
2022-12-01 16:22:24.527511
2022-12-01 16:22:24.535675
2022-12-01 16:22:24.548311
2022-12-01 16:22:24.556308
2022-12-01 16:22:24.564440
2022-12-01 16:22:24.572656
2022-12-01 16:22:24.584636
2022-12-01 16:22:24.592809
2022-12-01 16:22:24.601049
2022-12-01 16:22:24.613507
2022-12-01 16:22:24.622267
2022-12-01 16:22:24.629437
2022-12-01 16:22:24.638661
2022-12-01 16:22:24.650425
2022-12-01 16:22:24.658840
2022-12-01 16:22:24.667088
2022-12-01 16:22:24.678308
2022-12-01 16:22:24.688154
2022-12-01 16:22:24.695538
2022-12-01 16:22:24.704351
2022-12-01 16:22:24.716305
2022-12-01 16:22:24.723753
2022-12-01 16:22:24.732403
2022-12-01 16:22:24.744714
2022-12-01 16:22:24.752539
2022-12-01 16:22:24.760812
2022-12-01 16:22:24.768906
2022-12-01 16:22:24.780603
2022-12-01 16:22:24.790239
2022-12-01 16:22:24.797427
2022-12-01 16:22:24.811182
2022-12-01 16:22:24.817782
2022-12-01 16:22:24.826601
2022-12-01 16:22:24.834472
2022-12-01 16:22:24.847575
2022-12-01 16:22:24.854330
2022-12-01 16:22:24.863166
2022-12-01 16:22:24.875436
2022-12-01 16:22:24.883505
2022-12-01 16:22:24.892059
2022-12-01 16:22:24.900197
2022-12-01 16:22:24.912515
2022-12-01 16:22:24.920816
2022-12-01 16:22:24.928820
2022-12-01 16:22:24.941792
2022-12-01 16:22:24.949307
2022-12-01 16:22:24.957613
2022-12-01 16:22:24.965164
2022-12-01 16:22:24.978075
2022-12-01 16:22:24.986062
2022-12-01 16:22:24.993831
2022-12-01 16:22:25.006752
2022-12-01 16:22:25.014275
2022-12-01 16:22:25.022220
2022-12-01 16:22:25.030844
2022-12-01 16:22:25.043061
2022-12-01 16:22:25.050978
2022-12-01 16:22:25.060124
2022-12-01 16:22:25.072021
2022-12-01 16:22:25.080339
2022-12-01 16:22:25.088657
2022-12-01 16:22:25.096129
2022-12-01 16:22:25.108113
2022-12-01 16:22:25.116830
2022-12-01 16:22:25.125196
2022-12-01 16:22:25.137354
2022-12-01 16:22:25.145332
2022-12-01 16:22:25.153333
2022-12-01 16:22:25.162075
2022-12-01 16:22:25.174194
2022-12-01 16:22:25.182584
2022-12-01 16:22:25.190576
2022-12-01 16:22:25.202985
2022-12-01 16:22:25.210907
2022-12-01 16:22:25.218842
2022-12-01 16:22:25.227709
2022-12-01 16:22:25.240199
2022-12-01 16:22:25.247696
2022-12-01 16:22:25.255911
2022-12-01 16:22:25.268884
2022-12-01 16:22:25.277130
2022-12-01 16:22:25.284969
2022-12-01 16:22:25.293482
2022-12-01 16:22:25.305570
2022-12-01 16:22:25.313937
2022-12-01 16:22:25.322126
2022-12-01 16:22:25.334106
2022-12-01 16:22:25.342700
2022-12-01 16:22:25.350161
2022-12-01 16:22:25.359965
2022-12-01 16:22:25.370427
2022-12-01 16:22:25.380066
2022-12-01 16:22:25.388237
2022-12-01 16:22:25.396329
2022-12-01 16:22:25.407954
2022-12-01 16:22:25.416181
2022-12-01 16:22:25.424583
2022-12-01 16:22:25.436571
2022-12-01 16:22:25.444507
2022-12-01 16:22:25.453093
2022-12-01 16:22:25.461984
2022-12-01 16:22:25.474234
2022-12-01 16:22:25.482861
2022-12-01 16:22:25.490626
2022-12-01 16:22:25.502920
2022-12-01 16:22:25.510572
2022-12-01 16:22:25.518606
2022-12-01 16:22:25.527849
2022-12-01 16:22:25.539056
2022-12-01 16:22:25.546662
2022-12-01 16:22:25.555623
2022-12-01 16:22:25.567640
2022-12-01 16:22:25.576097
2022-12-01 16:22:25.584203
2022-12-01 16:22:25.591900
2022-12-01 16:22:25.604246
2022-12-01 16:22:25.612157
2022-12-01 16:22:25.621064
2022-12-01 16:22:25.633003
2022-12-01 16:22:25.642237
2022-12-01 16:22:25.650210
2022-12-01 16:22:25.658571
2022-12-01 16:22:25.670858
2022-12-01 16:22:25.679062
2022-12-01 16:22:25.687250
2022-12-01 16:22:25.699518
2022-12-01 16:22:25.707622
2022-12-01 16:22:25.715312
2022-12-01 16:22:25.723318
2022-12-01 16:22:25.735664
2022-12-01 16:22:25.743390
2022-12-01 16:22:25.752512
2022-12-01 16:22:25.763799
2022-12-01 16:22:25.772609
2022-12-01 16:22:25.780675
2022-12-01 16:22:25.788900
2022-12-01 16:22:25.801234
2022-12-01 16:22:25.809717
2022-12-01 16:22:25.817393
2022-12-01 16:22:25.830591
2022-12-01 16:22:25.838812
2022-12-01 16:22:25.847258
2022-12-01 16:22:25.855255
2022-12-01 16:22:25.866625
2022-12-01 16:22:25.875665
2022-12-01 16:22:25.883267
2022-12-01 16:22:25.896046
2022-12-01 16:22:25.903804
2022-12-01 16:22:25.911917
2022-12-01 16:22:25.919914
2022-12-01 16:22:25.932463
2022-12-01 16:22:25.940414
2022-12-01 16:22:25.948925
2022-12-01 16:22:25.960836
2022-12-01 16:22:25.968870
2022-12-01 16:22:25.977537
2022-12-01 16:22:25.985424
2022-12-01 16:22:25.997114
2022-12-01 16:22:26.006766
2022-12-01 16:22:26.014229
2022-12-01 16:22:26.027695
2022-12-01 16:22:26.034757
2022-12-01 16:22:26.043401
2022-12-01 16:22:26.051014
2022-12-01 16:22:26.064068
2022-12-01 16:22:26.072434
2022-12-01 16:22:26.080069
2022-12-01 16:22:26.091950
2022-12-01 16:22:26.099850
2022-12-01 16:22:26.108682
2022-12-01 16:22:26.116441
2022-12-01 16:22:26.128827
2022-12-01 16:22:26.136612
2022-12-01 16:22:26.145397
2022-12-01 16:22:26.158290
2022-12-01 16:22:26.165784
2022-12-01 16:22:26.174687
2022-12-01 16:22:26.182272
2022-12-01 16:22:26.195164
2022-12-01 16:22:26.201947
2022-12-01 16:22:26.210534
2022-12-01 16:22:26.223838
2022-12-01 16:22:26.232031
2022-12-01 16:22:26.240068
2022-12-01 16:22:26.248080
2022-12-01 16:22:26.260129
2022-12-01 16:22:26.268449
2022-12-01 16:22:26.276234
2022-12-01 16:22:26.284650
2022-12-01 16:22:26.296836
2022-12-01 16:22:26.304760
2022-12-01 16:22:26.313339
2022-12-01 16:22:26.325232
2022-12-01 16:22:26.333056
2022-12-01 16:22:26.342606
2022-12-01 16:22:26.350133
2022-12-01 16:22:26.363070
2022-12-01 16:22:26.370631
2022-12-01 16:22:26.379473
2022-12-01 16:22:26.391767
2022-12-01 16:22:26.399349
2022-12-01 16:22:26.408066
2022-12-01 16:22:26.416076
2022-12-01 16:22:26.427590
2022-12-01 16:22:26.436062
2022-12-01 16:22:26.443660
2022-12-01 16:22:26.456750
2022-12-01 16:22:26.464838
2022-12-01 16:22:26.472256
2022-12-01 16:22:26.481133
2022-12-01 16:22:26.494156
2022-12-01 16:22:26.501686
2022-12-01 16:22:26.510121
2022-12-01 16:22:26.522117
2022-12-01 16:22:26.531036
2022-12-01 16:22:26.538675
2022-12-01 16:22:26.547418
2022-12-01 16:22:26.559382
2022-12-01 16:22:26.566822
2022-12-01 16:22:26.576079
2022-12-01 16:22:26.588334
2022-12-01 16:22:26.595746
2022-12-01 16:22:26.604339
2022-12-01 16:22:26.612525
2022-12-01 16:22:26.624734
2022-12-01 16:22:26.632767
2022-12-01 16:22:26.640833
2022-12-01 16:22:26.653911
2022-12-01 16:22:26.661509
2022-12-01 16:22:26.670279
2022-12-01 16:22:26.678514
2022-12-01 16:22:26.689431
2022-12-01 16:22:26.698948
2022-12-01 16:22:26.706392
2022-12-01 16:22:26.718711
2022-12-01 16:22:26.727634
2022-12-01 16:22:26.734234
2022-12-01 16:22:26.744032
2022-12-01 16:22:26.756325
2022-12-01 16:22:26.763245
2022-12-01 16:22:26.772335
2022-12-01 16:22:26.783928
2022-12-01 16:22:26.792632
2022-12-01 16:22:26.800582
2022-12-01 16:22:26.809670
2022-12-01 16:22:26.821866
2022-12-01 16:22:26.830039
2022-12-01 16:22:26.838264
2022-12-01 16:22:26.849178
2022-12-01 16:22:26.857957
2022-12-01 16:22:26.866209
2022-12-01 16:22:26.875121
2022-12-01 16:22:26.886470
2022-12-01 16:22:26.895131
2022-12-01 16:22:26.902921
2022-12-01 16:22:26.916074
2022-12-01 16:22:26.923082
2022-12-01 16:22:26.931055
2022-12-01 16:22:26.939895
2022-12-01 16:22:26.952012
2022-12-01 16:22:26.960562
2022-12-01 16:22:26.968438
2022-12-01 16:22:26.980727
2022-12-01 16:22:26.989288
2022-12-01 16:22:26.997489
2022-12-01 16:22:27.005635
2022-12-01 16:22:27.017888
2022-12-01 16:22:27.026035
2022-12-01 16:22:27.033673
2022-12-01 16:22:27.046603
2022-12-01 16:22:27.054946
2022-12-01 16:22:27.063089
2022-12-01 16:22:27.071523
2022-12-01 16:22:27.082437
2022-12-01 16:22:27.091771
2022-12-01 16:22:27.099462
2022-12-01 16:22:27.112209
2022-12-01 16:22:27.120157
2022-12-01 16:22:27.128557
2022-12-01 16:22:27.136091
2022-12-01 16:22:27.148723
2022-12-01 16:22:27.157199
2022-12-01 16:22:27.165353
2022-12-01 16:22:27.173643
2022-12-01 16:22:27.185772
2022-12-01 16:22:27.193674
2022-12-01 16:22:27.201855
2022-12-01 16:22:27.215075
2022-12-01 16:22:27.222628
2022-12-01 16:22:27.230931
2022-12-01 16:22:27.238989
2022-12-01 16:22:27.251020
2022-12-01 16:22:27.259604
2022-12-01 16:22:27.267778
2022-12-01 16:22:27.280043
2022-12-01 16:22:27.288231
2022-12-01 16:22:27.296492
2022-12-01 16:22:27.304641
2022-12-01 16:22:27.316174
2022-12-01 16:22:27.325654
2022-12-01 16:22:27.333297
2022-12-01 16:22:27.345410
2022-12-01 16:22:27.354352
2022-12-01 16:22:27.361672
2022-12-01 16:22:27.369981
2022-12-01 16:22:27.382682
2022-12-01 16:22:27.390866
2022-12-01 16:22:27.398899
2022-12-01 16:22:27.411108
2022-12-01 16:22:27.420178
2022-12-01 16:22:27.428083
2022-12-01 16:22:27.435918
2022-12-01 16:22:27.448083
2022-12-01 16:22:27.456245
2022-12-01 16:22:27.464475
2022-12-01 16:22:27.475743
2022-12-01 16:22:27.483812
2022-12-01 16:22:27.492971
2022-12-01 16:22:27.501227
2022-12-01 16:22:27.512951
2022-12-01 16:22:27.522263
2022-12-01 16:22:27.529664
2022-12-01 16:22:27.541831
2022-12-01 16:22:27.550424
2022-12-01 16:22:27.558429
2022-12-01 16:22:27.566783
2022-12-01 16:22:27.579063
2022-12-01 16:22:27.587268
2022-12-01 16:22:27.595507
2022-12-01 16:22:27.607513
2022-12-01 16:22:27.615907
2022-12-01 16:22:27.624202
2022-12-01 16:22:27.632357
2022-12-01 16:22:27.644392
2022-12-01 16:22:27.652322
2022-12-01 16:22:27.660384
2022-12-01 16:22:27.672924
2022-12-01 16:22:27.681167
2022-12-01 16:22:27.689766
2022-12-01 16:22:27.697917
2022-12-01 16:22:27.710678
2022-12-01 16:22:27.718106
2022-12-01 16:22:27.727599
2022-12-01 16:22:27.739346
2022-12-01 16:22:27.746840
2022-12-01 16:22:27.755738
2022-12-01 16:22:27.763471
2022-12-01 16:22:27.775015
2022-12-01 16:22:27.783516
2022-12-01 16:22:27.791851
2022-12-01 16:22:27.804077
2022-12-01 16:22:27.812101
2022-12-01 16:22:27.820513
2022-12-01 16:22:27.828532
2022-12-01 16:22:27.840530
2022-12-01 16:22:27.848505
2022-12-01 16:22:27.857308
2022-12-01 16:22:27.869879
2022-12-01 16:22:27.878643
2022-12-01 16:22:27.886828
2022-12-01 16:22:27.894490
2022-12-01 16:22:27.907292
2022-12-01 16:22:27.915384
2022-12-01 16:22:27.923461
2022-12-01 16:22:27.935140
2022-12-01 16:22:27.943427
2022-12-01 16:22:27.951570
2022-12-01 16:22:27.960102
2022-12-01 16:22:27.971788
2022-12-01 16:22:27.980529
2022-12-01 16:22:27.988675
2022-12-01 16:22:28.000334
2022-12-01 16:22:28.008794
2022-12-01 16:22:28.017035
2022-12-01 16:22:28.025569
2022-12-01 16:22:28.038360
2022-12-01 16:22:28.046576
2022-12-01 16:22:28.054785
2022-12-01 16:22:28.062154
2022-12-01 16:22:28.075090
2022-12-01 16:22:28.082274
2022-12-01 16:22:28.091923
2022-12-01 16:22:28.103447
2022-12-01 16:22:28.111365
2022-12-01 16:22:28.119541
2022-12-01 16:22:28.128101
2022-12-01 16:22:28.139124
2022-12-01 16:22:28.148462
2022-12-01 16:22:28.156415
2022-12-01 16:22:28.167874
2022-12-01 16:22:28.176853
2022-12-01 16:22:28.184614
2022-12-01 16:22:28.193249
2022-12-01 16:22:28.206316
2022-12-01 16:22:28.213857
2022-12-01 16:22:28.222700
2022-12-01 16:22:28.233927
2022-12-01 16:22:28.243186
2022-12-01 16:22:28.250858
2022-12-01 16:22:28.258943
2022-12-01 16:22:28.271353
2022-12-01 16:22:28.279025
2022-12-01 16:22:28.287875
2022-12-01 16:22:28.299129
2022-12-01 16:22:28.307690
2022-12-01 16:22:28.315661
2022-12-01 16:22:28.324117
2022-12-01 16:22:28.336749
2022-12-01 16:22:28.344517
2022-12-01 16:22:28.353109
2022-12-01 16:22:28.364767
2022-12-01 16:22:28.373422
2022-12-01 16:22:28.381399
2022-12-01 16:22:28.389393
2022-12-01 16:22:28.401653
2022-12-01 16:22:28.409695
2022-12-01 16:22:28.418759
2022-12-01 16:22:28.430123
2022-12-01 16:22:28.438830
2022-12-01 16:22:28.446199
2022-12-01 16:22:28.455427
2022-12-01 16:22:28.467586
2022-12-01 16:22:28.475428
2022-12-01 16:22:28.483456
2022-12-01 16:22:28.496054
2022-12-01 16:22:28.503943
2022-12-01 16:22:28.512667
2022-12-01 16:22:28.521219
2022-12-01 16:22:28.533213
2022-12-01 16:22:28.542174
2022-12-01 16:22:28.549735
2022-12-01 16:22:28.561293
2022-12-01 16:22:28.569271
2022-12-01 16:22:28.579053
2022-12-01 16:22:28.587274
2022-12-01 16:22:28.598871
2022-12-01 16:22:28.606992
2022-12-01 16:22:28.615069
2022-12-01 16:22:28.626855
2022-12-01 16:22:28.635849
2022-12-01 16:22:28.643715
2022-12-01 16:22:28.652217
2022-12-01 16:22:28.664514
2022-12-01 16:22:28.672757
2022-12-01 16:22:28.680894
2022-12-01 16:22:28.693741
2022-12-01 16:22:28.700891
2022-12-01 16:22:28.710145
2022-12-01 16:22:28.717284
2022-12-01 16:22:28.730069
2022-12-01 16:22:28.737973
2022-12-01 16:22:28.746975
2022-12-01 16:22:28.759283
2022-12-01 16:22:28.766738
2022-12-01 16:22:28.775177
2022-12-01 16:22:28.783052
2022-12-01 16:22:28.796144
2022-12-01 16:22:28.804320
2022-12-01 16:22:28.812342
2022-12-01 16:22:28.824346
2022-12-01 16:22:28.832098
2022-12-01 16:22:28.840679
2022-12-01 16:22:28.848664
2022-12-01 16:22:28.859999
2022-12-01 16:22:28.869875
2022-12-01 16:22:28.877227
2022-12-01 16:22:28.889784
2022-12-01 16:22:28.897538
2022-12-01 16:22:28.905980
2022-12-01 16:22:28.914201
2022-12-01 16:22:28.927269
2022-12-01 16:22:28.934970
2022-12-01 16:22:28.943466
2022-12-01 16:22:28.951457
2022-12-01 16:22:28.963318
2022-12-01 16:22:28.971482
2022-12-01 16:22:28.979495
2022-12-01 16:22:28.992292
2022-12-01 16:22:29.000557
2022-12-01 16:22:29.008573
2022-12-01 16:22:29.016191
2022-12-01 16:22:29.027782
2022-12-01 16:22:29.037312
2022-12-01 16:22:29.045468
2022-12-01 16:22:29.057307
2022-12-01 16:22:29.065807
2022-12-01 16:22:29.073616
2022-12-01 16:22:29.081838
2022-12-01 16:22:29.094682
2022-12-01 16:22:29.102599
2022-12-01 16:22:29.111048
2022-12-01 16:22:29.123805
2022-12-01 16:22:29.132840
2022-12-01 16:22:29.140176
2022-12-01 16:22:29.148877
2022-12-01 16:22:29.160241
2022-12-01 16:22:29.168127
2022-12-01 16:22:29.176543
2022-12-01 16:22:29.188863
2022-12-01 16:22:29.196748
2022-12-01 16:22:29.205762
2022-12-01 16:22:29.212893
2022-12-01 16:22:29.224738
2022-12-01 16:22:29.234429
2022-12-01 16:22:29.242098
2022-12-01 16:22:29.254912
2022-12-01 16:22:29.261907
2022-12-01 16:22:29.270345
2022-12-01 16:22:29.279052
2022-12-01 16:22:29.291755
2022-12-01 16:22:29.299314
2022-12-01 16:22:29.307920
2022-12-01 16:22:29.320112
2022-12-01 16:22:29.328133
2022-12-01 16:22:29.335614
2022-12-01 16:22:29.344521
2022-12-01 16:22:29.356595
2022-12-01 16:22:29.364322
2022-12-01 16:22:29.373682
2022-12-01 16:22:29.385360
2022-12-01 16:22:29.393737
2022-12-01 16:22:29.401589
2022-12-01 16:22:29.408993
2022-12-01 16:22:29.422823
2022-12-01 16:22:29.430786
2022-12-01 16:22:29.439133
2022-12-01 16:22:29.451490
2022-12-01 16:22:29.459683
2022-12-01 16:22:29.466951
2022-12-01 16:22:29.476062
2022-12-01 16:22:29.487571
2022-12-01 16:22:29.496118
2022-12-01 16:22:29.504111
2022-12-01 16:22:29.516425
2022-12-01 16:22:29.524451
2022-12-01 16:22:29.532616
2022-12-01 16:22:29.540942
2022-12-01 16:22:29.552340
2022-12-01 16:22:29.561101
2022-12-01 16:22:29.569069
2022-12-01 16:22:29.581117
2022-12-01 16:22:29.590159
2022-12-01 16:22:29.597530
2022-12-01 16:22:29.606385
2022-12-01 16:22:29.618702
2022-12-01 16:22:29.627541
2022-12-01 16:22:29.635688
2022-12-01 16:22:29.648099
2022-12-01 16:22:29.655798
2022-12-01 16:22:29.664108
2022-12-01 16:22:29.672060
2022-12-01 16:22:29.684034
2022-12-01 16:22:29.692679
2022-12-01 16:22:29.701116
2022-12-01 16:22:29.713224
2022-12-01 16:22:29.721087
2022-12-01 16:22:29.729560
2022-12-01 16:22:29.737722
2022-12-01 16:22:29.749392
2022-12-01 16:22:29.758398
2022-12-01 16:22:29.765961
2022-12-01 16:22:29.773872
2022-12-01 16:22:29.787374
2022-12-01 16:22:29.795593
2022-12-01 16:22:29.803652
2022-12-01 16:22:29.814743
2022-12-01 16:22:29.823589
2022-12-01 16:22:29.831688
2022-12-01 16:22:29.840159
2022-12-01 16:22:29.852497
2022-12-01 16:22:29.860600
2022-12-01 16:22:29.868906
2022-12-01 16:22:29.880851
2022-12-01 16:22:29.888280
2022-12-01 16:22:29.897160
2022-12-01 16:22:29.905366
2022-12-01 16:22:29.917177
2022-12-01 16:22:29.925789
2022-12-01 16:22:29.934257
2022-12-01 16:22:29.945798
2022-12-01 16:22:29.953896
2022-12-01 16:22:29.962488
2022-12-01 16:22:29.971746
2022-12-01 16:22:29.983212
2022-12-01 16:22:29.991407
2022-12-01 16:22:29.999130
2022-12-01 16:22:30.012148
2022-12-01 16:22:30.020052
2022-12-01 16:22:30.028602
2022-12-01 16:22:30.036541
2022-12-01 16:22:30.048497
2022-12-01 16:22:30.056821
2022-12-01 16:22:30.064632
2022-12-01 16:22:30.077688
2022-12-01 16:22:30.085829
2022-12-01 16:22:30.094028
2022-12-01 16:22:30.102773
2022-12-01 16:22:30.114913
2022-12-01 16:22:30.123098
2022-12-01 16:22:30.131456
2022-12-01 16:22:30.143278
2022-12-01 16:22:30.151026
2022-12-01 16:22:30.160107
2022-12-01 16:22:30.168898
2022-12-01 16:22:30.180363
2022-12-01 16:22:30.188375
2022-12-01 16:22:30.196475
2022-12-01 16:22:30.208774
2022-12-01 16:22:30.216856
2022-12-01 16:22:30.224876
2022-12-01 16:22:30.233106
2022-12-01 16:22:30.245340
2022-12-01 16:22:30.254351
2022-12-01 16:22:30.261513
2022-12-01 16:22:30.274328
2022-12-01 16:22:30.282157
2022-12-01 16:22:30.290131
2022-12-01 16:22:30.298884
2022-12-01 16:22:30.311495
2022-12-01 16:22:30.319869
2022-12-01 16:22:30.328076
2022-12-01 16:22:30.338563
2022-12-01 16:22:30.348154
2022-12-01 16:22:30.356083
2022-12-01 16:22:30.364448
2022-12-01 16:22:30.375986
2022-12-01 16:22:30.383666
2022-12-01 16:22:30.392877
2022-12-01 16:22:30.405860
2022-12-01 16:22:30.413340
2022-12-01 16:22:30.422300
2022-12-01 16:22:30.430024
2022-12-01 16:22:30.442765
2022-12-01 16:22:30.450125
2022-12-01 16:22:30.459630
2022-12-01 16:22:30.470937
2022-12-01 16:22:30.479600
2022-12-01 16:22:30.487816
2022-12-01 16:22:30.495984
2022-12-01 16:22:30.507290
2022-12-01 16:22:30.515958
2022-12-01 16:22:30.523891
2022-12-01 16:22:30.536451
2022-12-01 16:22:30.544574
2022-12-01 16:22:30.552728
2022-12-01 16:22:30.560811
2022-12-01 16:22:30.573157
2022-12-01 16:22:30.581016
2022-12-01 16:22:30.589646
2022-12-01 16:22:30.601717
2022-12-01 16:22:30.610669
2022-12-01 16:22:30.618514
2022-12-01 16:22:30.627074
2022-12-01 16:22:30.638862
2022-12-01 16:22:30.646796
2022-12-01 16:22:30.655708
2022-12-01 16:22:30.663866
2022-12-01 16:22:30.675552
2022-12-01 16:22:30.684369
2022-12-01 16:22:30.691801
2022-12-01 16:22:30.704198
2022-12-01 16:22:30.712552
2022-12-01 16:22:30.720522
2022-12-01 16:22:30.728887
2022-12-01 16:22:30.740407
2022-12-01 16:22:30.749332
2022-12-01 16:22:30.756874
2022-12-01 16:22:30.768897
2022-12-01 16:22:30.777630
2022-12-01 16:22:30.786029
2022-12-01 16:22:30.794269
2022-12-01 16:22:30.806547
2022-12-01 16:22:30.814640
2022-12-01 16:22:30.823060
2022-12-01 16:22:30.835126
2022-12-01 16:22:30.843621
2022-12-01 16:22:30.851662
2022-12-01 16:22:30.859960
2022-12-01 16:22:30.871064
2022-12-01 16:22:30.880090
2022-12-01 16:22:30.887989
2022-12-01 16:22:30.900714
2022-12-01 16:22:30.909692
2022-12-01 16:22:30.917378
2022-12-01 16:22:30.926095
2022-12-01 16:22:30.938380
2022-12-01 16:22:30.946713
2022-12-01 16:22:30.954763
2022-12-01 16:22:30.966239
2022-12-01 16:22:30.975305
2022-12-01 16:22:30.982234
2022-12-01 16:22:30.991987
2022-12-01 16:22:31.003726
2022-12-01 16:22:31.011533
2022-12-01 16:22:31.020300
2022-12-01 16:22:31.031221
2022-12-01 16:22:31.040124
2022-12-01 16:22:31.047868
2022-12-01 16:22:31.056390
2022-12-01 16:22:31.068353
2022-12-01 16:22:31.077083
2022-12-01 16:22:31.084958
2022-12-01 16:22:31.097575
2022-12-01 16:22:31.105565
2022-12-01 16:22:31.114891
2022-12-01 16:22:31.122129
2022-12-01 16:22:31.134528
2022-12-01 16:22:31.142641
2022-12-01 16:22:31.150822
2022-12-01 16:22:31.162669
2022-12-01 16:22:31.171349
2022-12-01 16:22:31.179459
2022-12-01 16:22:31.187775
2022-12-01 16:22:31.199672
2022-12-01 16:22:31.207635
2022-12-01 16:22:31.216371
2022-12-01 16:22:31.228604
2022-12-01 16:22:31.236985
2022-12-01 16:22:31.245566
2022-12-01 16:22:31.253199
2022-12-01 16:22:31.264343
2022-12-01 16:22:31.273670
2022-12-01 16:22:31.281898
2022-12-01 16:22:31.294725
2022-12-01 16:22:31.302923
2022-12-01 16:22:31.311101
2022-12-01 16:22:31.318027
2022-12-01 16:22:31.330943
2022-12-01 16:22:31.339250
2022-12-01 16:22:31.347195
2022-12-01 16:22:31.359754
2022-12-01 16:22:31.367881
2022-12-01 16:22:31.375718
2022-12-01 16:22:31.384327
2022-12-01 16:22:31.396376
2022-12-01 16:22:31.404318
2022-12-01 16:22:31.412773
2022-12-01 16:22:31.425018
2022-12-01 16:22:31.433275
2022-12-01 16:22:31.441902
2022-12-01 16:22:31.449565
2022-12-01 16:22:31.461836
2022-12-01 16:22:31.470150
2022-12-01 16:22:31.478879
2022-12-01 16:22:31.491351
2022-12-01 16:22:31.498932
2022-12-01 16:22:31.507242
2022-12-01 16:22:31.514720
2022-12-01 16:22:31.527534
2022-12-01 16:22:31.535355
2022-12-01 16:22:31.543265
2022-12-01 16:22:31.551440
2022-12-01 16:22:31.565219
2022-12-01 16:22:31.572553
2022-12-01 16:22:31.580873
2022-12-01 16:22:31.592961
2022-12-01 16:22:31.601269
2022-12-01 16:22:31.609020
2022-12-01 16:22:31.617701
2022-12-01 16:22:31.629432
2022-12-01 16:22:31.637775
2022-12-01 16:22:31.645756
2022-12-01 16:22:31.658275
2022-12-01 16:22:31.666757
2022-12-01 16:22:31.674882
2022-12-01 16:22:31.683082
2022-12-01 16:22:31.695306
2022-12-01 16:22:31.702929
2022-12-01 16:22:31.711833
2022-12-01 16:22:31.723474
2022-12-01 16:22:31.732285
2022-12-01 16:22:31.740342
2022-12-01 16:22:31.748567
2022-12-01 16:22:31.760538
2022-12-01 16:22:31.768861
2022-12-01 16:22:31.776882
2022-12-01 16:22:31.789083
2022-12-01 16:22:31.797573
2022-12-01 16:22:31.805987
2022-12-01 16:22:31.814228
2022-12-01 16:22:31.827214
2022-12-01 16:22:31.834991
2022-12-01 16:22:31.842843
2022-12-01 16:22:31.854726
2022-12-01 16:22:31.863637
2022-12-01 16:22:31.871816
2022-12-01 16:22:31.880032
2022-12-01 16:22:31.891509
2022-12-01 16:22:31.900464
2022-12-01 16:22:31.908695
2022-12-01 16:22:31.920897
2022-12-01 16:22:31.928900
2022-12-01 16:22:31.936893
2022-12-01 16:22:31.945319
2022-12-01 16:22:31.957581
2022-12-01 16:22:31.965645
2022-12-01 16:22:31.974137
2022-12-01 16:22:31.985405
2022-12-01 16:22:31.993652
2022-12-01 16:22:32.002579
2022-12-01 16:22:32.010593
2022-12-01 16:22:32.022914
2022-12-01 16:22:32.031533
2022-12-01 16:22:32.040138
2022-12-01 16:22:32.052391
2022-12-01 16:22:32.059957
2022-12-01 16:22:32.068388
2022-12-01 16:22:32.076639
2022-12-01 16:22:32.088810
2022-12-01 16:22:32.096901
2022-12-01 16:22:32.104898
2022-12-01 16:22:32.117299
2022-12-01 16:22:32.125468
2022-12-01 16:22:32.133867
2022-12-01 16:22:32.141686
2022-12-01 16:22:32.154357
2022-12-01 16:22:32.162577
2022-12-01 16:22:32.170766
2022-12-01 16:22:32.181874
2022-12-01 16:22:32.191733
2022-12-01 16:22:32.199158
2022-12-01 16:22:32.208127
2022-12-01 16:22:32.220400
2022-12-01 16:22:32.227616
2022-12-01 16:22:32.236394
2022-12-01 16:22:32.248406
2022-12-01 16:22:32.256732
2022-12-01 16:22:32.264059
2022-12-01 16:22:32.273521
2022-12-01 16:22:32.285958
2022-12-01 16:22:32.294140
2022-12-01 16:22:32.302350
2022-12-01 16:22:32.314036
2022-12-01 16:22:32.322057
2022-12-01 16:22:32.330688
2022-12-01 16:22:32.338597
2022-12-01 16:22:32.350825
2022-12-01 16:22:32.359681
2022-12-01 16:22:32.367032
2022-12-01 16:22:32.379615
2022-12-01 16:22:32.388382
2022-12-01 16:22:32.395799
2022-12-01 16:22:32.404388
2022-12-01 16:22:32.416595
2022-12-01 16:22:32.424695
2022-12-01 16:22:32.432672
2022-12-01 16:22:32.441364
2022-12-01 16:22:32.453885
2022-12-01 16:22:32.462100
2022-12-01 16:22:32.470331
2022-12-01 16:22:32.481544
2022-12-01 16:22:32.490164
2022-12-01 16:22:32.498141
2022-12-01 16:22:32.506369
2022-12-01 16:22:32.518940
2022-12-01 16:22:32.527618
2022-12-01 16:22:32.535128
2022-12-01 16:22:32.547278
2022-12-01 16:22:32.556320
2022-12-01 16:22:32.563924
2022-12-01 16:22:32.572206
2022-12-01 16:22:32.584396
2022-12-01 16:22:32.592661
2022-12-01 16:22:32.600585
2022-12-01 16:22:32.612212
2022-12-01 16:22:32.621858
2022-12-01 16:22:32.629289
2022-12-01 16:22:32.638231
2022-12-01 16:22:32.649740
2022-12-01 16:22:32.657891
2022-12-01 16:22:32.666873
2022-12-01 16:22:32.678894
2022-12-01 16:22:32.687710
2022-12-01 16:22:32.694492
2022-12-01 16:22:32.702971
2022-12-01 16:22:32.714693
2022-12-01 16:22:32.723383
2022-12-01 16:22:32.731250
2022-12-01 16:22:32.744165
2022-12-01 16:22:32.751296
2022-12-01 16:22:32.760565
2022-12-01 16:22:32.768572
2022-12-01 16:22:32.780426
2022-12-01 16:22:32.789759
2022-12-01 16:22:32.797106
2022-12-01 16:22:32.808835
2022-12-01 16:22:32.817312
2022-12-01 16:22:32.826090
2022-12-01 16:22:32.833376
2022-12-01 16:22:32.846023
2022-12-01 16:22:32.854538
2022-12-01 16:22:32.862467
2022-12-01 16:22:32.874785
2022-12-01 16:22:32.882833
2022-12-01 16:22:32.891411
2022-12-01 16:22:32.899886
2022-12-01 16:22:32.911750
2022-12-01 16:22:32.920028
2022-12-01 16:22:32.927954
2022-12-01 16:22:32.940271
2022-12-01 16:22:32.948534
2022-12-01 16:22:32.956948
2022-12-01 16:22:32.964933
2022-12-01 16:22:32.977089
2022-12-01 16:22:32.985250
2022-12-01 16:22:32.993331
2022-12-01 16:22:33.005169
2022-12-01 16:22:33.013605
2022-12-01 16:22:33.021921
2022-12-01 16:22:33.030637
2022-12-01 16:22:33.042268
2022-12-01 16:22:33.051279
2022-12-01 16:22:33.059323
2022-12-01 16:22:33.070803
2022-12-01 16:22:33.079826
2022-12-01 16:22:33.088116
2022-12-01 16:22:33.095711
2022-12-01 16:22:33.107960
2022-12-01 16:22:33.116844
2022-12-01 16:22:33.124997
2022-12-01 16:22:33.137243
2022-12-01 16:22:33.145154
2022-12-01 16:22:33.153146
2022-12-01 16:22:33.161492
2022-12-01 16:22:33.173879
2022-12-01 16:22:33.181895
2022-12-01 16:22:33.190399
2022-12-01 16:22:33.201893
2022-12-01 16:22:33.210379
2022-12-01 16:22:33.218304
2022-12-01 16:22:33.226250
2022-12-01 16:22:33.239186
2022-12-01 16:22:33.247953
2022-12-01 16:22:33.255100
2022-12-01 16:22:33.263672
2022-12-01 16:22:33.276051
2022-12-01 16:22:33.284289
2022-12-01 16:22:33.292743
2022-12-01 16:22:33.304604
2022-12-01 16:22:33.312909
2022-12-01 16:22:33.321132
2022-12-01 16:22:33.329522
2022-12-01 16:22:33.341425
2022-12-01 16:22:33.350013
2022-12-01 16:22:33.358184
2022-12-01 16:22:33.370156
2022-12-01 16:22:33.378053
2022-12-01 16:22:33.386971
2022-12-01 16:22:33.395028
2022-12-01 16:22:33.407475
2022-12-01 16:22:33.415698
2022-12-01 16:22:33.423290
2022-12-01 16:22:33.435862
2022-12-01 16:22:33.444249
2022-12-01 16:22:33.452386
2022-12-01 16:22:33.460801
2022-12-01 16:22:33.472341
2022-12-01 16:22:33.481445
2022-12-01 16:22:33.489064
2022-12-01 16:22:33.500967
2022-12-01 16:22:33.509721
2022-12-01 16:22:33.518263
2022-12-01 16:22:33.526180
2022-12-01 16:22:33.538612
2022-12-01 16:22:33.546428
2022-12-01 16:22:33.554924
2022-12-01 16:22:33.566846
2022-12-01 16:22:33.574914
2022-12-01 16:22:33.583761
2022-12-01 16:22:33.592048
2022-12-01 16:22:33.604317
2022-12-01 16:22:33.613128
2022-12-01 16:22:33.620559
2022-12-01 16:22:33.632479
2022-12-01 16:22:33.640872
2022-12-01 16:22:33.648972
2022-12-01 16:22:33.656986
2022-12-01 16:22:33.669654
2022-12-01 16:22:33.677325
2022-12-01 16:22:33.686799
2022-12-01 16:22:33.698441
2022-12-01 16:22:33.706689
2022-12-01 16:22:33.715498
2022-12-01 16:22:33.722903
2022-12-01 16:22:33.735168
2022-12-01 16:22:33.743436
2022-12-01 16:22:33.751482
2022-12-01 16:22:33.763274
2022-12-01 16:22:33.772310
2022-12-01 16:22:33.780506
2022-12-01 16:22:33.788679
2022-12-01 16:22:33.800837
2022-12-01 16:22:33.808916
2022-12-01 16:22:33.817160
2022-12-01 16:22:33.830103
2022-12-01 16:22:33.838378
2022-12-01 16:22:33.846569
2022-12-01 16:22:33.854748
2022-12-01 16:22:33.866297
2022-12-01 16:22:33.874428
2022-12-01 16:22:33.882517
2022-12-01 16:22:33.895716
2022-12-01 16:22:33.903160
2022-12-01 16:22:33.912106
2022-12-01 16:22:33.919640
2022-12-01 16:22:33.931812
2022-12-01 16:22:33.940278
2022-12-01 16:22:33.948561
2022-12-01 16:22:33.960676
2022-12-01 16:22:33.968180
2022-12-01 16:22:33.976756
2022-12-01 16:22:33.985364
2022-12-01 16:22:33.997387
2022-12-01 16:22:34.005278
2022-12-01 16:22:34.013346
2022-12-01 16:22:34.025565
2022-12-01 16:22:34.034001
2022-12-01 16:22:34.041833
2022-12-01 16:22:34.050608
2022-12-01 16:22:34.062422
2022-12-01 16:22:34.070900
2022-12-01 16:22:34.079148
2022-12-01 16:22:34.091574
2022-12-01 16:22:34.099979
2022-12-01 16:22:34.108203
2022-12-01 16:22:34.116418
2022-12-01 16:22:34.128582
2022-12-01 16:22:34.136867
2022-12-01 16:22:34.144925
2022-12-01 16:22:34.152914
2022-12-01 16:22:34.165267
2022-12-01 16:22:34.174250
2022-12-01 16:22:34.182421
2022-12-01 16:22:34.194374
2022-12-01 16:22:34.202237
2022-12-01 16:22:34.210245
2022-12-01 16:22:34.218098
2022-12-01 16:22:34.230706
2022-12-01 16:22:34.238854
2022-12-01 16:22:34.247440
2022-12-01 16:22:34.258878
2022-12-01 16:22:34.266852
2022-12-01 16:22:34.275723
2022-12-01 16:22:34.283459
2022-12-01 16:22:34.296489
2022-12-01 16:22:34.304828
2022-12-01 16:22:34.313361
2022-12-01 16:22:34.325802
2022-12-01 16:22:34.333991
2022-12-01 16:22:34.342154
2022-12-01 16:22:34.350379
2022-12-01 16:22:34.361551
2022-12-01 16:22:34.370260
2022-12-01 16:22:34.377901
2022-12-01 16:22:34.390139
2022-12-01 16:22:34.397984
2022-12-01 16:22:34.407056
2022-12-01 16:22:34.415479
2022-12-01 16:22:34.428193
2022-12-01 16:22:34.435794
2022-12-01 16:22:34.444231
2022-12-01 16:22:34.456404
2022-12-01 16:22:34.464229
2022-12-01 16:22:34.472337
2022-12-01 16:22:34.480936
2022-12-01 16:22:34.492726
2022-12-01 16:22:34.501323
2022-12-01 16:22:34.509378
2022-12-01 16:22:34.521317
2022-12-01 16:22:34.529693
2022-12-01 16:22:34.537939
2022-12-01 16:22:34.546461
2022-12-01 16:22:34.558409
2022-12-01 16:22:34.566712
2022-12-01 16:22:34.575028
2022-12-01 16:22:34.587166
2022-12-01 16:22:34.595286
2022-12-01 16:22:34.603241
2022-12-01 16:22:34.611580
2022-12-01 16:22:34.623412
2022-12-01 16:22:34.631915
2022-12-01 16:22:34.640219
2022-12-01 16:22:34.652113
2022-12-01 16:22:34.660844
2022-12-01 16:22:34.668934
2022-12-01 16:22:34.676891
2022-12-01 16:22:34.689489
2022-12-01 16:22:34.697776
2022-12-01 16:22:34.705882
2022-12-01 16:22:34.717710
2022-12-01 16:22:34.726257
2022-12-01 16:22:34.734672
2022-12-01 16:22:34.743183
2022-12-01 16:22:34.755330
2022-12-01 16:22:34.762876
2022-12-01 16:22:34.771375
2022-12-01 16:22:34.784165
2022-12-01 16:22:34.791745
2022-12-01 16:22:34.800373
2022-12-01 16:22:34.808186
2022-12-01 16:22:34.820743
2022-12-01 16:22:34.828797
2022-12-01 16:22:34.837180
2022-12-01 16:22:34.849264
2022-12-01 16:22:34.856751
2022-12-01 16:22:34.865608
2022-12-01 16:22:34.873645
2022-12-01 16:22:34.885461
2022-12-01 16:22:34.893679
2022-12-01 16:22:34.902170
2022-12-01 16:22:34.914913
2022-12-01 16:22:34.923477
2022-12-01 16:22:34.931300
2022-12-01 16:22:34.939476
2022-12-01 16:22:34.951146
2022-12-01 16:22:34.959926
2022-12-01 16:22:34.968092
2022-12-01 16:22:34.980062
2022-12-01 16:22:34.988296
2022-12-01 16:22:34.996155
2022-12-01 16:22:35.005239
2022-12-01 16:22:35.016998
2022-12-01 16:22:35.025752
2022-12-01 16:22:35.034109
2022-12-01 16:22:35.042933
2022-12-01 16:22:35.054842
2022-12-01 16:22:35.062942
2022-12-01 16:22:35.071345
2022-12-01 16:22:35.082538
2022-12-01 16:22:35.090468
2022-12-01 16:22:35.098593
2022-12-01 16:22:35.107246
2022-12-01 16:22:35.119671
2022-12-01 16:22:35.127683
2022-12-01 16:22:35.136352
2022-12-01 16:22:35.148323
2022-12-01 16:22:35.155961
2022-12-01 16:22:35.164718
2022-12-01 16:22:35.173033
2022-12-01 16:22:35.185007
2022-12-01 16:22:35.193406
2022-12-01 16:22:35.201610
2022-12-01 16:22:35.214002
2022-12-01 16:22:35.222156
2022-12-01 16:22:35.229573
2022-12-01 16:22:35.238689
2022-12-01 16:22:35.250926
2022-12-01 16:22:35.259022
2022-12-01 16:22:35.267322
2022-12-01 16:22:35.279355
2022-12-01 16:22:35.287282
2022-12-01 16:22:35.296175
2022-12-01 16:22:35.303916
2022-12-01 16:22:35.316551
2022-12-01 16:22:35.324681
2022-12-01 16:22:35.333197
2022-12-01 16:22:35.344938
2022-12-01 16:22:35.353222
2022-12-01 16:22:35.361523
2022-12-01 16:22:35.370351
2022-12-01 16:22:35.381511
2022-12-01 16:22:35.389825
2022-12-01 16:22:35.398535
2022-12-01 16:22:35.410073
2022-12-01 16:22:35.418855
2022-12-01 16:22:35.426742
2022-12-01 16:22:35.435272
2022-12-01 16:22:35.446973
2022-12-01 16:22:35.455827
2022-12-01 16:22:35.463621
2022-12-01 16:22:35.475984
2022-12-01 16:22:35.484387
2022-12-01 16:22:35.492523
2022-12-01 16:22:35.500828
2022-12-01 16:22:35.512611
2022-12-01 16:22:35.521021
2022-12-01 16:22:35.529595
2022-12-01 16:22:35.541348
2022-12-01 16:22:35.549685
2022-12-01 16:22:35.557918
2022-12-01 16:22:35.566116
2022-12-01 16:22:35.578892
2022-12-01 16:22:35.586904
2022-12-01 16:22:35.594861
2022-12-01 16:22:35.607357
2022-12-01 16:22:35.615495
2022-12-01 16:22:35.623036
2022-12-01 16:22:35.631672
2022-12-01 16:22:35.644436
2022-12-01 16:22:35.652403
2022-12-01 16:22:35.660574
2022-12-01 16:22:35.672485
2022-12-01 16:22:35.680444
2022-12-01 16:22:35.689189
2022-12-01 16:22:35.697086
2022-12-01 16:22:35.709226
2022-12-01 16:22:35.717541
2022-12-01 16:22:35.726139
2022-12-01 16:22:35.737620
2022-12-01 16:22:35.745880
2022-12-01 16:22:35.755350
2022-12-01 16:22:35.762972
2022-12-01 16:22:35.775777
2022-12-01 16:22:35.784000
2022-12-01 16:22:35.791673
2022-12-01 16:22:35.804432
2022-12-01 16:22:35.812435
2022-12-01 16:22:35.820432
2022-12-01 16:22:35.828593
2022-12-01 16:22:35.840744
2022-12-01 16:22:35.848937
2022-12-01 16:22:35.856926
2022-12-01 16:22:35.868928
2022-12-01 16:22:35.878214
2022-12-01 16:22:35.886027
2022-12-01 16:22:35.894583
2022-12-01 16:22:35.906868
2022-12-01 16:22:35.914954
2022-12-01 16:22:35.922097
2022-12-01 16:22:35.930834
2022-12-01 16:22:35.943277
2022-12-01 16:22:35.950820
2022-12-01 16:22:35.959252
2022-12-01 16:22:35.971445
2022-12-01 16:22:35.979233
2022-12-01 16:22:35.987470
2022-12-01 16:22:35.996398
2022-12-01 16:22:36.007909
2022-12-01 16:22:36.016261
2022-12-01 16:22:36.024825
2022-12-01 16:22:36.037114
2022-12-01 16:22:36.045873
2022-12-01 16:22:36.053632
2022-12-01 16:22:36.062534
2022-12-01 16:22:36.074772
2022-12-01 16:22:36.081879
2022-12-01 16:22:36.091167
2022-12-01 16:22:36.102631
2022-12-01 16:22:36.110673
2022-12-01 16:22:36.118671
2022-12-01 16:22:36.126761
2022-12-01 16:22:36.139652
2022-12-01 16:22:36.147418
2022-12-01 16:22:36.155974
2022-12-01 16:22:36.168490
2022-12-01 16:22:36.176272
2022-12-01 16:22:36.184879
2022-12-01 16:22:36.192102
2022-12-01 16:22:36.205395
2022-12-01 16:22:36.213429
2022-12-01 16:22:36.222093
2022-12-01 16:22:36.234532
2022-12-01 16:22:36.241759
2022-12-01 16:22:36.250411
2022-12-01 16:22:36.258439
2022-12-01 16:22:36.270609
2022-12-01 16:22:36.278973
2022-12-01 16:22:36.287252
2022-12-01 16:22:36.299278
2022-12-01 16:22:36.308268
2022-12-01 16:22:36.315009
2022-12-01 16:22:36.324588
2022-12-01 16:22:36.336488
2022-12-01 16:22:36.343620
2022-12-01 16:22:36.352843
2022-12-01 16:22:36.364903
2022-12-01 16:22:36.382393
2022-12-01 16:22:36.393874
2022-12-01 16:22:36.458113
2022-12-01 16:22:36.497761
2022-12-01 16:22:36.547744
2022-12-01 16:22:36.561203
2022-12-01 16:22:36.567352
2022-12-01 16:22:36.570734
2022-12-01 16:22:36.573554
2022-12-01 16:22:36.574724
2022-12-01 16:22:36.575425
2022-12-01 16:22:36.575921
2022-12-01 16:22:36.576420
2022-12-01 16:22:36.577160
2022-12-01 16:22:36.577656
2022-12-01 16:22:36.578153
2022-12-01 16:22:36.578650
2022-12-01 16:22:36.579643
2022-12-01 16:22:36.580140
2022-12-01 16:22:36.581223
2022-12-01 16:22:36.581722
2022-12-01 16:22:36.582216
2022-12-01 16:22:36.582719
2022-12-01 16:22:36.586065
2022-12-01 16:22:36.598326
2022-12-01 16:22:36.606760
2022-12-01 16:22:36.614999
2022-12-01 16:22:36.627016
2022-12-01 16:22:36.634980
2022-12-01 16:22:36.642966
2022-12-01 16:22:36.651456
2022-12-01 16:22:36.663044
2022-12-01 16:22:36.672268
2022-12-01 16:22:36.679822
2022-12-01 16:22:36.692769
2022-12-01 16:22:36.700665
2022-12-01 16:22:36.709661
2022-12-01 16:22:36.719668
2022-12-01 16:22:36.728787
2022-12-01 16:22:36.737495
2022-12-01 16:22:36.745226
2022-12-01 16:22:36.758853
2022-12-01 16:22:36.766585
2022-12-01 16:22:36.774653
2022-12-01 16:22:36.782630
2022-12-01 16:22:36.794954
2022-12-01 16:22:36.803348
2022-12-01 16:22:36.811416
2022-12-01 16:22:36.819730
2022-12-01 16:22:36.831814
2022-12-01 16:22:36.840048
2022-12-01 16:22:36.848199
2022-12-01 16:22:36.860730
2022-12-01 16:22:36.868924
2022-12-01 16:22:36.876803
2022-12-01 16:22:36.885828
2022-12-01 16:22:36.897527
2022-12-01 16:22:36.905766
2022-12-01 16:22:36.913799
2022-12-01 16:22:36.926629
2022-12-01 16:22:36.934022
2022-12-01 16:22:36.943178
2022-12-01 16:22:36.950395
2022-12-01 16:22:36.962170
2022-12-01 16:22:36.971843
2022-12-01 16:22:36.979536
2022-12-01 16:22:36.992184
2022-12-01 16:22:36.999738
2022-12-01 16:22:37.008249
2022-12-01 16:22:37.016399
2022-12-01 16:22:37.027969
2022-12-01 16:22:37.036891
2022-12-01 16:22:37.044809
2022-12-01 16:22:37.056365
2022-12-01 16:22:37.065135
2022-12-01 16:22:37.073323
2022-12-01 16:22:37.081680
2022-12-01 16:22:37.093675
2022-12-01 16:22:37.102147
2022-12-01 16:22:37.110136
2022-12-01 16:22:37.122038
2022-12-01 16:22:37.130658
2022-12-01 16:22:37.139007
2022-12-01 16:22:37.147541
2022-12-01 16:22:37.158505
2022-12-01 16:22:37.167748
2022-12-01 16:22:37.175540
2022-12-01 16:22:37.187834
2022-12-01 16:22:37.195627
2022-12-01 16:22:37.204449
2022-12-01 16:22:37.211981
2022-12-01 16:22:37.224224
2022-12-01 16:22:37.233217
2022-12-01 16:22:37.241432
2022-12-01 16:22:37.254437
2022-12-01 16:22:37.261455
2022-12-01 16:22:37.270319
2022-12-01 16:22:37.278243
2022-12-01 16:22:37.290609
2022-12-01 16:22:37.298980
2022-12-01 16:22:37.307189
2022-12-01 16:22:37.318255
2022-12-01 16:22:37.328197
2022-12-01 16:22:37.334611
2022-12-01 16:22:37.344189
2022-12-01 16:22:37.356454
2022-12-01 16:22:37.364220
2022-12-01 16:22:37.372718
2022-12-01 16:22:37.384682
2022-12-01 16:22:37.392881
2022-12-01 16:22:37.401255
2022-12-01 16:22:37.409293
2022-12-01 16:22:37.421400
2022-12-01 16:22:37.429836
2022-12-01 16:22:37.438796
2022-12-01 16:22:37.450620
2022-12-01 16:22:37.457775
2022-12-01 16:22:37.466623
2022-12-01 16:22:37.474524
2022-12-01 16:22:37.487272
2022-12-01 16:22:37.494986
2022-12-01 16:22:37.503731
2022-12-01 16:22:37.515610
2022-12-01 16:22:37.523928
2022-12-01 16:22:37.531254
2022-12-01 16:22:37.540645
2022-12-01 16:22:37.551854
2022-12-01 16:22:37.560487
2022-12-01 16:22:37.568984
2022-12-01 16:22:37.581282
2022-12-01 16:22:37.589741
2022-12-01 16:22:37.597793
2022-12-01 16:22:37.605896
2022-12-01 16:22:37.618926
2022-12-01 16:22:37.626749
2022-12-01 16:22:37.635340
2022-12-01 16:22:37.642433
2022-12-01 16:22:37.654922
2022-12-01 16:22:37.663474
2022-12-01 16:22:37.671471
2022-12-01 16:22:37.683677
2022-12-01 16:22:37.691664
2022-12-01 16:22:37.700316
2022-12-01 16:22:37.708597
2022-12-01 16:22:37.720836
2022-12-01 16:22:37.728761
2022-12-01 16:22:37.737319
2022-12-01 16:22:37.749078
2022-12-01 16:22:37.757580
2022-12-01 16:22:37.765285
2022-12-01 16:22:37.773289
2022-12-01 16:22:37.785372
2022-12-01 16:22:37.794144
2022-12-01 16:22:37.802631
2022-12-01 16:22:37.815510
2022-12-01 16:22:37.823028
2022-12-01 16:22:37.831474
2022-12-01 16:22:37.840193
2022-12-01 16:22:37.851840
2022-12-01 16:22:37.860178
2022-12-01 16:22:37.867887
2022-12-01 16:22:37.880599
2022-12-01 16:22:37.888862
2022-12-01 16:22:37.896135
2022-12-01 16:22:37.904963
2022-12-01 16:22:37.918026
2022-12-01 16:22:37.926510
2022-12-01 16:22:37.934409
2022-12-01 16:22:37.945298
2022-12-01 16:22:37.954464
2022-12-01 16:22:37.962403
2022-12-01 16:22:37.971278
2022-12-01 16:22:37.983554
2022-12-01 16:22:37.990996
2022-12-01 16:22:37.999945
2022-12-01 16:22:38.011567
2022-12-01 16:22:38.019749
2022-12-01 16:22:38.027876
2022-12-01 16:22:38.040525
2022-12-01 16:22:38.069332
2022-12-01 16:22:38.074165
2022-12-01 16:22:38.075711
2022-12-01 16:22:38.076834
2022-12-01 16:22:38.085204
2022-12-01 16:22:38.093672
2022-12-01 16:22:38.101589
2022-12-01 16:22:38.113605
2022-12-01 16:22:38.121973
2022-12-01 16:22:38.130621
2022-12-01 16:22:38.141775
2022-12-01 16:22:38.151083
2022-12-01 16:22:38.158838
2022-12-01 16:22:38.166941
2022-12-01 16:22:38.178453
2022-12-01 16:22:38.187687
2022-12-01 16:22:38.195478
2022-12-01 16:22:38.207209
2022-12-01 16:22:38.216044
2022-12-01 16:22:38.224525
2022-12-01 16:22:38.232443
2022-12-01 16:22:38.244215
2022-12-01 16:22:38.252470
2022-12-01 16:22:38.260451
2022-12-01 16:22:38.273561
2022-12-01 16:22:38.280978
2022-12-01 16:22:38.289576
2022-12-01 16:22:38.298439
2022-12-01 16:22:38.310525
2022-12-01 16:22:38.318897
2022-12-01 16:22:38.327323
2022-12-01 16:22:38.338858
2022-12-01 16:22:38.347288
2022-12-01 16:22:38.355452
2022-12-01 16:22:38.364455
2022-12-01 16:22:38.376279
2022-12-01 16:22:38.383383
2022-12-01 16:22:38.392648
2022-12-01 16:22:38.404967
2022-12-01 16:22:38.412591
2022-12-01 16:22:38.421824
2022-12-01 16:22:38.429658
2022-12-01 16:22:38.442290
2022-12-01 16:22:38.449767
2022-12-01 16:22:38.458814
2022-12-01 16:22:38.470904
2022-12-01 16:22:38.478099
2022-12-01 16:22:38.487389
2022-12-01 16:22:38.494890
2022-12-01 16:22:38.506746
2022-12-01 16:22:38.516037
2022-12-01 16:22:38.523476
2022-12-01 16:22:38.531913
2022-12-01 16:22:38.543547
2022-12-01 16:22:38.551521
2022-12-01 16:22:38.560291
2022-12-01 16:22:38.572450
2022-12-01 16:22:38.580645
2022-12-01 16:22:38.589134
2022-12-01 16:22:38.597507
2022-12-01 16:22:38.609315
2022-12-01 16:22:38.617416
2022-12-01 16:22:38.625901
2022-12-01 16:22:38.637467
2022-12-01 16:22:38.646004
2022-12-01 16:22:38.654403
2022-12-01 16:22:38.662104
2022-12-01 16:22:38.675006
2022-12-01 16:22:38.683902
2022-12-01 16:22:38.691436
2022-12-01 16:22:38.703257
2022-12-01 16:22:38.712120
2022-12-01 16:22:38.720104
2022-12-01 16:22:38.728523
2022-12-01 16:22:38.740538
2022-12-01 16:22:38.748689
2022-12-01 16:22:38.757728
2022-12-01 16:22:38.769697
2022-12-01 16:22:38.777979
2022-12-01 16:22:38.785694
2022-12-01 16:22:38.794054
2022-12-01 16:22:38.806860
2022-12-01 16:22:38.814740
2022-12-01 16:22:38.822487
2022-12-01 16:22:38.835538
2022-12-01 16:22:38.842707
2022-12-01 16:22:38.851909
2022-12-01 16:22:38.860124
2022-12-01 16:22:38.871688
2022-12-01 16:22:38.879991
2022-12-01 16:22:38.887544
2022-12-01 16:22:38.900616
2022-12-01 16:22:38.908778
2022-12-01 16:22:38.917126
2022-12-01 16:22:38.925667
2022-12-01 16:22:38.937083
2022-12-01 16:22:38.945574
2022-12-01 16:22:38.954377
2022-12-01 16:22:38.965832
2022-12-01 16:22:38.974815
2022-12-01 16:22:38.982350
2022-12-01 16:22:38.990155
2022-12-01 16:22:39.002573
2022-12-01 16:22:39.010930
2022-12-01 16:22:39.019294
2022-12-01 16:22:39.031371
2022-12-01 16:22:39.039567
2022-12-01 16:22:39.048215
2022-12-01 16:22:39.056127
2022-12-01 16:22:39.068463
2022-12-01 16:22:39.076716
2022-12-01 16:22:39.085285
2022-12-01 16:22:39.096871
2022-12-01 16:22:39.104970
2022-12-01 16:22:39.113364
2022-12-01 16:22:39.121980
2022-12-01 16:22:39.134516
2022-12-01 16:22:39.142742
2022-12-01 16:22:39.150365
2022-12-01 16:22:39.162873
2022-12-01 16:22:39.170472
2022-12-01 16:22:39.178745
2022-12-01 16:22:39.186989
2022-12-01 16:22:39.199109
2022-12-01 16:22:39.207501
2022-12-01 16:22:39.215708
2022-12-01 16:22:39.227609
2022-12-01 16:22:39.235904
2022-12-01 16:22:39.244286
2022-12-01 16:22:39.252987
2022-12-01 16:22:39.264897
2022-12-01 16:22:39.272996
2022-12-01 16:22:39.281422
2022-12-01 16:22:39.294311
2022-12-01 16:22:39.301482
2022-12-01 16:22:39.309659
2022-12-01 16:22:39.318150
2022-12-01 16:22:39.330454
2022-12-01 16:22:39.338859
2022-12-01 16:22:39.346206
2022-12-01 16:22:39.359282
2022-12-01 16:22:39.367998
2022-12-01 16:22:39.375805
2022-12-01 16:22:39.384222
2022-12-01 16:22:39.395358
2022-12-01 16:22:39.404468
2022-12-01 16:22:39.412206
2022-12-01 16:22:39.421368
2022-12-01 16:22:39.432980
2022-12-01 16:22:39.440979
2022-12-01 16:22:39.449011
2022-12-01 16:22:39.461058
2022-12-01 16:22:39.469730
2022-12-01 16:22:39.477835
2022-12-01 16:22:39.486820
2022-12-01 16:22:39.498433
2022-12-01 16:22:39.506744
2022-12-01 16:22:39.515117
2022-12-01 16:22:39.526259
2022-12-01 16:22:39.535420
2022-12-01 16:22:39.543356
2022-12-01 16:22:39.551874
2022-12-01 16:22:39.564059
2022-12-01 16:22:39.572466
2022-12-01 16:22:39.580054
2022-12-01 16:22:39.592730
2022-12-01 16:22:39.600979
2022-12-01 16:22:39.608910
2022-12-01 16:22:39.616978
2022-12-01 16:22:39.629551
2022-12-01 16:22:39.637712
2022-12-01 16:22:39.646557
2022-12-01 16:22:39.658815
2022-12-01 16:22:39.666428
2022-12-01 16:22:39.675204
2022-12-01 16:22:39.682996
2022-12-01 16:22:39.695447
2022-12-01 16:22:39.703357
2022-12-01 16:22:39.711324
2022-12-01 16:22:39.723876
2022-12-01 16:22:39.732016
2022-12-01 16:22:39.739807
2022-12-01 16:22:39.748394
2022-12-01 16:22:39.760617
2022-12-01 16:22:39.768916
2022-12-01 16:22:39.776957
2022-12-01 16:22:39.788284
2022-12-01 16:22:39.797345
2022-12-01 16:22:39.805210
2022-12-01 16:22:39.813183
2022-12-01 16:22:39.826776
2022-12-01 16:22:39.834467
2022-12-01 16:22:39.843247
2022-12-01 16:22:39.855428
2022-12-01 16:22:39.862611
2022-12-01 16:22:39.871826
2022-12-01 16:22:39.879042
2022-12-01 16:22:39.890845
2022-12-01 16:22:39.900470
2022-12-01 16:22:39.908118
2022-12-01 16:22:39.920462
2022-12-01 16:22:39.928599
2022-12-01 16:22:39.936647
2022-12-01 16:22:39.945219
2022-12-01 16:22:39.957872
2022-12-01 16:22:39.965874
2022-12-01 16:22:39.974227
2022-12-01 16:22:39.986015
2022-12-01 16:22:39.994288
2022-12-01 16:22:40.002903
2022-12-01 16:22:40.010947
2022-12-01 16:22:40.022971
2022-12-01 16:22:40.030765
2022-12-01 16:22:40.039064
2022-12-01 16:22:40.052031
2022-12-01 16:22:40.059354
2022-12-01 16:22:40.068422
2022-12-01 16:22:40.075988
2022-12-01 16:22:40.088474
2022-12-01 16:22:40.096358
2022-12-01 16:22:40.103816
2022-12-01 16:22:40.117051
2022-12-01 16:22:40.125797
2022-12-01 16:22:40.134745
2022-12-01 16:22:40.141084
2022-12-01 16:22:40.153682
2022-12-01 16:22:40.161704
2022-12-01 16:22:40.169370
2022-12-01 16:22:40.181418
2022-12-01 16:22:40.190825
2022-12-01 16:22:40.198282
2022-12-01 16:22:40.206837
2022-12-01 16:22:40.220007
2022-12-01 16:22:40.227311
2022-12-01 16:22:40.236395
2022-12-01 16:22:40.248229
2022-12-01 16:22:40.256477
2022-12-01 16:22:40.264117
2022-12-01 16:22:40.272218
2022-12-01 16:22:40.284785
2022-12-01 16:22:40.293104
2022-12-01 16:22:40.301147
2022-12-01 16:22:40.309004
2022-12-01 16:22:40.321143
2022-12-01 16:22:40.329793
2022-12-01 16:22:40.337662
2022-12-01 16:22:40.350512
2022-12-01 16:22:40.358789
2022-12-01 16:22:40.366648
2022-12-01 16:22:40.375108
2022-12-01 16:22:40.387421
2022-12-01 16:22:40.395385
2022-12-01 16:22:40.404302
2022-12-01 16:22:40.416227
2022-12-01 16:22:40.424222
2022-12-01 16:22:40.432196
2022-12-01 16:22:40.440511
2022-12-01 16:22:40.452192
2022-12-01 16:22:40.460701
2022-12-01 16:22:40.470495
2022-12-01 16:22:40.481574
2022-12-01 16:22:40.489439
2022-12-01 16:22:40.498539
2022-12-01 16:22:40.506706
2022-12-01 16:22:40.518421
2022-12-01 16:22:40.525975
2022-12-01 16:22:40.534289
2022-12-01 16:22:40.548389
2022-12-01 16:22:40.555124
2022-12-01 16:22:40.563355
2022-12-01 16:22:40.572264
2022-12-01 16:22:40.584227
2022-12-01 16:22:40.592825
2022-12-01 16:22:40.600453
2022-12-01 16:22:40.611733
2022-12-01 16:22:40.619966
2022-12-01 16:22:40.628395
2022-12-01 16:22:40.638361
2022-12-01 16:22:40.649288
2022-12-01 16:22:40.657325
2022-12-01 16:22:40.666166
2022-12-01 16:22:40.677352
2022-12-01 16:22:40.686401
2022-12-01 16:22:40.694017
2022-12-01 16:22:40.702153
2022-12-01 16:22:40.714520
2022-12-01 16:22:40.723443
2022-12-01 16:22:40.730637
2022-12-01 16:22:40.743267
2022-12-01 16:22:40.752227
2022-12-01 16:22:40.759752
2022-12-01 16:22:40.768009
2022-12-01 16:22:40.780624
2022-12-01 16:22:40.788840
2022-12-01 16:22:40.796793
2022-12-01 16:22:40.809075
2022-12-01 16:22:40.817240
2022-12-01 16:22:40.825933
2022-12-01 16:22:40.834396
2022-12-01 16:22:40.846702
2022-12-01 16:22:40.852932
2022-12-01 16:22:40.862396
2022-12-01 16:22:40.874598
2022-12-01 16:22:40.882735
2022-12-01 16:22:40.891217
2022-12-01 16:22:40.899506
2022-12-01 16:22:40.911435
2022-12-01 16:22:40.919918
2022-12-01 16:22:40.927909
2022-12-01 16:22:40.940489
2022-12-01 16:22:40.948625
2022-12-01 16:22:40.956755
2022-12-01 16:22:40.964711
2022-12-01 16:22:40.976347
2022-12-01 16:22:40.985265
2022-12-01 16:22:40.993445
2022-12-01 16:22:41.004920
2022-12-01 16:22:41.013571
2022-12-01 16:22:41.022340
2022-12-01 16:22:41.030271
2022-12-01 16:22:41.042744
2022-12-01 16:22:41.050614
2022-12-01 16:22:41.059139
2022-12-01 16:22:41.071451
2022-12-01 16:22:41.080688
2022-12-01 16:22:41.088251
2022-12-01 16:22:41.095850
2022-12-01 16:22:41.108313
2022-12-01 16:22:41.115931
2022-12-01 16:22:41.124183
2022-12-01 16:22:41.136067
2022-12-01 16:22:41.144411
2022-12-01 16:22:41.153520
2022-12-01 16:22:41.161061
2022-12-01 16:22:41.173605
2022-12-01 16:22:41.181678
2022-12-01 16:22:41.189874
2022-12-01 16:22:41.198967
2022-12-01 16:22:41.210471
2022-12-01 16:22:41.218959
2022-12-01 16:22:41.227137
2022-12-01 16:22:41.239895
2022-12-01 16:22:41.247776
2022-12-01 16:22:41.255814
2022-12-01 16:22:41.263411
2022-12-01 16:22:41.276481
2022-12-01 16:22:41.284538
2022-12-01 16:22:41.292627
2022-12-01 16:22:41.304939
2022-12-01 16:22:41.313137
2022-12-01 16:22:41.320876
2022-12-01 16:22:41.328770
2022-12-01 16:22:41.341477
2022-12-01 16:22:41.349464
2022-12-01 16:22:41.356860
2022-12-01 16:22:41.369959
2022-12-01 16:22:41.378400
2022-12-01 16:22:41.386890
2022-12-01 16:22:41.394979
2022-12-01 16:22:41.406329
2022-12-01 16:22:41.415769
2022-12-01 16:22:41.423654
2022-12-01 16:22:41.435622
2022-12-01 16:22:41.443550
2022-12-01 16:22:41.452108
2022-12-01 16:22:41.460031
2022-12-01 16:22:41.471819
2022-12-01 16:22:41.480435
2022-12-01 16:22:41.488418
2022-12-01 16:22:41.500635
2022-12-01 16:22:41.509229
2022-12-01 16:22:41.517301
2022-12-01 16:22:41.525496
2022-12-01 16:22:41.537922
2022-12-01 16:22:41.547105
2022-12-01 16:22:41.554003
2022-12-01 16:22:41.567091
2022-12-01 16:22:41.575784
2022-12-01 16:22:41.583572
2022-12-01 16:22:41.592146
2022-12-01 16:22:41.604463
2022-12-01 16:22:41.611327
2022-12-01 16:22:41.620484
2022-12-01 16:22:41.632129
2022-12-01 16:22:41.640800
2022-12-01 16:22:41.648763
2022-12-01 16:22:41.656996
2022-12-01 16:22:41.669643
2022-12-01 16:22:41.677174
2022-12-01 16:22:41.686423
2022-12-01 16:22:41.698386
2022-12-01 16:22:41.705885
2022-12-01 16:22:41.715057
2022-12-01 16:22:41.722474
2022-12-01 16:22:41.734735
2022-12-01 16:22:41.743238
2022-12-01 16:22:41.751192
2022-12-01 16:22:41.764185
2022-12-01 16:22:41.771949
2022-12-01 16:22:41.779570
2022-12-01 16:22:41.788487
2022-12-01 16:22:41.800500
2022-12-01 16:22:41.808738
2022-12-01 16:22:41.816948
2022-12-01 16:22:41.828772
2022-12-01 16:22:41.837046
2022-12-01 16:22:41.845524
2022-12-01 16:22:41.853695
2022-12-01 16:22:41.865033
2022-12-01 16:22:41.874044
2022-12-01 16:22:41.882983
2022-12-01 16:22:41.894535
2022-12-01 16:22:41.902976
2022-12-01 16:22:41.910125
2022-12-01 16:22:41.919109
2022-12-01 16:22:41.932166
2022-12-01 16:22:41.939565
2022-12-01 16:22:41.948502
2022-12-01 16:22:41.960166
2022-12-01 16:22:41.968435
2022-12-01 16:22:41.976708
2022-12-01 16:22:41.984538
2022-12-01 16:22:41.997045
2022-12-01 16:22:42.004497
2022-12-01 16:22:42.012746
2022-12-01 16:22:42.025579
2022-12-01 16:22:42.033933
2022-12-01 16:22:42.041907
2022-12-01 16:22:42.050393
2022-12-01 16:22:42.062422
2022-12-01 16:22:42.070912
2022-12-01 16:22:42.078820
2022-12-01 16:22:42.087684
2022-12-01 16:22:42.100076
2022-12-01 16:22:42.106949
2022-12-01 16:22:42.116460
2022-12-01 16:22:42.127779
2022-12-01 16:22:42.136429
2022-12-01 16:22:42.144297
2022-12-01 16:22:42.152730
2022-12-01 16:22:42.164205
2022-12-01 16:22:42.173809
2022-12-01 16:22:42.181448
2022-12-01 16:22:42.193007
2022-12-01 16:22:42.202479
2022-12-01 16:22:42.209984
2022-12-01 16:22:42.218832
2022-12-01 16:22:42.230947
2022-12-01 16:22:42.238793
2022-12-01 16:22:42.247000
2022-12-01 16:22:42.259310
2022-12-01 16:22:42.267254
2022-12-01 16:22:42.275689
2022-12-01 16:22:42.283595
2022-12-01 16:22:42.296256
2022-12-01 16:22:42.303849
2022-12-01 16:22:42.311842
2022-12-01 16:22:42.324906
2022-12-01 16:22:42.332598
2022-12-01 16:22:42.341133
2022-12-01 16:22:42.349456
2022-12-01 16:22:42.360796
2022-12-01 16:22:42.369371
2022-12-01 16:22:42.377634
2022-12-01 16:22:42.389371
2022-12-01 16:22:42.398106
2022-12-01 16:22:42.407778
2022-12-01 16:22:42.414622
2022-12-01 16:22:42.426307
2022-12-01 16:22:42.435197
2022-12-01 16:22:42.443147
2022-12-01 16:22:42.455684
2022-12-01 16:22:42.464124
2022-12-01 16:22:42.472264
2022-12-01 16:22:42.480505
2022-12-01 16:22:42.492794
2022-12-01 16:22:42.500717
2022-12-01 16:22:42.509678
2022-12-01 16:22:42.521263
2022-12-01 16:22:42.529594
2022-12-01 16:22:42.538341
2022-12-01 16:22:42.544995
2022-12-01 16:22:42.558876
2022-12-01 16:22:42.567032
2022-12-01 16:22:42.575330
2022-12-01 16:22:42.587494
2022-12-01 16:22:42.595164
2022-12-01 16:22:42.603378
2022-12-01 16:22:42.611577
2022-12-01 16:22:42.623878
2022-12-01 16:22:42.632039
2022-12-01 16:22:42.640028
2022-12-01 16:22:42.651588
2022-12-01 16:22:42.659901
2022-12-01 16:22:42.668689
2022-12-01 16:22:42.676501
2022-12-01 16:22:42.689013
2022-12-01 16:22:42.697020
2022-12-01 16:22:42.705507
2022-12-01 16:22:42.718555
2022-12-01 16:22:42.726259
2022-12-01 16:22:42.734121
2022-12-01 16:22:42.741474
2022-12-01 16:22:42.755188
2022-12-01 16:22:42.762875
2022-12-01 16:22:42.771756
2022-12-01 16:22:42.783526
2022-12-01 16:22:42.791714
2022-12-01 16:22:42.800031
2022-12-01 16:22:42.808254
2022-12-01 16:22:42.820210
2022-12-01 16:22:42.828186
2022-12-01 16:22:42.836300
2022-12-01 16:22:42.848803
2022-12-01 16:22:42.857183
2022-12-01 16:22:42.864936
2022-12-01 16:22:42.873647
2022-12-01 16:22:42.886489
2022-12-01 16:22:42.893766
2022-12-01 16:22:42.902924
2022-12-01 16:22:42.909563
2022-12-01 16:22:42.923034
2022-12-01 16:22:42.931564
2022-12-01 16:22:42.939642
2022-12-01 16:22:42.952033
2022-12-01 16:22:42.959779
2022-12-01 16:22:42.968244
2022-12-01 16:22:42.976247
2022-12-01 16:22:42.988509
2022-12-01 16:22:42.996653
2022-12-01 16:22:43.004723
2022-12-01 16:22:43.016098
2022-12-01 16:22:43.025014
2022-12-01 16:22:43.033548
2022-12-01 16:22:43.041483
2022-12-01 16:22:43.054438
2022-12-01 16:22:43.061957
2022-12-01 16:22:43.070835
2022-12-01 16:22:43.082446
2022-12-01 16:22:43.091473
2022-12-01 16:22:43.098443
2022-12-01 16:22:43.107304
2022-12-01 16:22:43.119996
2022-12-01 16:22:43.127385
2022-12-01 16:22:43.135704
2022-12-01 16:22:43.148518
2022-12-01 16:22:43.155389
2022-12-01 16:22:43.164575
2022-12-01 16:22:43.172763
2022-12-01 16:22:43.184539
2022-12-01 16:22:43.192914
2022-12-01 16:22:43.201161
2022-12-01 16:22:43.213483
2022-12-01 16:22:43.221467
2022-12-01 16:22:43.229307
2022-12-01 16:22:43.238249
2022-12-01 16:22:43.250357
2022-12-01 16:22:43.258726
2022-12-01 16:22:43.266894
2022-12-01 16:22:43.278901
2022-12-01 16:22:43.287420
2022-12-01 16:22:43.295251
2022-12-01 16:22:43.303814
2022-12-01 16:22:43.316067
2022-12-01 16:22:43.324178
2022-12-01 16:22:43.332509
2022-12-01 16:22:43.343964
2022-12-01 16:22:43.353075
2022-12-01 16:22:43.360611
2022-12-01 16:22:43.369321
2022-12-01 16:22:43.382197
2022-12-01 16:22:43.390331
2022-12-01 16:22:43.398282
2022-12-01 16:22:43.409154
2022-12-01 16:22:43.418272
2022-12-01 16:22:43.426065
2022-12-01 16:22:43.434572
2022-12-01 16:22:43.446867
2022-12-01 16:22:43.454786
2022-12-01 16:22:43.463230
2022-12-01 16:22:43.475216
2022-12-01 16:22:43.483336
2022-12-01 16:22:43.492209
2022-12-01 16:22:43.499484
2022-12-01 16:22:43.512476
2022-12-01 16:22:43.520620
2022-12-01 16:22:43.528186
2022-12-01 16:22:43.540544
2022-12-01 16:22:43.548735
2022-12-01 16:22:43.556986
2022-12-01 16:22:43.565401
2022-12-01 16:22:43.578135
2022-12-01 16:22:43.585338
2022-12-01 16:22:43.593945
2022-12-01 16:22:43.606336
2022-12-01 16:22:43.615054
2022-12-01 16:22:43.623312
2022-12-01 16:22:43.631428
2022-12-01 16:22:43.642822
2022-12-01 16:22:43.651934
2022-12-01 16:22:43.659661
2022-12-01 16:22:43.672123
2022-12-01 16:22:43.680607
2022-12-01 16:22:43.688649
2022-12-01 16:22:43.696942
2022-12-01 16:22:43.709493
2022-12-01 16:22:43.717776
2022-12-01 16:22:43.725649
2022-12-01 16:22:43.737463
2022-12-01 16:22:43.745923
2022-12-01 16:22:43.754861
2022-12-01 16:22:43.762398
2022-12-01 16:22:43.774825
2022-12-01 16:22:43.783567
2022-12-01 16:22:43.791733
2022-12-01 16:22:43.799407
2022-12-01 16:22:43.811486
2022-12-01 16:22:43.820451
2022-12-01 16:22:43.827247
2022-12-01 16:22:43.840007
2022-12-01 16:22:43.848587
2022-12-01 16:22:43.856402
2022-12-01 16:22:43.864992
2022-12-01 16:22:43.877165
2022-12-01 16:22:43.884444
2022-12-01 16:22:43.892689
2022-12-01 16:22:43.905222
2022-12-01 16:22:43.914286
2022-12-01 16:22:43.922817
2022-12-01 16:22:43.930696
2022-12-01 16:22:43.942707
2022-12-01 16:22:43.951477
2022-12-01 16:22:43.959371
2022-12-01 16:22:43.971945
2022-12-01 16:22:43.978930
2022-12-01 16:22:43.988338
2022-12-01 16:22:43.995697
2022-12-01 16:22:44.007681
2022-12-01 16:22:44.016125
2022-12-01 16:22:44.024242
2022-12-01 16:22:44.036957
2022-12-01 16:22:44.044879
2022-12-01 16:22:44.053189
2022-12-01 16:22:44.061325
2022-12-01 16:22:44.073559
2022-12-01 16:22:44.082557
2022-12-01 16:22:44.090739
2022-12-01 16:22:44.103052
2022-12-01 16:22:44.110259
2022-12-01 16:22:44.119447
2022-12-01 16:22:44.126978
2022-12-01 16:22:44.138628
2022-12-01 16:22:44.147328
2022-12-01 16:22:44.155771
2022-12-01 16:22:44.167331
2022-12-01 16:22:44.176107
2022-12-01 16:22:44.184484
2022-12-01 16:22:44.192428
2022-12-01 16:22:44.204932
2022-12-01 16:22:44.213002
2022-12-01 16:22:44.221996
2022-12-01 16:22:44.233341
2022-12-01 16:22:44.242297
2022-12-01 16:22:44.249963
2022-12-01 16:22:44.258703
2022-12-01 16:22:44.270236
2022-12-01 16:22:44.279185
2022-12-01 16:22:44.286417
2022-12-01 16:22:44.298832
2022-12-01 16:22:44.307823
2022-12-01 16:22:44.315341
2022-12-01 16:22:44.323701
2022-12-01 16:22:44.335610
2022-12-01 16:22:44.343792
2022-12-01 16:22:44.352366
2022-12-01 16:22:44.364685
2022-12-01 16:22:44.373065
2022-12-01 16:22:44.380838
2022-12-01 16:22:44.389159
2022-12-01 16:22:44.401383
2022-12-01 16:22:44.409691
2022-12-01 16:22:44.417232
2022-12-01 16:22:44.429688
2022-12-01 16:22:44.437871
2022-12-01 16:22:44.446390
2022-12-01 16:22:44.453849
2022-12-01 16:22:44.466648
2022-12-01 16:22:44.475115
2022-12-01 16:22:44.482831
2022-12-01 16:22:44.495240
2022-12-01 16:22:44.503449
2022-12-01 16:22:44.511332
2022-12-01 16:22:44.520137
2022-12-01 16:22:44.532319
2022-12-01 16:22:44.540920
2022-12-01 16:22:44.548791
2022-12-01 16:22:44.560937
2022-12-01 16:22:44.568913
2022-12-01 16:22:44.577979
2022-12-01 16:22:44.584993
2022-12-01 16:22:44.597892
2022-12-01 16:22:44.605511
2022-12-01 16:22:44.614433
2022-12-01 16:22:44.626250
2022-12-01 16:22:44.633679
2022-12-01 16:22:44.642383
2022-12-01 16:22:44.650844
2022-12-01 16:22:44.663161
2022-12-01 16:22:44.671580
2022-12-01 16:22:44.679643
2022-12-01 16:22:44.687863
2022-12-01 16:22:44.699594
2022-12-01 16:22:44.708498
2022-12-01 16:22:44.716668
2022-12-01 16:22:44.728929
2022-12-01 16:22:44.736879
2022-12-01 16:22:44.745112
2022-12-01 16:22:44.753748
2022-12-01 16:22:44.765941
2022-12-01 16:22:44.774237
2022-12-01 16:22:44.782443
2022-12-01 16:22:44.794512
2022-12-01 16:22:44.802589
2022-12-01 16:22:44.811645
2022-12-01 16:22:44.819089
2022-12-01 16:22:44.830846
2022-12-01 16:22:44.840270
2022-12-01 16:22:44.847403
2022-12-01 16:22:44.860021
2022-12-01 16:22:44.868530
2022-12-01 16:22:44.876080
2022-12-01 16:22:44.884981
2022-12-01 16:22:44.896968
2022-12-01 16:22:44.905037
2022-12-01 16:22:44.913440
2022-12-01 16:22:44.925482
2022-12-01 16:22:44.933996
2022-12-01 16:22:44.942159
2022-12-01 16:22:44.950402
2022-12-01 16:22:44.962642
2022-12-01 16:22:44.970665
2022-12-01 16:22:44.979076
2022-12-01 16:22:44.991354
2022-12-01 16:22:44.998521
2022-12-01 16:22:45.007761
2022-12-01 16:22:45.015983
2022-12-01 16:22:45.027263
2022-12-01 16:22:45.036643
2022-12-01 16:22:45.044208
2022-12-01 16:22:45.056937
2022-12-01 16:22:45.064299
2022-12-01 16:22:45.072305
2022-12-01 16:22:45.081275
2022-12-01 16:22:45.093442
2022-12-01 16:22:45.102156
2022-12-01 16:22:45.109542
2022-12-01 16:22:45.122206
2022-12-01 16:22:45.130201
2022-12-01 16:22:45.138616
2022-12-01 16:22:45.147029
2022-12-01 16:22:45.158515
2022-12-01 16:22:45.167220
2022-12-01 16:22:45.175448
2022-12-01 16:22:45.187660
2022-12-01 16:22:45.196152
2022-12-01 16:22:45.203497
2022-12-01 16:22:45.211889
2022-12-01 16:22:45.224609
2022-12-01 16:22:45.232294
2022-12-01 16:22:45.240272
2022-12-01 16:22:45.254015
2022-12-01 16:22:45.262240
2022-12-01 16:22:45.270449
2022-12-01 16:22:45.277668
2022-12-01 16:22:45.289898
2022-12-01 16:22:45.299085
2022-12-01 16:22:45.307279
2022-12-01 16:22:45.318603
2022-12-01 16:22:45.326510
2022-12-01 16:22:45.334808
2022-12-01 16:22:45.343154
2022-12-01 16:22:45.356204
2022-12-01 16:22:45.363975
2022-12-01 16:22:45.372531
2022-12-01 16:22:45.384579
2022-12-01 16:22:45.392134
2022-12-01 16:22:45.400995
2022-12-01 16:22:45.409732
2022-12-01 16:22:45.421163
2022-12-01 16:22:45.430157
2022-12-01 16:22:45.437237
2022-12-01 16:22:45.450631
2022-12-01 16:22:45.457701
2022-12-01 16:22:45.467015
2022-12-01 16:22:45.474467
2022-12-01 16:22:45.486694
2022-12-01 16:22:45.494906
2022-12-01 16:22:45.503336
2022-12-01 16:22:45.515616
2022-12-01 16:22:45.523803
2022-12-01 16:22:45.531773
2022-12-01 16:22:45.540206
2022-12-01 16:22:45.552532
2022-12-01 16:22:45.560613
2022-12-01 16:22:45.568905
2022-12-01 16:22:45.576394
2022-12-01 16:22:45.589883
2022-12-01 16:22:45.597323
2022-12-01 16:22:45.606276
2022-12-01 16:22:45.618139
2022-12-01 16:22:45.626113
2022-12-01 16:22:45.634315
2022-12-01 16:22:45.641863
2022-12-01 16:22:45.654721
2022-12-01 16:22:45.663642
2022-12-01 16:22:45.671237
2022-12-01 16:22:45.684110
2022-12-01 16:22:45.691818
2022-12-01 16:22:45.699919
2022-12-01 16:22:45.708536
2022-12-01 16:22:45.720301
2022-12-01 16:22:45.728571
2022-12-01 16:22:45.737128
2022-12-01 16:22:45.748846
2022-12-01 16:22:45.757860
2022-12-01 16:22:45.765400
2022-12-01 16:22:45.773838
2022-12-01 16:22:45.786507
2022-12-01 16:22:45.793615
2022-12-01 16:22:45.802892
2022-12-01 16:22:45.814997
2022-12-01 16:22:45.822976
2022-12-01 16:22:45.831546
2022-12-01 16:22:45.839960
2022-12-01 16:22:45.852060
2022-12-01 16:22:45.859630
2022-12-01 16:22:45.867988
2022-12-01 16:22:45.880293
2022-12-01 16:22:45.888149
2022-12-01 16:22:45.896614
2022-12-01 16:22:45.904528
2022-12-01 16:22:45.916663
2022-12-01 16:22:45.924706
2022-12-01 16:22:45.932651
2022-12-01 16:22:45.945476
2022-12-01 16:22:45.954462
2022-12-01 16:22:45.961172
2022-12-01 16:22:45.970838
2022-12-01 16:22:45.983123
2022-12-01 16:22:45.990654
2022-12-01 16:22:45.999015
2022-12-01 16:22:46.010809
2022-12-01 16:22:46.019970
2022-12-01 16:22:46.027406
2022-12-01 16:22:46.035901
2022-12-01 16:22:46.048300
2022-12-01 16:22:46.056380
2022-12-01 16:22:46.064570
2022-12-01 16:22:46.076206
2022-12-01 16:22:46.084952
2022-12-01 16:22:46.092849
2022-12-01 16:22:46.101504
2022-12-01 16:22:46.112539
2022-12-01 16:22:46.121830
2022-12-01 16:22:46.129811
2022-12-01 16:22:46.142041
2022-12-01 16:22:46.151075
2022-12-01 16:22:46.158652
2022-12-01 16:22:46.166429
2022-12-01 16:22:46.179728
2022-12-01 16:22:46.187140
2022-12-01 16:22:46.195519
2022-12-01 16:22:46.208290
2022-12-01 16:22:46.216291
2022-12-01 16:22:46.224282
2022-12-01 16:22:46.232263
2022-12-01 16:22:46.244525
2022-12-01 16:22:46.252992
2022-12-01 16:22:46.262168
2022-12-01 16:22:46.273051
2022-12-01 16:22:46.281444
2022-12-01 16:22:46.289747
2022-12-01 16:22:46.298505
2022-12-01 16:22:46.309706
2022-12-01 16:22:46.318982
2022-12-01 16:22:46.326428
2022-12-01 16:22:46.338091
2022-12-01 16:22:46.347650
2022-12-01 16:22:46.354811
2022-12-01 16:22:46.364063
2022-12-01 16:22:46.375069
2022-12-01 16:22:46.383987
2022-12-01 16:22:46.391733
2022-12-01 16:22:46.404519
2022-12-01 16:22:46.412720
2022-12-01 16:22:46.420924
2022-12-01 16:22:46.428641
2022-12-01 16:22:46.441152
2022-12-01 16:22:46.449315
2022-12-01 16:22:46.458054
2022-12-01 16:22:46.466473
2022-12-01 16:22:46.477522
2022-12-01 16:22:46.485662
2022-12-01 16:22:46.493596
2022-12-01 16:22:46.506499
2022-12-01 16:22:46.514220
2022-12-01 16:22:46.522926
2022-12-01 16:22:46.531177
2022-12-01 16:22:46.543501
2022-12-01 16:22:46.551354
2022-12-01 16:22:46.559862
2022-12-01 16:22:46.572359
2022-12-01 16:22:46.580245
2022-12-01 16:22:46.588836
2022-12-01 16:22:46.596746
2022-12-01 16:22:46.609176
2022-12-01 16:22:46.617297
2022-12-01 16:22:46.626054
2022-12-01 16:22:46.638472
2022-12-01 16:22:46.646671
2022-12-01 16:22:46.654860
2022-12-01 16:22:46.663082
2022-12-01 16:22:46.674692
2022-12-01 16:22:46.683552
2022-12-01 16:22:46.691620
2022-12-01 16:22:46.703045
2022-12-01 16:22:46.712074
2022-12-01 16:22:46.720100
2022-12-01 16:22:46.728059
2022-12-01 16:22:46.740348
2022-12-01 16:22:46.747854
2022-12-01 16:22:46.756738
2022-12-01 16:22:46.768986
2022-12-01 16:22:46.776816
2022-12-01 16:22:46.784877
2022-12-01 16:22:46.792743
2022-12-01 16:22:46.805852
2022-12-01 16:22:46.813703
2022-12-01 16:22:46.821359
2022-12-01 16:22:46.834375
2022-12-01 16:22:46.842323
2022-12-01 16:22:46.850896
2022-12-01 16:22:46.859019
2022-12-01 16:22:46.871093
2022-12-01 16:22:46.880128
2022-12-01 16:22:46.887737
2022-12-01 16:22:46.899585
2022-12-01 16:22:46.908196
2022-12-01 16:22:46.915984
2022-12-01 16:22:46.924750
2022-12-01 16:22:46.936967
2022-12-01 16:22:46.944831
2022-12-01 16:22:46.953063
2022-12-01 16:22:46.966170
2022-12-01 16:22:46.974344
2022-12-01 16:22:46.982573
2022-12-01 16:22:46.990255
2022-12-01 16:22:47.002264
2022-12-01 16:22:47.010056
2022-12-01 16:22:47.018847
2022-12-01 16:22:47.031200
2022-12-01 16:22:47.038682
2022-12-01 16:22:47.047649
2022-12-01 16:22:47.056294
2022-12-01 16:22:47.067703
2022-12-01 16:22:47.075798
2022-12-01 16:22:47.083670
2022-12-01 16:22:47.096614
2022-12-01 16:22:47.104955
2022-12-01 16:22:47.112240
2022-12-01 16:22:47.121062
2022-12-01 16:22:47.134114
2022-12-01 16:22:47.141613
2022-12-01 16:22:47.150480
2022-12-01 16:22:47.162786
2022-12-01 16:22:47.170990
2022-12-01 16:22:47.178421
2022-12-01 16:22:47.187254
2022-12-01 16:22:47.199654
2022-12-01 16:22:47.207133
2022-12-01 16:22:47.216025
2022-12-01 16:22:47.227314
2022-12-01 16:22:47.235906
2022-12-01 16:22:47.244551
2022-12-01 16:22:47.252089
2022-12-01 16:22:47.264113
2022-12-01 16:22:47.272854
2022-12-01 16:22:47.280590
2022-12-01 16:22:47.289063
2022-12-01 16:22:47.302036
2022-12-01 16:22:47.309041
2022-12-01 16:22:47.318489
2022-12-01 16:22:47.330740
2022-12-01 16:22:47.338900
2022-12-01 16:22:47.347092
2022-12-01 16:22:47.355287
2022-12-01 16:22:47.367586
2022-12-01 16:22:47.375116
2022-12-01 16:22:47.383948
2022-12-01 16:22:47.396268
2022-12-01 16:22:47.403963
2022-12-01 16:22:47.411945
2022-12-01 16:22:47.419879
2022-12-01 16:22:47.432270
2022-12-01 16:22:47.440575
2022-12-01 16:22:47.449161
2022-12-01 16:22:47.461775
2022-12-01 16:22:47.470003
2022-12-01 16:22:47.477635
2022-12-01 16:22:47.486348
2022-12-01 16:22:47.498058
2022-12-01 16:22:47.506859
2022-12-01 16:22:47.514320
2022-12-01 16:22:47.526261
2022-12-01 16:22:47.535509
2022-12-01 16:22:47.543698
2022-12-01 16:22:47.551912
2022-12-01 16:22:47.564178
2022-12-01 16:22:47.571384
2022-12-01 16:22:47.580038
2022-12-01 16:22:47.591927
2022-12-01 16:22:47.600241
2022-12-01 16:22:47.608769
2022-12-01 16:22:47.615948
2022-12-01 16:22:47.629188
2022-12-01 16:22:47.637408
2022-12-01 16:22:47.645414
2022-12-01 16:22:47.657735
2022-12-01 16:22:47.666568
2022-12-01 16:22:47.674547
2022-12-01 16:22:47.682995
2022-12-01 16:22:47.694175
2022-12-01 16:22:47.703489
2022-12-01 16:22:47.710702
2022-12-01 16:22:47.722700
2022-12-01 16:22:47.732141
2022-12-01 16:22:47.739532
2022-12-01 16:22:47.748392
2022-12-01 16:22:47.760378
2022-12-01 16:22:47.768351
2022-12-01 16:22:47.776270
2022-12-01 16:22:47.787910
2022-12-01 16:22:47.796873
2022-12-01 16:22:47.805357
2022-12-01 16:22:47.815737
2022-12-01 16:22:47.825358
2022-12-01 16:22:47.833862
2022-12-01 16:22:47.841974
2022-12-01 16:22:47.853965
2022-12-01 16:22:47.862219
2022-12-01 16:22:47.870300
2022-12-01 16:22:47.878968
2022-12-01 16:22:47.890809
2022-12-01 16:22:47.898452
2022-12-01 16:22:47.907233
2022-12-01 16:22:47.919596
2022-12-01 16:22:47.927388
2022-12-01 16:22:47.936158
2022-12-01 16:22:47.944135
2022-12-01 16:22:47.956543
2022-12-01 16:22:47.964517
2022-12-01 16:22:47.973288
2022-12-01 16:22:47.985317
2022-12-01 16:22:47.993350
2022-12-01 16:22:48.001150
2022-12-01 16:22:48.009273
2022-12-01 16:22:48.021395
2022-12-01 16:22:48.030384
2022-12-01 16:22:48.039343
2022-12-01 16:22:48.050581
2022-12-01 16:22:48.059085
2022-12-01 16:22:48.068011
2022-12-01 16:22:48.075308
2022-12-01 16:22:48.087132
2022-12-01 16:22:48.096304
2022-12-01 16:22:48.104228
2022-12-01 16:22:48.116670
2022-12-01 16:22:48.124368
2022-12-01 16:22:48.132996
2022-12-01 16:22:48.140678
2022-12-01 16:22:48.153299
2022-12-01 16:22:48.161974
2022-12-01 16:22:48.169874
2022-12-01 16:22:48.178087
2022-12-01 16:22:48.190332
2022-12-01 16:22:48.198576
2022-12-01 16:22:48.207653
2022-12-01 16:22:48.219555
2022-12-01 16:22:48.226968
2022-12-01 16:22:48.234677
2022-12-01 16:22:48.243331
2022-12-01 16:22:48.255679
2022-12-01 16:22:48.264127
2022-12-01 16:22:48.272261
2022-12-01 16:22:48.284096
2022-12-01 16:22:48.292704
2022-12-01 16:22:48.300272
2022-12-01 16:22:48.308638
2022-12-01 16:22:48.321088
2022-12-01 16:22:48.328540
2022-12-01 16:22:48.338342
2022-12-01 16:22:48.350615
2022-12-01 16:22:48.357617
2022-12-01 16:22:48.366973
2022-12-01 16:22:48.375071
2022-12-01 16:22:48.387503
2022-12-01 16:22:48.395710
2022-12-01 16:22:48.403873
2022-12-01 16:22:48.416137
2022-12-01 16:22:48.423030
2022-12-01 16:22:48.432311
2022-12-01 16:22:48.440325
2022-12-01 16:22:48.452369
2022-12-01 16:22:48.460645
2022-12-01 16:22:48.468794
2022-12-01 16:22:48.481116
2022-12-01 16:22:48.489077
2022-12-01 16:22:48.496662
2022-12-01 16:22:48.505987
2022-12-01 16:22:48.518580
2022-12-01 16:22:48.526210
2022-12-01 16:22:48.534980
2022-12-01 16:22:48.547233
2022-12-01 16:22:48.555421
2022-12-01 16:22:48.562371
2022-12-01 16:22:48.570423
2022-12-01 16:22:48.582824
2022-12-01 16:22:48.591582
2022-12-01 16:22:48.599852
2022-12-01 16:22:48.611342
2022-12-01 16:22:48.619490
2022-12-01 16:22:48.628617
2022-12-01 16:22:48.636340
2022-12-01 16:22:48.648737
2022-12-01 16:22:48.657124
2022-12-01 16:22:48.665547
2022-12-01 16:22:48.678512
2022-12-01 16:22:48.686510
2022-12-01 16:22:48.694456
2022-12-01 16:22:48.702890
2022-12-01 16:22:48.715188
2022-12-01 16:22:48.723369
2022-12-01 16:22:48.730985
2022-12-01 16:22:48.743491
2022-12-01 16:22:48.752058
2022-12-01 16:22:48.759538
2022-12-01 16:22:48.768307
2022-12-01 16:22:48.780584
2022-12-01 16:22:48.788578
2022-12-01 16:22:48.796617
2022-12-01 16:22:48.808435
2022-12-01 16:22:48.816469
2022-12-01 16:22:48.824572
2022-12-01 16:22:48.833049
2022-12-01 16:22:48.845068
2022-12-01 16:22:48.853981
2022-12-01 16:22:48.861382
2022-12-01 16:22:48.873934
2022-12-01 16:22:48.882578
2022-12-01 16:22:48.890562
2022-12-01 16:22:48.898949
2022-12-01 16:22:48.910927
2022-12-01 16:22:48.919970
2022-12-01 16:22:48.928203
2022-12-01 16:22:48.939605
2022-12-01 16:22:48.948569
2022-12-01 16:22:48.956568
2022-12-01 16:22:48.964573
2022-12-01 16:22:48.976768
2022-12-01 16:22:48.984649
2022-12-01 16:22:48.993007
2022-12-01 16:22:49.005986
2022-12-01 16:22:49.013871
2022-12-01 16:22:49.021363
2022-12-01 16:22:49.029964
2022-12-01 16:22:49.041765
2022-12-01 16:22:49.051058
2022-12-01 16:22:49.058227
2022-12-01 16:22:49.066952
2022-12-01 16:22:49.079431
2022-12-01 16:22:49.087925
2022-12-01 16:22:49.095370
2022-12-01 16:22:49.106670
2022-12-01 16:22:49.116082
2022-12-01 16:22:49.123812
2022-12-01 16:22:49.132417
2022-12-01 16:22:49.144541
2022-12-01 16:22:49.152808
2022-12-01 16:22:49.161097
2022-12-01 16:22:49.173935
2022-12-01 16:22:49.181688
2022-12-01 16:22:49.190326
2022-12-01 16:22:49.196986
2022-12-01 16:22:49.209580
2022-12-01 16:22:49.218385
2022-12-01 16:22:49.227788
2022-12-01 16:22:49.239040
2022-12-01 16:22:49.246744
2022-12-01 16:22:49.256528
2022-12-01 16:22:49.264082
2022-12-01 16:22:49.275562
2022-12-01 16:22:49.284537
2022-12-01 16:22:49.292205
2022-12-01 16:22:49.304372
2022-12-01 16:22:49.312719
2022-12-01 16:22:49.320857
2022-12-01 16:22:49.329055
2022-12-01 16:22:49.340474
2022-12-01 16:22:49.349239
2022-12-01 16:22:49.357464
2022-12-01 16:22:49.370543
2022-12-01 16:22:49.378272
2022-12-01 16:22:49.386921
2022-12-01 16:22:49.394152
2022-12-01 16:22:49.407187
2022-12-01 16:22:49.415127
2022-12-01 16:22:49.424659
2022-12-01 16:22:49.436066
2022-12-01 16:22:49.443800
2022-12-01 16:22:49.452498
2022-12-01 16:22:49.460099
2022-12-01 16:22:49.472356
2022-12-01 16:22:49.480645
2022-12-01 16:22:49.488553
2022-12-01 16:22:49.500590
2022-12-01 16:22:49.509813
2022-12-01 16:22:49.517144
2022-12-01 16:22:49.525807
2022-12-01 16:22:49.538508
2022-12-01 16:22:49.545899
2022-12-01 16:22:49.554854
2022-12-01 16:22:49.566314
2022-12-01 16:22:49.574270
2022-12-01 16:22:49.582337
2022-12-01 16:22:49.590264
2022-12-01 16:22:49.604019
2022-12-01 16:22:49.611351
2022-12-01 16:22:49.619834
2022-12-01 16:22:49.632162
2022-12-01 16:22:49.639820
2022-12-01 16:22:49.648553
2022-12-01 16:22:49.656702
2022-12-01 16:22:49.668423
2022-12-01 16:22:49.677762
2022-12-01 16:22:49.685151
2022-12-01 16:22:49.697296
2022-12-01 16:22:49.705909
2022-12-01 16:22:49.714218
2022-12-01 16:22:49.722796
2022-12-01 16:22:49.735073
2022-12-01 16:22:49.743273
2022-12-01 16:22:49.751525
2022-12-01 16:22:49.763758
2022-12-01 16:22:49.771955
2022-12-01 16:22:49.780132
2022-12-01 16:22:49.788340
2022-12-01 16:22:49.799960
2022-12-01 16:22:49.807708
2022-12-01 16:22:49.815700
2022-12-01 16:22:49.828197
2022-12-01 16:22:49.836810
2022-12-01 16:22:49.844526
2022-12-01 16:22:49.853384
2022-12-01 16:22:49.865340
2022-12-01 16:22:49.873313
2022-12-01 16:22:49.881701
2022-12-01 16:22:49.893327
2022-12-01 16:22:49.901823
2022-12-01 16:22:49.910590
2022-12-01 16:22:49.918355
2022-12-01 16:22:49.930870
2022-12-01 16:22:49.938549
2022-12-01 16:22:49.946618
2022-12-01 16:22:49.956283
2022-12-01 16:22:49.968335
2022-12-01 16:22:49.975993
2022-12-01 16:22:49.984446
2022-12-01 16:22:49.996771
2022-12-01 16:22:50.004618
2022-12-01 16:22:50.013133
2022-12-01 16:22:50.021232
2022-12-01 16:22:50.033193
2022-12-01 16:22:50.041719
2022-12-01 16:22:50.049642
2022-12-01 16:22:50.062769
2022-12-01 16:22:50.070947
2022-12-01 16:22:50.079035
2022-12-01 16:22:50.087331
2022-12-01 16:22:50.098818
2022-12-01 16:22:50.106911
2022-12-01 16:22:50.116037
2022-12-01 16:22:50.126881
2022-12-01 16:22:50.136057
2022-12-01 16:22:50.143923
2022-12-01 16:22:50.152425
2022-12-01 16:22:50.164683
2022-12-01 16:22:50.173489
2022-12-01 16:22:50.181045
2022-12-01 16:22:50.192947
2022-12-01 16:22:50.201224
2022-12-01 16:22:50.209477
2022-12-01 16:22:50.217750
2022-12-01 16:22:50.230720
2022-12-01 16:22:50.238893
2022-12-01 16:22:50.246810
2022-12-01 16:22:50.259370
2022-12-01 16:22:50.266830
2022-12-01 16:22:50.275031
2022-12-01 16:22:50.283190
2022-12-01 16:22:50.295482
2022-12-01 16:22:50.304325
2022-12-01 16:22:50.311720
2022-12-01 16:22:50.323493
2022-12-01 16:22:50.332640
2022-12-01 16:22:50.340147
2022-12-01 16:22:50.348998
2022-12-01 16:22:50.360955
2022-12-01 16:22:50.369093
2022-12-01 16:22:50.377474
2022-12-01 16:22:50.389734
2022-12-01 16:22:50.398653
2022-12-01 16:22:50.406809
2022-12-01 16:22:50.415025
2022-12-01 16:22:50.426038
2022-12-01 16:22:50.434978
2022-12-01 16:22:50.443707
2022-12-01 16:22:50.455499
2022-12-01 16:22:50.463515
2022-12-01 16:22:50.472338
2022-12-01 16:22:50.480016
2022-12-01 16:22:50.492244
2022-12-01 16:22:50.500585
2022-12-01 16:22:50.508621
2022-12-01 16:22:50.521003
2022-12-01 16:22:50.529086
2022-12-01 16:22:50.537565
2022-12-01 16:22:50.545701
2022-12-01 16:22:50.557561
2022-12-01 16:22:50.566108
2022-12-01 16:22:50.574269
2022-12-01 16:22:50.585502
2022-12-01 16:22:50.595253
2022-12-01 16:22:50.602902
2022-12-01 16:22:50.611636
2022-12-01 16:22:50.623389
2022-12-01 16:22:50.631183
2022-12-01 16:22:50.639119
2022-12-01 16:22:50.651917
2022-12-01 16:22:50.659067
2022-12-01 16:22:50.667862
2022-12-01 16:22:50.675622
2022-12-01 16:22:50.688619
2022-12-01 16:22:50.696738
2022-12-01 16:22:50.705131
2022-12-01 16:22:50.717483
2022-12-01 16:22:50.724873
2022-12-01 16:22:50.733166
2022-12-01 16:22:50.741325
2022-12-01 16:22:50.754263
2022-12-01 16:22:50.763122
2022-12-01 16:22:50.770827
2022-12-01 16:22:50.779523
2022-12-01 16:22:50.790896
2022-12-01 16:22:50.799484
2022-12-01 16:22:50.807635
2022-12-01 16:22:50.820324
2022-12-01 16:22:50.828687
2022-12-01 16:22:50.836604
2022-12-01 16:22:50.844674
2022-12-01 16:22:50.856496
2022-12-01 16:22:50.864752
2022-12-01 16:22:50.873698
2022-12-01 16:22:50.886085
2022-12-01 16:22:50.893568
2022-12-01 16:22:50.902525
2022-12-01 16:22:50.910641
2022-12-01 16:22:50.921753
2022-12-01 16:22:50.931118
2022-12-01 16:22:50.938540
2022-12-01 16:22:50.950871
2022-12-01 16:22:50.959022
2022-12-01 16:22:50.967351
2022-12-01 16:22:50.975432
2022-12-01 16:22:50.988525
2022-12-01 16:22:50.996785
2022-12-01 16:22:51.004588
2022-12-01 16:22:51.016649
2022-12-01 16:22:51.024582
2022-12-01 16:22:51.032378
2022-12-01 16:22:51.040304
2022-12-01 16:22:51.052808
2022-12-01 16:22:51.061415
2022-12-01 16:22:51.069523
2022-12-01 16:22:51.082005
2022-12-01 16:22:51.090124
2022-12-01 16:22:51.097971
2022-12-01 16:22:51.106387
2022-12-01 16:22:51.118488
2022-12-01 16:22:51.126334
2022-12-01 16:22:51.134613
2022-12-01 16:22:51.147369
2022-12-01 16:22:51.155681
2022-12-01 16:22:51.163717
2022-12-01 16:22:51.171220
2022-12-01 16:22:51.183866
2022-12-01 16:22:51.192544
2022-12-01 16:22:51.200336
2022-12-01 16:22:51.212409
2022-12-01 16:22:51.220410
2022-12-01 16:22:51.229058
2022-12-01 16:22:51.237046
2022-12-01 16:22:51.250151
2022-12-01 16:22:51.257317
2022-12-01 16:22:51.267000
2022-12-01 16:22:51.279300
2022-12-01 16:22:51.286775
2022-12-01 16:22:51.295473
2022-12-01 16:22:51.302441
2022-12-01 16:22:51.316157
2022-12-01 16:22:51.322979
2022-12-01 16:22:51.331967
2022-12-01 16:22:51.344338
2022-12-01 16:22:51.352536
2022-12-01 16:22:51.360699
2022-12-01 16:22:51.368493
2022-12-01 16:22:51.380851
2022-12-01 16:22:51.389381
2022-12-01 16:22:51.397541
2022-12-01 16:22:51.409472
2022-12-01 16:22:51.417996
2022-12-01 16:22:51.426003
2022-12-01 16:22:51.434965
2022-12-01 16:22:51.447026
2022-12-01 16:22:51.454342
2022-12-01 16:22:51.463599
2022-12-01 16:22:51.474816
2022-12-01 16:22:51.482784
2022-12-01 16:22:51.491457
2022-12-01 16:22:51.500084
2022-12-01 16:22:51.512307
2022-12-01 16:22:51.520484
2022-12-01 16:22:51.528810
2022-12-01 16:22:51.540670
2022-12-01 16:22:51.549166
2022-12-01 16:22:51.557335
2022-12-01 16:22:51.566038
2022-12-01 16:22:51.576571
2022-12-01 16:22:51.586530
2022-12-01 16:22:51.593588
2022-12-01 16:22:51.606062
2022-12-01 16:22:51.615117
2022-12-01 16:22:51.622481
2022-12-01 16:22:51.631564
2022-12-01 16:22:51.643183
2022-12-01 16:22:51.651852
2022-12-01 16:22:51.659231
2022-12-01 16:22:51.667556
2022-12-01 16:22:51.680181
2022-12-01 16:22:51.688053
2022-12-01 16:22:51.696557
2022-12-01 16:22:51.708831
2022-12-01 16:22:51.717033
2022-12-01 16:22:51.724929
2022-12-01 16:22:51.733967
2022-12-01 16:22:51.745406
2022-12-01 16:22:51.753848
2022-12-01 16:22:51.762653
2022-12-01 16:22:51.774020
2022-12-01 16:22:51.783091
2022-12-01 16:22:51.789999
2022-12-01 16:22:51.798620
2022-12-01 16:22:51.811027
2022-12-01 16:22:51.818888
2022-12-01 16:22:51.827382
2022-12-01 16:22:51.839575
2022-12-01 16:22:51.847739
2022-12-01 16:22:51.855750
2022-12-01 16:22:51.864062
2022-12-01 16:22:51.876227
2022-12-01 16:22:51.884275
2022-12-01 16:22:51.893201
2022-12-01 16:22:51.904592
2022-12-01 16:22:51.912838
2022-12-01 16:22:51.920860
2022-12-01 16:22:51.929990
2022-12-01 16:22:51.941904
2022-12-01 16:22:51.949764
2022-12-01 16:22:51.958653
2022-12-01 16:22:51.970826
2022-12-01 16:22:51.978496
2022-12-01 16:22:51.986824
2022-12-01 16:22:51.995336
2022-12-01 16:22:52.007362
2022-12-01 16:22:52.015833
2022-12-01 16:22:52.024125
2022-12-01 16:22:52.036179
2022-12-01 16:22:52.044150
2022-12-01 16:22:52.052774
2022-12-01 16:22:52.061162
2022-12-01 16:22:52.073140
2022-12-01 16:22:52.081084
2022-12-01 16:22:52.089017
2022-12-01 16:22:52.101379
2022-12-01 16:22:52.110126
2022-12-01 16:22:52.118327
2022-12-01 16:22:52.126221
2022-12-01 16:22:52.138739
2022-12-01 16:22:52.146718
2022-12-01 16:22:52.154631
2022-12-01 16:22:52.167321
2022-12-01 16:22:52.175765
2022-12-01 16:22:52.183791
2022-12-01 16:22:52.192093
2022-12-01 16:22:52.204492
2022-12-01 16:22:52.212689
2022-12-01 16:22:52.220911
2022-12-01 16:22:52.232849
2022-12-01 16:22:52.241048
2022-12-01 16:22:52.248798
2022-12-01 16:22:52.257690
2022-12-01 16:22:52.269863
2022-12-01 16:22:52.277742
2022-12-01 16:22:52.286916
2022-12-01 16:22:52.299223
2022-12-01 16:22:52.306724
2022-12-01 16:22:52.315382
2022-12-01 16:22:52.322534
2022-12-01 16:22:52.335028
2022-12-01 16:22:52.344276
2022-12-01 16:22:52.350911
2022-12-01 16:22:52.364610
2022-12-01 16:22:52.372615
2022-12-01 16:22:52.380583
2022-12-01 16:22:52.388815
2022-12-01 16:22:52.400312
2022-12-01 16:22:52.409085
2022-12-01 16:22:52.417119
2022-12-01 16:22:52.429486
2022-12-01 16:22:52.438536
2022-12-01 16:22:52.446668
2022-12-01 16:22:52.454877
2022-12-01 16:22:52.467147
2022-12-01 16:22:52.474631
2022-12-01 16:22:52.483547
2022-12-01 16:22:52.495393
2022-12-01 16:22:52.503092
2022-12-01 16:22:52.512235
2022-12-01 16:22:52.519823
2022-12-01 16:22:52.531876
2022-12-01 16:22:52.540278
2022-12-01 16:22:52.549288
2022-12-01 16:22:52.556938
2022-12-01 16:22:52.569019
2022-12-01 16:22:52.577121
2022-12-01 16:22:52.585514
2022-12-01 16:22:52.597548
2022-12-01 16:22:52.605539
2022-12-01 16:22:52.613368
2022-12-01 16:22:52.622267
2022-12-01 16:22:52.634558
2022-12-01 16:22:52.642565
2022-12-01 16:22:52.650740
2022-12-01 16:22:52.663178
2022-12-01 16:22:52.671438
2022-12-01 16:22:52.680122
2022-12-01 16:22:52.687282
2022-12-01 16:22:52.700091
2022-12-01 16:22:52.708153
2022-12-01 16:22:52.716500
2022-12-01 16:22:52.728246
2022-12-01 16:22:52.736396
2022-12-01 16:22:52.745021
2022-12-01 16:22:52.752756
2022-12-01 16:22:52.764511
2022-12-01 16:22:52.773862
2022-12-01 16:22:52.781308
2022-12-01 16:22:52.794198
2022-12-01 16:22:52.802653
2022-12-01 16:22:52.810243
2022-12-01 16:22:52.819386
2022-12-01 16:22:52.831226
2022-12-01 16:22:52.838980
2022-12-01 16:22:52.848315
2022-12-01 16:22:52.860096
2022-12-01 16:22:52.868201
2022-12-01 16:22:52.876621
2022-12-01 16:22:52.884556
2022-12-01 16:22:52.896711
2022-12-01 16:22:52.904628
2022-12-01 16:22:52.913160
2022-12-01 16:22:52.925892
2022-12-01 16:22:52.934120
2022-12-01 16:22:52.941481
2022-12-01 16:22:52.949429
2022-12-01 16:22:52.961862
2022-12-01 16:22:52.969971
2022-12-01 16:22:52.978479
2022-12-01 16:22:52.990507
2022-12-01 16:22:52.999621
2022-12-01 16:22:53.007131
2022-12-01 16:22:53.016005
2022-12-01 16:22:53.028312
2022-12-01 16:22:53.036189
2022-12-01 16:22:53.043985
2022-12-01 16:22:53.055551
2022-12-01 16:22:53.064602
2022-12-01 16:22:53.072665
2022-12-01 16:22:53.080974
2022-12-01 16:22:53.093289
2022-12-01 16:22:53.101514
2022-12-01 16:22:53.110227
2022-12-01 16:22:53.122370
2022-12-01 16:22:53.129612
2022-12-01 16:22:53.137916
2022-12-01 16:22:53.145724
2022-12-01 16:22:53.158273
2022-12-01 16:22:53.167574
2022-12-01 16:22:53.174518
2022-12-01 16:22:53.188061
2022-12-01 16:22:53.196235
2022-12-01 16:22:53.203776
2022-12-01 16:22:53.212637
2022-12-01 16:22:53.224158
2022-12-01 16:22:53.232611
2022-12-01 16:22:53.240010
2022-12-01 16:22:53.252546
2022-12-01 16:22:53.261799
2022-12-01 16:22:53.269990
2022-12-01 16:22:53.277303
2022-12-01 16:22:53.289830
2022-12-01 16:22:53.297652
2022-12-01 16:22:53.306127
2022-12-01 16:22:53.319105
2022-12-01 16:22:53.326613
2022-12-01 16:22:53.335090
2022-12-01 16:22:53.342944
2022-12-01 16:22:53.355610
2022-12-01 16:22:53.364016
2022-12-01 16:22:53.371845
2022-12-01 16:22:53.384142
2022-12-01 16:22:53.391776
2022-12-01 16:22:53.400556
2022-12-01 16:22:53.408881
2022-12-01 16:22:53.420005
2022-12-01 16:22:53.429723
2022-12-01 16:22:53.437213
2022-12-01 16:22:53.446109
2022-12-01 16:22:53.457605
2022-12-01 16:22:53.465335
2022-12-01 16:22:53.474752
2022-12-01 16:22:53.487065
2022-12-01 16:22:53.495682
2022-12-01 16:22:53.503448
2022-12-01 16:22:53.511226
2022-12-01 16:22:53.522996
2022-12-01 16:22:53.532139
2022-12-01 16:22:53.539623
2022-12-01 16:22:53.552369
2022-12-01 16:22:53.560055
2022-12-01 16:22:53.568492
2022-12-01 16:22:53.576373
2022-12-01 16:22:53.589027
2022-12-01 16:22:53.597203
2022-12-01 16:22:53.605305
2022-12-01 16:22:53.617135
2022-12-01 16:22:53.626019
2022-12-01 16:22:53.633422
2022-12-01 16:22:53.642715
2022-12-01 16:22:53.654992
2022-12-01 16:22:53.663624
2022-12-01 16:22:53.671134
2022-12-01 16:22:53.683678
2022-12-01 16:22:53.691880
2022-12-01 16:22:53.700062
2022-12-01 16:22:53.707525
2022-12-01 16:22:53.720027
2022-12-01 16:22:53.727625
2022-12-01 16:22:53.736386
2022-12-01 16:22:53.748227
2022-12-01 16:22:53.756802
2022-12-01 16:22:53.765030
2022-12-01 16:22:53.773064
2022-12-01 16:22:53.785129
2022-12-01 16:22:53.793573
2022-12-01 16:22:53.801176
2022-12-01 16:22:53.814758
2022-12-01 16:22:53.821971
2022-12-01 16:22:53.831112
2022-12-01 16:22:53.838760
2022-12-01 16:22:53.851615
2022-12-01 16:22:53.859569
2022-12-01 16:22:53.867112
2022-12-01 16:22:53.878400
2022-12-01 16:22:53.888368
2022-12-01 16:22:53.896148
2022-12-01 16:22:53.904352
2022-12-01 16:22:53.916667
2022-12-01 16:22:53.924503
2022-12-01 16:22:53.932832
2022-12-01 16:22:53.945138
2022-12-01 16:22:53.953138
2022-12-01 16:22:53.961097
2022-12-01 16:22:53.970074
2022-12-01 16:22:53.982198
2022-12-01 16:22:53.990331
2022-12-01 16:22:53.998544
2022-12-01 16:22:54.010814
2022-12-01 16:22:54.018840
2022-12-01 16:22:54.027497
2022-12-01 16:22:54.035932
2022-12-01 16:22:54.047293
2022-12-01 16:22:54.055333
2022-12-01 16:22:54.064199
2022-12-01 16:22:54.076622
2022-12-01 16:22:54.084627
2022-12-01 16:22:54.092533
2022-12-01 16:22:54.100954
2022-12-01 16:22:54.112999
2022-12-01 16:22:54.120975
2022-12-01 16:22:54.129627
2022-12-01 16:22:54.140509
2022-12-01 16:22:54.149884
2022-12-01 16:22:54.158370
2022-12-01 16:22:54.167007
2022-12-01 16:22:54.178518
2022-12-01 16:22:54.187000
2022-12-01 16:22:54.195142
2022-12-01 16:22:54.207254
2022-12-01 16:22:54.214688
2022-12-01 16:22:54.223814
2022-12-01 16:22:54.231182
2022-12-01 16:22:54.244216
2022-12-01 16:22:54.252356
2022-12-01 16:22:54.260496
2022-12-01 16:22:54.272201
2022-12-01 16:22:54.280885
2022-12-01 16:22:54.288857
2022-12-01 16:22:54.297169
2022-12-01 16:22:54.308916
2022-12-01 16:22:54.317880
2022-12-01 16:22:54.325701
2022-12-01 16:22:54.333698
2022-12-01 16:22:54.346594
2022-12-01 16:22:54.354284
2022-12-01 16:22:54.362474
2022-12-01 16:22:54.374961
2022-12-01 16:22:54.382929
2022-12-01 16:22:54.391227
2022-12-01 16:22:54.399441
2022-12-01 16:22:54.411824
2022-12-01 16:22:54.419588
2022-12-01 16:22:54.428474
2022-12-01 16:22:54.440311
2022-12-01 16:22:54.448771
2022-12-01 16:22:54.456760
2022-12-01 16:22:54.464707
2022-12-01 16:22:54.478288
2022-12-01 16:22:54.485897
2022-12-01 16:22:54.493515
2022-12-01 16:22:54.505967
2022-12-01 16:22:54.515150
2022-12-01 16:22:54.522653
2022-12-01 16:22:54.531164
2022-12-01 16:22:54.543859
2022-12-01 16:22:54.551766
2022-12-01 16:22:54.560206
2022-12-01 16:22:54.571796
2022-12-01 16:22:54.580895
2022-12-01 16:22:54.587880
2022-12-01 16:22:54.596774
2022-12-01 16:22:54.608538
2022-12-01 16:22:54.616705
2022-12-01 16:22:54.624918
2022-12-01 16:22:54.636932
2022-12-01 16:22:54.645052
2022-12-01 16:22:54.653007
2022-12-01 16:22:54.661440
2022-12-01 16:22:54.674060
2022-12-01 16:22:54.683118
2022-12-01 16:22:54.690375
2022-12-01 16:22:54.703167
2022-12-01 16:22:54.711783
2022-12-01 16:22:54.719091
2022-12-01 16:22:54.727423
2022-12-01 16:22:54.739187
2022-12-01 16:22:54.748091
2022-12-01 16:22:54.756195
2022-12-01 16:22:54.768534
2022-12-01 16:22:54.776759
2022-12-01 16:22:54.784962
2022-12-01 16:22:54.793142
2022-12-01 16:22:54.805056
2022-12-01 16:22:54.813012
2022-12-01 16:22:54.820998
2022-12-01 16:22:54.833683
2022-12-01 16:22:54.842395
2022-12-01 16:22:54.849609
2022-12-01 16:22:54.858337
2022-12-01 16:22:54.870314
2022-12-01 16:22:54.879247
2022-12-01 16:22:54.886859
2022-12-01 16:22:54.900167
2022-12-01 16:22:54.908388
2022-12-01 16:22:54.916566
2022-12-01 16:22:54.923945
2022-12-01 16:22:54.936515
2022-12-01 16:22:54.944730
2022-12-01 16:22:54.952280
2022-12-01 16:22:54.964874
2022-12-01 16:22:54.973403
2022-12-01 16:22:54.980943
2022-12-01 16:22:54.989302
2022-12-01 16:22:55.001825
2022-12-01 16:22:55.009644
2022-12-01 16:22:55.017586
2022-12-01 16:22:55.030330
2022-12-01 16:22:55.038212
2022-12-01 16:22:55.047631
2022-12-01 16:22:55.056595
2022-12-01 16:22:55.068109
2022-12-01 16:22:55.076342
2022-12-01 16:22:55.084573
2022-12-01 16:22:55.096392
2022-12-01 16:22:55.104427
2022-12-01 16:22:55.112670
2022-12-01 16:22:55.120791
2022-12-01 16:22:55.132707
2022-12-01 16:22:55.140510
2022-12-01 16:22:55.148886
2022-12-01 16:22:55.158253
2022-12-01 16:22:55.170565
2022-12-01 16:22:55.177683
2022-12-01 16:22:55.186907
2022-12-01 16:22:55.198308
2022-12-01 16:22:55.207240
2022-12-01 16:22:55.214672
2022-12-01 16:22:55.222357
2022-12-01 16:22:55.235152
2022-12-01 16:22:55.243357
2022-12-01 16:22:55.251418
2022-12-01 16:22:55.263758
2022-12-01 16:22:55.272218
2022-12-01 16:22:55.280355
2022-12-01 16:22:55.288023
2022-12-01 16:22:55.300843
2022-12-01 16:22:55.309814
2022-12-01 16:22:55.317222
2022-12-01 16:22:55.329169
2022-12-01 16:22:55.338161
2022-12-01 16:22:55.345419
2022-12-01 16:22:55.353949
2022-12-01 16:22:55.366600
2022-12-01 16:22:55.374889
2022-12-01 16:22:55.382998
2022-12-01 16:22:55.395287
2022-12-01 16:22:55.403459
2022-12-01 16:22:55.411666
2022-12-01 16:22:55.420092
2022-12-01 16:22:55.432391
2022-12-01 16:22:55.440396
2022-12-01 16:22:55.448535
2022-12-01 16:22:55.460885
2022-12-01 16:22:55.468573
2022-12-01 16:22:55.476995
2022-12-01 16:22:55.485371
2022-12-01 16:22:55.497381
2022-12-01 16:22:55.504871
2022-12-01 16:22:55.513516
2022-12-01 16:22:55.525992
2022-12-01 16:22:55.534525
2022-12-01 16:22:55.542235
2022-12-01 16:22:55.551469
2022-12-01 16:22:55.563601
2022-12-01 16:22:55.571399
2022-12-01 16:22:55.580135
2022-12-01 16:22:55.591656
2022-12-01 16:22:55.600386
2022-12-01 16:22:55.608146
2022-12-01 16:22:55.616453
2022-12-01 16:22:55.628603
2022-12-01 16:22:55.636729
2022-12-01 16:22:55.645174
2022-12-01 16:22:55.656918
2022-12-01 16:22:55.664803
2022-12-01 16:22:55.673790
2022-12-01 16:22:55.681981
2022-12-01 16:22:55.694054
2022-12-01 16:22:55.702647
2022-12-01 16:22:55.709509
2022-12-01 16:22:55.722091
2022-12-01 16:22:55.731698
2022-12-01 16:22:55.739439
2022-12-01 16:22:55.747623
2022-12-01 16:22:55.759732
2022-12-01 16:22:55.768600
2022-12-01 16:22:55.776250
2022-12-01 16:22:55.787793
2022-12-01 16:22:55.796715
2022-12-01 16:22:55.804470
2022-12-01 16:22:55.813043
2022-12-01 16:22:55.825156
2022-12-01 16:22:55.833313
2022-12-01 16:22:55.842328
2022-12-01 16:22:55.853899
2022-12-01 16:22:55.861642
2022-12-01 16:22:55.870955
2022-12-01 16:22:55.879171
2022-12-01 16:22:55.890575
2022-12-01 16:22:55.899622
2022-12-01 16:22:55.907383
2022-12-01 16:22:55.919588
2022-12-01 16:22:55.928309
2022-12-01 16:22:55.935324
2022-12-01 16:22:55.944396
2022-12-01 16:22:55.956146
2022-12-01 16:22:55.964905
2022-12-01 16:22:55.972356
2022-12-01 16:22:55.985072
2022-12-01 16:22:55.993159
2022-12-01 16:22:56.001204
2022-12-01 16:22:56.009086
2022-12-01 16:22:56.021095
2022-12-01 16:22:56.030112
2022-12-01 16:22:56.037869
2022-12-01 16:22:56.047100
2022-12-01 16:22:56.058657
2022-12-01 16:22:56.067564
2022-12-01 16:22:56.075268
2022-12-01 16:22:56.086596
2022-12-01 16:22:56.096215
2022-12-01 16:22:56.103944
2022-12-01 16:22:56.112390
2022-12-01 16:22:56.124660
2022-12-01 16:22:56.133222
2022-12-01 16:22:56.140297
2022-12-01 16:22:56.152342
2022-12-01 16:22:56.160778
2022-12-01 16:22:56.168583
2022-12-01 16:22:56.177224
2022-12-01 16:22:56.189073
2022-12-01 16:22:56.197853
2022-12-01 16:22:56.205909
2022-12-01 16:22:56.218160
2022-12-01 16:22:56.226571
2022-12-01 16:22:56.234639
2022-12-01 16:22:56.243022
2022-12-01 16:22:56.254911
2022-12-01 16:22:56.263152
2022-12-01 16:22:56.271205
2022-12-01 16:22:56.283126
2022-12-01 16:22:56.292088
2022-12-01 16:22:56.301005
2022-12-01 16:22:56.308752
2022-12-01 16:22:56.320949
2022-12-01 16:22:56.329161
2022-12-01 16:22:56.337166
2022-12-01 16:22:56.350185
2022-12-01 16:22:56.358391
2022-12-01 16:22:56.365888
2022-12-01 16:22:56.374013
2022-12-01 16:22:56.387050
2022-12-01 16:22:56.394447
2022-12-01 16:22:56.403436
2022-12-01 16:22:56.415755
2022-12-01 16:22:56.423052
2022-12-01 16:22:56.432102
2022-12-01 16:22:56.439639
2022-12-01 16:22:56.452094
2022-12-01 16:22:56.460671
2022-12-01 16:22:56.468657
2022-12-01 16:22:56.480753
2022-12-01 16:22:56.488707
2022-12-01 16:22:56.497127
2022-12-01 16:22:56.505375
2022-12-01 16:22:56.518128
2022-12-01 16:22:56.526310
2022-12-01 16:22:56.534590
2022-12-01 16:22:56.545949
2022-12-01 16:22:56.554338
2022-12-01 16:22:56.562397
2022-12-01 16:22:56.570987
2022-12-01 16:22:56.583650
2022-12-01 16:22:56.590893
2022-12-01 16:22:56.600044
2022-12-01 16:22:56.612316
2022-12-01 16:22:56.620050
2022-12-01 16:22:56.628650
2022-12-01 16:22:56.636499
2022-12-01 16:22:56.648679
2022-12-01 16:22:56.656467
2022-12-01 16:22:56.665056
2022-12-01 16:22:56.677895
2022-12-01 16:22:56.686071
2022-12-01 16:22:56.694268
2022-12-01 16:22:56.702449
2022-12-01 16:22:56.713711
2022-12-01 16:22:56.721799
2022-12-01 16:22:56.731140
2022-12-01 16:22:56.742301
2022-12-01 16:22:56.751160
2022-12-01 16:22:56.759280
2022-12-01 16:22:56.767456
2022-12-01 16:22:56.779507
2022-12-01 16:22:56.787399
2022-12-01 16:22:56.796191
2022-12-01 16:22:56.808391
2022-12-01 16:22:56.816610
2022-12-01 16:22:56.824747
2022-12-01 16:22:56.832995
2022-12-01 16:22:56.845839
2022-12-01 16:22:56.853540
2022-12-01 16:22:56.862197
2022-12-01 16:22:56.873746
2022-12-01 16:22:56.881520
2022-12-01 16:22:56.889733
2022-12-01 16:22:56.898610
2022-12-01 16:22:56.910703
2022-12-01 16:22:56.918229
2022-12-01 16:22:56.926774
2022-12-01 16:22:56.934668
2022-12-01 16:22:56.947254
2022-12-01 16:22:56.955250
2022-12-01 16:22:56.963657
2022-12-01 16:22:56.975851
2022-12-01 16:22:56.983770
2022-12-01 16:22:56.991738
2022-12-01 16:22:57.000383
2022-12-01 16:22:57.012325
2022-12-01 16:22:57.020948
2022-12-01 16:22:57.029625
2022-12-01 16:22:57.041667
2022-12-01 16:22:57.050023
2022-12-01 16:22:57.058788
2022-12-01 16:22:57.066379
2022-12-01 16:22:57.078650
2022-12-01 16:22:57.087452
2022-12-01 16:22:57.094889
2022-12-01 16:22:57.107959
2022-12-01 16:22:57.116154
2022-12-01 16:22:57.123724
2022-12-01 16:22:57.131838
2022-12-01 16:22:57.144410
2022-12-01 16:22:57.152532
2022-12-01 16:22:57.160732
2022-12-01 16:22:57.172705
2022-12-01 16:22:57.181242
2022-12-01 16:22:57.189176
2022-12-01 16:22:57.198064
2022-12-01 16:22:57.209841
2022-12-01 16:22:57.218079
2022-12-01 16:22:57.226041
2022-12-01 16:22:57.238234
2022-12-01 16:22:57.246185
2022-12-01 16:22:57.254895
2022-12-01 16:22:57.262928
2022-12-01 16:22:57.275373
2022-12-01 16:22:57.283548
2022-12-01 16:22:57.291784
2022-12-01 16:22:57.303881
2022-12-01 16:22:57.312211
2022-12-01 16:22:57.320469
2022-12-01 16:22:57.328574
2022-12-01 16:22:57.340090
2022-12-01 16:22:57.349096
2022-12-01 16:22:57.356523
2022-12-01 16:22:57.369193
2022-12-01 16:22:57.377633
2022-12-01 16:22:57.385842
2022-12-01 16:22:57.394665
2022-12-01 16:22:57.405806
2022-12-01 16:22:57.415087
2022-12-01 16:22:57.422653
2022-12-01 16:22:57.435641
2022-12-01 16:22:57.443839
2022-12-01 16:22:57.451528
2022-12-01 16:22:57.460227
2022-12-01 16:22:57.471642
2022-12-01 16:22:57.480104
2022-12-01 16:22:57.488076
2022-12-01 16:22:57.499953
2022-12-01 16:22:57.508038
2022-12-01 16:22:57.516731
2022-12-01 16:22:57.524345
2022-12-01 16:22:57.536789
2022-12-01 16:22:57.545638
2022-12-01 16:22:57.553473
2022-12-01 16:22:57.565817
2022-12-01 16:22:57.573913
2022-12-01 16:22:57.581898
2022-12-01 16:22:57.590500
2022-12-01 16:22:57.602079
2022-12-01 16:22:57.611126
2022-12-01 16:22:57.618669
2022-12-01 16:22:57.631549
2022-12-01 16:22:57.639091
2022-12-01 16:22:57.648018
2022-12-01 16:22:57.655968
2022-12-01 16:22:57.667696
2022-12-01 16:22:57.676593
2022-12-01 16:22:57.684062
2022-12-01 16:22:57.697107
2022-12-01 16:22:57.705226
2022-12-01 16:22:57.713399
2022-12-01 16:22:57.721445
2022-12-01 16:22:57.734662
2022-12-01 16:22:57.742125
2022-12-01 16:22:57.751012
2022-12-01 16:22:57.763327
2022-12-01 16:22:57.770505
2022-12-01 16:22:57.779715
2022-12-01 16:22:57.787485
2022-12-01 16:22:57.800279
2022-12-01 16:22:57.807811
2022-12-01 16:22:57.816087
2022-12-01 16:22:57.824246
2022-12-01 16:22:57.836516
2022-12-01 16:22:57.844698
2022-12-01 16:22:57.852960
2022-12-01 16:22:57.864913
2022-12-01 16:22:57.873172
2022-12-01 16:22:57.881274
2022-12-01 16:22:57.889648
2022-12-01 16:22:57.902598
2022-12-01 16:22:57.910768
2022-12-01 16:22:57.918974
2022-12-01 16:22:57.931242
2022-12-01 16:22:57.938578
2022-12-01 16:22:57.947622
2022-12-01 16:22:57.955442
2022-12-01 16:22:57.967687
2022-12-01 16:22:57.976335
2022-12-01 16:22:57.983994
2022-12-01 16:22:57.996452
2022-12-01 16:22:58.004371
2022-12-01 16:22:58.012755
2022-12-01 16:22:58.020340
2022-12-01 16:22:58.032992
2022-12-01 16:22:58.040965
2022-12-01 16:22:58.048827
2022-12-01 16:22:58.060698
2022-12-01 16:22:58.070065
2022-12-01 16:22:58.077239
2022-12-01 16:22:58.086381
2022-12-01 16:22:58.098668
2022-12-01 16:22:58.106823
2022-12-01 16:22:58.115613
2022-12-01 16:22:58.127367
2022-12-01 16:22:58.135483
2022-12-01 16:22:58.144285
2022-12-01 16:22:58.151629
2022-12-01 16:22:58.164668
2022-12-01 16:22:58.172110
2022-12-01 16:22:58.181325
2022-12-01 16:22:58.192929
2022-12-01 16:22:58.201072
2022-12-01 16:22:58.209180
2022-12-01 16:22:58.217336
2022-12-01 16:22:58.228813
2022-12-01 16:22:58.237822
2022-12-01 16:22:58.246405
2022-12-01 16:22:58.257891
2022-12-01 16:22:58.267116
2022-12-01 16:22:58.274764
2022-12-01 16:22:58.283515
2022-12-01 16:22:58.294544
2022-12-01 16:22:58.302715
2022-12-01 16:22:58.312198
2022-12-01 16:22:58.323525
2022-12-01 16:22:58.332958
2022-12-01 16:22:58.340684
2022-12-01 16:22:58.348728
2022-12-01 16:22:58.360842
2022-12-01 16:22:58.369076
2022-12-01 16:22:58.377185
2022-12-01 16:22:58.390026
2022-12-01 16:22:58.397662
2022-12-01 16:22:58.405659
2022-12-01 16:22:58.414597
2022-12-01 16:22:58.426095
2022-12-01 16:22:58.435059
2022-12-01 16:22:58.442533
2022-12-01 16:22:58.454961
2022-12-01 16:22:58.463247
2022-12-01 16:22:58.471028
2022-12-01 16:22:58.480104
2022-12-01 16:22:58.492191
2022-12-01 16:22:58.500247
2022-12-01 16:22:58.508681
2022-12-01 16:22:58.520228
2022-12-01 16:22:58.528811
2022-12-01 16:22:58.536753
2022-12-01 16:22:58.545161
2022-12-01 16:22:58.557819
2022-12-01 16:22:58.565282
2022-12-01 16:22:58.573268
2022-12-01 16:22:58.586624
2022-12-01 16:22:58.594114
2022-12-01 16:22:58.603016
2022-12-01 16:22:58.610610
2022-12-01 16:22:58.622245
2022-12-01 16:22:58.630743
2022-12-01 16:22:58.639182
2022-12-01 16:22:58.651384
2022-12-01 16:22:58.660376
2022-12-01 16:22:58.668192
2022-12-01 16:22:58.676692
2022-12-01 16:22:58.687842
2022-12-01 16:22:58.696767
2022-12-01 16:22:58.704479
2022-12-01 16:22:58.713665
2022-12-01 16:22:58.725909
2022-12-01 16:22:58.734065
2022-12-01 16:22:58.742254
2022-12-01 16:22:58.753181
2022-12-01 16:22:58.762002
2022-12-01 16:22:58.769966
2022-12-01 16:22:58.779151
2022-12-01 16:22:58.790667
2022-12-01 16:22:58.799203
2022-12-01 16:22:58.807418
2022-12-01 16:22:58.818897
2022-12-01 16:22:58.827498
2022-12-01 16:22:58.836108
2022-12-01 16:22:58.844138
2022-12-01 16:22:58.856413
2022-12-01 16:22:58.864628
2022-12-01 16:22:58.872491
2022-12-01 16:22:58.884319
2022-12-01 16:22:58.893113
2022-12-01 16:22:58.901137
2022-12-01 16:22:58.909285
2022-12-01 16:22:58.921471
2022-12-01 16:22:58.930091
2022-12-01 16:22:58.937754
2022-12-01 16:22:58.951155
2022-12-01 16:22:58.958281
2022-12-01 16:22:58.966319
2022-12-01 16:22:58.974517
2022-12-01 16:22:58.986583
2022-12-01 16:22:58.995209
2022-12-01 16:22:59.004769
2022-12-01 16:22:59.015458
2022-12-01 16:22:59.023225
2022-12-01 16:22:59.032619
2022-12-01 16:22:59.040713
2022-12-01 16:22:59.053026
2022-12-01 16:22:59.061324
2022-12-01 16:22:59.069942
2022-12-01 16:22:59.080841
2022-12-01 16:22:59.089643
2022-12-01 16:22:59.097981
2022-12-01 16:22:59.106207
2022-12-01 16:22:59.119142
2022-12-01 16:22:59.126289
2022-12-01 16:22:59.134906
2022-12-01 16:22:59.147244
2022-12-01 16:22:59.155510
2022-12-01 16:22:59.163682
2022-12-01 16:22:59.172378
2022-12-01 16:22:59.184142
2022-12-01 16:22:59.192244
2022-12-01 16:22:59.200566
2022-12-01 16:22:59.212823
2022-12-01 16:22:59.220122
2022-12-01 16:22:59.229218
2022-12-01 16:22:59.237316
2022-12-01 16:22:59.249154
2022-12-01 16:22:59.257109
2022-12-01 16:22:59.265811
2022-12-01 16:22:59.278597
2022-12-01 16:22:59.286579
2022-12-01 16:22:59.294742
2022-12-01 16:22:59.303234
2022-12-01 16:22:59.315746
2022-12-01 16:22:59.322698
2022-12-01 16:22:59.331811
2022-12-01 16:22:59.343834
2022-12-01 16:22:59.352090
2022-12-01 16:22:59.360048
2022-12-01 16:22:59.368490
2022-12-01 16:22:59.380709
2022-12-01 16:22:59.389069
2022-12-01 16:22:59.396620
2022-12-01 16:22:59.409192
2022-12-01 16:22:59.416916
2022-12-01 16:22:59.425531
2022-12-01 16:22:59.434035
2022-12-01 16:22:59.445789
2022-12-01 16:22:59.454109
2022-12-01 16:22:59.462619
2022-12-01 16:22:59.474988
2022-12-01 16:22:59.483088
2022-12-01 16:22:59.491595
2022-12-01 16:22:59.499504
2022-12-01 16:22:59.511550
2022-12-01 16:22:59.519661
2022-12-01 16:22:59.528247
2022-12-01 16:22:59.536433
2022-12-01 16:22:59.548683
2022-12-01 16:22:59.556124
2022-12-01 16:22:59.565129
2022-12-01 16:22:59.577200
2022-12-01 16:22:59.585141
2022-12-01 16:22:59.593492
2022-12-01 16:22:59.601537
2022-12-01 16:22:59.614680
2022-12-01 16:22:59.622211
2022-12-01 16:22:59.630657
2022-12-01 16:22:59.643420
2022-12-01 16:22:59.651610
2022-12-01 16:22:59.659453
2022-12-01 16:22:59.667994
2022-12-01 16:22:59.680257
2022-12-01 16:22:59.687632
2022-12-01 16:22:59.696435
2022-12-01 16:22:59.708181
2022-12-01 16:22:59.716692
2022-12-01 16:22:59.724601
2022-12-01 16:22:59.733005
2022-12-01 16:22:59.745202
2022-12-01 16:22:59.753257
2022-12-01 16:22:59.761442
2022-12-01 16:22:59.774474
2022-12-01 16:22:59.781789
2022-12-01 16:22:59.790876
2022-12-01 16:22:59.798261
2022-12-01 16:22:59.811332
2022-12-01 16:22:59.819513
2022-12-01 16:22:59.827324
2022-12-01 16:22:59.839458
2022-12-01 16:22:59.847625
2022-12-01 16:22:59.855860
2022-12-01 16:22:59.864096
2022-12-01 16:22:59.876363
2022-12-01 16:22:59.884527
2022-12-01 16:22:59.892454
2022-12-01 16:22:59.904271
2022-12-01 16:22:59.913195
2022-12-01 16:22:59.921034
2022-12-01 16:22:59.929307
2022-12-01 16:22:59.942434
2022-12-01 16:22:59.949970
2022-12-01 16:22:59.958383
