HR_time,RR-interval,heart_rate
1.7696560081704547,811,74.25882352941176
2.602986086091992,801,73.68113590263691
3.41758964540855,839,73.68113590263691
4.21346668612013,820,74.8105476673428
5.009343726831711,801,74.53155080213904
5.833310545450758,801,74.83071046600458
6.619824326859849,830,75.12987012987013
7.40633810826894,792,78.5974025974026
8.127309074560607,792,78.29824293353705
8.923186115272188,726,78.60461126400176
9.700336637378788,801,76.29292295231346
10.48685041878788,783,76.592082616179
11.273364200196971,792,77.89511754068717
12.013061685093616,792,76.46654611211574
12.846391763015152,745,76.16738644825018
13.642268803726733,839,75.49978213507625
14.400692807228356,801,81.58428917732977
15.065484217705087,764,84.93487741262388
15.767728665391775,669,82.29784037558684
16.610422002615802,707,83.16985507246375
17.256486894487555,849,81.06022544283412
18.01491089798918,650,84.71150749411618
18.745245123583334,764,80.45498575498576
19.49430586778247,735,81.1225900681597
20.234003352679114,754,79.78675517134917
21.001790615483227,745,80.47137055596457
21.732124841077383,773,77.9851200103513
22.546728400393942,735,79.3209549071618
23.277062625988098,820,80.04160268044114
23.988670332977275,735,86.44640028164055
24.634735224849027,716,86.44640028164055
25.365069450443183,650,84.07607688278196
26.142219972549785,735,80.85981488391127
26.863190938841452,783,81.21545923955563
27.58416190513312,726,85.99480519480518
28.23959005630736,726,84.62491582491582
28.998014059808984,660,83.25502645502644
29.756438063310608,764,79.77871542428504
30.496135548207253,764,82.6686190265174
31.179653477288962,745,83.68286404076242
31.909987702883118,688,84.75015251511286
32.6215954098723,735,81.53865903031499
33.38938267267641,716,84.66832935998532
34.04481082385065,773,89.42460466362904
34.65342267851245,660,97.82743707904997
35.233944755266776,613,96.17801622962912
35.926825943650975,584,92.57675174069341
36.610343872732685,698,82.1251388374676
37.44367395065422,688,78.68884540117416
38.230187732063314,839,75.4773519163763
38.99797499486743,792,76.90592334494774
39.78448877627652,773,76.31456121870188
40.58972907629059,792,78.37104388879175
41.301336783279766,811,79.64247246022032
42.0503975274789,716,81.50526315789472
42.799458271678034,754,79.44878048780487
43.56724553448215,754,79.11915085817523
44.32566953798377,773,79.45712554171955
45.065367022880416,764,80.79296043853006
45.79570124847457,745,78.97431420609072
46.61030480779113,735,77.36491095111785
47.39681858920022,820,74.5320197044335
48.21142214851678,792,78.0855587243972
48.92302985550596,820,76.3903206291591
49.765723192729986,716,77.5735362502642
50.54287371483658,849,76.85288847698486
51.27320794043074,783,78.85449490268766
52.05035846253734,735,79.48992551402189
52.80878246603896,783,77.53388155797794
53.595296247448054,764,78.8369164824861
54.3349937323447,792,78.8369164824861
55.09341773584632,745,83.07501172058133
55.76757240562554,764,82.73703703703703
56.51663314982468,679,81.79523809523809
57.30314693123377,754,77.86351118760757
58.08029745334037,792,74.8968445209409
58.9229907905644,783,74.59768485707535
59.71886783127598,849,75.56274509803922
60.46792857547511,801,75.04680306905371
61.32934843130412,754,77.65765104460756
62.050319397595786,867,76.08706280931345
62.846196438307366,726,79.90764618850993
63.58589392320401,801,79.90764618850991
64.30686488949567,745,79.61544372612963
65.11210518950975,726,78.6262495303902
65.87989245231385,811,78.6262495303902
66.60086341860553,773,80.15941059843499
67.35928742210714,726,76.83403436594925
68.23943379654114,764,73.64549876362055
69.05403735585769,886,73.97512839325017
69.80309810005683,820,77.6220945083014
70.56152210355845,754,79.11915085817523
71.32930936636257,764,77.54856262288112
72.12518640707414,773,76.60676368108219
72.91170018848324,801,76.92835356364768
73.67012419198485,792,79.53920153920154
74.39109515827653,764,81.14860479417442
75.13079264317317,726,81.14860479417442
75.8892166466748,745,79.14328481295081
76.66636716878139,764,78.15409061721138
77.43415443158551,783,76.33544438477205
78.24875799090206,773,75.72991639044179
79.04463503161364,820,74.23286004056796
79.8592385909302,801,76.38113590263691
80.60829933512933,820,76.68029556650247
81.39481311653843,754,73.92448979591836
82.31241252818236,792,72.06169909824395
83.11765282819644,924,73.3331276696725
83.86671357239557,811,76.96578073089701
84.65322735380467,754,76.4012987012987
85.47719417242371,792,76.07166907166906
86.23561817592534,830,76.69187813090251
87.00340543872944,764,81.28401572304011
87.69628662711365,773,81.28401572304011
88.45471063061527,698,81.28401572304011
89.22249789341939,764,75.89167833070272
90.0745544899459,773,78.00130796033234
90.77679893763258,858,77.6874672315636
91.55394945973919,707,78.21493975903614
92.38727953766072,783,74.57214906136171
93.1925198376748,839,74.265780730897
93.97903361908388,811,78.37104388879175
94.69064132607306,792,80.23383458646616
95.43970207027219,716,78.53859649122805
96.28239540749622,754,76.4821138211382
97.05018267030033,849,79.04238779374094
97.73370059938205,773,81.67942483077798
98.49212460288366,688,82.00101471334347
99.2505486063853,764,79.1111111111111
100.00897260988691,764,78.47568049977687
100.78612313199352,764,77.53388155797794
101.5726369134026,783,76.8984509466437
102.34978743550921,792,77.53388155797794
103.10821143901083,783,77.53388155797794
103.89472522041993,764,77.22751322751323
104.68123900182901,792,76.28571428571429
105.4677527832381,792,77.22751322751323
106.22617678673973,792,79.53920153920154
106.94714775303139,764,80.8106301106301
107.69620849723053,726,80.8106301106301
108.45463250073215,754,78.49894179894179
109.24114628214124,764,77.84772228674667
110.00893354494535,792,77.84772228674667
110.76735754844698,773,77.84772228674667
111.55387132985607,764,76.63615110126737
112.35911162987014,792,76.00072048993314
113.13626215197674,811,77.27214906136172
113.88532289617588,783,79.13493975903614
114.634383640375,754,79.44878048780487
115.40217090317913,754,78.79756097560974
116.16995816598323,773,78.46793134598012
116.92838216948486,773,79.11915085817523
117.67744291368399,764,77.6220945083014
118.49204647300056,754,77.6220945083014
119.25047047650217,820,77.62209450830139
119.99953122070131,764,80.45498575498576
120.72986544629546,754,81.1225900681597
121.46956293119212,735,81.1225900681597
122.21862367539124,745,80.10834505391466
122.97704767889287,754,79.77037037037036
123.726108423092,764,80.10834505391466
124.46580590798865,754,81.47823442380404
125.18677687428031,745,82.51849416406378
125.90774784057199,726,82.86513486513486
126.63808206616613,726,82.50949050949052
127.3684162917603,735,82.15384615384616
128.09875051735446,735,82.50949050949052
128.8197214836461,735,82.16284980841942
129.55941896854276,726,81.81620910734836
130.2991164534394,745,81.81620910734836
131.02008741973108,745,82.88349758169878
131.73169512672024,726,83.5857826384142
132.4526660930119,716,81.89430338595935
133.22045335581603,726,83.45570689473128
133.89460802559526,773,83.82071031236627
134.60621573258442,679,85.87719298245614
135.3178234395736,716,84.69052631578947
136.0200678872603,716,84.69052631578947
136.73167559424948,707,84.32552289815447
137.45264656054113,716,82.88349758169878
138.19234404543778,726,81.81620910734836
138.93204153033443,745,82.18121252498335
139.64364923732361,745,83.24850099933377
140.35525694431277,716,84.31578947368419
141.06686465130196,716,84.31578947368419
141.77847235829114,716,85.4708002883922
142.46199028737286,716,87.45004417275099
143.12678169784957,688,88.20964587972111
143.81966288623377,669,86.33398729173376
144.54999711182793,698,82.61985061985061
145.30842111532957,735,78.88439751969163
146.10429815604112,764,80.3646469999411
146.79717934442533,801,81.7345363698305
147.518150310717,698,83.6430992886689
148.25784779561366,726,81.47823442380404
149.00690853981277,745,82.99824865614704
149.6904264688945,754,85.6269406392694
150.3645811386737,688,88.59360730593608
151.03873580845294,679,85.7037037037037
151.79715981195457,679,83.07501172058133
152.5368572968512,764,80.79296043853006
153.26719152244536,745,84.08925673482636
153.9413461922246,735,85.53128205128205
154.64359063991128,679,84.84666666666666
155.3926513841104,707,81.55037037037036
156.15107538761202,754,82.73703703703703
156.82523005739125,764,82.73703703703703
157.5742908015904,679,83.40464135021097
158.31398828648702,754,80.10834505391466
159.07241228998865,745,80.10834505391466
159.8214730341878,764,82.3306443429731
160.5049909632695,754,85.6269406392694
161.1791456330487,688,87.79180550413426
161.8720268214329,679,84.26647129056767
162.64917734353952,698,81.299804623901
163.39823808773866,783,77.27214906136172
164.2034783877527,754,80.79748327492831
164.88699631683443,811,81.13545795847261
165.62669380173108,688,83.33622333969134
166.36639128662773,745,80.7759493670886
167.11545203082684,745,80.4379746835443
167.864512775026,754,83.06666666666666
168.5386674448052,754,84.84666666666666
169.2409118924919,679,84.51703703703703
169.9993358959935,707,81.88834505391466
170.73903338089016,764,80.44631973745898
171.47873086578682,745,83.74261603375527
172.15288553556604,745,83.74261603375527
172.89258302046267,679,82.75342183801584
173.6603702832668,745,79.45712554171955
174.41879428676842,773,76.69187813090251
175.24276110538747,764,79.90337161570037
175.92627903446916,830,80.5709759288743
176.6659765193658,688,85.1631135210119
177.35885770775002,745,80.74004885073475
178.1640980077641,698,80.40207416719045
178.9131587519632,811,79.64247246022032
179.6247664589524,754,84.06553713049746
180.3082843880341,716,85.47080028839221
181.0198920950233,688,83.10047688953361
181.79704261712988,716,79.88898340473575
182.564829879934,783,77.21229167541244
183.3513436613431,773,80.73762588897904
184.0348615904248,792,81.38884540117417
184.78392233462392,688,85.22054794520547
185.46744026370564,754,79.69360730593607
186.31013360092967,688,78.7285470649722
187.08728412303628,849,76.50624777591378
187.8269816079329,783,80.15752982719583
188.55731583352707,745,80.15752982719583
189.33446635563368,735,78.54812657222296
190.12098013704278,783,76.00072048993314
190.92622043705683,792,75.69435215946844
191.71273421846593,811,76.965780730897
192.46179496266507,792,77.55714285714285
193.24830874407414,754,78.49894179894179
194.00673274757577,792,78.16931216931216
194.7651567510774,764,79.77871542428504
195.50485423597405,764,81.14860479417442
196.2258252022657,745,82.51849416406378
196.94679616855737,726,83.2207792207792
197.66776713484904,726,83.2207792207792
198.38873810114072,726,82.86513486513486
199.11907232673488,726,82.86513486513486
199.84004329302653,735,82.50949050949052
200.5703775186207,726,82.16284980841942
201.31007500351734,735,80.79296043853006
202.06849900701897,745,80.10834505391466
202.81755975121808,764,80.10834505391466
203.55725723611474,754,81.1225900681597
204.2875914617089,745,81.1225900681597
205.036652205908,735,80.78461538461538
205.78571295010715,754,80.1
206.5347736943063,754,81.50526315789472
207.24638140129548,754,82.91052631578947
207.95798910828466,716,83.9507860560492
208.6789600745763,716,83.23013828276986
209.40929430017047,726,81.82487512487512
210.1583550443696,735,80.78461538461538
210.90741578856876,754,80.4379746835443
211.64711327346538,754,80.10834505391466
212.405537276967,745,78.53775681862055
213.2014143176786,764,76.62919389978212
213.99729135839016,801,76.30760401721665
214.76507862119428,801,78.56280763712614
215.49541284678844,773,79.80376624279063
216.25383685029007,735,79.80376624279063
217.02162411309416,764,78.46793134598012
217.78941137589828,773,79.13553565915406
218.52910886079493,773,81.19201832924392
219.24071656778412,745,83.24850099933377
219.95232427477328,716,83.24850099933377
220.69202175966993,716,81.84323784143903
221.44108250386907,745,80.4379746835443
222.1901432480682,754,80.78461538461538
222.92047747366234,754,81.1225900681597
223.660174958559,735,80.79296043853006
224.41859896206063,745,79.14328481295081
225.19574948416724,764,78.15409061721138
225.96353674697133,783,78.82169493038532
226.70323423186798,773,79.13553565915406
227.4710214946721,745,78.21616693605506
228.2668985353837,773,76.30760401721663
229.06277557609525,801,76.62919389978214
229.82119957959688,801,79.24004187533598
230.54217054588855,764,81.14860479417442
231.2818680307852,726,81.14860479417442
232.0402920342868,745,79.14328481295081
232.81744255639342,764,78.47568049977687
233.57586655989505,783,79.48992551402189
234.3062007854892,764,79.80376624279063
235.0739880482933,735,78.8619673009917
235.8605018297024,773,76.60676368108219
236.656378870414,792,76.60676368108219
237.4241661332181,801,77.87819225251076
238.17322687741722,773,79.11915085817523
238.93165088091885,754,77.90757967269595
239.73689118093293,764,75.48030694542321
240.56085799955196,811,74.53850800362429
241.34737178096105,830,76.07166907166906
242.10579578446269,792,78.16931216931216
242.86421978796432,764,78.78952122854561
243.6320070507684,764,78.78952122854561
244.39043105427004,773,78.78952122854561
245.14885505777167,764,80.12535612535612
245.87918928336583,764,80.12535612535612
246.63761328686743,735,79.18355718355718
247.42412706827653,764,77.22751322751323
248.21064084968563,792,76.90592334494774
248.97842811248975,792,78.51532659992061
249.71812559738638,773,79.78675517134917
250.46718634158552,745,80.4379746835443
251.21624708578466,754,80.1
251.9653078299838,754,81.14025974025972
252.68627879627545,754,82.92025974025972
253.38852324396214,726,83.60487512487512
254.1188574695563,707,82.23498575498576
254.87728147305793,735,79.80376624279063
255.64506873586203,764,79.45712554171955
256.3847662207587,773,80.12472985489349
257.12446370565533,745,80.44631973745898
257.88288770915693,745,79.14328481295081
258.66003823126357,764,78.15409061721138
259.4278254940677,783,78.48372024684102
260.1768862382668,773,80.13339587242027
260.90722046386094,754,81.82487512487512
261.62819143015264,735,82.16284980841942
262.36788891504926,726,81.14860479417442
263.12631291855087,745,80.79296043853006
263.85664714414503,764,81.49524549524548
264.57761811043673,735,82.16284980841942
265.31731559533335,726,79.61544372612963
266.12255589534743,745,76.14791125859715
266.9465227139665,811,74.844876334089
267.72367323607307,830,76.37803740213377
268.48209723957467,783,77.53388155797794
269.26861102098377,764,76.35066593687283
270.08321458030036,792,73.45282303902994
270.93527117682686,820,73.15366337516438
271.7311482175384,858,74.65071972503823
272.49893548034254,801,76.30760401721663
273.29481252105415,773,76.30760401721663
274.0906895617657,801,75.09603283173735
274.8959298617798,801,75.7015608260676
275.6730803838864,811,77.61012374490602
276.41277786878305,783,79.14328481295081
277.17120187228466,745,79.77871542428504
277.92962587578626,764,79.1111111111111
278.6880498792879,764,78.78952122854561
279.45583714209204,764,79.45712554171955
280.19553462698866,773,80.12472985489349
280.9352321118853,745,80.44631973745898
281.69365611538694,745,79.45712554171955
282.46144337819106,764,78.15409061721138
283.23859390029764,773,78.48372024684102
283.9876546444968,783,79.13493975903614
284.7367153886959,754,80.4379746835443
285.47641287359255,754,80.4379746835443
286.2254736177917,745,80.7759493670886
286.9651711026883,754,81.84323784143903
287.6767788096775,745,84.0081027063039
288.3696599980617,716,84.71038776301933
289.0906309643534,698,82.97549497549497
289.849054967855,726,80.8106301106301
290.59811571205415,764,80.10834505391466
291.3378131969508,754,80.7759493670886
292.0775106818474,745,80.12472985489349
292.8452979446515,745,78.51532659992061
293.6318117260606,773,76.60676368108219
294.42768876677223,792,76.92835356364768
295.18611277027384,801,78.88439751969163
295.916446995868,764,81.13960113960114
296.64678122146216,735,81.46923076923076
297.3958419656613,735,80.45498575498576
298.1542659691629,754,80.10834505391466
298.89396345405953,764,80.79296043853006
299.6242976796537,745,82.9025900681597
300.3265421273404,735,83.24923076923076
301.0568763529345,707,82.23498575498576
301.8153003564362,735,78.88439751969163
302.61117739714774,764,76.62919389978212
303.40705443785936,801,76.95882352941176
304.15611518205844,801,78.86738644825019
304.8958126669551,754,80.4379746835443
305.64487341115426,745,80.10834505391466
306.40329741465587,754,79.44074074074072
307.16172141815747,764,79.77871542428504
307.90141890305415,764,80.79296043853006
308.6317531286483,745,82.16284980841942
309.35272409493996,735,81.82487512487512
310.1017848391391,726,80.48904022806461
310.8695721019432,754,77.58598979013045
311.6748124019573,773,76.62092954916659
312.4519629240639,811,77.27214906136172
313.201023668263,783,78.48372024684102
313.96881093106714,754,78.48372024684102
314.7459614531737,773,77.21229167541244
315.5324752345828,783,76.8984509466437
316.3096257566894,792,77.86351118760757
317.05868650088854,783,80.17519949929587
317.77965746718024,754,81.47823442380404
318.51935495207687,726,81.47823442380404
319.268415696276,745,79.47291444258045
320.0455662183826,754,78.16987951807228
320.8227167404892,783,78.16987951807228
321.5717774846883,783,79.81955514365153
322.3021117102825,754,80.78461538461538
323.0511724544816,735,79.81955514365153
323.82832297658825,754,78.16987951807228
324.60547349869483,783,77.84024988844266
325.36389750219644,783,79.14328481295081
326.1035949870931,764,80.44631973745898
326.84329247198974,745,80.7759493670886
327.5923532161889,745,79.47291444258045
328.36950373829546,754,78.80531012940651
329.1279277417971,783,78.80531012940651
329.87698848599626,764,80.8106301106301
330.5979594522879,754,82.54552289815447
331.3095671592771,726,82.88349758169878
332.0492646441737,716,82.18121252498335
332.7889621290704,745,81.11392405063292
333.528659613967,745,81.460564751704
334.2589938395612,745,82.9025900681597
334.96123828724785,735,84.34461538461538
335.6634827349346,707,84.70025974025972
336.3844537012262,707,83.60487512487512
337.1147879268204,726,82.16284980841942
337.854485411717,735,80.47137055596457
338.6222726745211,745,80.12472985489349
339.36197015941775,773,80.82701491160893
340.08294112570945,745,82.16284980841942
340.8132753513036,726,82.16284980841942
341.55297283620024,735,81.80720545277508
342.2833070617944,745,81.460564751704
343.023004546691,735,82.9025900681597
343.72524899437775,745,84.38283954840917
344.41813018276196,707,85.82486486486485
345.1203746304486,698,85.0851246051246
345.84134559674027,707,83.25823442380404
346.58104308163695,726,83.6430992886689
347.27392427002115,745,85.16311352101191
347.95744219910284,698,85.16311352101191
348.69713968399947,688,83.33622333969134
349.43683716889615,745,80.44631973745898
350.19526117239775,745,80.44631973745898
350.93495865729443,764,79.77871542428504
351.69338266079603,745,83.49285209616819
352.35817407127274,764,85.71515138522662
353.0416920003545,669,86.38275569840056
353.7813894852511,688,82.6686190265174
354.5398134887527,745,78.53775681862055
355.33569052946433,764,77.87015250544661
356.09411453296593,801,80.3646469999411
356.78699572135014,764,81.28401572304011
357.55478298415426,698,79.75085465499532
358.36002328416834,773,74.88598979013045
359.19335336208985,811,74.57214906136171
359.97050388419643,839,75.78372024684101
360.73829114700055,783,81.04399421944375
361.4218090760823,773,84.17391932527246
362.1146902644665,688,85.16311352101191
362.8543877493631,698,82.27320991877954
363.61281175286473,745,79.45712554171955
364.38059901566885,764,80.89915085817523
365.0828434633556,773,82.26904022806461
365.8038144296472,707,82.92025974025972
366.55287517384636,726,78.712987012987
367.3768419924654,754,75.5244514106583
368.19144555178195,830,73.37617554858934
369.0060491110985,820,77.96831314072693
369.6989302994827,820,81.52185216069063
370.4105380064719,698,85.83499288762445
371.1034191948561,716,82.70506778179573
371.88056971696267,698,81.63777930744531
372.62026720185935,783,76.77291444258044
373.45359727978087,745,74.25536598789213
374.3150171356099,839,73.2661717921527
375.082804398414,867,76.65078717676809
375.81313862400816,773,79.1683356314564
376.59028914611474,735,78.2489669083574
377.38616618682636,783,76.59929128277817
378.16331670893294,801,77.56435152374202
378.9123774531321,783,80.17519949929587
379.6333484194237,754,82.92025974025972
380.33559286711045,726,83.25823442380404
381.0752903520071,707,81.88834505391466
381.8337143555087,745,79.45712554171955
382.6015016183128,764,78.46793134598012
383.3692888811169,773,78.46793134598012
384.1277128846185,773,80.52441401606998
384.8393205916077,764,81.86024891288048
385.56965481720187,716,81.86024891288048
386.3280788207035,735,79.48992551402189
387.1052293428101,764,78.47568049977687
387.8636533463117,783,78.80531012940651
388.61271409051085,764,80.8106301106301
389.33368505680255,754,82.92025974025972
390.0359295044892,726,83.96051948051948
390.75690047078086,707,82.92025974025972
391.50596121498,726,80.48904022806461
392.2737484777841,754,78.79756097560974
393.04153574058824,773,79.13553565915406
393.78123322548487,773,80.82701491160893
394.50220419177657,745,82.88349758169878
395.21381189876575,726,83.23013828276986
395.94414612435986,716,82.18987854251012
396.693206868559,735,80.13339587242027
397.4609941313631,754,79.44878048780487
398.21005487556226,773,79.11915085817523
398.96847887906387,754,77.07037037037037
399.80180895698544,764,77.40834505391467
400.54150644188206,839,75.87518398586988
401.34674674189614,745,77.30375541444131
402.13326052330524,811,76.63615110126737
402.89168452680684,792,79.53920153920154
403.61265549309854,764,81.49524549524548
404.34298971869265,726,81.82487512487512
405.0920504628918,735,80.78461538461538
405.84111120709093,754,80.4379746835443
406.5808086919876,754,81.84323784143903
407.29241639897674,745,82.88349758169878
408.01338736526844,716,82.88349758169878
408.75308485016507,726,80.51317418284019
409.5302353722717,745,79.14328481295081
410.2886593757733,783,79.84556986966624
411.00963034206495,764,81.85088985088984
411.73060130835665,726,82.51849416406378
412.4702987932533,726,81.47823442380404
413.2193595374524,745,80.4379746835443
413.96842028165156,754,81.14025974025972
414.6893912479432,754,82.18051948051948
415.4103622142349,726,84.34538434538433
416.10324340261906,726,84.71038776301933
416.81485110960824,698,84.35474340737498
417.5451853352024,716,82.87449392712551
418.27551956079657,735,82.87449392712551
418.98712726778575,735,83.96987854251012
419.6893717154724,716,84.32552289815447
420.4103426817641,707,83.60487512487512
421.1406769073583,726,81.82487512487512
421.88973765155737,735,81.1225900681597
422.62943513645405,754,81.47823442380404
423.3504061027457,745,82.88349758169878
424.0620138097349,726,83.23013828276986
424.79234803532904,716,82.87449392712551
425.5226822609232,735,82.15384615384616
426.25301648651737,735,81.46923076923076
427.0020772307165,735,81.82487512487512
427.72304819700815,754,82.54552289815447
428.43465590399734,726,83.23013828276986
429.1649901295915,716,82.87449392712551
429.89532435518566,735,81.46923076923076
430.6443850993848,735,80.13339587242027
431.41217236218887,754,79.44878048780487
432.161233106388,773,80.13339587242027
432.8915673319822,754,80.78461538461538
433.6406280761813,735,81.1225900681597
434.38032556107794,754,79.78675517134917
435.14811282388206,745,79.45712554171955
435.9065368273837,773,79.80376624279063
436.6368710529778,764,81.49524549524548
437.3578420192695,735,81.82487512487512
438.10690276346867,726,79.27746904258531
438.91214306348274,754,75.80993657505284
439.73610988210174,811,73.38266384778012
440.5600767007208,830,74.28039430449068
441.33722722282744,830,77.04564171530771
442.07692470772406,783,79.14328481295081
442.83534871122566,745,79.14328481295081
443.6124992333323,764,78.15409061721138
444.3802864961364,783,76.91313201154689
445.176163536848,773,76.60676368108219
445.9626773182571,801,77.25798319327731
446.7117380624562,792,79.51318681318682
447.4420722880504,754,80.13339587242027
448.2098595508545,735,79.1683356314564
448.9870100729611,773,77.21229167541244
449.7735238543702,783,76.8984509466437
450.55067437647676,792,78.20148587115187
451.29037186137344,783,81.25291444258045
451.9926163090601,745,83.9979746835443
452.6948607567468,707,84.34461538461538
453.42519498234094,707,81.91339587242027
454.19298224514506,735,79.1683356314564
454.97013276725164,773,77.83250073464589
455.73792003005576,783,78.15409061721138
456.4963440335574,773,79.11915085817523
457.24540477775656,764,79.77037037037036
457.99446552195565,754,79.13493975903613
458.7716160440623,754,77.56435152374202
459.56749308477384,783,76.59929128277817
460.3446436068804,801,77.56435152374202
461.09370435107957,783,80.17519949929587
461.81467531737127,754,83.3051246051246
462.5075565057555,726,85.0851246051246
463.20980095344214,698,84.38283954840917
463.94949843833876,707,81.88834505391466
464.7079224418404,745,79.77871542428504
465.466346445342,764,78.78952122854561
466.23413370814615,764,78.78952122854561
466.99255771164775,773,79.80376624279063
467.7228919372419,764,81.13960113960114
468.4532261628361,735,81.46923076923076
469.2022869070352,735,80.13339587242027
469.97007416983934,754,78.48372024684102
470.7472246919459,773,78.48372024684102
471.49628543614506,783,80.17519949929587
472.2172564024367,754,83.3051246051246
472.9101375908209,726,85.46998946998946
473.6030187792051,698,85.11434511434511
474.3333530047993,698,83.28745493302455
475.0730504896959,735,80.47137055596457
475.8408377525,745,78.82169493038532
476.61798827460666,773,77.83250073464589
477.3857755374108,783,78.48372024684102
478.13483628160986,773,79.78675517134917
478.87453376650654,754,79.78675517134917
479.64232102931066,745,77.63847930928021
480.4569245886272,773,76.33544438477205
481.2340751107338,820,76.33544438477205
482.0018623735379,783,78.48372024684102
482.75092311773705,773,80.8540436456996
483.46253082472623,754,82.91052631578947
484.1741385317154,716,83.24850099933377
484.91383601661204,716,80.57180927001048
485.70034979802114,745,77.59595787682161
486.49622683873275,792,75.68739495798319
487.2921038794443,801,75.38823529411765
488.08798092015587,801,76.95882352941176
488.837041664355,801,79.56967150496561
489.5580126306467,754,80.8106301106301
490.3164366341483,726,79.84556986966625
491.0935871562549,764,78.15409061721138
491.861374419059,783,78.15409061721138
492.6197984225607,773,79.45712554171955
493.3594959074573,764,80.79296043853006
494.08983013305146,745,84.50709711041321
494.7546215435282,735,87.55362946912243
495.41941295400494,669,90.25352112676056
496.08420436448165,669,86.5393844548774
496.84262836798325,669,86.12154407929054
497.5167830377625,764,85.7037037037037
498.1909377075417,679,89.0
498.86509237732093,679,86.37130801687763
499.60478986221756,679,84.08925673482636
500.3351240878117,745,81.460564751704
501.0748215727084,735,83.68286404076242
501.7583395017901,745,84.77824865614704
502.46058394947676,688,84.1106443429731
503.2190079529784,707,81.22074074074072
503.97743195648,764,78.47568049977687
504.7545824785866,764,78.15409061721138
505.5223697413907,783,80.26372024684102
506.22461418907744,773,83.78905446040761
506.90813211815913,707,87.00054794520547
507.5916500472408,688,83.94911937377691
508.3781638286499,688,80.4237851602103
509.15531435075656,792,76.592082616179
509.94182813216565,783,76.592082616179
510.7283419135747,792,77.22751322751323
511.48676591707635,792,79.90420495683654
512.1983736240655,764,79.02735766619614
513.0129771833821,716,77.2087114337568
513.8275807426986,820,73.65517241379311
514.6421843020152,820,73.94065757818765
515.4474246020293,820,75.12387319929276
516.2245751241359,811,77.95676444597711
516.95490934973,783,80.85981488391127
517.6758803160217,735,82.16284980841942
518.4155778009183,726,80.51317418284019
519.192728323025,745,78.50785420161658
519.9698788451316,783,76.89845094664372
520.7563926265407,783,76.00072048993314
521.5616329265547,792,76.31456121870188
522.3294201893588,811,77.58598979013044
523.0784809335579,773,78.79756097560974
523.8462681963621,754,77.58598979013045
524.6515084963761,773,76.01540155483633
525.4473855370877,811,75.09603283173735
526.2432625777993,801,76.62919389978214
527.0016865813009,801,79.24004187533598
527.7226575475926,764,82.21589326852484
528.4342652545818,726,83.23013828276986
529.1645994801759,716,81.53865903031499
529.93238674298,735,80.13339587242027
530.6814474871792,773,79.11915085817523
531.4398714906807,754,80.10834505391466
532.1795689755775,764,80.79296043853006
532.9099032011716,745,82.16284980841942
533.6308741674633,735,81.49524549524548
534.3892981709648,726,79.84556986966625
535.1664486930715,764,77.23472189411238
535.962325733783,783,76.29292295231346
536.7488395151921,801,76.29292295231345
537.5259900372987,792,78.20148587115187
538.2656875221954,783,80.87817760047517
538.9772952291846,745,83.62323784143904
539.6795396768713,716,84.32552289815447
540.4005106431629,707,82.5906301106301
541.1589346466645,726,80.48100048100048
541.9173586501662,764,78.78952122854561
542.6851459129703,764,78.46793134598012
543.4529331757744,773,79.8378207158695
544.173904142066,773,81.17365561268
544.9042383676602,726,82.16284980841942
545.6439358525569,735,80.47137055596457
546.4117231153609,745,79.45712554171955
547.1701471188626,773,78.78952122854561
547.9285711223642,764,80.48100048100048
548.649542088656,764,82.21589326852484
549.361149795645,726,83.5857826384142
550.0821207619367,716,82.54552289815447
550.8311815061359,726,81.82487512487512
551.5615157317301,754,80.78461538461538
552.3105764759291,735,81.1225900681597
553.0502739608258,754,80.7759493670886
553.7899714457225,745,80.7759493670886
554.5390321899216,745,79.78675517134917
555.3068194527257,754,78.79756097560974
556.0746067155299,773,79.13553565915406
556.8143042004265,773,80.47137055596457
557.5446384260206,745,81.1225900681597
558.2936991702197,735,81.1225900681597
559.0333966551163,754,79.16654611211573
559.8199104365254,745,79.16654611211573
560.5689711807246,792,79.16654611211573
561.3086686656212,754,80.10834505391466
562.0670926691229,745,79.14328481295081
562.8442431912295,764,76.94251943173208
563.6494834912436,783,76.00072048993314
564.4359972726527,811,76.00072048993314
565.2131477947593,792,78.20148587115187
565.9528452796559,783,79.81088912612475
566.6925427645525,745,81.81620910734836
567.4135137308442,745,82.16284980841942
568.1438479564383,726,81.82487512487512
568.8929087006375,735,79.21402714932127
569.6887857413491,754,80.69427662957074
570.3816669297332,801,81.37889201418614
571.1120011553274,698,80.24948024948026
571.945331233249,735,78.76923076923077
572.6756654588431,839,76.81318681318682
573.4621792402522,735,77.9425985778927
574.2580562809638,792,76.92835356364768
575.0164802844654,801,78.88439751969163
575.7468145100596,764,81.13960113960114
576.4771487356537,735,81.80720545277508
577.2168462205503,735,81.1225900681597
577.9659069647495,745,79.78675517134917
578.7336942275537,754,79.44878048780487
579.4827549717528,773,79.78675517134917
580.2224524566494,754,80.7759493670886
580.962149941546,745,79.81088912612475
581.7393004636526,745,77.90232620728632
582.5351775043642,783,75.7015608260676
583.3404178043783,801,76.01540155483633
584.1082050671824,811,77.92396447367476
584.8479025520791,773,79.45712554171955
585.6063265555807,745,79.77871542428504
586.3647505590823,764,79.1111111111111
587.1231745625839,764,79.77871542428504
587.8628720474806,764,81.14860479417442
588.5838430137723,745,82.51849416406378
589.304813980064,726,82.18051948051948
590.053874724263,726,80.48904022806461
590.8216619870672,754,78.1773519163763
591.6081757684763,773,77.21229167541244
592.3853262905828,792,76.8984509466437
593.1624768126894,783,78.5078542016166
593.902174297586,783,78.50785420161658
594.6793248196927,745,77.90232620728632
595.4752018604042,783,77.56435152374202
596.2242626046034,801,79.56967150496561
596.9452335708951,754,82.18051948051948
597.6662045371868,726,82.86513486513486
598.3965387627809,726,81.49524549524548
599.1549627662826,735,79.48992551402189
599.9321132883891,764,78.47568049977687
600.6905372918908,783,79.48992551402189
601.4208715174849,764,79.18355718355718
602.207385298894,735,78.24175824175825
602.9938990803031,792,76.28571428571429
603.7804128617122,792,76.90592334494774
604.5482001245163,792,78.1773519163763
605.2972608687154,773,79.78675517134917
606.036958353612,754,79.78675517134917
606.8047456164162,745,78.21616693605506
607.6006226571278,773,76.60676368108219
608.3871364385368,801,76.60676368108219
609.154923701341,792,78.8619673009917
609.8852579269351,773,79.48217636022514
610.6530451897393,735,79.48217636022514
611.4208324525433,773,78.46793134598012
612.179256456045,773,79.11915085817523
612.9283172002441,764,80.8106301106301
613.6492881665357,754,81.82487512487512
614.3796223921299,726,81.82487512487512
615.1286831363291,735,80.45498575498576
615.8871071398307,754,79.77037037037036
616.6361678840298,764,80.45498575498576
617.366502109624,754,82.18987854251012
618.0781098166132,735,83.23013828276986
618.7990807829049,716,83.23013828276986
619.529415008499,726,82.16284980841942
620.2691124933956,735,81.460564751704
621.0088099782922,745,81.81620910734836
621.7297809445839,745,82.51849416406378
622.4507519108756,726,82.51849416406378
623.1904493957722,726,81.14860479417442
623.9488733992739,745,79.77871542428504
624.7072974027755,764,79.1111111111111
625.4657214062771,764,79.77871542428504
626.2054188911737,764,81.14860479417442
626.9263898574654,745,81.81620910734836
627.6660873423621,726,81.47823442380404
628.4151480865612,745,80.7759493670886
629.1548455714578,754,81.47823442380404
629.8758165377495,745,82.88349758169878
630.5874242447387,726,83.23013828276986
631.3177584703328,716,82.52785322605442
632.0574559552294,735,81.1225900681597
632.8065166994286,745,81.1225900681597
633.5368509250228,754,81.46923076923076
634.2671851506169,735,82.50949050949052
634.9881561169086,735,82.86513486513486
635.7091270832003,726,83.2207792207792
636.4300980494919,726,82.18051948051948
637.179158793691,726,82.18051948051948
637.9001297599827,754,82.18051948051948
638.6211007262744,726,82.51849416406378
639.3607982111711,726,81.81620910734836
640.1004956960677,745,81.11392405063292
640.8401931809643,745,81.460564751704
641.5705274065585,745,82.52785322605442
642.2821351135477,735,83.96987854251012
642.9843795612344,716,84.32552289815447
643.705350527526,707,83.60487512487512
644.4356847531202,726,81.82487512487512
645.1847454973193,735,81.46923076923076
645.9150797229134,754,81.1225900681597
646.6547772078101,735,81.1225900681597
647.4038379520092,745,79.16654611211573
648.1903517334183,754,78.1773519163763
648.9581389962225,792,78.51532659992061
649.6978364811191,773,79.78675517134917
650.4468972253183,745,79.78675517134917
651.2146844881223,754,79.11915085817523
651.973108491624,773,79.11915085817523
652.7221692358231,764,80.8106301106301
653.4431402021148,754,82.18051948051948
654.1641111684064,726,82.51849416406378
654.9038086533031,726,81.47823442380404
655.6528693975022,745,80.4379746835443
656.4019301417013,754,80.4379746835443
657.141627626598,754,80.4379746835443
657.8906883707971,745,79.78675517134917
658.6584756336013,754,78.79756097560974
659.4262628964053,773,77.83250073464589
660.203413418512,773,77.83250073464589
660.9712006813161,783,79.1683356314564
661.7015349069102,773,81.17365561268
662.4225058732019,735,82.50949050949052
663.1528400987961,726,82.16284980841942
663.8925375836927,735,81.460564751704
664.6322350685894,745,81.11392405063292
665.371932553486,745,81.11392405063292
666.1116300383826,745,81.11392405063292
666.8513275232792,745,80.44631973745898
667.6097515267809,745,79.77871542428504
668.3681755302825,764,79.1111111111111
669.1265995337842,764,80.48100048100048
669.8475705000758,764,81.49524549524548
670.57790472567,726,82.16284980841942
671.3176022105666,735,81.460564751704
672.0572996954633,745,81.11392405063292
672.7969971803599,745,82.18121252498335
673.5086048873491,745,83.62323784143904
674.2108493350357,716,84.32552289815447
674.9318203013274,707,83.25823442380404
675.6715177862241,726,81.81620910734836
676.4112152711207,745,80.44631973745898
677.1696392746223,745,80.79296043853006
677.8999735002166,764,81.13960113960114
678.6303077258107,735,80.81801125703565
679.3980949886147,735,79.1683356314564
680.1752455107214,773,77.21229167541244
680.9617592921305,783,77.86351118760757
681.7108200363296,792,79.51318681318682
682.4411542619238,754,81.82487512487512
683.1621252282155,735,82.50949050949052
683.8924594538096,726,81.82487512487512
684.6415201980087,735,80.78461538461538
685.3905809422079,754,80.1
686.139641686407,754,80.4379746835443
686.8793391713036,754,80.4379746835443
687.6283999155028,745,80.10834505391466
688.3868239190044,754,78.49894179894179
689.1733377004135,764,78.49894179894179
689.9223984446127,792,79.51318681318682
690.6527326702068,754,81.1225900681597
691.3924301551034,735,80.15752982719583
692.16958067721,745,78.82169493038532
692.9373679400142,783,77.51866000587715
693.7145184621207,773,77.83250073464589
694.4823057249248,783,79.52397998710074
695.2032766912165,773,81.52929996832435
695.9242476575082,726,82.18051948051948
696.6733084017073,726,80.48904022806461
697.4410956645114,754,78.79756097560974
698.2088829273156,773,79.13553565915406
698.9485804122122,773,80.12472985489349
699.6882778971088,745,80.7759493670886
700.437338641308,745,79.47291444258045
701.2144891634146,754,78.80531012940651
701.9729131669162,783,78.80531012940651
702.7219739111154,764,80.8106301106301
703.442944877407,754,82.54552289815447
704.1545525843961,726,83.5857826384142
704.8755235506878,716,82.54552289815447
705.624584294887,726,80.17519949929587
706.4017348169936,754,78.16987951807228
707.1788853391001,783,77.51866000587717
707.9466726019043,783,78.82169493038532
708.6863700868009,773,80.12472985489349
709.4260675716976,745,80.7759493670886
710.1751283158967,745,80.4379746835443
710.9241890600958,754,80.4379746835443
711.6638865449925,754,81.84323784143903
712.3754942519816,745,83.24850099933377
713.0871019589708,716,83.9507860560492
713.8080729252625,716,82.54552289815447
714.5571336694617,726,80.8106301106301
715.3155576729632,754,78.80531012940651
716.0927081950699,764,78.80531012940651
716.8417689392691,783,80.17519949929587
717.5627399055606,754,81.47823442380404
718.3024373904573,726,81.14860479417442
719.0608613939589,745,79.45712554171955
719.8286486567631,764,78.15409061721138
720.6057991788697,773,78.48372024684102
721.3548599230688,783,80.17519949929587
722.0758308893604,754,81.14025974025972
722.8248916335596,726,80.48904022806461
723.5926788963637,754,78.79756097560974
724.3604661591678,773,77.83250073464589
725.1376166812744,773,79.1683356314564
725.8679509068686,783,80.50417052826691
726.5982851324627,735,81.46923076923076
727.3473458766618,735,80.45498575498576
728.1057698801635,754,79.11915085817523
728.8735571429676,764,78.15409061721138
729.6507076650742,773,78.48372024684102
730.3997684092733,783,79.47291444258045
731.13946589417,754,80.4379746835443
731.8885266383691,745,80.10834505391466
732.6469506418707,754,78.49894179894179
733.4334644232798,764,77.22751322751323
734.2199782046889,792,77.22751322751323
734.9784022081906,792,78.8369164824861
735.7180996930872,764,81.14860479417442
736.4390706593789,745,82.16284980841942
737.169404884973,726,81.82487512487512
737.9184656291721,735,80.45498575498576
738.6768896326738,754,80.10834505391466
739.4165871175704,764,80.44631973745898
740.156284602467,745,80.7759493670886
740.9053453466662,745,79.78675517134917
741.6731326094703,754,77.87819225251076
742.4690096501819,773,76.91313201154689
743.2461601722885,801,77.2347218941124
744.0045841757901,783,79.84556986966624
744.7255551420818,764,81.49524549524548
745.4558893676759,726,82.16284980841942
746.1955868525725,735,81.460564751704
746.9352843374692,745,80.44631973745898
747.6937083409708,745,81.14860479417442
748.4146793072625,764,81.85088985088984
749.1356502735542,726,82.18051948051948
749.8847110177533,726,80.48904022806461
750.6524982805574,754,79.11915085817523
751.4109222840591,773,79.45712554171955
752.1506197689557,764,80.79296043853006
752.8809539945498,745,81.1225900681597
753.630014738749,735,80.45498575498576
754.3884387422506,754,79.44074074074072
755.1468627457523,764,79.77871542428504
755.8865602306489,764,81.51360821180941
756.5981679376381,745,81.84323784143903
757.3472286818372,716,80.8540436456996
758.1150159446413,754,78.79756097560974
758.8828032074454,773,78.79756097560974
759.6318639516445,773,80.8540436456996
760.3434716586337,754,83.28526315789472
761.0457161063205,716,83.96987854251012
761.7760503319146,707,83.24923076923076
762.5063845575087,735,81.46923076923076
763.2554453017078,735,81.82487512487512
763.9764162679995,754,81.82487512487512
764.7067504935936,726,81.49524549524548
765.4651744970953,735,79.80376624279063
766.2329617598995,764,78.46793134598012
767.0007490227035,773,79.13553565915406
767.7404465076002,773,81.19201832924392
768.4520542145893,745,83.24850099933377
769.1636619215785,716,83.24850099933377
769.9033594064751,716,81.84323784143903
770.6524201506743,745,79.78675517134917
771.4202074134785,754,78.1773519163763
772.2067211948876,773,78.1773519163763
772.9557819390866,792,79.16654611211573
773.6954794239833,754,80.4379746835443
774.4445401681825,745,79.47291444258045
775.221690690289,754,78.16987951807228
775.9988412123956,783,76.89845094664372
776.7853549938047,783,77.53388155797794
777.5437789973064,792,79.53920153920154
778.264749963598,764,82.5906301106301
778.9669944112846,726,83.96051948051948
779.6879653775763,707,82.92025974025972
780.4370261217755,726,80.17519949929587
781.2141766438821,754,77.86351118760757
782.0006904252912,783,76.8984509466437
782.7778409473977,792,76.00072048993314
783.5830812474119,783,75.12387319929276
784.3976848067284,811,74.2261427425822
785.2029251067424,820,75.4377139280615
785.9707123695466,811,77.92396447367476
786.7104098544432,773,79.45712554171955
787.4688338579449,745,79.45712554171955
788.236621120749,764,78.46793134598012
789.0044083835531,773,78.14634146341463
789.7721956463572,773,79.13553565915406
790.5118931312538,773,80.82701491160893
791.2328640975455,745,81.47823442380404
791.9819248417447,726,80.48904022806461
792.7497121045487,754,78.79756097560974
793.5174993673529,773,78.79756097560974
794.266560111552,773,79.44878048780487
795.0156208557512,754,79.44878048780487
795.7834081185553,754,78.1773519163763
796.5699218999644,773,78.1773519163763
797.3189826441635,792,79.16654611211573
798.0586801290601,754,80.4379746835443
798.8077408732593,745,80.10834505391466
799.5661648767609,754,80.10834505391466
800.3058623616575,764,81.14860479417442
801.0268333279492,745,82.51849416406378
801.7478042942408,726,82.18051948051948
802.49686503844,726,80.48904022806461
803.2646523012442,754,78.79756097560974
804.0324395640482,773,77.83250073464589
804.8095900861548,773,78.15409061721138
805.5680140896565,783,79.48992551402189
806.2983483152506,764,80.45498575498576
807.0474090594497,735,80.13339587242027
807.8151963222539,754,79.44878048780487
808.564257066453,773,80.13339587242027
809.2945912920471,754,81.1225900681597
810.0342887769438,735,80.47137055596457
810.8020760397479,745,80.47137055596457
811.532410265342,773,80.13339587242027
812.2814710095412,735,81.1225900681597
813.0211684944378,754,79.78675517134917
813.788955757242,745,79.45712554171955
814.5473797607435,773,78.78952122854561
815.3058037642452,764,79.1111111111111
816.0642277677468,764,79.44074074074072
816.813288511946,764,78.80531012940651
817.5904390340526,754,78.16987951807228
818.3675895561591,783,76.89845094664372
819.1541033375682,783,78.20148587115187
819.8938008224649,792,80.20680585237548
820.6147717887566,745,81.14860479417442
821.3731957922582,726,80.15941059843499
822.1409830550623,764,78.46793134598012
822.9087703178665,773,78.46793134598012
823.667194321368,773,77.84772228674667
824.4537081027771,764,76.07166907166906
825.2776749213962,792,75.12987012987013
826.0641887028053,830,75.75007918910357
826.8319759656093,792,76.90592334494774
827.6184897470184,773,76.90592334494774
828.4050035284275,792,76.90592334494774
829.1727907912317,792,78.8619673009917
829.9031250168258,773,80.47137055596457
830.6428225017224,735,80.15752982719583
831.4199730238291,745,78.82169493038532
832.1877602866332,783,78.15409061721138
832.9461842901349,773,79.80376624279063
833.676518515729,764,80.12535612535612
834.4349425192306,735,79.48992551402189
835.2120930413372,764,77.84024988844264
835.9892435634438,783,78.16987951807228
836.7383043076429,783,80.17519949929587
837.4592752739346,754,81.82487512487512
838.1896094995287,726,82.16284980841942
838.9293069844254,735,81.1225900681597
839.6783677286245,745,81.1225900681597
840.4087019542187,754,81.46923076923076
841.1390361798128,735,81.80720545277508
841.8787336647094,735,81.1225900681597
842.6277944089086,745,80.4379746835443
843.3768551531077,754,80.78461538461538
844.107189378702,754,82.18987854251012
844.8187970856911,735,82.52785322605442
845.5584945705878,716,82.18121252498335
846.2981920554844,745,81.11392405063292
847.037889540381,745,81.81620910734836
847.7588605066727,745,83.25823442380404
848.4611049543594,726,84.70025974025972
849.163349402046,707,83.66
849.9124101462452,707,81.88
850.6614708904443,754,80.4379746835443
851.401168375341,754,81.84323784143903
852.1127760823301,745,83.24850099933377
852.8243837893193,716,84.31578947368419
853.5359914963085,716,83.9507860560492
854.2569624626002,716,83.5857826384142
854.9779334288919,726,83.96051948051948
855.6801778765786,726,85.48053371286247
856.3636958056602,707,86.60513883746759
857.0565769940445,688,86.60513883746759
857.7588214417311,698,84.38283954840917
858.4985189266278,707,82.2179746835443
859.2475796708269,745,80.4379746835443
859.996640415026,754,80.78461538461538
860.7269746406203,754,81.82487512487512
861.4479456069118,735,82.50949050949052
862.1782798325061,726,83.60487512487512
862.8805242801927,735,85.53128205128205
863.554678949972,707,87.81333333333333
864.2288336197512,679,84.76190476190476
865.0153474011603,679,79.64696223316913
865.8299509604768,792,75.4088669950739
866.6164647418859,820,79.2405695391052
867.2999826709677,792,79.52605470349974
868.1052229709817,688,80.46785364529867
868.8636469744833,811,78.94783941295569
869.5846179407749,764,81.85088985088984
870.3055889070666,726,82.86513486513486
871.0359231326607,726,82.16284980841942
871.7756206175575,735,81.1225900681597
872.5246813617566,745,80.10834505391466
873.2831053652582,754,80.10834505391466
874.0228028501548,764,80.44631973745898
874.7625003350515,745,79.81088912612475
875.5396508571581,745,77.90232620728632
876.3355278978696,783,75.7015608260676
877.1407681978837,801,75.09603283173735
877.9366452385954,811,76.33699143740182
878.6950692420969,801,78.53775681862055
879.4347667269935,764,80.10834505391466
880.1838274711927,745,79.78675517134917
880.9516147339968,754,78.1773519163763
881.738128515406,773,77.21229167541244
882.5152790375125,792,77.53388155797794
883.2737030410142,783,79.48992551402189
884.0040372666083,764,80.12535612535612
884.76246127011,735,79.80376624279063
885.530248532914,764,77.84772228674667
886.3167623143231,773,76.60676368108219
887.1126393550347,792,77.9425985778927
887.8429735806288,801,74.99823767563706
888.7324832143653,735,77.9740890688259
889.4440909213545,896,75.14119782214155
890.2586944806711,716,77.49419659815135
891.0639347806851,820,75.12387319929276
891.8410853027917,811,76.30708882039787
892.6182358248983,783,77.20481927710843
893.395386347005,783,76.89845094664372
894.181900128414,783,77.53388155797794
894.9403241319156,792,79.18355718355718
895.6706583575099,764,80.79296043853006
896.4103558424065,735,80.47137055596457
897.1781431052106,745,78.82169493038532
897.9552936273171,773,78.15409061721138
898.7137176308188,783,79.14328481295081
899.4534151157154,764,80.44631973745898
900.193112600612,745,80.12472985489349
900.9608998634162,745,78.82169493038532
901.7380503855228,773,78.15409061721138
902.4964743890245,783,79.14328481295081
903.2361718739211,764,80.44631973745898
903.9758693588177,745,80.44631973745898
904.7342933623194,745,79.45712554171955
905.5020806251234,764,77.84772228674667
906.2885944065325,773,77.21229167541244
907.0657449286391,792,77.86351118760757
907.8148056728382,783,79.13493975903614
908.5638664170374,754,80.1
909.3129271612365,754,79.44878048780487
910.0807144240407,754,80.13339587242027
910.8110486496348,773,80.13339587242027
911.560109393834,735,80.45498575498576
912.3185333973356,754,78.80531012940651
913.0956839194422,764,77.84024988844264
913.8728344415488,783,77.84024988844266
914.6312584450504,783,79.14328481295081
915.3709559299471,764,80.44631973745898
916.1106534148437,745,81.11392405063292
916.8503508997403,745,79.50452079566004
917.6368646811494,745,77.89511754068717
918.4233784625585,792,77.22751322751323
919.1818024660602,792,77.84772228674667
919.9495897288642,764,77.54856262288112
920.7454667695758,773,76.30760401721663
921.5413438102875,801,75.09603283173735
922.3465841103015,801,76.01540155483633
923.1143713731057,811,78.27060517474584
923.8447055986998,773,80.81801125703565
924.5750398242939,735,81.46923076923076
925.324100568493,735,79.21402714932127
926.1199776092046,754,76.38113590263691
926.9345811685212,801,75.10970733120834
927.7210949499303,820,76.35066593687283
928.4795189534319,792,78.16931216931216
929.2379429569336,764,78.16931216931216
930.0244567383426,764,76.63615110126737
930.8296970383567,792,75.69435215946844
931.6162108197658,811,76.00072048993314
932.3933613418724,792,77.86351118760757
933.1424220860715,783,79.13493975903614
933.8914828302707,754,79.44878048780487
934.6592700930747,754,77.87819225251076
935.4551471337863,773,75.72991639044179
936.2697506931029,801,74.8105476673428
937.0656277338145,820,76.05150627300728
937.8240517373162,801,77.87015250544661
938.5824757408177,764,78.78952122854561
939.3502630036219,764,78.15409061721138
940.1274135257285,773,77.21229167541244
940.9139273071376,783,77.53388155797794
941.6723513106391,792,78.49894179894179
942.4214120548382,764,79.44074074074072
943.1798360583399,754,79.44074074074072
943.9382600618416,764,78.47568049977687
944.7154105839481,764,77.23472189411238
945.5112876246598,783,77.2347218941124
946.2697116281613,801,77.87015250544661
947.028135631663,764,78.47568049977687
947.8052861537695,764,76.65703426733754
948.6198897130861,783,74.83838803489822
949.4344932724027,820,74.83838803489822
950.2116437945093,820,76.98666389696717
950.9607045387085,783,80.17519949929587
951.681675505,754,81.47823442380404
952.4213729898968,726,81.14860479417442
953.1797969933983,745,78.8369164824861
953.9663107748074,764,78.49894179894179
954.7153715190066,792,78.49894179894179
955.4737955225082,754,75.79377462568951
956.3539418969422,764,74.82871438472566
957.1310924190487,886,71.42608594983916
958.0018755341803,783,71.92007299886784
958.8632953900093,877,71.61370466840313
959.6498091714184,867,74.3809024919554
960.426959693525,792,75.7152353255386
961.2415632528415,783,75.41607566167306
962.0374402935531,820,75.72991639044179
962.8052275563572,801,78.21616693605506
963.5449250412539,773,80.82701491160893
964.2658960075455,745,81.47823442380404
965.0149567517446,726,80.48904022806461
965.7827440145488,754,77.87819225251076
966.5786210552603,773,76.60676368108219
967.3651348366694,801,77.25798319327731
968.1141955808686,792,79.16654611211573
968.8538930657652,754,80.4379746835443
969.6029538099643,745,79.47291444258045
970.380104332071,754,78.48372024684102
971.1478915948751,783,78.48372024684102
971.8969523390742,773,80.48904022806461
972.6179233053659,754,82.54552289815447
973.3295310123551,726,83.23013828276986
974.0598652379492,716,81.86024891288048
974.8182892414509,735,80.45498575498576
975.56734998565,764,80.10834505391466
976.3070474705466,754,81.1225900681597
977.0373816961408,745,82.52785322605442
977.7489894031299,735,82.87449392712551
978.4793236287242,716,81.86024891288048
979.2377476322257,735,79.18355718355718
980.0242614136348,764,77.53388155797794
980.8014119357414,792,77.21229167541244
981.5691991985456,783,78.15409061721138
982.3276232020472,773,79.45712554171955
983.0673206869438,764,79.77871542428504
983.8257446904454,745,80.10834505391466
984.5748054346445,764,79.11915085817523
985.3425926974487,754,79.78675517134917
986.0822901823453,773,80.82701491160893
986.803261148637,745,81.81620910734836
987.5429586335337,726,81.47823442380404
988.2920193777328,745,79.78675517134917
989.0598066405369,754,78.79756097560974
989.827593903341,773,78.46793134598012
990.5860179068426,773,78.78952122854561
991.3444419103442,764,78.16931216931216
992.1309556917533,764,77.53388155797794
992.9081062138599,792,76.8984509466437
993.6852567359665,783,78.5078542016166
994.4249542208631,783,79.14328481295081
995.1833782243648,745,79.45712554171955
995.951165487169,764,78.46793134598012
996.718952749973,773,78.79756097560974
997.4680134941722,773,79.78675517134917
998.2077109790688,754,79.47291444258045
998.9848615011754,745,78.20148587115187
999.7713752825845,783,75.7152353255386
1000.585978841901,792,75.7152353255386
1001.3631293640077,820,76.33544438477205
1002.1309166268118,783,76.62092954916659
1002.9361569268259,773,75.72319909245603
1003.7413972268399,811,73.67441860465115
1004.5747273047615,811,74.57214906136171
1005.3518778268681,839,76.1053101294065
1006.1103018303696,783,77.53388155797794
1006.8968156117787,764,77.84772228674667
1007.6646028745829,792,78.1773519163763
1008.413663618782,773,79.78675517134917
1009.1533611036787,754,81.84323784143903
1009.8649688106678,745,83.62323784143904
1010.5672132583545,716,85.06526315789472
1011.2694577060412,707,87.04450704225351
1011.9342491165179,707,88.23117370892018
1012.6084037862971,669,87.49143344917992
1013.3293747525888,679,85.51218956482114
1014.040982459578,726,85.1057968707572
1014.7245003886597,716,86.6258111031002
1015.4080183177414,688,87.78082191780821
1016.0915362468231,688,87.78082191780821
1016.7750541759049,688,85.90516332982085
1017.505388401499,688,86.31155602388478
1018.1795430712782,735,86.31155602388479
1018.86306100036,679,89.01144768152292
1019.5278524108367,688,88.60505498745898
1020.2113703399184,669,85.71515138522662
1020.96979434342,688,82.3306443429731
1021.7188550876191,764,81.93523523523523
1022.4117362760034,754,84.04486486486485
1023.11398072369,698,83.39364535266974
1023.8817679864941,707,83.39364535266974
1024.5746491748782,773,81.28401572304011
1025.33307317838,698,84.1001001001001
1026.0259543667642,764,84.49550920783797
1026.709472295846,698,87.38541281007033
1027.3929902249276,688,86.26080768546521
1028.1139611912192,688,84.38514909747786
1028.8442954168133,726,82.16284980841942
1029.58399290171,735,83.68286404076242
1030.2675108307917,745,85.1631135210119
1030.960392019176,688,84.49550920783797
1031.7188160226776,698,82.61985061985061
1032.4491502482717,764,81.13960113960114
1033.1794844738658,735,84.0295047418335
1033.8630024029476,735,85.50975422208299
1034.5558835913318,688,83.25455060217348
1035.3517606320434,698,80.04305711737562
1036.1195478948475,801,77.22697274031563
1036.8873351576517,773,78.79756097560974
1037.6363959018508,773,81.22878048780487
1038.3386403495374,754,83.66
1039.0408847972242,707,84.34461538461538
1039.7712190228183,707,82.9025900681597
1040.510916507715,735,81.460564751704
1041.2506139926115,745,81.11392405063292
1041.9903114775082,745,81.11392405063292
1042.7300089624048,745,82.18121252498335
1043.441616669394,745,82.52785322605442
1044.1719508949882,716,82.52785322605442
1044.9116483798848,735,80.47137055596457
1045.679435642689,745,80.47137055596457
1046.409769868283,773,80.81801125703565
1047.1401040938772,735,81.80720545277508
1047.8798015787738,735,80.79296043853006
1048.6382255822755,745,79.77871542428504
1049.3966495857771,764,78.78952122854561
1050.1644368485813,764,78.46793134598012
1050.9322241113853,773,79.8378207158695
1051.653195077677,773,82.26904022806461
1052.3554395253636,726,84.70025974025972
1053.0576839730504,707,84.70025974025972
1053.778654939342,707,83.60487512487512
1054.5089891649363,726,80.55344655344655
1055.2955029463453,735,78.8619673009917
1056.0632902091495,792,78.8619673009917
1056.7936244347436,773,80.13339587242027
1057.5426851789427,735,80.45498575498576
1058.3011091824444,754,79.11915085817523
1059.0688964452486,764,78.46793134598012
1059.8366837080525,773,78.79756097560974
1060.5857444522517,773,80.13339587242027
1061.3160786778458,754,81.46923076923076
1062.0464129034401,735,81.46923076923076
1062.7954736476393,735,81.1225900681597
1063.5351711325359,754,79.47291444258045
1064.3123216546423,745,79.81088912612475
1065.052019139539,783,79.14328481295081
1065.8104431430406,745,76.6257363582625
1066.6718629988698,764,75.95813204508856
1067.4302870023714,867,78.84803564732093
1068.113804931453,764,82.3306443429731
1068.862865675652,688,83.34488935721812
1069.5931999012464,754,81.46923076923076
1070.3235341268405,735,81.80720545277508
1071.0632316117371,735,80.79296043853006
1071.8216556152388,745,80.10834505391466
1072.570716359438,764,80.45498575498576
1073.301050585032,754,81.46923076923076
1074.0313848106262,735,80.81801125703565
1074.7991720734303,735,79.48217636022514
1075.5669593362345,773,77.83250073464589
1076.344109858341,773,77.51866000587715
1077.1212603804477,783,78.85449490268766
1077.8515946060418,783,80.15752982719583
1078.5912920909384,735,81.1225900681597
1079.3403528351375,745,79.78675517134917
1080.1081400979417,754,78.48372024684102
1080.8852906200482,773,78.15409061721138
1081.6437146235498,783,79.14328481295081
1082.3834121084465,764,80.44631973745898
1083.123109593343,745,80.7759493670886
1083.8721703375422,745,79.78675517134917
1084.6399576003464,754,79.44878048780487
1085.3890183445455,773,80.13339587242027
1086.1193525701397,754,81.46923076923076
1086.8496867957338,735,81.46923076923076
1087.598747539933,735,81.46923076923076
1088.3290817655272,754,81.46923076923076
1089.0594159911213,735,83.63409563409564
1089.7522971795056,735,85.11434511434511
1090.4451783678896,698,82.8591414944356
1091.2410554086014,698,83.6609432962374
1091.9152100783806,801,81.49607843137255
1092.6642708225797,679,83.06666666666666
1093.4133315667789,754,79.77037037037036
1094.1717555702803,754,78.80531012940651
1094.948906092387,764,77.84024988844264
1095.7260566144937,783,78.5078542016166
1096.4657540993903,783,80.87817760047517
1097.1773618063794,745,82.88349758169878
1097.898332772671,716,83.5857826384142
1098.6193037389628,726,85.14718614718615
1099.293458408742,726,86.66720037952913
1099.9769763378238,679,84.05635240397528
1100.7728533785353,688,80.12462549634476
1101.550003900642,801,76.59929128277817
1102.3271544227484,783,79.57514267596702
1103.0387621297377,783,77.0575942212787
1103.9001819855666,716,76.15986376456814
1104.7054222855807,867,75.79486034693315
1105.4263932518725,811,78.94783941295569
1106.1848172553741,726,81.14860479417442
1106.9245147402708,764,80.44631973745898
1107.6642122251674,745,80.44631973745898
1108.422636228669,745,79.77871542428504
1109.1810602321705,764,80.12535612535612
1109.9113944577648,764,81.13960113960114
1110.641728683359,735,81.13960113960114
1111.4001526868606,735,79.80376624279063
1112.1679399496645,764,78.78952122854561
1112.9263639531662,773,79.45712554171955
1113.6660614380628,764,79.45712554171955
1114.433848700867,745,78.82169493038532
1115.2109992229737,773,77.83250073464589
1115.9787864857776,783,78.15409061721138
1116.7372104892793,773,80.15941059843499
1117.458181455571,764,82.21589326852484
1118.1697891625602,726,83.23013828276986
1118.9001233881543,716,81.86024891288048
1119.658547391656,735,79.80376624279063
1120.42633465446,764,79.11915085817523
1121.1753953986592,773,79.78675517134917
1121.9150928835559,754,80.10834505391466
1122.6735168870575,745,79.14328481295081
1123.450667409164,764,77.84024988844264
1124.2278179312707,783,78.16987951807228
1124.9768786754698,783,79.81955514365153
1125.707212901064,754,80.78461538461538
1126.456273645263,735,80.13339587242027
1127.2240609080673,754,79.78675517134917
1127.9637583929639,773,80.47137055596457
1128.694092618558,745,81.80720545277508
1129.424426844152,735,81.13960113960114
1130.1828508476538,735,79.48992551402189
1130.9600013697604,764,78.47568049977687
1131.718425373262,783,78.80531012940651
1132.4674861174612,764,78.80531012940651
1133.2446366395677,754,78.16987951807228
1134.0217871616744,783,77.84024988844266
1134.780211165176,783,79.48992551402189
1135.5105453907702,764,81.49524549524548
1136.2315163570618,735,82.50949050949052
1136.9618505826559,726,81.82487512487512
1137.710911326855,735,81.82487512487512
1138.4318822931468,754,82.54552289815447
1139.143490000136,726,82.88349758169878
1139.8831874850325,716,81.19201832924392
1140.6509747478367,745,79.13553565915406
1141.4187620106409,773,78.46793134598012
1142.1771860141423,773,79.45712554171955
1142.9168834990392,764,80.10834505391466
1143.6659442432383,745,80.10834505391466
1144.4243682467397,754,79.77037037037036
1145.1734289909389,764,80.45498575498576
1145.9037632165332,754,82.18987854251012
1146.6153709235223,735,83.96987854251012
1147.317615371209,716,83.96987854251012
1148.0479495968032,707,82.23498575498576
1148.8063736003048,735,80.12535612535612
1149.5647976038065,764,79.77871542428504
1150.304495088703,764,80.44631973745898
1151.0441925735997,745,80.12472985489349
1151.8119798364037,745,79.13553565915406
1152.5797670992079,773,77.83250073464589
1153.3569176213146,773,78.82169493038532
1154.0966151062112,783,80.15752982719583
1154.8269493318053,745,80.79296043853006
1155.585373335307,735,80.45498575498576
1156.334434079506,764,80.10834505391466
1157.0741315644027,754,81.1225900681597
1157.8044657899968,745,82.9025900681597
1158.5067102376836,735,83.24923076923076
1159.2370444632777,707,82.9025900681597
1159.9767419481743,735,81.460564751704
1160.716439433071,745,81.460564751704
1161.446773658665,745,81.80720545277508
1162.1771078842594,735,82.15384615384616
1162.9074421098535,735,80.81801125703565
1163.6752293726577,735,79.80376624279063
1164.433653376159,773,79.80376624279063
1165.1639876017534,764,81.49524549524548
1165.884958568045,735,82.50949050949052
1166.6152927936391,726,81.82487512487512
1167.3643535378383,735,81.46923076923076
1168.0946877634324,754,82.18987854251012
1168.8062954704217,735,82.87449392712551
1169.5366296960158,716,82.52785322605442
1170.2763271809124,735,80.79296043853006
1171.034751184414,745,80.10834505391466
1171.7838119286132,764,80.45498575498576
1172.5141461542073,754,80.78461538461538
1173.2632068984065,735,80.13339587242027
1174.0309941612106,754,78.79756097560974
1174.7987814240148,773,78.46793134598012
1175.5572054275162,773,80.52441401606998
1176.2688131345055,764,82.21589326852484
1176.9897841007971,716,82.88349758169878
1177.7294815856937,726,81.14860479417442
1178.4879055891954,745,80.44631973745898
1179.227603074092,764,81.51360821180941
1179.9392107810813,745,82.52785322605442
1180.6695450066754,716,81.86024891288048
1181.427969010177,735,80.12535612535612
1182.1863930136788,764,79.1111111111111
1182.9448170171804,764,80.12535612535612
1183.6751512427745,764,81.49524549524548
1184.396122209066,735,82.16284980841942
1185.1358196939627,726,81.81620910734836
1185.8755171788594,745,80.44631973745898
1186.633941182361,745,79.77871542428504
1187.3923651858627,764,79.44074074074072
1188.1414259300618,764,79.77037037037036
1188.890486674261,754,78.82857142857142
1189.67700045567,754,77.55714285714285
1190.4635142370792,792,75.98655462184874
1191.2593912777907,792,76.60676368108219
1192.0271785405948,801,77.87819225251076
1192.776239284794,773,79.11915085817523
1193.5346632882956,754,79.11915085817523
1194.3024505510996,764,78.46793134598012
1195.0702378139038,773,78.46793134598012
1195.8286618174054,773,79.45712554171955
1196.568359302302,764,80.10834505391466
1197.3174200465012,745,80.10834505391466
1198.0758440500028,754,79.44074074074072
1198.8342680535045,764,78.78952122854561
1199.6020553163085,764,79.80376624279063
1200.3323895419028,773,80.13339587242027
1201.081450286102,735,80.45498575498576
1201.8398742896034,754,79.11915085817523
1202.6076615524075,764,79.45712554171955
1203.3473590373042,773,80.12472985489349
1204.0870565222008,745,79.50452079566004
1204.87357030361,745,78.51532659992061
1205.6413575664142,792,78.8619673009917
1206.3716917920083,773,80.13339587242027
1207.1207525362074,735,80.13339587242027
1207.8885397990114,754,78.48372024684102
1208.665690321118,773,78.48372024684102
1209.4147510653172,783,78.80531012940651
1210.1731750688189,754,79.11915085817523
1210.940962331623,764,77.84772228674667
1211.727476113032,773,76.90592334494774
1212.513989894441,792,77.55714285714285
1213.2630506386402,792,79.51318681318682
1213.9933848642345,754,81.46923076923076
1214.7237190898286,735,81.80720545277508
1215.4634165747252,735,81.1225900681597
1216.2124773189244,745,81.47823442380404
1216.933448285216,754,82.18051948051948
1217.6544192515078,726,82.51849416406378
1218.3941167364044,726,81.14860479417442
1219.152540739906,745,80.10834505391466
1219.9016014841052,764,78.49894179894179
1220.6881152655142,754,78.49894179894179
1221.4465392690158,792,78.49894179894179
1222.195600013215,764,79.11915085817523
1222.9633872760191,754,78.48372024684102
1223.7405377981256,773,78.48372024684102
1224.4895985423248,783,79.81955514365153
1225.2199327679189,754,81.1225900681597
1225.9596302528155,735,81.1225900681597
1226.7086909970146,745,80.10834505391466
1227.4671150005163,754,80.10834505391466
1228.206812485413,764,80.44631973745898
1228.9465099703095,745,81.11392405063292
1229.6862074552064,745,81.81620910734836
1230.407178421498,745,82.88349758169878
1231.118786128487,726,82.21589326852484
1231.8772101319887,716,80.84600389863547
1232.6356341354904,764,79.44074074074072
1233.3846948796895,764,79.77037037037036
1234.1337556238886,754,81.14025974025972
1234.8547265901802,754,82.54552289815447
1235.5663342971695,726,83.9507860560492
1236.2779420041586,716,83.24850099933377
1237.0176394890552,716,81.84323784143903
1237.7667002332544,745,80.7759493670886
1238.506397718151,754,81.1225900681597
1239.2367319437453,745,80.47137055596457
1240.0045192065493,735,79.48217636022514
1240.7723064693535,773,78.14634146341463
1241.5400937321576,773,78.46793134598012
1242.2985177356593,773,79.45712554171955
1243.038215220556,764,80.79296043853006
1243.76854944615,745,82.16284980841942
1244.4895204124416,735,82.50949050949052
1245.2198546380357,726,82.86513486513486
1245.9408256043275,735,81.82487512487512
1246.6898863485267,726,80.48904022806461
1247.4576736113308,754,79.78675517134917
1248.1973710962275,773,80.12472985489349
1248.937068581124,745,81.11392405063292
1249.6767660660207,745,80.12472985489349
1250.444553328825,745,78.21616693605506
1251.2404303695364,773,76.91313201154689
1252.0175808916429,801,76.9131320115469
1252.785368154447,783,79.1683356314564
1253.5157023800411,773,81.17365561268
1254.236673346333,735,82.50949050949052
1254.967007571927,726,82.86513486513486
1255.6879785382187,735,82.86513486513486
1256.4089495045105,726,82.51849416406378
1257.148646989407,726,82.16284980841942
1257.8789812150012,745,81.1225900681597
1258.6280419592003,735,79.81955514365153
1259.405192481307,754,77.86351118760757
1260.191706262716,783,76.29292295231345
1260.9875833034275,792,77.25798319327731
1261.7366440476267,801,78.19978213507625
1262.4950680511283,754,76.80370370370369
1263.3377613883524,764,78.96856856856856
1264.0306425767367,849,79.98281358281358
1264.7609768023308,698,83.63409563409564
1265.491311027925,735,82.50949050949052
1266.2122819942165,735,82.16284980841942
1266.951979479113,726,81.14860479417442
1267.7104034826148,745,80.10834505391466
1268.459464226814,764,80.8106301106301
1269.1804351931057,754,82.54552289815447
1269.8920429000948,726,82.88349758169878
1270.6317403849914,716,82.18121252498335
1271.371437869888,745,81.460564751704
1272.1017720954821,745,82.16284980841942
1272.822743061774,735,83.23013828276986
1273.534350768763,726,81.89430338595935
1274.3021380315672,716,80.20282413350449
1275.0699252943714,773,78.14634146341463
1275.8377125571753,773,79.13553565915406
1276.5774100420722,773,79.45712554171955
1277.3358340455736,745,79.14328481295081
1278.1129845676803,764,78.80531012940651
1278.8620453118795,783,78.80531012940651
1279.6204693153811,754,80.10834505391466
1280.3601668002777,764,81.14860479417442
1281.0811377665693,745,82.88349758169878
1281.7927454735586,726,83.23013828276986
1282.5230796991527,716,81.86024891288048
1283.2815037026544,735,80.79296043853006
1284.021201187551,764,80.79296043853006
1284.7515354131451,745,83.28745493302455
1285.4444166015294,735,84.35474340737498
1286.1560243085185,698,84.71038776301933
1286.8769952748103,716,82.21589326852484
1287.6354192783117,726,81.49524549524548
1288.365753503906,764,81.49524549524548
1289.0867244701976,735,82.86513486513486
1289.8076954364892,726,82.18051948051948
1290.5567561806884,726,80.48904022806461
1291.3245434434925,754,78.79756097560974
1292.0923307062967,773,79.13553565915406
1292.8320281911933,773,81.19201832924392
1293.5436358981824,745,82.52785322605442
1294.2739701237767,716,83.23013828276986
1294.9949410900683,735,82.16284980841942
1295.734638574965,726,82.51849416406378
1296.4556095412565,745,82.88349758169878
1297.1672172482458,726,83.5857826384142
1297.8881882145374,716,82.54552289815447
1298.6372489587366,726,81.14025974025972
1299.3863097029357,754,80.4379746835443
1300.1260071878323,754,81.1225900681597
1300.8563414134264,745,81.1225900681597
1301.6054021576256,735,80.13339587242027
1302.3731894204298,754,79.11915085817523
1303.1316134239314,773,79.45712554171955
1303.871310908828,764,81.51360821180941
1304.582918615817,745,82.88349758169878
1305.303889582109,716,83.23013828276986
1306.034223807703,726,81.82487512487512
1306.7832845519022,735,81.1225900681597
1307.5229820367988,754,81.47823442380404
1308.2439530030904,745,82.51849416406378
1308.9649239693822,726,82.86513486513486
1309.6952581949763,726,82.16284980841942
1310.434955679873,735,81.1225900681597
1311.184016424072,745,81.47823442380404
1311.9049873903637,754,82.54552289815447
1312.616595097353,726,83.9507860560492
1313.328202804342,716,83.24850099933377
1314.0679002892387,716,82.52785322605442
1314.798234514833,745,82.52785322605442
1315.509842221822,735,84.35474340737498
1316.2027234102063,716,85.83499288762445
1316.8956045985906,698,86.20972972972973
1317.5978490462771,698,85.4501280227596
1318.3094567532664,707,85.06526315789472
1319.011701200953,716,85.4501280227596
1319.7045823893372,707,86.20972972972973
1320.3974635777215,698,86.20972972972973
1321.099708025408,698,84.38283954840917
1321.8394055103047,707,82.2179746835443
1322.5884662545038,745,80.10834505391466
1323.3468902580055,754,80.10834505391466
1324.086587742902,764,81.51360821180941
1324.7981954498914,745,82.88349758169878
1325.519166416183,716,83.5857826384142
1326.2401373824746,726,83.2207792207792
1326.9611083487664,726,82.86513486513486
1327.6914425743605,726,82.86513486513486
1328.412413540652,735,83.23013828276986
1329.1240212476414,726,83.9507860560492
1329.8356289546305,716,83.24850099933377
1330.575326439527,716,81.84323784143903
1331.3243871837262,745,79.16654611211573
1332.1109009651354,754,77.55714285714285
1332.8974147465444,792,77.22751322751323
1333.655838750046,792,78.49894179894179
1334.4048994942452,764,78.80531012940651
1335.182050016352,754,78.80531012940651
1335.9404740198536,783,78.47568049977687
1336.698898023355,764,78.78952122854561
1337.4666852861592,764,78.78952122854561
1338.2251092896608,773,79.45712554171955
1338.9648067745575,764,80.44631973745898
1339.704504259454,745,80.7759493670886
1340.4535650036532,745,79.47291444258045
1341.23071552576,754,78.48372024684102
1341.9985027885639,783,77.51866000587715
1342.7756533106706,773,78.48372024684102
1343.5247140548697,783,79.81955514365153
1344.2550482804638,754,81.1225900681597
1344.9947457653604,735,80.79296043853006
1345.753169768862,745,79.45712554171955
1346.5209570316663,764,78.78952122854561
1347.279381035168,773,79.80376624279063
1348.009715260762,764,81.49524549524548
1348.7306862270536,735,82.16284980841942
1349.4703837119503,726,81.14860479417442
1350.228807715452,745,79.45712554171955
1350.996594978256,764,78.15409061721138
1351.7737455003626,773,78.48372024684102
1352.5228062445617,783,79.47291444258045
1353.2625037294586,754,80.4379746835443
1354.0115644736577,745,80.4379746835443
1354.7606252178566,754,79.77037037037036
1355.5190492213583,754,79.77037037037036
1356.2681099655574,764,80.8106301106301
1356.9890809318492,754,80.8106301106301
1357.7475049353507,726,78.66235424856114
1358.5621084946674,764,79.02735766619614
1359.2737162016565,820,79.35698729582577
1360.0227769458556,716,82.18987854251012
1360.7531111714497,754,82.18987854251012
1361.464718878439,735,83.59514170040485
1362.1763265854281,716,82.91052631578947
1362.9253873296273,716,81.84323784143903
1363.6650848145239,754,80.4379746835443
1364.414145558723,745,79.47291444258045
1365.1912960808297,754,79.13493975903614
1365.9403568250289,783,79.81955514365153
1366.670691050623,754,81.1225900681597
1367.4103885355196,735,80.79296043853006
1368.1688125390212,745,78.8369164824861
1368.9553263204302,764,76.92835356364768
1369.751203361142,792,75.39519249560288
1370.556443661156,801,75.09603283173735
1371.3523207018675,811,76.66662106703146
1372.1013814460666,801,79.9346749226006
1372.812989153056,754,83.6701280227596
1373.50587034144,716,85.07539118065432
1374.2174780484293,698,81.80733732508517
1375.0227183484433,716,78.37104388879175
1375.8092321298525,811,78.745780730897
1376.511476577539,792,78.46029556650247
1377.3260801368556,707,78.76666389696717
1378.1032306589623,820,76.65703426733754
1378.861654662464,783,77.53388155797794
1379.648168443873,764,76.92835356364768
1380.4440454845846,792,75.39519249560288
1381.2492857845987,801,75.39519249560288
1382.0357995660077,811,76.63615110126737
1382.7942235695093,792,79.18355718355718
1383.5245577951034,764,81.86024891288048
1384.2361655020927,735,83.96987854251012
1384.9384099497793,716,85.4501280227596
1385.6312911381635,707,84.72948024948025
1386.3616253637576,698,82.61985061985061
1387.1200493672593,735,80.12535612535612
1387.878473370761,764,80.12535612535612
1388.608807596355,764,81.13960113960114
1389.3391418219492,735,81.13960113960114
1390.0975658254508,735,79.48992551402189
1390.8747163475575,764,78.47568049977687
1391.6331403510592,783,79.48992551402189
1392.3634745766533,764,80.12535612535612
1393.121898580155,735,79.18355718355718
1393.908412361564,764,77.53388155797794
1394.6855628836706,792,76.8984509466437
1395.462713405777,783,77.84024988844266
1396.2211374092788,783,78.80531012940651
1396.970198153478,764,80.10834505391466
1397.7098956383745,754,80.7759493670886
1398.4495931232711,745,79.81088912612475
1399.2267436453778,745,78.82169493038532
1399.994530908182,783,78.82169493038532
1400.7342283930786,773,80.47137055596457
1401.4645626186727,745,81.460564751704
1402.2042601035694,735,81.1225900681597
1402.9533208477685,745,80.4379746835443
1403.7023815919677,754,79.44878048780487
1404.4701688547718,754,79.44878048780487
1405.219229598971,773,80.13339587242027
1405.949563824565,754,81.46923076923076
1406.6798980501592,735,81.46923076923076
1407.4289587943583,735,79.81955514365153
1408.206109316465,754,78.80531012940651
1408.9645333199667,783,78.47568049977687
1409.722957323468,764,80.12535612535612
1410.4532915490624,764,81.49524549524548
1411.174262515354,735,80.25428688958101
1411.9701395560655,726,83.38395721925133
1412.62556770724,801,83.38395721925133
1413.3465386735315,660,85.63916083916084
1414.0768728991256,726,83.60487512487512
1414.7791173468124,735,83.96987854251012
1415.4907250538015,707,83.96987854251012
1416.2210592793956,716,82.18987854251012
1416.9701200235947,735,80.78461538461538
1417.719180767794,754,80.4379746835443
1418.4588782526905,754,81.1225900681597
1419.1892124782848,745,81.80720545277508
1419.919546703879,735,81.13960113960114
1420.6779707073806,735,79.80376624279063
1421.4457579701846,764,77.84772228674667
1422.2322717515938,773,77.52613240418118
1423.000059014398,792,78.51532659992061
1423.7397564992946,773,80.82701491160893
1424.4607274655862,745,82.16284980841942
1425.1910616911803,726,82.16284980841942
1425.930759176077,735,81.460564751704
1426.6704566609735,745,81.460564751704
1427.4007908865678,745,82.16284980841942
1428.1217618528594,735,82.86513486513486
1428.842732819151,726,82.86513486513486
1429.5730670447454,726,81.17365561268
1430.3408543075493,735,78.8619673009917
1431.1273680889585,773,77.21229167541244
1431.904518611065,792,76.8984509466437
1432.6816691331717,783,78.5078542016166
1433.4213666180683,783,80.15752982719583
1434.1517008436624,745,81.80720545277508
1434.8820350692565,735,81.80720545277508
1435.6217325541534,735,81.460564751704
1436.36143003905,745,80.12472985489349
1437.129217301854,745,79.78675517134917
1437.878278046053,773,79.44878048780487
1438.6273387902522,754,79.77037037037036
1439.3857627937539,754,78.49894179894179
1440.172276575163,764,76.63615110126737
1440.9775168751771,792,75.10299003322258
1441.7827571751911,811,74.51162790697674
1442.5879974752052,811,76.04478897502153
1443.3464214787068,811,78.94783941295569
1444.0673924449984,764,81.14860479417442
1444.8070899298953,726,81.81620910734836
1445.5467874147919,745,80.12472985489349
1446.3145746775958,745,79.13553565915406
1447.0823619404,773,79.13553565915406
1447.8220594252966,773,79.78675517134917
1448.5711201694958,745,76.70571661902818
1449.4419032846272,754,77.05235732009925
1450.1722375102215,877,74.62508459282652
1450.9962043288406,735,77.70612314514753
1451.7639915916445,830,76.37028824833702
1452.5317788544487,773,77.22697274031563
1453.3276558951602,773,76.91313201154689
1454.104806417267,801,76.59929128277817
1454.8819569393736,783,77.84024988844266
1455.640380942875,783,79.14328481295081
1456.3800784277719,764,80.44631973745898
1457.1197759126685,745,79.50452079566004
1457.9062896940775,745,77.30375541444131
1458.7115299940915,792,75.10299003322258
1459.5167702941058,811,75.72319909245604
1460.2845575569097,811,78.27060517474584
1461.0148917825038,773,81.17365561268
1461.7358627487956,735,82.50949050949052
1462.4661969743897,726,81.49524549524548
1463.2246209778914,735,80.45498575498576
1463.9736817220905,764,79.44074074074072
1464.7321057255922,754,80.10834505391466
1465.4718032104888,764,80.79296043853006
1466.202137436083,745,81.1225900681597
1466.951198180282,735,80.13339587242027
1467.7189854430862,754,78.48372024684102
1468.4961359651927,773,78.15409061721138
1469.2545599686944,783,79.14328481295081
1469.994257453591,764,81.51360821180941
1470.7058651605803,745,83.24850099933377
1471.4174728675694,716,83.24850099933377
1472.157170352466,716,81.51360821180941
1472.9155943559676,745,80.10834505391466
1473.6646551001668,764,78.49894179894179
1474.451168881576,754,78.49894179894179
1475.2095928850774,792,78.8369164824861
1475.949290369974,764,80.10834505391466
1476.6983511141732,745,79.16654611211573
1477.4848648955824,754,77.25798319327731
1478.280741936294,792,75.39519249560288
1479.085982236308,801,76.01540155483633
1479.853769499112,811,78.27060517474584
1480.5841037247062,773,81.53865903031499
1481.2957114316955,735,83.23013828276986
1482.016682397987,716,82.88349758169878
1482.7563798828837,726,80.51317418284019
1483.5335304049904,745,78.20148587115187
1484.3200441863994,783,76.29292295231345
1485.1159212271111,792,76.60676368108219
1485.883708489915,801,78.21616693605506
1486.623405974812,773,80.12472985489349
1487.3631034597086,745,79.20536113179449
1488.15898050042,745,77.29679821295606
1488.9548575411316,801,75.38823529411765
1489.7507345818433,801,76.30760401721665
1490.5185218446472,801,78.21616693605506
1491.2582193295439,773,80.82701491160893
1491.9791902958357,745,81.47823442380404
1492.7282510400348,726,80.17519949929587
1493.5054015621413,754,77.86351118760757
1494.2919153435505,783,77.86351118760757
1495.0409760877496,792,78.82857142857142
1495.7900368319488,754,78.82857142857142
1496.5765506133578,754,76.96578073089701
1497.3817909133718,792,74.81750486882804
1498.1963944726886,811,73.66166071298389
1499.0203612913074,820,74.25302283922974
1499.8068750727166,830,76.40129870129869
1500.5559358169157,792,78.82857142857142
1501.3049965611149,754,79.44878048780487
1502.072783823919,754,79.11915085817523
1502.8312078274205,773,78.15409061721138
1503.6083583495272,764,77.84024988844264
1504.3855088716339,783,77.20481927710843
1505.1626593937403,783,77.51866000587717
1505.9304466565445,783,78.15409061721138
1506.6888706600462,773,78.15409061721138
1507.4660211821526,764,77.53388155797794
1508.2525349635619,783,76.592082616179
1509.0390487449708,792,76.90592334494774
1509.806836007775,792,78.1773519163763
1510.5558967519742,773,79.44878048780487
1511.3049574961733,754,79.77037037037036
1512.063381499675,754,78.80531012940651
1512.8405320217814,764,78.15409061721138
1513.6083192845856,783,78.15409061721138
1514.3667432880873,773,79.11915085817523
1515.1158040322864,764,80.8106301106301
1515.836774998578,754,81.47823442380404
1516.5764724834746,726,80.82701491160893
1517.3442597462788,745,78.51532659992061
1518.130773527688,773,77.21229167541244
1518.9079240497945,792,76.592082616179
1519.6944378312037,783,76.8984509466437
1520.4715883533102,792,78.20148587115187
1521.2112858382068,783,80.51317418284017
1521.9322568044986,745,81.47823442380404
1522.6813175486977,726,80.8106301106301
1523.4397415521992,754,78.19978213507625
1524.235618592911,764,76.05150627300728
1525.0502221522274,801,75.10970733120834
1525.8367359336364,820,75.7152353255386
1526.613886455743,792,77.86351118760757
1527.3629471999423,783,76.16827309236947
1528.2056405371663,754,78.53859649122805
1528.9172482441554,849,76.39032062915909
1529.731851803472,716,76.65698729582577
1530.5651818813935,820,72.55172413793103
1531.398511959315,839,72.55172413793103
1532.2131155186316,839,74.9220945083014
1532.9715395221333,820,77.9600691918457
1533.71123700703,764,79.77871542428504
1534.4696610105316,745,78.8369164824861
1535.2561747919406,764,77.22751322751323
1536.0426885733498,792,75.4088669950739
1536.8572921326663,792,75.7152353255386
1537.6344426547728,820,76.33544438477205
1538.402229917577,783,76.91313201154689
1539.1981069582885,773,76.01540155483633
1540.0033472583027,801,75.7015608260676
1540.7804977804092,811,77.27214906136172
1541.5295585246083,783,79.47291444258045
1542.269256009505,754,81.47823442380404
1542.9902269757968,745,81.81620910734836
1543.7299244606934,726,80.51317418284019
1544.5070749827998,745,79.47291444258045
1545.256135726999,783,78.48372024684102
1546.0239229898032,754,79.78675517134917
1546.7636204746998,773,80.47137055596457
1547.493954700294,745,80.79296043853006
1548.2523787037956,735,79.48992551402189
1549.0295292259023,764,77.84024988844264
1549.8066797480087,783,77.51866000587717
1550.574467010813,783,79.1683356314564
1551.304801236407,773,81.17365561268
1552.0257722026988,735,82.50949050949052
1552.756106428293,726,82.16284980841942
1553.4958039131895,735,80.79296043853006
1554.2542279166912,745,80.44631973745898
1554.9939254015878,764,80.79296043853006
1555.724259627182,745,80.79296043853006
1556.4826836306836,735,79.80376624279063
1557.2504708934878,764,78.15409061721138
1558.0276214155942,773,76.91313201154689
1558.823498456306,783,77.2347218941124
1559.5819224598074,801,79.24004187533598
1560.3028934260992,764,81.49524549524548
1561.0332276516933,726,81.82487512487512
1561.7822883958925,735,80.78461538461538
1562.5313491400916,754,79.13493975903613
1563.3084996621983,754,78.80531012940651
1564.0669236656997,783,77.84024988844264
1564.8440741878064,764,76.94251943173208
1565.6493144878204,783,74.844876334089
1566.4732813064395,811,73.10993657505284
1567.306611384361,830,73.7012987012987
1568.09312516577,839,75.7989417989418
1568.8515491692717,792,78.16931216931216
1569.6099731727734,764,78.78952122854561
1570.3777604355776,764,78.15409061721138
1571.154910957684,773,77.21229167541244
1571.9414247390932,783,77.86351118760757
1572.6904854832924,792,78.49894179894179
1573.448909486794,754,78.19978213507625
1574.2447865275055,764,76.92835356364768
1575.0313003089148,801,75.68739495798319
1575.8271773496263,792,76.60676368108219
1576.5949646124304,801,76.91313201154689
1577.372115134537,773,76.62092954916659
1578.177355434551,783,75.7015608260676
1578.9732324752626,811,74.5183452049625
1579.7878360345792,801,75.41607566167306
1580.5649865566857,820,76.65703426733754
1581.3234105601873,783,78.47568049977687
1582.081834563689,764,78.78952122854561
1582.8496218264931,764,77.54856262288112
1583.6454988672047,773,75.45091952523802
1584.4694656858237,801,74.83071046600458
1585.255979467233,830,75.75007918910357
1586.0237667300369,792,76.31456121870188
1586.8290070300511,773,75.43771392806148
1587.6436105893677,811,75.75930381062699
1588.402034592869,820,77.29246487867177
1589.1604585963707,764,80.12535612535612
1589.890792821965,764,81.86024891288048
1590.6024005289541,735,83.59514170040485
1591.3140082359432,716,83.9507860560492
1592.034979202235,716,82.88349758169878
1592.7746766871317,726,80.20680585237548
1593.5611904685406,745,75.93907358464321
1594.4132470650673,792,71.62450315641804
1595.2933934395012,858,69.41332303219444
1596.1548132953303,886,70.49251969759801
1596.9694168546469,867,71.76911544227886
1597.8027469325684,820,72.8244514106583
1598.6267137511875,839,73.7012987012987
1599.4132275325965,830,74.53850800362427
1600.2184678326105,792,76.31456121870188
1600.9862550954147,811,76.62092954916659
1601.7634056175214,773,77.21229167541244
1602.5499193989303,783,74.8968445209409
1603.3926127361544,792,72.89523809523808
1604.2353060733783,849,72.01839080459769
1605.0499096326948,849,74.0199972303005
1605.8270601548015,820,75.12387319929276
1606.6323004548155,783,74.04467653388919
1607.4843570513422,811,71.52712807920088
1608.345776907171,858,70.42325211020862
1609.1884702443951,867,72.37929606625258
1609.9749840258044,849,75.21068524970963
1610.7427712886083,792,76.90592334494774
1611.5292850700175,773,76.31456121870188
1612.3345253700315,792,72.98918498621615
1613.2146717444655,811,71.29394689097805
1614.0573650816896,886,71.0084617265835
1614.871968641006,849,71.75758494379184
1615.7240252375327,820,70.50846213677428
1616.6135348712692,858,68.6801422541624
1617.493681245703,896,69.4803420543622
1618.3176480643222,886,72.42470295661785
1619.1041618457311,830,74.83071046600458
1619.9000388864429,792,75.39519249560288
1620.705279186457,801,74.80383036935704
1621.510519486471,811,76.04478897502153
1622.2689434899726,811,77.25636016050082
1623.0367307527767,764,77.54856262288112
1623.8326077934883,773,75.45091952523802
1624.6565746121073,801,72.36988097291703
1625.5273577272387,830,72.07767851053671
1626.3325980272527,877,72.64216054013502
1627.137838327267,811,73.67441860465115
1627.9711684051886,811,72.30973677485304
1628.823225001715,839,72.0242516104585
1629.6378285610315,858,74.07303209826338
1630.4056158238357,820,75.72991639044179
1631.2014928645472,773,76.01540155483633
1632.0067331645612,801,74.5183452049625
1632.821336723878,811,74.81750486882805
1633.607850505287,820,75.4088669950739
1634.394364286696,792,75.12987012987013
1635.218331105315,792,73.17382617382617
1636.0703877018416,830,70.96264604960257
1636.9318075576707,858,71.81933054158118
1637.7276845983822,867,73.18401237137928
1638.5329248983962,801,74.80383036935704
1639.3381651984103,811,74.2261427425822
1640.1527687577268,811,74.81750486882805
1640.939282539136,820,76.68029556650245
1641.6883432833351,792,77.55714285714285
1642.4748570647441,754,76.4012987012987
1643.2988238833632,792,73.43463203463202
1644.1415172205873,830,72.55778474399163
1644.9561207799038,849,73.12226677358994
1645.7613610799178,820,73.66166071298389
1646.585327898537,811,72.84326990838618
1647.428021235761,830,73.13547237076648
1648.2238982764725,849,75.56274509803922
1648.9729590206716,801,77.87819225251076
1649.7407462834758,754,77.58598979013045
1650.5459865834898,773,76.31456121870188
1651.332500364899,811,76.31456121870188
1652.100287627703,792,78.1773519163763
1652.8493483719021,773,78.1773519163763
1653.6358621533113,754,76.96578073089701
1654.4411024533254,792,75.10299003322258
1655.2463427533394,811,75.1029900332226
1656.0328565347486,811,76.63615110126737
1656.7912805382502,792,77.84772228674667
1657.5590678010542,764,78.15409061721138
1658.336218323161,773,77.83250073464589
1659.104005585965,783,78.48372024684102
1659.8530663301642,773,78.79756097560974
1660.6208535929682,754,77.87819225251076
1661.41673063368,773,75.45091952523802
1662.240697452299,801,73.95386317536419
1663.0553010116155,830,74.55939116969445
1663.832451533722,820,76.33544438477205
1664.6002387965261,783,76.62092954916659
1665.4054790965401,773,76.62092954916659
1666.1826296186468,811,76.94251943173208
1666.9410536221485,783,77.84024988844264
1667.718204144255,764,77.23472189411238
1668.5140811849667,783,75.7015608260676
1669.3193214849807,801,75.7015608260676
1670.0964720070872,811,77.95676444597711
1670.8268062326815,783,79.48992551402189
1671.585230236183,735,80.12535612535612
1672.3436542396846,764,78.16931216931216
1673.1301680210938,764,78.49894179894179
1673.879228765293,792,79.16654611211573
1674.6189262501896,754,80.10834505391466
1675.3773502536912,745,78.53775681862055
1676.1732272944027,764,76.62919389978212
1676.9691043351143,801,75.99376328844791
1677.746254857221,801,77.90232620728634
1678.4859523421176,783,79.14328481295081
1679.2443763456192,745,79.77871542428504
1680.002800349121,764,78.47568049977687
1680.7799508712274,764,78.80531012940651
1681.5290116154265,783,78.80531012940651
1682.2874356189282,754,78.80531012940651
1683.0645861410349,764,76.94251943173208
1683.8698264410489,783,76.62092954916659
1684.637613703853,811,77.25636016050082
1685.3960377073545,773,77.84772228674667
1686.1825514887637,764,77.22751322751323
1686.9690652701727,792,76.28571428571429
1687.755579051582,792,77.22751322751323
1688.5140030550835,792,79.53920153920154
1689.2349740213751,764,81.85088985088984
1689.9559449876667,726,82.86513486513486
1690.686279213261,726,81.82487512487512
1691.4353399574602,735,81.46923076923076
1692.1656741830543,754,81.1225900681597
1692.905371667951,735,80.47137055596457
1693.673158930755,745,78.21616693605506
1694.4690359714666,773,76.60676368108219
1695.2555497528756,801,76.92835356364768
1696.0139737563773,792,77.22751322751323
1696.8004875377865,764,76.63615110126737
1697.6057278378005,792,76.00072048993314
1698.3828783599072,811,77.27214906136172
1699.1319391041063,783,78.80531012940651
1699.8903631076078,754,78.49894179894179
1700.676876889017,764,76.92835356364768
1701.4727539297285,792,76.60676368108219
1702.2405411925326,801,78.21616693605506
1702.9802386774293,773,79.45712554171955
1703.738662680931,745,79.45712554171955
1704.506449943735,764,77.84772228674667
1705.292963725144,773,77.21229167541244
1706.0701142472508,792,78.54812657222296
1706.800448472845,783,79.81955514365151
1707.549509217044,735,79.81955514365153
1708.3266597391505,754,78.16987951807228
1709.1038102612572,783,77.51866000587717
1709.8715975240614,783,77.21229167541244
1710.6581113054704,773,76.31456121870188
1711.4633516054844,792,74.81750486882804
1712.277955164801,811,75.12387319929276
1713.0551056869076,820,77.32463858051148
1713.7948031718042,783,79.47291444258045
1714.5438639160034,745,79.78675517134917
1715.3116511788076,754,78.48372024684102
1716.088801700914,773,77.51866000587715
1716.8659522230207,783,77.84024988844266
1717.6243762265224,783,77.84024988844264
1718.4015267486288,764,76.37803740213377
1719.225493567248,783,74.00766703176342
1720.0588236451695,830,73.7012987012987
1720.8453374265787,839,75.7989417989418
1721.6037614300803,792,77.53388155797794
1722.3809119521868,764,77.53388155797794
1723.167425733596,783,77.86351118760757
1723.9164864777952,792,79.51318681318682
1724.6468207033893,754,80.45498575498576
1725.405244706891,735,79.80376624279063
1726.1730319696949,764,78.15409061721138
1726.9501824918016,773,77.83250073464589
1727.7179697546057,783,78.82169493038532
1728.4576672395024,773,78.21616693605506
1729.2535442802139,745,76.71911058618122
1730.0681478395304,801,74.8105476673428
1730.8640248802421,820,75.72991639044179
1731.631812143046,801,77.87819225251076
1732.3808728872452,773,78.79756097560974
1733.1486601500494,754,79.11915085817523
1733.907084153551,773,79.11915085817523
1734.6561448977502,764,80.10834505391466
1735.3958423826468,754,79.47291444258045
1736.1729929047533,745,77.32463858051148
1736.98759646407,783,73.75919136949464
1737.8396530605964,820,72.86146091278408
1738.6448933606105,858,74.04467653388919
1739.4220438827172,811,76.30708882039787
1740.1991944048239,783,76.89845094664372
1740.9857081862328,783,76.592082616179
1741.7722219676418,792,76.90592334494774
1742.540009230446,792,78.1773519163763
1743.2890699746451,773,79.78675517134917
1744.0287674595418,754,80.10834505391466
1744.7871914630434,745,78.8369164824861
1745.5737052444526,764,77.53388155797794
1746.350855766559,792,77.86351118760757
1747.0999165107582,783,77.86351118760757
1747.8864302921675,754,77.25798319327731
1748.682307332879,792,74.83071046600458
1749.506274151498,801,74.83071046600458
1750.292787932907,830,74.53850800362427
1751.0980282329213,792,74.265780730897
1751.9313583108426,811,73.67441860465115
1752.7365986108568,839,75.20757967269594
1753.4950226143583,811,77.57795004306631
1754.25344661786,764,78.16931216931216
1755.0399603992691,764,76.92835356364768
1755.8358374399807,792,75.98655462184874
1756.6223512213899,801,76.92835356364768
1757.3807752248913,792,76.92835356364768
1758.176652265603,764,76.05150627300728
1758.9912558249196,801,75.10970733120834
1759.7777696063285,820,77.01827025004677
1760.5174670912252,792,78.8369164824861
1761.2758910947268,745,79.77871542428504
1762.0343150982285,764,78.16931216931216
1762.8208288796377,764,78.49894179894179
1763.5698896238368,792,79.51318681318682
1764.300223849431,754,80.78461538461538
1765.04928459363,735,79.81955514365153
1765.8264351157366,754,77.56435152374202
1766.6223121564483,783,76.59929128277817
1767.3994626785548,801,76.9131320115469
1768.167249941359,783,76.62092954916659
1768.972490241373,773,75.72319909245603
1769.777730541387,811,75.72319909245604
1770.5455178041911,811,76.62092954916659
1771.3226683262978,773,76.62092954916659
1772.1279086263119,783,75.12387319929276
1772.9425121856284,811,74.5183452049625
1773.73838922634,820,75.72991639044179
1774.506176489144,801,77.87819225251076
1775.2552372333432,773,78.1773519163763
1776.0417510147522,754,77.55714285714285
1776.8282647961614,792,75.12987012987013
1777.6522316147805,792,75.43623846033483
1778.4293821368872,830,76.05644751956828
1779.1971693996911,783,77.51866000587715
1779.9743199217978,773,77.21229167541244
1780.7608337032068,783,75.7152353255386
1781.5754372625233,792,75.4088669950739
1782.3619510439325,820,76.35066593687283
1783.1203750474342,792,78.49894179894179
1783.8694357916334,764,78.49894179894179
1784.6559495730423,754,77.25798319327731
1785.4518266137538,792,75.68739495798319
1786.2477036544656,801,76.30760401721665
1787.0154909172697,801,76.60676368108219
1787.8020046986787,773,76.90592334494774
1788.5885184800877,792,75.12987012987013
1789.4124852987068,792,74.53850800362427
1790.217725598721,830,74.53850800362429
1791.00423938013,811,76.31456121870188
1791.7720266429342,792,76.31456121870188
1792.5772669429482,773,75.72319909245603
1793.3825072429622,811,74.51162790697674
1794.1877475429762,811,74.51162790697674
1794.9929878429905,811,76.37441860465115
1795.7420485871896,811,78.23720930232557
1796.4911093313888,754,79.13493975903613
1797.2682598534952,754,77.56435152374202
1798.064136894207,783,75.7015608260676
1798.869377194221,801,75.09603283173735
1799.6652542349325,811,76.01540155483633
1800.4330414977367,801,76.30760401721663
1801.2289185384482,773,74.91152558584409
1802.0716118756723,801,72.08013640238704
1802.9330317315012,849,71.78793394000674
1803.7382720315154,867,73.78954036570954
1804.5154225536219,811,76.94251943173208
1805.2738465571235,783,76.65703426733754
1806.08845011644,764,75.75930381062697
1806.893690416454,820,73.66166071298389
1807.7176572350731,811,74.23934833975873
1808.5135342757849,830,75.45091952523802
1809.2813215385888,801,76.60676368108219
1810.067835319998,773,76.02907605430734
1810.8824388793146,792,73.71362889983578
1811.7251322165387,820,73.12226677358994
1812.5303725165527,849,74.30548239469505
1813.3075230386592,811,76.94251943173208
1814.0659470421608,783,76.94251943173208
1814.8711873421748,764,76.33699143740182
1815.6670643828866,811,75.39519249560288
1816.4535781642955,801,77.25798319327731
1817.2026389084947,792,78.82857142857142
1817.9516996526938,754,78.52941176470587
1818.7475766934056,754,76.10213903743315
1819.5715435120246,801,73.13547237076648
1820.4142368492485,830,72.84326990838618
1821.2194771492625,849,74.30548239469505
1821.9966276713692,811,75.4093583636873
1822.8018679713832,783,75.12387319929276
1823.6164715306998,811,72.60632474460445
1824.4778913865289,820,71.76911544227886
1825.3112214644505,867,72.0546006066734
1826.1164617644645,839,74.88598979013045
1826.8842490272687,811,76.93477027793533
1827.6520362900726,773,77.52613240418118
1828.4385500714818,773,75.75007918910357
1829.2625168901009,792,73.7012987012987
1830.0958469680224,830,73.7012987012987
1830.8823607494314,839,73.42857142857143
1831.715690827353,792,72.3963133640553
1832.5864739424844,839,69.93548387096774
1833.457257057616,877,70.48720800889878
1834.2718606169326,877,72.94803750198633
1835.0583743983416,820,74.81750486882804
1835.8636146983556,792,75.10299003322258
1836.6688549983699,811,74.51162790697674
1837.4740952983839,811,75.72319909245604
1838.2418825611878,811,76.62092954916659
1839.0190330832945,773,76.33544438477205
1839.833636642611,783,73.25440583245106
1840.7044197577427,820,70.73685737776273
1841.5658396135716,877,70.45786051255897
1842.3898064321907,867,73.22505833611123
1843.1669569542973,830,76.05644751956828
1843.9347442171013,783,76.62092954916659
1844.7399845171153,773,75.43771392806148
1845.554588076432,811,74.2261427425822
1846.359828376446,820,75.12387319929276
1847.1369788985526,811,76.94251943173208
1847.8954029020542,783,77.23472189411238
1848.691279942766,764,75.77250940780351
1849.515246761385,801,73.67486631016043
1850.3392135800038,830,74.28039430449068
1851.1163641021105,830,76.7076670317634
1851.8654248463097,783,78.80531012940651
1852.6238488498113,754,78.80531012940651
1853.4009993719178,764,78.15409061721138
1854.168786634722,783,77.51866000587715
1854.9459371568287,773,78.48372024684102
1855.6949979010278,783,78.48372024684102
1856.4627851638318,754,77.58598979013045
1857.268025463846,773,75.43771392806148
1858.0826290231626,811,73.94065757818765
1858.897232582479,820,74.83838803489822
1859.6743831045856,820,76.65703426733754
1860.4328071080872,783,77.23472189411238
1861.228684148799,764,76.62919389978212
1862.0245611895105,801,75.38823529411765
1862.820438230222,801,75.99376328844791
1863.5975887523286,801,78.2489669083574
1864.3279229779228,783,80.15752982719583
1865.0676204628194,735,80.15752982719583
1865.844770984926,745,78.20148587115187
1866.631284766335,783,76.29292295231345
1867.4271618070468,792,76.60676368108219
1868.1949490698507,801,77.87819225251076
1868.9440098140499,773,77.30050462573591
1869.7586133733664,754,75.5244514106583
1870.5825801919855,820,72.8244514106583
1871.415910269907,830,73.7012987012987
1872.2024240513163,839,75.7989417989418
1872.960848054818,792,77.84772228674667
1873.7286353176219,764,77.84772228674667
1874.515149099031,773,76.31456121870188
1875.320389399045,792,75.39519249560288
1876.1162664397566,811,76.33699143740182
1876.8746904432583,801,77.23472189411238
1877.651840965365,764,76.94251943173208
1878.457081265379,783,75.4093583636873
1879.262321565393,811,74.2261427425822
1880.0769251247095,811,75.12387319929276
1880.8540756468162,820,75.7152353255386
1881.6405894282252,783,76.00072048993314
1882.4458297282392,792,75.39519249560288
1883.241706768951,811,75.09603283173735
1884.0375838096625,801,76.30760401721665
1884.8053710724666,801,78.21616693605506
1885.5450685573633,773,80.47137055596457
1886.2754027829574,745,80.47137055596457
1887.0431900457615,735,78.8619673009917
1887.8297038271705,773,76.02907605430734
1888.644307386487,792,75.4088669950739
1889.4308211678963,820,75.10970733120834
1890.2266982086078,792,74.55798319327731
1891.0600282865294,801,72.60193923723335
1891.912084883056,839,70.68991877687529
1892.7735047388849,858,72.11849020544673
1893.560018520294,867,75.68393741646356
1894.2997160051907,792,79.16654611211573
1895.0487767493898,745,80.10834505391466
1895.8072007528915,754,78.49894179894179
1896.5937145343005,764,77.22751322751323
1897.3802283157095,792,75.98655462184874
1898.1761053564212,792,76.60676368108219
1898.9438926192254,801,76.91313201154689
1899.7210431413318,773,76.05644751956828
1900.545009959951,783,73.74100036509674
1901.387703297175,830,71.47858807858807
1902.2397598937014,849,72.33527257056667
1903.035636934413,858,74.65071972503823
1903.803424197217,801,76.01540155483633
1904.6086644972313,773,75.15871706285772
1905.4326313158504,811,72.84326990838618
1906.2753246530742,830,72.27878787878787
1907.0992914716933,849,73.74100036509674
1907.8764419938,830,75.74260679079956
1908.6535925159067,783,76.59929128277817
1909.4494695566182,783,75.1370787964693
1910.2734363752372,801,73.40213903743316
1911.1067664531588,830,72.8244514106583
1911.9213700124753,839,73.98029556650246
1912.7078837938843,820,74.81750486882804
1913.5131240938983,792,74.53850800362427
1914.3370909125174,811,73.38266384778012
1915.1610577311365,830,73.97402597402598
1915.9475715125457,830,75.75007918910357
1916.7153587753498,792,76.02907605430734
1917.5299623346664,773,75.15222876366694
1918.344565893983,820,73.10344827586206
1919.1778959719045,820,73.98029556650246
1919.9644097533135,839,75.16351118760757
1920.7415602754202,792,76.29292295231345
1921.5374373161317,783,75.41607566167306
1922.3520408754482,801,73.68113590263692
1923.1853709533698,820,74.60050462573591
1923.953158216174,839,76.41915085817524
1924.7115822196754,773,78.46793134598012
1925.4793694824796,764,77.54856262288112
1926.2752465231913,773,76.01540155483633
1927.0804868232053,801,74.5183452049625
1927.8950903825219,811,75.4377139280615
1928.662877645326,820,76.64928511354078
1929.43066490813,773,76.37028824833702
1930.254631726749,773,74.32150776053214
1931.0879618046706,830,72.27272727272727
1931.9212918825922,839,73.42857142857143
1932.7078056640012,839,76.12857142857143
1933.4568664082003,792,77.55714285714285
1934.2433801896095,754,76.96578073089701
1935.0486204896235,792,74.265780730897
1935.8819505675451,811,74.265780730897
1936.668464348954,839,75.4773519163763
1937.4362516117583,792,76.90592334494774
1938.2227653931675,773,76.31456121870188
1939.0280056931815,792,74.53850800362427
1939.8519725118006,811,74.53850800362429
1940.6384862932096,830,75.75007918910357
1941.4062735560137,792,77.52613240418118
1942.174060818818,773,76.93477027793533
1942.979301118832,773,75.43771392806148
1943.7939046781485,811,73.66166071298389
1944.6178714967675,820,73.37617554858934
1945.432475056084,830,74.55939116969445
1946.2096255781908,820,74.83838803489822
1947.0242291375073,783,75.12387319929276
1947.8294694375213,820,73.38893344025661
1948.6627995154429,811,74.265780730897
1949.4493132968519,839,75.7989417989418
1950.2077373003535,792,77.84772228674667
1950.9755245631577,764,77.25636016050082
1951.7807648631717,773,75.43771392806148
1952.5953684224883,811,73.66166071298389
1953.4193352411073,820,73.66166071298389
1954.2245755411213,830,75.48030694542322
1954.982999544623,811,77.90757967269593
1955.7320602888221,764,79.11915085817523
1956.4998475516263,754,78.1773519163763
1957.2863613330353,773,76.31456121870188
1958.0916016330493,792,75.39519249560288
1958.887478673761,811,76.33699143740182
1959.6459026772627,801,77.87015250544661
1960.4043266807641,764,78.16931216931216
1961.1908404621734,764,76.92835356364768
1961.9867175028849,792,75.68739495798319
1962.7825945435966,801,76.30760401721665
1963.5503818064005,801,77.87819225251076
1964.2994425505997,773,78.79756097560974
1965.0672298134039,754,78.1773519163763
1965.8537435948128,773,76.31456121870188
1966.658983894827,792,74.81750486882804
1967.4735874541436,811,74.2261427425822
1968.2788277541576,820,75.12387319929276
1969.0559782762643,811,76.30708882039787
1969.8331287983708,783,76.30708882039787
1970.6383690983848,783,75.12387319929276
1971.4529726577014,811,73.38893344025661
1972.286302735623,820,73.68113590263691
1973.0821797763347,839,75.17819225251075
1973.8499670391386,801,77.54856262288112
1974.6083910426403,773,77.84772228674667
1975.3949048240495,764,76.63615110126737
1976.2001451240635,792,74.53850800362427
1977.0241119426826,811,74.23934833975873
1977.819988983394,830,75.77250940780351
1978.5784129868957,801,76.92835356364768
1979.364926768305,764,76.63615110126737
1980.170167068319,792,74.53850800362427
1980.994133886938,811,73.66166071298389
1981.8087374462546,830,74.55939116969445
1982.585887968361,820,76.33544438477205
1983.3536752311652,783,77.21229167541244
1984.1401890125744,773,75.75007918910357
1984.9641558311935,792,73.7012987012987
1985.7974859091148,830,72.8244514106583
1986.6120894684313,839,74.60050462573591
1987.3798767312355,820,77.3005046257359
1988.1289374754347,773,79.44878048780487
1988.8779982196338,754,79.13493975903613
1989.6551487417405,754,76.98666389696717
1990.469752301057,783,74.28666389696718
1991.3030823789786,820,73.38893344025661
1992.1083226789926,839,74.57214906136171
1992.885473201099,811,75.7015608260676
1993.6813502418108,783,75.41607566167306
1994.4959538011274,801,73.41446923597024
1995.3386471383515,820,72.28505747126437
1996.1719772162728,849,72.0060606060606
1996.9959440348919,839,74.0076670317634
1997.7730945569986,830,77.04564171530771
1998.5127920418952,783,79.81088912612475
1999.2524895267918,745,79.81088912612475
2000.0296400488985,745,78.20148587115187
2000.8161538303075,783,76.00072048993314
2001.6213941303215,792,75.69435215946844
2002.4079079117307,811,76.31456121870188
2003.175695174535,792,76.60676368108219
2003.9715722152464,773,76.01540155483633
2004.7768125152604,801,75.09603283173735
2005.5726895559721,811,76.33699143740182
2006.3311135594736,801,77.54856262288112
2007.0989008222778,764,77.25636016050082
2007.9041411222918,773,75.15871706285772
2008.7281079409108,811,73.66166071298389
2009.5427115002274,830,73.66166071298389
2010.3479518002416,820,75.12387319929276
2011.125102322348,811,77.95676444597711
2011.8554365479422,783,80.50417052826691
2012.5857707735365,735,80.50417052826691
2013.362921295643,735,77.67127928158256
2014.1775248549595,783,74.0199972303005
2015.0202181921836,820,72.8367816091954
2015.8348217515002,849,73.12226677358994
2016.6400620515142,820,72.35667537574048
2017.5108451666458,811,70.5283554931286
2018.3909915410798,877,68.65888812628688
2019.2617746562112,886,70.5283554931286
2020.0670149562252,877,73.23352266638088
2020.8535287376344,811,75.10299003322258
2021.6587690376484,792,74.53850800362427
2022.4827358562675,811,73.94714587737843
2023.2879761562815,830,74.844876334089
2024.0651266783882,811,76.94251943173208
2024.8235506818899,783,76.65703426733754
2025.6381542412064,764,75.19482178102866
2026.4621210598254,820,72.55778474399163
2027.3048143970493,830,73.13547237076648
2028.100691437761,849,74.59768485707535
2028.8778419598675,801,75.7015608260676
2029.6830822598818,783,74.844876334089
2030.5070490785008,811,72.84326990838618
2031.3497424157247,830,73.13547237076648
2032.1456194564364,849,74.59768485707535
2032.9227699785429,801,75.99376328844791
2033.7186470192546,783,75.1370787964693
2034.5426138378737,801,73.13547237076648
2035.3853071750975,830,71.73939393939392
2036.2280005123216,849,72.59607843137253
2037.0238775530331,849,73.69995440036479
2037.8291178530474,801,74.23934833975873
2038.6530846716662,811,73.10993657505284
2039.4864147495878,830,73.40213903743314
2040.2822917902995,839,74.25882352941176
2041.078168831011,801,74.25882352941176
2041.9114989089326,801,71.85281602002502
2042.7916452833665,839,70.45673758865247
2043.6343386205906,886,71.58614935335835
2044.430215661302,849,73.13547237076648
2045.2541824799212,801,72.87466650996062
2046.1062390764478,830,71.2177822177822
2046.9582956729741,858,71.78226424738051
2047.7635359729882,858,73.14694607717863
2048.568776273002,811,73.67441860465115
2049.402106350924,811,71.80495123780945
2050.2728894660554,839,71.24046920821114
2051.0968562846742,877,72.66904063678257
2051.8833700660834,830,75.43623846033483
2052.66052058819,792,76.00072048993314
2053.4657608882044,783,74.57214906136173
2054.2990909661257,811,72.57054263565891
2055.1417843033496,839,73.46827309236947
2055.9189348254563,849,74.8968445209409
2056.7054486068655,783,75.7152353255386
2057.520052166182,792,74.25302283922973
2058.344018984801,820,72.8244514106583
2059.1773490627224,830,73.7012987012987
2059.9638628441317,839,75.4773519163763
2060.731650106936,792,76.31456121870188
2061.53689040695,773,74.88598979013045
2062.3702204848714,811,72.30973677485304
2063.222277081398,839,71.2058608058608
2064.064970418622,858,72.63443223443223
2064.851484200031,849,74.59047619047618
2065.63799798144,792,75.69435215946844
2066.4432382814543,792,74.53850800362427
2067.267205100073,811,73.10993657505284
2068.100535177995,830,72.8244514106583
2068.9151387373113,839,73.68113590263691
2069.711015778023,820,73.95386317536419
2070.534982596642,801,72.36988097291703
2071.4057657117733,830,70.45786051255897
2072.2671855676026,877,70.45786051255897
2073.0911523862214,867,72.91869000564652
2073.8776661676307,830,74.83071046600458
2074.6735432083424,792,75.10970733120834
2075.4881467676587,801,74.23286004056796
2076.3027503269755,820,74.23286004056796
2077.0986273676867,820,76.05150627300728
2077.8570513711884,801,77.87015250544661
2078.61547537469,764,78.78952122854561
2079.383262637494,764,77.84772228674667
2080.1697764189034,773,77.52613240418118
2080.9375636817076,792,77.84772228674667
2081.6959876852093,773,77.84772228674667
2082.482501466618,764,76.63615110126737
2083.2877417666323,792,74.81750486882804
2084.1023453259486,811,75.4377139280615
2084.8701325887528,820,77.63847930928021
2085.6098300736494,773,79.78675517134917
2086.3588908178485,745,78.86738644825019
2087.1547678585603,754,77.25798319327731
2087.9412816399695,801,76.92835356364768
2088.699705643471,792,78.8369164824861
2089.4394031283678,764,80.10834505391466
2090.188463872567,745,78.57518398586988
2090.9937041725807,754,76.66662106703146
2091.7895812132924,811,75.7015608260676
2092.566731735399,801,77.90232620728634
2093.3064292202957,783,78.20148587115187
2094.092943001705,745,77.30375541444131
2094.8981833017187,792,75.10299003322258
2095.703423601733,811,74.80383036935704
2096.4993006424443,811,76.33699143740182
2097.257724645946,801,77.54856262288112
2098.02551190875,764,78.15409061721138
2098.802662430857,773,76.91313201154689
2099.5985394715685,783,76.9131320115469
2100.3663267343727,801,77.22697274031563
2101.1341139971764,773,78.14634146341463
2101.9019012599806,773,76.09756097560975
2102.7352313379024,773,73.78211382113821
2103.5779246751263,839,71.73333333333332
2104.4112547530476,849,72.86274509803921
2105.2071317937593,839,74.86435152374202
2105.984282315866,801,76.59929128277817
2106.7614328379727,783,77.20481927710843
2107.538583360079,783,76.59929128277817
2108.3344604007907,783,76.9131320115469
2109.102247663595,801,77.54856262288112
2109.8606716670965,773,78.15409061721138
2110.6378221892032,764,77.23472189411238
2111.4336992299145,783,74.86435152374202
2112.2670293078363,801,73.12941176470588
2113.1003593857577,839,73.42857142857143
2113.886873167167,839,74.85714285714286
2114.673386948576,792,75.98655462184874
2115.4692639892874,792,75.68739495798319
2116.265141029999,801,75.6873949579832
2117.0516548114083,801,76.29292295231345
2117.828805333515,792,77.53388155797794
2118.587229337016,783,77.53388155797794
2119.3737431184254,764,76.92835356364768
2120.169620159137,792,74.55798319327731
2121.0029502370585,801,73.12941176470588
2121.8362803149803,839,73.42857142857143
2122.622794096389,839,75.16351118760757
2123.3999446184957,792,76.29292295231345
2124.1958216592075,783,76.59929128277817
2124.972972181314,801,76.59929128277817
2125.750122703421,783,77.51866000587717
2126.5179099662246,783,78.48372024684102
2127.2669707104237,773,78.79756097560974
2128.034757973228,754,77.87819225251076
2128.8306350139396,773,76.01540155483633
2129.635875313954,801,74.5183452049625
2130.45047887327,811,73.94065757818765
2131.265082432587,820,75.15222876366695
2132.0328696953907,820,77.3005046257359
2132.78193043959,773,78.48372024684102
2133.5590809616965,754,78.16987951807228
2134.336231483803,783,77.84024988844266
2135.094655487305,783,78.47568049977687
2135.8530794908065,764,78.78952122854561
2136.6208667536107,764,77.54856262288112
2137.416743794322,773,74.14593418799463
2138.287526909454,801,71.56968117271722
2139.13958350598,877,71.56968117271722
2139.935460546692,858,74.33687899626949
2140.712611068798,801,75.99376328844791
2141.50848810951,783,75.1370787964693
2142.3324549281288,801,74.23934833975873
2143.137695228143,830,74.53850800362429
2143.924209009552,811,76.965780730897
2144.6732697537514,792,78.82857142857142
2145.4223304979505,754,78.52941176470587
2146.2182075386618,754,76.66662106703146
2147.023447838676,801,74.80383036935704
2147.8286881386903,811,73.94714587737843
2148.652654957309,811,74.53850800362429
2149.4391687387183,830,76.07166907166906
2150.19759274222,792,77.53388155797794
2150.9747432643267,764,77.23472189411238
2151.770620305038,783,75.1370787964693
2152.594587123657,801,73.67486631016043
2153.418553942276,830,73.97402597402598
2154.2050677236853,830,76.07166907166906
2154.963491727187,792,77.84772228674667
2155.731278989991,764,76.97087499610628
2156.5458825493074,773,75.15222876366694
2157.360486108624,820,73.65517241379311
2158.1750896679405,820,75.15222876366695
2158.9428769307447,820,76.97087499610628
2159.7013009342463,773,77.25636016050082
2160.5065412342606,764,74.42497097704377
2161.3679610900895,811,71.02234254215728
2162.238744205221,867,70.73685737776273
2163.0533477645376,877,72.35667537574048
2163.8585880645514,820,72.86146091278408
2164.7106446610783,811,71.78226424738051
2165.5627012576047,858,69.9127968805388
2166.433484372736,858,71.27747871033692
2167.2387246727503,877,73.85373172561432
2168.0065119355545,811,76.62092954916659
2168.7836624576607,773,76.62092954916659
2169.588902757675,783,74.844876334089
2170.412869576294,811,72.84326990838618
2171.255562913518,830,73.13547237076648
2172.0514399542294,849,74.59768485707535
2172.828590476336,801,75.99376328844791
2173.624467517048,783,74.59768485707535
2174.4671608542717,801,72.33527257056667
2175.3192174507985,849,71.75758494379183
2176.133821010115,858,73.75919136949464
2176.9109715322215,820,75.12387319929276
2177.716211832236,783,75.4093583636873
2178.5214521322496,811,73.94714587737843
2179.345418950869,811,74.23934833975873
2180.14129599158,830,75.77250940780351
2180.899719995082,801,77.87015250544661
2181.6581439985835,764,78.16931216931216
2182.4446577799927,764,76.92835356364768
2183.2405348207044,792,75.10970733120834
2184.0551383800207,801,74.23286004056796
2184.8697419393375,820,74.83838803489822
2185.6468924614437,820,77.32463858051148
2186.3865899463403,783,79.81088912612475
2187.1262874312374,745,79.50452079566004
2187.912801212646,745,77.59595787682161
2188.708678253358,792,75.68739495798319
2189.5045552940696,801,75.99376328844791
2190.281705816176,801,76.9131320115469
2191.04949307898,783,77.21229167541244
2191.8360068603893,773,76.31456121870188
2192.6412471604035,792,74.265780730897
2193.474577238325,811,73.10993657505284
2194.298544056944,839,73.40213903743314
2195.0944210976554,830,75.45091952523802
2195.8622083604596,801,78.21616693605506
2196.601905845356,773,78.82169493038532
2197.379056367463,745,77.90232620728632
2198.1749334081746,783,75.41607566167306
2198.989536967491,801,74.8105476673428
2199.7854140082027,820,74.8105476673428
2200.581291048914,801,75.09603283173735
2201.386531348928,801,73.43914853955893
2202.2385879454546,811,72.04307010818638
2203.081281282679,858,72.33527257056667
2203.87715832339,849,75.23311546840958
2204.635582326892,801,76.33699143740182
2205.440822626906,764,76.33699143740182
2206.236699667618,811,75.09603283173735
2207.032576708329,801,74.8105476673428
2207.847180267646,801,75.10970733120834
2208.633694049055,820,76.02907605430734
2209.401481311859,792,76.31456121870188
2210.206721611873,773,75.15871706285772
2211.030688430492,811,72.58246404758032
2211.8827450270187,830,70.96264604960257
2212.7441648828476,858,71.24164291480633
2213.5587684421644,867,73.81789593008374
2214.326555704968,820,77.3005046257359
2215.0756164491672,773,78.1773519163763
2215.8621302305764,754,77.55714285714285
2216.6486440119857,792,75.4088669950739
2217.463247571302,792,74.81750486882804
2218.268487871316,820,75.12387319929276
2219.045638393423,811,76.94251943173208
2219.8040623969246,783,76.94251943173208
2220.6093026969384,764,75.48030694542321
2221.4332695155576,811,73.10993657505284
2222.266599593479,830,72.8244514106583
2223.0812031527958,839,74.60050462573591
2223.8489904156,820,77.3005046257359
2224.598051159799,773,78.48372024684102
2225.3752016819053,754,78.16987951807228
2226.152352204012,783,76.89845094664372
2226.938865985421,783,76.00072048993314
2227.7441062854355,792,75.39519249560288
2228.5399833261467,811,76.33699143740182
2229.2984073296484,801,77.23472189411238
2230.075557851755,764,76.65703426733754
2230.8901614110714,783,73.504055201315
2231.7515812669008,820,70.98650674662669
2232.6130011227297,867,70.16811594202898
2233.4556944599535,867,72.37929606625258
2234.2422082413627,849,75.21068524970963
2235.009995504167,792,77.52613240418118
2235.777782766971,773,77.52613240418118
2236.56429654838,773,75.4773519163763
2237.3976266263016,792,73.7012987012987
2238.2215934449205,839,72.8244514106583
2239.0361970042372,830,74.25302283922974
2239.8227107856464,820,74.81750486882804
2240.6279510856602,792,74.265780730897
2241.461281163582,811,72.57054263565891
2242.303974500806,839,71.73333333333332
2243.1373045787273,849,73.16190476190476
2243.9238183601365,839,76.81318681318682
2244.6541525857306,792,79.18355718355718
2245.4125765892322,735,78.88439751969163
2246.208453629944,764,75.77250940780351
2247.032420448563,801,73.67486631016043
2247.856387267182,830,73.38266384778012
2248.661627567196,830,75.15871706285773
2249.42941483,811,76.93477027793533
2250.197202092804,773,77.83250073464589
2250.974352614911,773,76.05644751956828
2251.7983194335297,783,73.22505833611123
2252.659739289359,830,70.96264604960257
2253.5117958858855,867,71.24164291480633
2254.3263994452022,858,72.0242516104585
2255.1597295231236,820,71.5194660734149
2256.030512638255,839,69.69114619080301
2256.910659012689,877,69.16367366333048
2257.762715609216,886,71.03314103017219
2258.5679559092296,858,72.58246404758032
2259.391922727849,811,72.32732787940068
2260.2533425836777,830,70.45786051255897
2261.124125698809,867,70.45786051255897
2261.9480925174284,877,72.36988097291702
2262.7439695581397,830,73.13547237076648
2263.586662895364,801,71.83048703352308
2264.4574460104955,849,69.42447952413634
2265.3375923849294,877,69.16367366333048
2266.189648981456,886,71.93087148688275
2266.9667995035625,858,75.25624771936849
2267.7345867663666,783,77.51866000587715
2268.5117372884733,773,77.51866000587715
2269.2888878105796,783,76.59929128277817
2270.0847648512913,783,75.7015608260676
2270.8900051513056,801,76.01540155483633
2271.6577924141093,811,76.31456121870188
2272.4443061955185,773,74.69474322072413
2273.3057260513474,792,71.61370466840313
2274.1765091664793,867,71.02234254215728
2274.981749466493,877,72.64216054013502
2275.7869897665073,811,73.40775193798449
