74.25882352941176
73.68113590263691
73.68113590263691
74.8105476673428
74.53155080213904
74.83071046600458
75.12987012987013
78.5974025974026
78.29824293353705
78.60461126400176
76.29292295231346
76.592082616179
77.89511754068717
76.46654611211574
76.16738644825018
75.49978213507625
81.58428917732977
84.93487741262388
82.29784037558684
83.16985507246375
81.06022544283412
84.71150749411618
80.45498575498576
81.1225900681597
79.78675517134917
80.47137055596457
77.9851200103513
79.3209549071618
80.04160268044114
86.44640028164055
86.44640028164055
84.07607688278196
80.85981488391127
81.21545923955563
85.99480519480518
84.62491582491582
83.25502645502644
79.77871542428504
82.6686190265174
83.68286404076242
84.75015251511286
81.53865903031499
84.66832935998532
89.42460466362904
97.82743707904997
96.17801622962912
92.57675174069341
82.1251388374676
78.68884540117416
75.4773519163763
76.90592334494774
76.31456121870188
78.37104388879175
79.64247246022032
81.50526315789472
79.44878048780487
79.11915085817523
79.45712554171955
80.79296043853006
78.97431420609072
77.36491095111785
74.5320197044335
78.0855587243972
76.3903206291591
77.5735362502642
76.85288847698486
78.85449490268766
79.48992551402189
77.53388155797794
78.8369164824861
78.8369164824861
83.07501172058133
82.73703703703703
81.79523809523809
77.86351118760757
74.8968445209409
74.59768485707535
75.56274509803922
75.04680306905371
77.65765104460756
76.08706280931345
79.90764618850993
79.90764618850991
79.61544372612963
78.6262495303902
78.6262495303902
80.15941059843499
76.83403436594925
73.64549876362055
73.97512839325017
77.6220945083014
79.11915085817523
77.54856262288112
76.60676368108219
76.92835356364768
79.53920153920154
81.14860479417442
81.14860479417442
79.14328481295081
78.15409061721138
76.33544438477205
75.72991639044179
74.23286004056796
76.38113590263691
76.68029556650247
73.92448979591836
72.06169909824395
73.3331276696725
76.96578073089701
76.4012987012987
76.07166907166906
76.69187813090251
81.28401572304011
81.28401572304011
81.28401572304011
75.89167833070272
78.00130796033234
77.6874672315636
78.21493975903614
74.57214906136171
74.265780730897
78.37104388879175
80.23383458646616
78.53859649122805
76.4821138211382
79.04238779374094
81.67942483077798
82.00101471334347
79.1111111111111
78.47568049977687
77.53388155797794
76.8984509466437
77.53388155797794
77.53388155797794
77.22751322751323
76.28571428571429
77.22751322751323
79.53920153920154
80.8106301106301
80.8106301106301
78.49894179894179
77.84772228674667
77.84772228674667
77.84772228674667
76.63615110126737
76.00072048993314
77.27214906136172
79.13493975903614
79.44878048780487
78.79756097560974
78.46793134598012
79.11915085817523
77.6220945083014
77.6220945083014
77.62209450830139
80.45498575498576
81.1225900681597
81.1225900681597
80.10834505391466
79.77037037037036
80.10834505391466
81.47823442380404
82.51849416406378
82.86513486513486
82.50949050949052
82.15384615384616
82.50949050949052
82.16284980841942
81.81620910734836
81.81620910734836
82.88349758169878
83.5857826384142
81.89430338595935
83.45570689473128
83.82071031236627
85.87719298245614
84.69052631578947
84.69052631578947
84.32552289815447
82.88349758169878
81.81620910734836
82.18121252498335
83.24850099933377
84.31578947368419
84.31578947368419
85.4708002883922
87.45004417275099
88.20964587972111
86.33398729173376
82.61985061985061
78.88439751969163
80.3646469999411
81.7345363698305
83.6430992886689
81.47823442380404
82.99824865614704
85.6269406392694
88.59360730593608
85.7037037037037
83.07501172058133
80.79296043853006
84.08925673482636
85.53128205128205
84.84666666666666
81.55037037037036
82.73703703703703
82.73703703703703
83.40464135021097
80.10834505391466
80.10834505391466
82.3306443429731
85.6269406392694
87.79180550413426
84.26647129056767
81.299804623901
77.27214906136172
80.79748327492831
81.13545795847261
83.33622333969134
80.7759493670886
80.4379746835443
83.06666666666666
84.84666666666666
84.51703703703703
81.88834505391466
80.44631973745898
83.74261603375527
83.74261603375527
82.75342183801584
79.45712554171955
76.69187813090251
79.90337161570037
80.5709759288743
85.1631135210119
80.74004885073475
80.40207416719045
79.64247246022032
84.06553713049746
85.47080028839221
83.10047688953361
79.88898340473575
77.21229167541244
80.73762588897904
81.38884540117417
85.22054794520547
79.69360730593607
78.7285470649722
76.50624777591378
80.15752982719583
80.15752982719583
78.54812657222296
76.00072048993314
75.69435215946844
76.965780730897
77.55714285714285
78.49894179894179
78.16931216931216
79.77871542428504
81.14860479417442
82.51849416406378
83.2207792207792
83.2207792207792
82.86513486513486
82.86513486513486
82.50949050949052
82.16284980841942
80.79296043853006
80.10834505391466
80.10834505391466
81.1225900681597
81.1225900681597
80.78461538461538
80.1
81.50526315789472
82.91052631578947
83.9507860560492
83.23013828276986
81.82487512487512
80.78461538461538
80.4379746835443
80.10834505391466
78.53775681862055
76.62919389978212
76.30760401721665
78.56280763712614
79.80376624279063
79.80376624279063
78.46793134598012
79.13553565915406
81.19201832924392
83.24850099933377
83.24850099933377
81.84323784143903
80.4379746835443
80.78461538461538
81.1225900681597
80.79296043853006
79.14328481295081
78.15409061721138
78.82169493038532
79.13553565915406
78.21616693605506
76.30760401721663
76.62919389978214
79.24004187533598
81.14860479417442
81.14860479417442
79.14328481295081
78.47568049977687
79.48992551402189
79.80376624279063
78.8619673009917
76.60676368108219
76.60676368108219
77.87819225251076
79.11915085817523
77.90757967269595
75.48030694542321
74.53850800362429
76.07166907166906
78.16931216931216
78.78952122854561
78.78952122854561
78.78952122854561
80.12535612535612
80.12535612535612
79.18355718355718
77.22751322751323
76.90592334494774
78.51532659992061
79.78675517134917
80.4379746835443
80.1
81.14025974025972
82.92025974025972
83.60487512487512
82.23498575498576
79.80376624279063
79.45712554171955
80.12472985489349
80.44631973745898
79.14328481295081
78.15409061721138
78.48372024684102
80.13339587242027
81.82487512487512
82.16284980841942
81.14860479417442
80.79296043853006
81.49524549524548
82.16284980841942
79.61544372612963
76.14791125859715
74.844876334089
76.37803740213377
77.53388155797794
76.35066593687283
73.45282303902994
73.15366337516438
74.65071972503823
76.30760401721663
76.30760401721663
75.09603283173735
75.7015608260676
77.61012374490602
79.14328481295081
79.77871542428504
79.1111111111111
78.78952122854561
79.45712554171955
80.12472985489349
80.44631973745898
79.45712554171955
78.15409061721138
78.48372024684102
79.13493975903614
80.4379746835443
80.4379746835443
80.7759493670886
81.84323784143903
84.0081027063039
84.71038776301933
82.97549497549497
80.8106301106301
80.10834505391466
80.7759493670886
80.12472985489349
78.51532659992061
76.60676368108219
76.92835356364768
78.88439751969163
81.13960113960114
81.46923076923076
80.45498575498576
80.10834505391466
80.79296043853006
82.9025900681597
83.24923076923076
82.23498575498576
78.88439751969163
76.62919389978212
76.95882352941176
78.86738644825019
80.4379746835443
80.10834505391466
79.44074074074072
79.77871542428504
80.79296043853006
82.16284980841942
81.82487512487512
80.48904022806461
77.58598979013045
76.62092954916659
77.27214906136172
78.48372024684102
78.48372024684102
77.21229167541244
76.8984509466437
77.86351118760757
80.17519949929587
81.47823442380404
81.47823442380404
79.47291444258045
78.16987951807228
78.16987951807228
79.81955514365153
80.78461538461538
79.81955514365153
78.16987951807228
77.84024988844266
79.14328481295081
80.44631973745898
80.7759493670886
79.47291444258045
78.80531012940651
78.80531012940651
80.8106301106301
82.54552289815447
82.88349758169878
82.18121252498335
81.11392405063292
81.460564751704
82.9025900681597
84.34461538461538
84.70025974025972
83.60487512487512
82.16284980841942
80.47137055596457
80.12472985489349
80.82701491160893
82.16284980841942
82.16284980841942
81.80720545277508
81.460564751704
82.9025900681597
84.38283954840917
85.82486486486485
85.0851246051246
83.25823442380404
83.6430992886689
85.16311352101191
85.16311352101191
83.33622333969134
80.44631973745898
80.44631973745898
79.77871542428504
83.49285209616819
85.71515138522662
86.38275569840056
82.6686190265174
78.53775681862055
77.87015250544661
80.3646469999411
81.28401572304011
79.75085465499532
74.88598979013045
74.57214906136171
75.78372024684101
81.04399421944375
84.17391932527246
85.16311352101191
82.27320991877954
79.45712554171955
80.89915085817523
82.26904022806461
82.92025974025972
78.712987012987
75.5244514106583
73.37617554858934
77.96831314072693
81.52185216069063
85.83499288762445
82.70506778179573
81.63777930744531
76.77291444258044
74.25536598789213
73.2661717921527
76.65078717676809
79.1683356314564
78.2489669083574
76.59929128277817
77.56435152374202
80.17519949929587
82.92025974025972
83.25823442380404
81.88834505391466
79.45712554171955
78.46793134598012
78.46793134598012
80.52441401606998
81.86024891288048
81.86024891288048
79.48992551402189
78.47568049977687
78.80531012940651
80.8106301106301
82.92025974025972
83.96051948051948
82.92025974025972
80.48904022806461
78.79756097560974
79.13553565915406
80.82701491160893
82.88349758169878
83.23013828276986
82.18987854251012
80.13339587242027
79.44878048780487
79.11915085817523
77.07037037037037
77.40834505391467
75.87518398586988
77.30375541444131
76.63615110126737
79.53920153920154
81.49524549524548
81.82487512487512
80.78461538461538
80.4379746835443
81.84323784143903
82.88349758169878
82.88349758169878
80.51317418284019
79.14328481295081
79.84556986966624
81.85088985088984
82.51849416406378
81.47823442380404
80.4379746835443
81.14025974025972
82.18051948051948
84.34538434538433
84.71038776301933
84.35474340737498
82.87449392712551
82.87449392712551
83.96987854251012
84.32552289815447
83.60487512487512
81.82487512487512
81.1225900681597
81.47823442380404
82.88349758169878
83.23013828276986
82.87449392712551
82.15384615384616
81.46923076923076
81.82487512487512
82.54552289815447
83.23013828276986
82.87449392712551
81.46923076923076
80.13339587242027
79.44878048780487
80.13339587242027
80.78461538461538
81.1225900681597
79.78675517134917
79.45712554171955
79.80376624279063
81.49524549524548
81.82487512487512
79.27746904258531
75.80993657505284
73.38266384778012
74.28039430449068
77.04564171530771
79.14328481295081
79.14328481295081
78.15409061721138
76.91313201154689
76.60676368108219
77.25798319327731
79.51318681318682
80.13339587242027
79.1683356314564
77.21229167541244
76.8984509466437
78.20148587115187
81.25291444258045
83.9979746835443
84.34461538461538
81.91339587242027
79.1683356314564
77.83250073464589
78.15409061721138
79.11915085817523
79.77037037037036
79.13493975903613
77.56435152374202
76.59929128277817
77.56435152374202
80.17519949929587
83.3051246051246
85.0851246051246
84.38283954840917
81.88834505391466
79.77871542428504
78.78952122854561
78.78952122854561
79.80376624279063
81.13960113960114
81.46923076923076
80.13339587242027
78.48372024684102
78.48372024684102
80.17519949929587
83.3051246051246
85.46998946998946
85.11434511434511
83.28745493302455
80.47137055596457
78.82169493038532
77.83250073464589
78.48372024684102
79.78675517134917
79.78675517134917
77.63847930928021
76.33544438477205
76.33544438477205
78.48372024684102
80.8540436456996
82.91052631578947
83.24850099933377
80.57180927001048
77.59595787682161
75.68739495798319
75.38823529411765
76.95882352941176
79.56967150496561
80.8106301106301
79.84556986966625
78.15409061721138
78.15409061721138
79.45712554171955
80.79296043853006
84.50709711041321
87.55362946912243
90.25352112676056
86.5393844548774
86.12154407929054
85.7037037037037
89.0
86.37130801687763
84.08925673482636
81.460564751704
83.68286404076242
84.77824865614704
84.1106443429731
81.22074074074072
78.47568049977687
78.15409061721138
80.26372024684102
83.78905446040761
87.00054794520547
83.94911937377691
80.4237851602103
76.592082616179
76.592082616179
77.22751322751323
79.90420495683654
79.02735766619614
77.2087114337568
73.65517241379311
73.94065757818765
75.12387319929276
77.95676444597711
80.85981488391127
82.16284980841942
80.51317418284019
78.50785420161658
76.89845094664372
76.00072048993314
76.31456121870188
77.58598979013044
78.79756097560974
77.58598979013045
76.01540155483633
75.09603283173735
76.62919389978214
79.24004187533598
82.21589326852484
83.23013828276986
81.53865903031499
80.13339587242027
79.11915085817523
80.10834505391466
80.79296043853006
82.16284980841942
81.49524549524548
79.84556986966625
77.23472189411238
76.29292295231346
76.29292295231345
78.20148587115187
80.87817760047517
83.62323784143904
84.32552289815447
82.5906301106301
80.48100048100048
78.78952122854561
78.46793134598012
79.8378207158695
81.17365561268
82.16284980841942
80.47137055596457
79.45712554171955
78.78952122854561
80.48100048100048
82.21589326852484
83.5857826384142
82.54552289815447
81.82487512487512
80.78461538461538
81.1225900681597
80.7759493670886
80.7759493670886
79.78675517134917
78.79756097560974
79.13553565915406
80.47137055596457
81.1225900681597
81.1225900681597
79.16654611211573
79.16654611211573
79.16654611211573
80.10834505391466
79.14328481295081
76.94251943173208
76.00072048993314
76.00072048993314
78.20148587115187
79.81088912612475
81.81620910734836
82.16284980841942
81.82487512487512
79.21402714932127
80.69427662957074
81.37889201418614
80.24948024948026
78.76923076923077
76.81318681318682
77.9425985778927
76.92835356364768
78.88439751969163
81.13960113960114
81.80720545277508
81.1225900681597
79.78675517134917
79.44878048780487
79.78675517134917
80.7759493670886
79.81088912612475
77.90232620728632
75.7015608260676
76.01540155483633
77.92396447367476
79.45712554171955
79.77871542428504
79.1111111111111
79.77871542428504
81.14860479417442
82.51849416406378
82.18051948051948
80.48904022806461
78.1773519163763
77.21229167541244
76.8984509466437
78.5078542016166
78.50785420161658
77.90232620728632
77.56435152374202
79.56967150496561
82.18051948051948
82.86513486513486
81.49524549524548
79.48992551402189
78.47568049977687
79.48992551402189
79.18355718355718
78.24175824175825
76.28571428571429
76.90592334494774
78.1773519163763
79.78675517134917
79.78675517134917
78.21616693605506
76.60676368108219
76.60676368108219
78.8619673009917
79.48217636022514
79.48217636022514
78.46793134598012
79.11915085817523
80.8106301106301
81.82487512487512
81.82487512487512
80.45498575498576
79.77037037037036
80.45498575498576
82.18987854251012
83.23013828276986
83.23013828276986
82.16284980841942
81.460564751704
81.81620910734836
82.51849416406378
82.51849416406378
81.14860479417442
79.77871542428504
79.1111111111111
79.77871542428504
81.14860479417442
81.81620910734836
81.47823442380404
80.7759493670886
81.47823442380404
82.88349758169878
83.23013828276986
82.52785322605442
81.1225900681597
81.1225900681597
81.46923076923076
82.50949050949052
82.86513486513486
83.2207792207792
82.18051948051948
82.18051948051948
82.18051948051948
82.51849416406378
81.81620910734836
81.11392405063292
81.460564751704
82.52785322605442
83.96987854251012
84.32552289815447
83.60487512487512
81.82487512487512
81.46923076923076
81.1225900681597
81.1225900681597
79.16654611211573
78.1773519163763
78.51532659992061
79.78675517134917
79.78675517134917
79.11915085817523
79.11915085817523
80.8106301106301
82.18051948051948
82.51849416406378
81.47823442380404
80.4379746835443
80.4379746835443
80.4379746835443
79.78675517134917
78.79756097560974
77.83250073464589
77.83250073464589
79.1683356314564
81.17365561268
82.50949050949052
82.16284980841942
81.460564751704
81.11392405063292
81.11392405063292
81.11392405063292
80.44631973745898
79.77871542428504
79.1111111111111
80.48100048100048
81.49524549524548
82.16284980841942
81.460564751704
81.11392405063292
82.18121252498335
83.62323784143904
84.32552289815447
83.25823442380404
81.81620910734836
80.44631973745898
80.79296043853006
81.13960113960114
80.81801125703565
79.1683356314564
77.21229167541244
77.86351118760757
79.51318681318682
81.82487512487512
82.50949050949052
81.82487512487512
80.78461538461538
80.1
80.4379746835443
80.4379746835443
80.10834505391466
78.49894179894179
78.49894179894179
79.51318681318682
81.1225900681597
80.15752982719583
78.82169493038532
77.51866000587715
77.83250073464589
79.52397998710074
81.52929996832435
82.18051948051948
80.48904022806461
78.79756097560974
79.13553565915406
80.12472985489349
80.7759493670886
79.47291444258045
78.80531012940651
78.80531012940651
80.8106301106301
82.54552289815447
83.5857826384142
82.54552289815447
80.17519949929587
78.16987951807228
77.51866000587717
78.82169493038532
80.12472985489349
80.7759493670886
80.4379746835443
80.4379746835443
81.84323784143903
83.24850099933377
83.9507860560492
82.54552289815447
80.8106301106301
78.80531012940651
78.80531012940651
80.17519949929587
81.47823442380404
81.14860479417442
79.45712554171955
78.15409061721138
78.48372024684102
80.17519949929587
81.14025974025972
80.48904022806461
78.79756097560974
77.83250073464589
79.1683356314564
80.50417052826691
81.46923076923076
80.45498575498576
79.11915085817523
78.15409061721138
78.48372024684102
79.47291444258045
80.4379746835443
80.10834505391466
78.49894179894179
77.22751322751323
77.22751322751323
78.8369164824861
81.14860479417442
82.16284980841942
81.82487512487512
80.45498575498576
80.10834505391466
80.44631973745898
80.7759493670886
79.78675517134917
77.87819225251076
76.91313201154689
77.2347218941124
79.84556986966624
81.49524549524548
82.16284980841942
81.460564751704
80.44631973745898
81.14860479417442
81.85088985088984
82.18051948051948
80.48904022806461
79.11915085817523
79.45712554171955
80.79296043853006
81.1225900681597
80.45498575498576
79.44074074074072
79.77871542428504
81.51360821180941
81.84323784143903
80.8540436456996
78.79756097560974
78.79756097560974
80.8540436456996
83.28526315789472
83.96987854251012
83.24923076923076
81.46923076923076
81.82487512487512
81.82487512487512
81.49524549524548
79.80376624279063
78.46793134598012
79.13553565915406
81.19201832924392
83.24850099933377
83.24850099933377
81.84323784143903
79.78675517134917
78.1773519163763
78.1773519163763
79.16654611211573
80.4379746835443
79.47291444258045
78.16987951807228
76.89845094664372
77.53388155797794
79.53920153920154
82.5906301106301
83.96051948051948
82.92025974025972
80.17519949929587
77.86351118760757
76.8984509466437
76.00072048993314
75.12387319929276
74.2261427425822
75.4377139280615
77.92396447367476
79.45712554171955
79.45712554171955
78.46793134598012
78.14634146341463
79.13553565915406
80.82701491160893
81.47823442380404
80.48904022806461
78.79756097560974
78.79756097560974
79.44878048780487
79.44878048780487
78.1773519163763
78.1773519163763
79.16654611211573
80.4379746835443
80.10834505391466
80.10834505391466
81.14860479417442
82.51849416406378
82.18051948051948
80.48904022806461
78.79756097560974
77.83250073464589
78.15409061721138
79.48992551402189
80.45498575498576
80.13339587242027
79.44878048780487
80.13339587242027
81.1225900681597
80.47137055596457
80.47137055596457
80.13339587242027
81.1225900681597
79.78675517134917
79.45712554171955
78.78952122854561
79.1111111111111
79.44074074074072
78.80531012940651
78.16987951807228
76.89845094664372
78.20148587115187
80.20680585237548
81.14860479417442
80.15941059843499
78.46793134598012
78.46793134598012
77.84772228674667
76.07166907166906
75.12987012987013
75.75007918910357
76.90592334494774
76.90592334494774
76.90592334494774
78.8619673009917
80.47137055596457
80.15752982719583
78.82169493038532
78.15409061721138
79.80376624279063
80.12535612535612
79.48992551402189
77.84024988844264
78.16987951807228
80.17519949929587
81.82487512487512
82.16284980841942
81.1225900681597
81.1225900681597
81.46923076923076
81.80720545277508
81.1225900681597
80.4379746835443
80.78461538461538
82.18987854251012
82.52785322605442
82.18121252498335
81.11392405063292
81.81620910734836
83.25823442380404
84.70025974025972
83.66
81.88
80.4379746835443
81.84323784143903
83.24850099933377
84.31578947368419
83.9507860560492
83.5857826384142
83.96051948051948
85.48053371286247
86.60513883746759
86.60513883746759
84.38283954840917
82.2179746835443
80.4379746835443
80.78461538461538
81.82487512487512
82.50949050949052
83.60487512487512
85.53128205128205
87.81333333333333
84.76190476190476
79.64696223316913
75.4088669950739
79.2405695391052
79.52605470349974
80.46785364529867
78.94783941295569
81.85088985088984
82.86513486513486
82.16284980841942
81.1225900681597
80.10834505391466
80.10834505391466
80.44631973745898
79.81088912612475
77.90232620728632
75.7015608260676
75.09603283173735
76.33699143740182
78.53775681862055
80.10834505391466
79.78675517134917
78.1773519163763
77.21229167541244
77.53388155797794
79.48992551402189
80.12535612535612
79.80376624279063
77.84772228674667
76.60676368108219
77.9425985778927
74.99823767563706
77.9740890688259
75.14119782214155
77.49419659815135
75.12387319929276
76.30708882039787
77.20481927710843
76.89845094664372
77.53388155797794
79.18355718355718
80.79296043853006
80.47137055596457
78.82169493038532
78.15409061721138
79.14328481295081
80.44631973745898
80.12472985489349
78.82169493038532
78.15409061721138
79.14328481295081
80.44631973745898
80.44631973745898
79.45712554171955
77.84772228674667
77.21229167541244
77.86351118760757
79.13493975903614
80.1
79.44878048780487
80.13339587242027
80.13339587242027
80.45498575498576
78.80531012940651
77.84024988844264
77.84024988844266
79.14328481295081
80.44631973745898
81.11392405063292
79.50452079566004
77.89511754068717
77.22751322751323
77.84772228674667
77.54856262288112
76.30760401721663
75.09603283173735
76.01540155483633
78.27060517474584
80.81801125703565
81.46923076923076
79.21402714932127
76.38113590263691
75.10970733120834
76.35066593687283
78.16931216931216
78.16931216931216
76.63615110126737
75.69435215946844
76.00072048993314
77.86351118760757
79.13493975903614
79.44878048780487
77.87819225251076
75.72991639044179
74.8105476673428
76.05150627300728
77.87015250544661
78.78952122854561
78.15409061721138
77.21229167541244
77.53388155797794
78.49894179894179
79.44074074074072
79.44074074074072
78.47568049977687
77.23472189411238
77.2347218941124
77.87015250544661
78.47568049977687
76.65703426733754
74.83838803489822
74.83838803489822
76.98666389696717
80.17519949929587
81.47823442380404
81.14860479417442
78.8369164824861
78.49894179894179
78.49894179894179
75.79377462568951
74.82871438472566
71.42608594983916
71.92007299886784
71.61370466840313
74.3809024919554
75.7152353255386
75.41607566167306
75.72991639044179
78.21616693605506
80.82701491160893
81.47823442380404
80.48904022806461
77.87819225251076
76.60676368108219
77.25798319327731
79.16654611211573
80.4379746835443
79.47291444258045
78.48372024684102
78.48372024684102
80.48904022806461
82.54552289815447
83.23013828276986
81.86024891288048
80.45498575498576
80.10834505391466
81.1225900681597
82.52785322605442
82.87449392712551
81.86024891288048
79.18355718355718
77.53388155797794
77.21229167541244
78.15409061721138
79.45712554171955
79.77871542428504
80.10834505391466
79.11915085817523
79.78675517134917
80.82701491160893
81.81620910734836
81.47823442380404
79.78675517134917
78.79756097560974
78.46793134598012
78.78952122854561
78.16931216931216
77.53388155797794
76.8984509466437
78.5078542016166
79.14328481295081
79.45712554171955
78.46793134598012
78.79756097560974
79.78675517134917
79.47291444258045
78.20148587115187
75.7152353255386
75.7152353255386
76.33544438477205
76.62092954916659
75.72319909245603
73.67441860465115
74.57214906136171
76.1053101294065
77.53388155797794
77.84772228674667
78.1773519163763
79.78675517134917
81.84323784143903
83.62323784143904
85.06526315789472
87.04450704225351
88.23117370892018
87.49143344917992
85.51218956482114
85.1057968707572
86.6258111031002
87.78082191780821
87.78082191780821
85.90516332982085
86.31155602388478
86.31155602388479
89.01144768152292
88.60505498745898
85.71515138522662
82.3306443429731
81.93523523523523
84.04486486486485
83.39364535266974
83.39364535266974
81.28401572304011
84.1001001001001
84.49550920783797
87.38541281007033
86.26080768546521
84.38514909747786
82.16284980841942
83.68286404076242
85.1631135210119
84.49550920783797
82.61985061985061
81.13960113960114
84.0295047418335
85.50975422208299
83.25455060217348
80.04305711737562
77.22697274031563
78.79756097560974
81.22878048780487
83.66
84.34461538461538
82.9025900681597
81.460564751704
81.11392405063292
81.11392405063292
82.18121252498335
82.52785322605442
82.52785322605442
80.47137055596457
80.47137055596457
80.81801125703565
81.80720545277508
80.79296043853006
79.77871542428504
78.78952122854561
78.46793134598012
79.8378207158695
82.26904022806461
84.70025974025972
84.70025974025972
83.60487512487512
80.55344655344655
78.8619673009917
78.8619673009917
80.13339587242027
80.45498575498576
79.11915085817523
78.46793134598012
78.79756097560974
80.13339587242027
81.46923076923076
81.46923076923076
81.1225900681597
79.47291444258045
79.81088912612475
79.14328481295081
76.6257363582625
75.95813204508856
78.84803564732093
82.3306443429731
83.34488935721812
81.46923076923076
81.80720545277508
80.79296043853006
80.10834505391466
80.45498575498576
81.46923076923076
80.81801125703565
79.48217636022514
77.83250073464589
77.51866000587715
78.85449490268766
80.15752982719583
81.1225900681597
79.78675517134917
78.48372024684102
78.15409061721138
79.14328481295081
80.44631973745898
80.7759493670886
79.78675517134917
79.44878048780487
80.13339587242027
81.46923076923076
81.46923076923076
81.46923076923076
81.46923076923076
83.63409563409564
85.11434511434511
82.8591414944356
83.6609432962374
81.49607843137255
83.06666666666666
79.77037037037036
78.80531012940651
77.84024988844264
78.5078542016166
80.87817760047517
82.88349758169878
83.5857826384142
85.14718614718615
86.66720037952913
84.05635240397528
80.12462549634476
76.59929128277817
79.57514267596702
77.0575942212787
76.15986376456814
75.79486034693315
78.94783941295569
81.14860479417442
80.44631973745898
80.44631973745898
79.77871542428504
80.12535612535612
81.13960113960114
81.13960113960114
79.80376624279063
78.78952122854561
79.45712554171955
79.45712554171955
78.82169493038532
77.83250073464589
78.15409061721138
80.15941059843499
82.21589326852484
83.23013828276986
81.86024891288048
79.80376624279063
79.11915085817523
79.78675517134917
80.10834505391466
79.14328481295081
77.84024988844264
78.16987951807228
79.81955514365153
80.78461538461538
80.13339587242027
79.78675517134917
80.47137055596457
81.80720545277508
81.13960113960114
79.48992551402189
78.47568049977687
78.80531012940651
78.80531012940651
78.16987951807228
77.84024988844266
79.48992551402189
81.49524549524548
82.50949050949052
81.82487512487512
81.82487512487512
82.54552289815447
82.88349758169878
81.19201832924392
79.13553565915406
78.46793134598012
79.45712554171955
80.10834505391466
80.10834505391466
79.77037037037036
80.45498575498576
82.18987854251012
83.96987854251012
83.96987854251012
82.23498575498576
80.12535612535612
79.77871542428504
80.44631973745898
80.12472985489349
79.13553565915406
77.83250073464589
78.82169493038532
80.15752982719583
80.79296043853006
80.45498575498576
80.10834505391466
81.1225900681597
82.9025900681597
83.24923076923076
82.9025900681597
81.460564751704
81.460564751704
81.80720545277508
82.15384615384616
80.81801125703565
79.80376624279063
79.80376624279063
81.49524549524548
82.50949050949052
81.82487512487512
81.46923076923076
82.18987854251012
82.87449392712551
82.52785322605442
80.79296043853006
80.10834505391466
80.45498575498576
80.78461538461538
80.13339587242027
78.79756097560974
78.46793134598012
80.52441401606998
82.21589326852484
82.88349758169878
81.14860479417442
80.44631973745898
81.51360821180941
82.52785322605442
81.86024891288048
80.12535612535612
79.1111111111111
80.12535612535612
81.49524549524548
82.16284980841942
81.81620910734836
80.44631973745898
79.77871542428504
79.44074074074072
79.77037037037036
78.82857142857142
77.55714285714285
75.98655462184874
76.60676368108219
77.87819225251076
79.11915085817523
79.11915085817523
78.46793134598012
78.46793134598012
79.45712554171955
80.10834505391466
80.10834505391466
79.44074074074072
78.78952122854561
79.80376624279063
80.13339587242027
80.45498575498576
79.11915085817523
79.45712554171955
80.12472985489349
79.50452079566004
78.51532659992061
78.8619673009917
80.13339587242027
80.13339587242027
78.48372024684102
78.48372024684102
78.80531012940651
79.11915085817523
77.84772228674667
76.90592334494774
77.55714285714285
79.51318681318682
81.46923076923076
81.80720545277508
81.1225900681597
81.47823442380404
82.18051948051948
82.51849416406378
81.14860479417442
80.10834505391466
78.49894179894179
78.49894179894179
78.49894179894179
79.11915085817523
78.48372024684102
78.48372024684102
79.81955514365153
81.1225900681597
81.1225900681597
80.10834505391466
80.10834505391466
80.44631973745898
81.11392405063292
81.81620910734836
82.88349758169878
82.21589326852484
80.84600389863547
79.44074074074072
79.77037037037036
81.14025974025972
82.54552289815447
83.9507860560492
83.24850099933377
81.84323784143903
80.7759493670886
81.1225900681597
80.47137055596457
79.48217636022514
78.14634146341463
78.46793134598012
79.45712554171955
80.79296043853006
82.16284980841942
82.50949050949052
82.86513486513486
81.82487512487512
80.48904022806461
79.78675517134917
80.12472985489349
81.11392405063292
80.12472985489349
78.21616693605506
76.91313201154689
76.9131320115469
79.1683356314564
81.17365561268
82.50949050949052
82.86513486513486
82.86513486513486
82.51849416406378
82.16284980841942
81.1225900681597
79.81955514365153
77.86351118760757
76.29292295231345
77.25798319327731
78.19978213507625
76.80370370370369
78.96856856856856
79.98281358281358
83.63409563409564
82.50949050949052
82.16284980841942
81.14860479417442
80.10834505391466
80.8106301106301
82.54552289815447
82.88349758169878
82.18121252498335
81.460564751704
82.16284980841942
83.23013828276986
81.89430338595935
80.20282413350449
78.14634146341463
79.13553565915406
79.45712554171955
79.14328481295081
78.80531012940651
78.80531012940651
80.10834505391466
81.14860479417442
82.88349758169878
83.23013828276986
81.86024891288048
80.79296043853006
80.79296043853006
83.28745493302455
84.35474340737498
84.71038776301933
82.21589326852484
81.49524549524548
81.49524549524548
82.86513486513486
82.18051948051948
80.48904022806461
78.79756097560974
79.13553565915406
81.19201832924392
82.52785322605442
83.23013828276986
82.16284980841942
82.51849416406378
82.88349758169878
83.5857826384142
82.54552289815447
81.14025974025972
80.4379746835443
81.1225900681597
81.1225900681597
80.13339587242027
79.11915085817523
79.45712554171955
81.51360821180941
82.88349758169878
83.23013828276986
81.82487512487512
81.1225900681597
81.47823442380404
82.51849416406378
82.86513486513486
82.16284980841942
81.1225900681597
81.47823442380404
82.54552289815447
83.9507860560492
83.24850099933377
82.52785322605442
82.52785322605442
84.35474340737498
85.83499288762445
86.20972972972973
85.4501280227596
85.06526315789472
85.4501280227596
86.20972972972973
86.20972972972973
84.38283954840917
82.2179746835443
80.10834505391466
80.10834505391466
81.51360821180941
82.88349758169878
83.5857826384142
83.2207792207792
82.86513486513486
82.86513486513486
83.23013828276986
83.9507860560492
83.24850099933377
81.84323784143903
79.16654611211573
77.55714285714285
77.22751322751323
78.49894179894179
78.80531012940651
78.80531012940651
78.47568049977687
78.78952122854561
78.78952122854561
79.45712554171955
80.44631973745898
80.7759493670886
79.47291444258045
78.48372024684102
77.51866000587715
78.48372024684102
79.81955514365153
81.1225900681597
80.79296043853006
79.45712554171955
78.78952122854561
79.80376624279063
81.49524549524548
82.16284980841942
81.14860479417442
79.45712554171955
78.15409061721138
78.48372024684102
79.47291444258045
80.4379746835443
80.4379746835443
79.77037037037036
79.77037037037036
80.8106301106301
80.8106301106301
78.66235424856114
79.02735766619614
79.35698729582577
82.18987854251012
82.18987854251012
83.59514170040485
82.91052631578947
81.84323784143903
80.4379746835443
79.47291444258045
79.13493975903614
79.81955514365153
81.1225900681597
80.79296043853006
78.8369164824861
76.92835356364768
75.39519249560288
75.09603283173735
76.66662106703146
79.9346749226006
83.6701280227596
85.07539118065432
81.80733732508517
78.37104388879175
78.745780730897
78.46029556650247
78.76666389696717
76.65703426733754
77.53388155797794
76.92835356364768
75.39519249560288
75.39519249560288
76.63615110126737
79.18355718355718
81.86024891288048
83.96987854251012
85.4501280227596
84.72948024948025
82.61985061985061
80.12535612535612
80.12535612535612
81.13960113960114
81.13960113960114
79.48992551402189
78.47568049977687
79.48992551402189
80.12535612535612
79.18355718355718
77.53388155797794
76.8984509466437
77.84024988844266
78.80531012940651
80.10834505391466
80.7759493670886
79.81088912612475
78.82169493038532
78.82169493038532
80.47137055596457
81.460564751704
81.1225900681597
80.4379746835443
79.44878048780487
79.44878048780487
80.13339587242027
81.46923076923076
81.46923076923076
79.81955514365153
78.80531012940651
78.47568049977687
80.12535612535612
81.49524549524548
80.25428688958101
83.38395721925133
83.38395721925133
85.63916083916084
83.60487512487512
83.96987854251012
83.96987854251012
82.18987854251012
80.78461538461538
80.4379746835443
81.1225900681597
81.80720545277508
81.13960113960114
79.80376624279063
77.84772228674667
77.52613240418118
78.51532659992061
80.82701491160893
82.16284980841942
82.16284980841942
81.460564751704
81.460564751704
82.16284980841942
82.86513486513486
82.86513486513486
81.17365561268
78.8619673009917
77.21229167541244
76.8984509466437
78.5078542016166
80.15752982719583
81.80720545277508
81.80720545277508
81.460564751704
80.12472985489349
79.78675517134917
79.44878048780487
79.77037037037036
78.49894179894179
76.63615110126737
75.10299003322258
74.51162790697674
76.04478897502153
78.94783941295569
81.14860479417442
81.81620910734836
80.12472985489349
79.13553565915406
79.13553565915406
79.78675517134917
76.70571661902818
77.05235732009925
74.62508459282652
77.70612314514753
76.37028824833702
77.22697274031563
76.91313201154689
76.59929128277817
77.84024988844266
79.14328481295081
80.44631973745898
79.50452079566004
77.30375541444131
75.10299003322258
75.72319909245604
78.27060517474584
81.17365561268
82.50949050949052
81.49524549524548
80.45498575498576
79.44074074074072
80.10834505391466
80.79296043853006
81.1225900681597
80.13339587242027
78.48372024684102
78.15409061721138
79.14328481295081
81.51360821180941
83.24850099933377
83.24850099933377
81.51360821180941
80.10834505391466
78.49894179894179
78.49894179894179
78.8369164824861
80.10834505391466
79.16654611211573
77.25798319327731
75.39519249560288
76.01540155483633
78.27060517474584
81.53865903031499
83.23013828276986
82.88349758169878
80.51317418284019
78.20148587115187
76.29292295231345
76.60676368108219
78.21616693605506
80.12472985489349
79.20536113179449
77.29679821295606
75.38823529411765
76.30760401721665
78.21616693605506
80.82701491160893
81.47823442380404
80.17519949929587
77.86351118760757
77.86351118760757
78.82857142857142
78.82857142857142
76.96578073089701
74.81750486882804
73.66166071298389
74.25302283922974
76.40129870129869
78.82857142857142
79.44878048780487
79.11915085817523
78.15409061721138
77.84024988844264
77.20481927710843
77.51866000587717
78.15409061721138
78.15409061721138
77.53388155797794
76.592082616179
76.90592334494774
78.1773519163763
79.44878048780487
79.77037037037036
78.80531012940651
78.15409061721138
78.15409061721138
79.11915085817523
80.8106301106301
81.47823442380404
80.82701491160893
78.51532659992061
77.21229167541244
76.592082616179
76.8984509466437
78.20148587115187
80.51317418284017
81.47823442380404
80.8106301106301
78.19978213507625
76.05150627300728
75.10970733120834
75.7152353255386
77.86351118760757
76.16827309236947
78.53859649122805
76.39032062915909
76.65698729582577
72.55172413793103
72.55172413793103
74.9220945083014
77.9600691918457
79.77871542428504
78.8369164824861
77.22751322751323
75.4088669950739
75.7152353255386
76.33544438477205
76.91313201154689
76.01540155483633
75.7015608260676
77.27214906136172
79.47291444258045
81.47823442380404
81.81620910734836
80.51317418284019
79.47291444258045
78.48372024684102
79.78675517134917
80.47137055596457
80.79296043853006
79.48992551402189
77.84024988844264
77.51866000587717
79.1683356314564
81.17365561268
82.50949050949052
82.16284980841942
80.79296043853006
80.44631973745898
80.79296043853006
80.79296043853006
79.80376624279063
78.15409061721138
76.91313201154689
77.2347218941124
79.24004187533598
81.49524549524548
81.82487512487512
80.78461538461538
79.13493975903613
78.80531012940651
77.84024988844264
76.94251943173208
74.844876334089
73.10993657505284
73.7012987012987
75.7989417989418
78.16931216931216
78.78952122854561
78.15409061721138
77.21229167541244
77.86351118760757
78.49894179894179
78.19978213507625
76.92835356364768
75.68739495798319
76.60676368108219
76.91313201154689
76.62092954916659
75.7015608260676
74.5183452049625
75.41607566167306
76.65703426733754
78.47568049977687
78.78952122854561
77.54856262288112
75.45091952523802
74.83071046600458
75.75007918910357
76.31456121870188
75.43771392806148
75.75930381062699
77.29246487867177
80.12535612535612
81.86024891288048
83.59514170040485
83.9507860560492
82.88349758169878
80.20680585237548
75.93907358464321
71.62450315641804
69.41332303219444
70.49251969759801
71.76911544227886
72.8244514106583
73.7012987012987
74.53850800362427
76.31456121870188
76.62092954916659
77.21229167541244
74.8968445209409
72.89523809523808
72.01839080459769
74.0199972303005
75.12387319929276
74.04467653388919
71.52712807920088
70.42325211020862
72.37929606625258
75.21068524970963
76.90592334494774
76.31456121870188
72.98918498621615
71.29394689097805
71.0084617265835
71.75758494379184
70.50846213677428
68.6801422541624
69.4803420543622
72.42470295661785
74.83071046600458
75.39519249560288
74.80383036935704
76.04478897502153
77.25636016050082
77.54856262288112
75.45091952523802
72.36988097291703
72.07767851053671
72.64216054013502
73.67441860465115
72.30973677485304
72.0242516104585
74.07303209826338
75.72991639044179
76.01540155483633
74.5183452049625
74.81750486882805
75.4088669950739
75.12987012987013
73.17382617382617
70.96264604960257
71.81933054158118
73.18401237137928
74.80383036935704
74.2261427425822
74.81750486882805
76.68029556650245
77.55714285714285
76.4012987012987
73.43463203463202
72.55778474399163
73.12226677358994
73.66166071298389
72.84326990838618
73.13547237076648
75.56274509803922
77.87819225251076
77.58598979013045
76.31456121870188
76.31456121870188
78.1773519163763
78.1773519163763
76.96578073089701
75.10299003322258
75.1029900332226
76.63615110126737
77.84772228674667
78.15409061721138
77.83250073464589
78.48372024684102
78.79756097560974
77.87819225251076
75.45091952523802
73.95386317536419
74.55939116969445
76.33544438477205
76.62092954916659
76.62092954916659
76.94251943173208
77.84024988844264
77.23472189411238
75.7015608260676
75.7015608260676
77.95676444597711
79.48992551402189
80.12535612535612
78.16931216931216
78.49894179894179
79.16654611211573
80.10834505391466
78.53775681862055
76.62919389978212
75.99376328844791
77.90232620728634
79.14328481295081
79.77871542428504
78.47568049977687
78.80531012940651
78.80531012940651
78.80531012940651
76.94251943173208
76.62092954916659
77.25636016050082
77.84772228674667
77.22751322751323
76.28571428571429
77.22751322751323
79.53920153920154
81.85088985088984
82.86513486513486
81.82487512487512
81.46923076923076
81.1225900681597
80.47137055596457
78.21616693605506
76.60676368108219
76.92835356364768
77.22751322751323
76.63615110126737
76.00072048993314
77.27214906136172
78.80531012940651
78.49894179894179
76.92835356364768
76.60676368108219
78.21616693605506
79.45712554171955
79.45712554171955
77.84772228674667
77.21229167541244
78.54812657222296
79.81955514365151
79.81955514365153
78.16987951807228
77.51866000587717
77.21229167541244
76.31456121870188
74.81750486882804
75.12387319929276
77.32463858051148
79.47291444258045
79.78675517134917
78.48372024684102
77.51866000587715
77.84024988844266
77.84024988844264
76.37803740213377
74.00766703176342
73.7012987012987
75.7989417989418
77.53388155797794
77.53388155797794
77.86351118760757
79.51318681318682
80.45498575498576
79.80376624279063
78.15409061721138
77.83250073464589
78.82169493038532
78.21616693605506
76.71911058618122
74.8105476673428
75.72991639044179
77.87819225251076
78.79756097560974
79.11915085817523
79.11915085817523
80.10834505391466
79.47291444258045
77.32463858051148
73.75919136949464
72.86146091278408
74.04467653388919
76.30708882039787
76.89845094664372
76.592082616179
76.90592334494774
78.1773519163763
79.78675517134917
80.10834505391466
78.8369164824861
77.53388155797794
77.86351118760757
77.86351118760757
77.25798319327731
74.83071046600458
74.83071046600458
74.53850800362427
74.265780730897
73.67441860465115
75.20757967269594
77.57795004306631
78.16931216931216
76.92835356364768
75.98655462184874
76.92835356364768
76.92835356364768
76.05150627300728
75.10970733120834
77.01827025004677
78.8369164824861
79.77871542428504
78.16931216931216
78.49894179894179
79.51318681318682
80.78461538461538
79.81955514365153
77.56435152374202
76.59929128277817
76.9131320115469
76.62092954916659
75.72319909245603
75.72319909245604
76.62092954916659
76.62092954916659
75.12387319929276
74.5183452049625
75.72991639044179
77.87819225251076
78.1773519163763
77.55714285714285
75.12987012987013
75.43623846033483
76.05644751956828
77.51866000587715
77.21229167541244
75.7152353255386
75.4088669950739
76.35066593687283
78.49894179894179
78.49894179894179
77.25798319327731
75.68739495798319
76.30760401721665
76.60676368108219
76.90592334494774
75.12987012987013
74.53850800362427
74.53850800362429
76.31456121870188
76.31456121870188
75.72319909245603
74.51162790697674
74.51162790697674
76.37441860465115
78.23720930232557
79.13493975903613
77.56435152374202
75.7015608260676
75.09603283173735
76.01540155483633
76.30760401721663
74.91152558584409
72.08013640238704
71.78793394000674
73.78954036570954
76.94251943173208
76.65703426733754
75.75930381062697
73.66166071298389
74.23934833975873
75.45091952523802
76.60676368108219
76.02907605430734
73.71362889983578
73.12226677358994
74.30548239469505
76.94251943173208
76.94251943173208
76.33699143740182
75.39519249560288
77.25798319327731
78.82857142857142
78.52941176470587
76.10213903743315
73.13547237076648
72.84326990838618
74.30548239469505
75.4093583636873
75.12387319929276
72.60632474460445
71.76911544227886
72.0546006066734
74.88598979013045
76.93477027793533
77.52613240418118
75.75007918910357
73.7012987012987
73.7012987012987
73.42857142857143
72.3963133640553
69.93548387096774
70.48720800889878
72.94803750198633
74.81750486882804
75.10299003322258
74.51162790697674
75.72319909245604
76.62092954916659
76.33544438477205
73.25440583245106
70.73685737776273
70.45786051255897
73.22505833611123
76.05644751956828
76.62092954916659
75.43771392806148
74.2261427425822
75.12387319929276
76.94251943173208
77.23472189411238
75.77250940780351
73.67486631016043
74.28039430449068
76.7076670317634
78.80531012940651
78.80531012940651
78.15409061721138
77.51866000587715
78.48372024684102
78.48372024684102
77.58598979013045
75.43771392806148
73.94065757818765
74.83838803489822
76.65703426733754
77.23472189411238
76.62919389978212
75.38823529411765
75.99376328844791
78.2489669083574
80.15752982719583
80.15752982719583
78.20148587115187
76.29292295231345
76.60676368108219
77.87819225251076
77.30050462573591
75.5244514106583
72.8244514106583
73.7012987012987
75.7989417989418
77.84772228674667
77.84772228674667
76.31456121870188
75.39519249560288
76.33699143740182
77.23472189411238
76.94251943173208
75.4093583636873
74.2261427425822
75.12387319929276
75.7152353255386
76.00072048993314
75.39519249560288
75.09603283173735
76.30760401721665
78.21616693605506
80.47137055596457
80.47137055596457
78.8619673009917
76.02907605430734
75.4088669950739
75.10970733120834
74.55798319327731
72.60193923723335
70.68991877687529
72.11849020544673
75.68393741646356
79.16654611211573
80.10834505391466
78.49894179894179
77.22751322751323
75.98655462184874
76.60676368108219
76.91313201154689
76.05644751956828
73.74100036509674
71.47858807858807
72.33527257056667
74.65071972503823
76.01540155483633
75.15871706285772
72.84326990838618
72.27878787878787
73.74100036509674
75.74260679079956
76.59929128277817
75.1370787964693
73.40213903743316
72.8244514106583
73.98029556650246
74.81750486882804
74.53850800362427
73.38266384778012
73.97402597402598
75.75007918910357
76.02907605430734
75.15222876366694
73.10344827586206
73.98029556650246
75.16351118760757
76.29292295231345
75.41607566167306
73.68113590263692
74.60050462573591
76.41915085817524
78.46793134598012
77.54856262288112
76.01540155483633
74.5183452049625
75.4377139280615
76.64928511354078
76.37028824833702
74.32150776053214
72.27272727272727
73.42857142857143
76.12857142857143
77.55714285714285
76.96578073089701
74.265780730897
74.265780730897
75.4773519163763
76.90592334494774
76.31456121870188
74.53850800362427
74.53850800362429
75.75007918910357
77.52613240418118
76.93477027793533
75.43771392806148
73.66166071298389
73.37617554858934
74.55939116969445
74.83838803489822
75.12387319929276
73.38893344025661
74.265780730897
75.7989417989418
77.84772228674667
77.25636016050082
75.43771392806148
73.66166071298389
73.66166071298389
75.48030694542322
77.90757967269593
79.11915085817523
78.1773519163763
76.31456121870188
75.39519249560288
76.33699143740182
77.87015250544661
78.16931216931216
76.92835356364768
75.68739495798319
76.30760401721665
77.87819225251076
78.79756097560974
78.1773519163763
76.31456121870188
74.81750486882804
74.2261427425822
75.12387319929276
76.30708882039787
76.30708882039787
75.12387319929276
73.38893344025661
73.68113590263691
75.17819225251075
77.54856262288112
77.84772228674667
76.63615110126737
74.53850800362427
74.23934833975873
75.77250940780351
76.92835356364768
76.63615110126737
74.53850800362427
73.66166071298389
74.55939116969445
76.33544438477205
77.21229167541244
75.75007918910357
73.7012987012987
72.8244514106583
74.60050462573591
77.3005046257359
79.44878048780487
79.13493975903613
76.98666389696717
74.28666389696718
73.38893344025661
74.57214906136171
75.7015608260676
75.41607566167306
73.41446923597024
72.28505747126437
72.0060606060606
74.0076670317634
77.04564171530771
79.81088912612475
79.81088912612475
78.20148587115187
76.00072048993314
75.69435215946844
76.31456121870188
76.60676368108219
76.01540155483633
75.09603283173735
76.33699143740182
77.54856262288112
77.25636016050082
75.15871706285772
73.66166071298389
73.66166071298389
75.12387319929276
77.95676444597711
80.50417052826691
80.50417052826691
77.67127928158256
74.0199972303005
72.8367816091954
73.12226677358994
72.35667537574048
70.5283554931286
68.65888812628688
70.5283554931286
73.23352266638088
75.10299003322258
74.53850800362427
73.94714587737843
74.844876334089
76.94251943173208
76.65703426733754
75.19482178102866
72.55778474399163
73.13547237076648
74.59768485707535
75.7015608260676
74.844876334089
72.84326990838618
73.13547237076648
74.59768485707535
75.99376328844791
75.1370787964693
73.13547237076648
71.73939393939392
72.59607843137253
73.69995440036479
74.23934833975873
73.10993657505284
73.40213903743314
74.25882352941176
74.25882352941176
71.85281602002502
70.45673758865247
71.58614935335835
73.13547237076648
72.87466650996062
71.2177822177822
71.78226424738051
73.14694607717863
73.67441860465115
71.80495123780945
71.24046920821114
72.66904063678257
75.43623846033483
76.00072048993314
74.57214906136173
72.57054263565891
73.46827309236947
74.8968445209409
75.7152353255386
74.25302283922973
72.8244514106583
73.7012987012987
75.4773519163763
76.31456121870188
74.88598979013045
72.30973677485304
71.2058608058608
72.63443223443223
74.59047619047618
75.69435215946844
74.53850800362427
73.10993657505284
72.8244514106583
73.68113590263691
73.95386317536419
72.36988097291703
70.45786051255897
70.45786051255897
72.91869000564652
74.83071046600458
75.10970733120834
74.23286004056796
74.23286004056796
76.05150627300728
77.87015250544661
78.78952122854561
77.84772228674667
77.52613240418118
77.84772228674667
77.84772228674667
76.63615110126737
74.81750486882804
75.4377139280615
77.63847930928021
79.78675517134917
78.86738644825019
77.25798319327731
76.92835356364768
78.8369164824861
80.10834505391466
78.57518398586988
76.66662106703146
75.7015608260676
77.90232620728634
78.20148587115187
77.30375541444131
75.10299003322258
74.80383036935704
76.33699143740182
77.54856262288112
78.15409061721138
76.91313201154689
76.9131320115469
77.22697274031563
78.14634146341463
76.09756097560975
73.78211382113821
71.73333333333332
72.86274509803921
74.86435152374202
76.59929128277817
77.20481927710843
76.59929128277817
76.9131320115469
77.54856262288112
78.15409061721138
77.23472189411238
74.86435152374202
73.12941176470588
73.42857142857143
74.85714285714286
75.98655462184874
75.68739495798319
75.6873949579832
76.29292295231345
77.53388155797794
77.53388155797794
76.92835356364768
74.55798319327731
73.12941176470588
73.42857142857143
75.16351118760757
76.29292295231345
76.59929128277817
76.59929128277817
77.51866000587717
78.48372024684102
78.79756097560974
77.87819225251076
76.01540155483633
74.5183452049625
73.94065757818765
75.15222876366695
77.3005046257359
78.48372024684102
78.16987951807228
77.84024988844266
78.47568049977687
78.78952122854561
77.54856262288112
74.14593418799463
71.56968117271722
71.56968117271722
74.33687899626949
75.99376328844791
75.1370787964693
74.23934833975873
74.53850800362429
76.965780730897
78.82857142857142
78.52941176470587
76.66662106703146
74.80383036935704
73.94714587737843
74.53850800362429
76.07166907166906
77.53388155797794
77.23472189411238
75.1370787964693
73.67486631016043
73.97402597402598
76.07166907166906
77.84772228674667
76.97087499610628
75.15222876366694
73.65517241379311
75.15222876366695
76.97087499610628
77.25636016050082
74.42497097704377
71.02234254215728
70.73685737776273
72.35667537574048
72.86146091278408
71.78226424738051
69.9127968805388
71.27747871033692
73.85373172561432
76.62092954916659
76.62092954916659
74.844876334089
72.84326990838618
73.13547237076648
74.59768485707535
75.99376328844791
74.59768485707535
72.33527257056667
71.75758494379183
73.75919136949464
75.12387319929276
75.4093583636873
73.94714587737843
74.23934833975873
75.77250940780351
77.87015250544661
78.16931216931216
76.92835356364768
75.10970733120834
74.23286004056796
74.83838803489822
77.32463858051148
79.81088912612475
79.50452079566004
77.59595787682161
75.68739495798319
75.99376328844791
76.9131320115469
77.21229167541244
76.31456121870188
74.265780730897
73.10993657505284
73.40213903743314
75.45091952523802
78.21616693605506
78.82169493038532
77.90232620728632
75.41607566167306
74.8105476673428
74.8105476673428
75.09603283173735
73.43914853955893
72.04307010818638
72.33527257056667
75.23311546840958
76.33699143740182
76.33699143740182
75.09603283173735
74.8105476673428
75.10970733120834
76.02907605430734
76.31456121870188
75.15871706285772
72.58246404758032
70.96264604960257
71.24164291480633
73.81789593008374
77.3005046257359
78.1773519163763
77.55714285714285
75.4088669950739
74.81750486882804
75.12387319929276
76.94251943173208
76.94251943173208
75.48030694542321
73.10993657505284
72.8244514106583
74.60050462573591
77.3005046257359
78.48372024684102
78.16987951807228
76.89845094664372
76.00072048993314
75.39519249560288
76.33699143740182
77.23472189411238
76.65703426733754
73.504055201315
70.98650674662669
70.16811594202898
72.37929606625258
75.21068524970963
77.52613240418118
77.52613240418118
75.4773519163763
73.7012987012987
72.8244514106583
74.25302283922974
74.81750486882804
74.265780730897
72.57054263565891
71.73333333333332
73.16190476190476
76.81318681318682
79.18355718355718
78.88439751969163
75.77250940780351
73.67486631016043
73.38266384778012
75.15871706285773
76.93477027793533
77.83250073464589
76.05644751956828
73.22505833611123
70.96264604960257
71.24164291480633
72.0242516104585
71.5194660734149
69.69114619080301
69.16367366333048
71.03314103017219
72.58246404758032
72.32732787940068
70.45786051255897
70.45786051255897
72.36988097291702
73.13547237076648
71.83048703352308
69.42447952413634
69.16367366333048
71.93087148688275
75.25624771936849
77.51866000587715
77.51866000587715
76.59929128277817
75.7015608260676
76.01540155483633
76.31456121870188
74.69474322072413
71.61370466840313
71.02234254215728
72.64216054013502
73.40775193798449
72.84326990838618
73.13547237076648
75.1370787964693
76.9131320115469
76.91313201154689
75.72991639044179
74.8105476673428
75.41607566167306
74.59768485707535
72.19167734768862
69.42447952413634
70.5283554931286
73.23352266638088
74.81750486882804
74.81750486882804
75.4377139280615
77.58598979013044
78.48372024684102
77.27214906136172
74.844876334089
74.53850800362429
74.53850800362427
73.73830820342448
71.78226424738051
71.49677908298597
73.75919136949464
75.41607566167306
75.7015608260676
75.7015608260676
77.61012374490602
78.82169493038532
78.21616693605506
75.72991639044179
75.10970733120834
74.81750486882804
74.53850800362427
72.58246404758032
72.87466650996062
73.43914853955893
74.23934833975873
73.94714587737843
75.15871706285773
76.93477027793533
77.22697274031563
75.72991639044179
75.72991639044179
76.02907605430734
76.02907605430734
74.25302283922973
74.87323189846319
76.37028824833702
77.83250073464589
76.91313201154689
76.9131320115469
77.54856262288112
78.78952122854561
78.47568049977687
78.15409061721138
77.83250073464589
76.64928511354078
74.33383795906923
72.8367816091954
72.55778474399163
72.04184271500614
71.76284584980236
73.22505833611123
75.43623846033483
76.592082616179
77.22751322751323
79.18355718355718
80.45498575498576
80.13339587242027
77.87819225251076
76.60676368108219
75.10970733120834
73.45282303902994
71.24164291480633
71.52712807920088
72.0546006066734
72.30973677485304
72.0242516104585
73.75919136949464
75.41607566167306
75.7015608260676
75.39519249560288
76.63615110126737
77.22751322751323
76.63615110126737
75.39519249560288
76.01540155483633
76.30760401721663
76.30760401721663
74.53155080213904
74.83071046600458
75.75007918910357
76.02907605430734
74.33383795906923
72.28505747126437
72.57054263565891
72.57054263565891
71.78793394000674
71.22345191040843
72.91869000564652
75.43623846033483
76.29292295231345
75.7015608260676
76.01540155483633
76.31456121870188
75.4773519163763
72.90109890109889
72.30973677485305
73.73830820342448
75.10299003322258
74.81750486882804
74.5183452049625
75.72991639044179
76.30760401721663
75.17819225251075
73.12941176470588
73.42857142857143
75.16351118760757
76.29292295231345
75.7015608260676
76.01540155483633
76.62092954916659
76.91313201154689
75.41607566167306
75.10970733120834
75.7152353255386
76.29292295231345
75.7015608260676
75.7015608260676
77.27214906136172
78.16987951807228
78.16987951807228
77.84024988844266
78.80531012940651
78.80531012940651
78.16987951807228
76.02160365600332
76.65703426733754
76.65703426733754
77.53388155797794
76.00072048993314
76.31456121870188
77.58598979013044
78.79756097560974
78.48372024684102
76.62092954916659
76.62092954916659
76.93477027793533
