2022-12-02 16:50:00.371920, 1.52493
2022-12-02 16:50:00.380033, 1.51515
2022-12-02 16:50:00.392047, 1.50538
2022-12-02 16:50:00.400649, 1.50538
2022-12-02 16:50:00.409106, 1.52981
2022-12-02 16:50:00.417373, 1.49560
2022-12-02 16:50:00.429293, 1.50049
2022-12-02 16:50:00.437729, 1.51026
2022-12-02 16:50:00.446020, 1.53470
2022-12-02 16:50:00.457923, 1.53470
2022-12-02 16:50:00.466231, 1.55425
2022-12-02 16:50:00.474716, 1.57380
2022-12-02 16:50:00.482570, 1.59335
2022-12-02 16:50:00.495093, 1.60313
2022-12-02 16:50:00.503199, 1.62268
2022-12-02 16:50:00.511417, 1.63245
2022-12-02 16:50:00.519834, 1.63734
2022-12-02 16:50:00.531816, 1.65200
2022-12-02 16:50:00.539624, 1.66178
2022-12-02 16:50:00.548332, 1.65689
2022-12-02 16:50:00.560231, 1.65689
2022-12-02 16:50:00.568507, 1.66178
2022-12-02 16:50:00.576961, 1.68622
2022-12-02 16:50:00.585240, 1.66178
2022-12-02 16:50:00.597002, 1.66178
2022-12-02 16:50:00.605627, 1.69110
2022-12-02 16:50:00.614005, 1.66178
2022-12-02 16:50:00.626199, 1.65689
2022-12-02 16:50:00.634119, 1.65689
2022-12-02 16:50:00.641968, 1.65200
2022-12-02 16:50:00.650235, 1.64712
2022-12-02 16:50:00.662628, 1.64223
2022-12-02 16:50:00.671380, 1.67155
2022-12-02 16:50:00.679342, 1.62268
2022-12-02 16:50:00.690920, 1.61779
2022-12-02 16:50:00.699662, 1.61290
2022-12-02 16:50:00.708218, 1.60313
2022-12-02 16:50:00.716036, 1.59824
2022-12-02 16:50:00.728432, 1.58847
2022-12-02 16:50:00.736628, 1.60313
2022-12-02 16:50:00.744774, 1.58847
2022-12-02 16:50:00.756924, 1.57869
2022-12-02 16:50:00.765411, 1.58358
2022-12-02 16:50:00.773386, 1.57869
2022-12-02 16:50:00.781903, 1.58358
2022-12-02 16:50:00.794022, 1.58358
2022-12-02 16:50:00.802344, 1.59335
2022-12-02 16:50:00.810308, 1.57380
2022-12-02 16:50:00.822752, 1.56891
2022-12-02 16:50:00.831056, 1.57380
2022-12-02 16:50:00.839158, 1.55914
2022-12-02 16:50:00.847202, 1.54936
2022-12-02 16:50:00.859660, 1.54448
2022-12-02 16:50:00.867703, 1.54936
2022-12-02 16:50:00.876220, 1.52981
2022-12-02 16:50:00.888050, 1.52004
2022-12-02 16:50:00.896364, 1.52493
2022-12-02 16:50:00.904857, 1.50538
2022-12-02 16:50:00.913138, 1.49560
2022-12-02 16:50:00.925267, 1.49560
2022-12-02 16:50:00.933044, 1.48094
2022-12-02 16:50:00.941317, 1.47116
2022-12-02 16:50:00.953799, 1.46628
2022-12-02 16:50:00.961856, 1.45650
2022-12-02 16:50:00.969973, 1.45161
2022-12-02 16:50:00.978157, 1.44673
2022-12-02 16:50:00.990636, 1.46139
2022-12-02 16:50:00.998640, 1.43206
2022-12-02 16:50:01.007059, 1.42229
2022-12-02 16:50:01.019269, 1.42229
2022-12-02 16:50:01.027635, 1.41251
2022-12-02 16:50:01.035721, 1.41251
2022-12-02 16:50:01.043774, 1.40762
2022-12-02 16:50:01.056206, 1.43206
2022-12-02 16:50:01.064375, 1.39785
2022-12-02 16:50:01.072417, 1.39296
2022-12-02 16:50:01.084618, 1.40762
2022-12-02 16:50:01.093182, 1.39296
2022-12-02 16:50:01.101275, 1.39296
2022-12-02 16:50:01.109664, 1.39296
2022-12-02 16:50:01.121849, 1.38319
2022-12-02 16:50:01.129627, 1.37830
2022-12-02 16:50:01.138309, 1.37341
2022-12-02 16:50:01.150297, 1.37341
2022-12-02 16:50:01.158781, 1.37341
2022-12-02 16:50:01.166915, 1.36852
2022-12-02 16:50:01.175036, 1.40762
2022-12-02 16:50:01.187261, 1.38319
2022-12-02 16:50:01.195757, 1.39296
2022-12-02 16:50:01.203595, 1.42717
2022-12-02 16:50:01.215669, 1.43695
2022-12-02 16:50:01.224198, 1.46139
2022-12-02 16:50:01.232463, 1.49071
2022-12-02 16:50:01.240242, 1.51026
2022-12-02 16:50:01.252456, 1.53959
2022-12-02 16:50:01.260960, 1.56891
2022-12-02 16:50:01.269394, 1.58847
2022-12-02 16:50:01.281616, 1.60802
2022-12-02 16:50:01.289608, 1.63245
2022-12-02 16:50:01.297790, 1.65200
2022-12-02 16:50:01.305831, 1.65689
2022-12-02 16:50:01.318300, 1.67155
2022-12-02 16:50:01.326693, 1.71065
2022-12-02 16:50:01.334024, 1.68133
2022-12-02 16:50:01.346198, 1.68622
2022-12-02 16:50:01.355062, 1.70088
2022-12-02 16:50:01.363418, 1.70088
2022-12-02 16:50:01.371667, 1.70577
2022-12-02 16:50:01.383607, 1.71065
2022-12-02 16:50:01.392225, 1.71554
2022-12-02 16:50:01.399806, 1.71554
2022-12-02 16:50:01.408686, 1.71554
2022-12-02 16:50:01.420066, 1.71065
2022-12-02 16:50:01.428994, 1.70088
2022-12-02 16:50:01.437318, 1.70088
2022-12-02 16:50:01.449142, 1.69110
2022-12-02 16:50:01.457489, 1.68133
2022-12-02 16:50:01.466000, 1.68133
2022-12-02 16:50:01.473394, 1.67644
2022-12-02 16:50:01.486182, 1.67644
2022-12-02 16:50:01.494474, 1.67155
2022-12-02 16:50:01.502301, 1.70088
2022-12-02 16:50:01.514918, 1.66667
2022-12-02 16:50:01.523149, 1.66178
2022-12-02 16:50:01.531277, 1.67644
2022-12-02 16:50:01.539779, 1.66178
2022-12-02 16:50:01.551830, 1.66178
2022-12-02 16:50:01.559980, 1.66667
2022-12-02 16:50:01.567716, 1.65689
2022-12-02 16:50:01.580339, 1.65689
2022-12-02 16:50:01.588911, 1.65200
2022-12-02 16:50:01.596901, 1.64712
2022-12-02 16:50:01.605200, 1.64223
2022-12-02 16:50:01.617495, 1.64223
2022-12-02 16:50:01.625527, 1.65200
2022-12-02 16:50:01.633759, 1.62268
2022-12-02 16:50:01.646235, 1.61290
2022-12-02 16:50:01.654025, 1.60313
2022-12-02 16:50:01.662644, 1.59335
2022-12-02 16:50:01.670863, 1.61290
2022-12-02 16:50:01.682737, 1.57380
2022-12-02 16:50:01.690670, 1.56403
2022-12-02 16:50:01.698342, 1.55425
2022-12-02 16:50:01.711536, 1.54448
2022-12-02 16:50:01.719569, 1.54936
2022-12-02 16:50:01.727740, 1.52493
2022-12-02 16:50:01.735918, 1.52004
2022-12-02 16:50:01.748626, 1.52004
2022-12-02 16:50:01.756680, 1.50538
2022-12-02 16:50:01.764879, 1.50049
2022-12-02 16:50:01.776598, 1.50049
2022-12-02 16:50:01.785259, 1.49560
2022-12-02 16:50:01.793163, 1.49071
2022-12-02 16:50:01.801775, 1.48583
2022-12-02 16:50:01.813886, 1.51515
2022-12-02 16:50:01.822049, 1.48094
2022-12-02 16:50:01.830152, 1.47116
2022-12-02 16:50:01.842209, 1.49071
2022-12-02 16:50:01.850921, 1.46628
2022-12-02 16:50:01.858850, 1.46139
2022-12-02 16:50:01.866913, 1.46139
2022-12-02 16:50:01.879282, 1.45161
2022-12-02 16:50:01.887510, 1.44673
2022-12-02 16:50:01.895999, 1.45161
2022-12-02 16:50:01.908112, 1.44184
2022-12-02 16:50:01.916097, 1.44184
2022-12-02 16:50:01.924614, 1.45161
2022-12-02 16:50:01.932791, 1.46139
2022-12-02 16:50:01.944834, 1.47116
2022-12-02 16:50:01.953170, 1.49071
2022-12-02 16:50:01.961605, 1.54936
2022-12-02 16:50:01.973611, 1.53959
2022-12-02 16:50:01.981762, 1.56891
2022-12-02 16:50:01.990008, 1.62757
2022-12-02 16:50:01.998383, 1.63245
2022-12-02 16:50:02.010571, 1.66178
2022-12-02 16:50:02.018750, 1.70088
2022-12-02 16:50:02.027086, 1.71554
2022-12-02 16:50:02.038612, 1.73998
2022-12-02 16:50:02.047689, 1.75953
2022-12-02 16:50:02.055501, 1.79374
2022-12-02 16:50:02.064026, 1.78886
2022-12-02 16:50:02.075920, 1.80352
2022-12-02 16:50:02.083574, 1.82307
2022-12-02 16:50:02.092643, 1.81818
2022-12-02 16:50:02.104582, 1.82796
2022-12-02 16:50:02.113179, 1.83773
2022-12-02 16:50:02.121191, 1.84262
2022-12-02 16:50:02.129332, 1.84751
2022-12-02 16:50:02.141603, 1.85728
2022-12-02 16:50:02.149580, 1.85728
2022-12-02 16:50:02.157755, 1.85728
2022-12-02 16:50:02.170224, 1.86217
2022-12-02 16:50:02.178650, 1.85728
2022-12-02 16:50:02.186768, 1.85728
2022-12-02 16:50:02.195132, 1.85239
2022-12-02 16:50:02.207172, 1.86217
2022-12-02 16:50:02.215274, 1.84751
2022-12-02 16:50:02.222875, 1.84262
2022-12-02 16:50:02.235777, 1.87683
2022-12-02 16:50:02.243268, 1.84262
2022-12-02 16:50:02.252182, 1.84262
2022-12-02 16:50:02.260299, 1.86217
2022-12-02 16:50:02.272074, 1.84751
2022-12-02 16:50:02.280955, 1.84751
2022-12-02 16:50:02.289154, 1.85728
2022-12-02 16:50:02.297104, 1.85239
2022-12-02 16:50:02.309302, 1.85239
2022-12-02 16:50:02.317991, 1.85728
2022-12-02 16:50:02.325786, 1.85239
2022-12-02 16:50:02.338106, 1.85239
2022-12-02 16:50:02.346357, 1.84751
2022-12-02 16:50:02.354822, 1.84262
2022-12-02 16:50:02.362925, 1.83773
2022-12-02 16:50:02.375272, 1.83284
2022-12-02 16:50:02.383076, 1.85728
2022-12-02 16:50:02.391544, 1.81818
2022-12-02 16:50:02.403597, 1.81329
2022-12-02 16:50:02.412175, 1.80352
2022-12-02 16:50:02.420000, 1.79863
2022-12-02 16:50:02.428560, 1.79374
2022-12-02 16:50:02.440378, 1.77908
2022-12-02 16:50:02.448677, 1.76931
2022-12-02 16:50:02.457103, 1.76442
2022-12-02 16:50:02.469360, 1.76931
2022-12-02 16:50:02.477689, 1.74976
2022-12-02 16:50:02.485839, 1.73998
2022-12-02 16:50:02.493871, 1.73998
2022-12-02 16:50:02.506105, 1.73509
2022-12-02 16:50:02.514613, 1.73021
2022-12-02 16:50:02.522620, 1.74976
2022-12-02 16:50:02.534680, 1.71554
2022-12-02 16:50:02.542521, 1.71065
2022-12-02 16:50:02.551461, 1.71554
2022-12-02 16:50:02.559051, 1.70088
2022-12-02 16:50:02.571789, 1.69599
2022-12-02 16:50:02.579970, 1.70088
2022-12-02 16:50:02.588164, 1.68622
2022-12-02 16:50:02.600431, 1.68133
2022-12-02 16:50:02.608259, 1.68133
2022-12-02 16:50:02.616684, 1.67155
2022-12-02 16:50:02.624978, 1.66667
2022-12-02 16:50:02.637069, 1.66667
2022-12-02 16:50:02.645573, 1.70088
2022-12-02 16:50:02.653221, 1.67644
2022-12-02 16:50:02.665461, 1.69110
2022-12-02 16:50:02.673970, 1.71554
2022-12-02 16:50:02.682227, 1.73021
2022-12-02 16:50:02.690534, 1.75464
2022-12-02 16:50:02.702571, 1.78397
2022-12-02 16:50:02.711195, 1.81329
2022-12-02 16:50:02.719191, 1.83773
2022-12-02 16:50:02.731259, 1.85728
2022-12-02 16:50:02.739460, 1.88172
2022-12-02 16:50:02.747886, 1.89150
2022-12-02 16:50:02.755914, 1.89638
2022-12-02 16:50:02.768110, 1.90616
2022-12-02 16:50:02.776461, 1.90616
2022-12-02 16:50:02.784612, 1.90616
2022-12-02 16:50:02.796285, 1.91105
2022-12-02 16:50:02.805195, 1.91105
2022-12-02 16:50:02.813578, 1.91105
2022-12-02 16:50:02.821368, 1.91593
2022-12-02 16:50:02.833657, 1.95015
2022-12-02 16:50:02.841786, 1.92082
2022-12-02 16:50:02.850302, 1.92082
2022-12-02 16:50:02.862244, 1.93060
2022-12-02 16:50:02.870620, 1.91105
2022-12-02 16:50:02.878603, 1.91105
2022-12-02 16:50:02.887086, 1.90616
2022-12-02 16:50:02.899371, 1.89150
2022-12-02 16:50:02.907418, 1.87683
2022-12-02 16:50:02.915750, 1.87195
2022-12-02 16:50:02.928131, 1.85728
2022-12-02 16:50:02.936456, 1.85239
2022-12-02 16:50:02.944414, 1.84751
2022-12-02 16:50:02.952905, 1.84262
2022-12-02 16:50:02.964863, 1.84262
2022-12-02 16:50:02.973235, 1.83284
2022-12-02 16:50:02.981535, 1.85239
2022-12-02 16:50:02.993634, 1.81818
2022-12-02 16:50:03.001687, 1.81818
2022-12-02 16:50:03.009817, 1.81329
2022-12-02 16:50:03.017656, 1.80841
2022-12-02 16:50:03.030351, 1.79863
2022-12-02 16:50:03.038734, 1.79374
2022-12-02 16:50:03.046810, 1.78397
2022-12-02 16:50:03.058867, 1.77908
2022-12-02 16:50:03.066635, 1.77908
2022-12-02 16:50:03.075233, 1.75953
2022-12-02 16:50:03.083721, 1.74976
2022-12-02 16:50:03.095468, 1.74487
2022-12-02 16:50:03.104212, 1.73021
2022-12-02 16:50:03.112552, 1.72043
2022-12-02 16:50:03.120474, 1.71065
2022-12-02 16:50:03.132376, 1.72532
2022-12-02 16:50:03.140370, 1.69110
2022-12-02 16:50:03.149289, 1.68133
2022-12-02 16:50:03.161502, 1.66667
2022-12-02 16:50:03.169784, 1.65200
2022-12-02 16:50:03.177378, 1.63734
2022-12-02 16:50:03.186297, 1.63245
2022-12-02 16:50:03.198427, 1.65689
2022-12-02 16:50:03.206334, 1.60802
2022-12-02 16:50:03.214858, 1.60313
2022-12-02 16:50:03.226616, 1.60802
2022-12-02 16:50:03.235456, 1.58358
2022-12-02 16:50:03.243389, 1.56891
2022-12-02 16:50:03.251451, 1.56403
2022-12-02 16:50:03.263920, 1.57869
2022-12-02 16:50:03.272256, 1.53470
2022-12-02 16:50:03.280296, 1.52493
2022-12-02 16:50:03.292492, 1.51515
2022-12-02 16:50:03.300553, 1.51515
2022-12-02 16:50:03.308331, 1.49071
2022-12-02 16:50:03.317220, 1.48583
2022-12-02 16:50:03.329531, 1.49560
2022-12-02 16:50:03.337674, 1.47116
2022-12-02 16:50:03.345680, 1.46139
2022-12-02 16:50:03.358210, 1.47605
2022-12-02 16:50:03.366328, 1.47605
2022-12-02 16:50:03.374258, 1.48094
2022-12-02 16:50:03.382610, 1.49560
2022-12-02 16:50:03.394720, 1.54936
2022-12-02 16:50:03.402963, 1.52493
2022-12-02 16:50:03.411593, 1.53959
2022-12-02 16:50:03.423330, 1.57869
2022-12-02 16:50:03.431447, 1.55914
2022-12-02 16:50:03.439855, 1.56891
2022-12-02 16:50:03.448450, 1.58358
2022-12-02 16:50:03.460353, 1.57380
2022-12-02 16:50:03.468163, 1.57869
2022-12-02 16:50:03.477064, 1.56891
2022-12-02 16:50:03.489206, 1.57380
2022-12-02 16:50:03.496916, 1.56891
2022-12-02 16:50:03.505688, 1.56403
2022-12-02 16:50:03.513524, 1.56891
2022-12-02 16:50:03.525935, 1.56403
2022-12-02 16:50:03.534414, 1.56403
2022-12-02 16:50:03.542736, 1.56403
2022-12-02 16:50:03.554708, 1.57869
2022-12-02 16:50:03.562952, 1.56891
2022-12-02 16:50:03.571282, 1.56891
2022-12-02 16:50:03.579420, 1.56891
2022-12-02 16:50:03.591307, 1.55914
2022-12-02 16:50:03.599640, 1.54936
2022-12-02 16:50:03.608005, 1.53959
2022-12-02 16:50:03.619657, 1.52981
2022-12-02 16:50:03.628217, 1.51515
2022-12-02 16:50:03.636427, 1.51026
2022-12-02 16:50:03.644678, 1.53959
2022-12-02 16:50:03.656976, 1.50049
2022-12-02 16:50:03.664416, 1.50049
2022-12-02 16:50:03.673467, 1.50538
2022-12-02 16:50:03.685852, 1.49560
2022-12-02 16:50:03.694230, 1.49071
2022-12-02 16:50:03.702167, 1.49071
2022-12-02 16:50:03.710607, 1.48583
2022-12-02 16:50:03.722415, 1.48094
2022-12-02 16:50:03.730463, 1.48094
2022-12-02 16:50:03.739244, 1.51026
2022-12-02 16:50:03.751096, 1.47116
2022-12-02 16:50:03.759463, 1.46628
2022-12-02 16:50:03.767563, 1.46628
2022-12-02 16:50:03.775922, 1.45650
2022-12-02 16:50:03.787649, 1.45161
2022-12-02 16:50:03.796517, 1.44673
2022-12-02 16:50:03.804246, 1.43695
2022-12-02 16:50:03.816280, 1.43206
2022-12-02 16:50:03.825063, 1.42717
2022-12-02 16:50:03.832705, 1.45650
2022-12-02 16:50:03.841529, 1.41251
2022-12-02 16:50:03.853908, 1.40762
2022-12-02 16:50:03.861445, 1.40762
2022-12-02 16:50:03.869992, 1.39785
2022-12-02 16:50:03.882650, 1.38807
2022-12-02 16:50:03.890032, 1.38807
2022-12-02 16:50:03.898678, 1.38319
2022-12-02 16:50:03.907036, 1.37341
2022-12-02 16:50:03.919458, 1.36852
2022-12-02 16:50:03.927553, 1.39296
2022-12-02 16:50:03.935545, 1.35875
2022-12-02 16:50:03.947975, 1.34897
2022-12-02 16:50:03.956235, 1.35875
2022-12-02 16:50:03.964519, 1.34409
2022-12-02 16:50:03.972482, 1.33920
2022-12-02 16:50:03.984620, 1.33920
2022-12-02 16:50:03.993056, 1.32942
2022-12-02 16:50:04.001198, 1.32454
2022-12-02 16:50:04.009340, 1.31965
2022-12-02 16:50:04.021704, 1.33920
2022-12-02 16:50:04.029886, 1.30987
2022-12-02 16:50:04.037846, 1.30499
2022-12-02 16:50:04.050397, 1.30987
2022-12-02 16:50:04.058527, 1.30499
2022-12-02 16:50:04.066716, 1.30499
2022-12-02 16:50:04.075022, 1.30987
2022-12-02 16:50:04.087266, 1.34409
2022-12-02 16:50:04.095444, 1.31965
2022-12-02 16:50:04.103861, 1.33431
2022-12-02 16:50:04.115744, 1.36852
2022-12-02 16:50:04.124303, 1.36852
2022-12-02 16:50:04.132434, 1.38319
2022-12-02 16:50:04.140072, 1.40274
2022-12-02 16:50:04.152570, 1.41251
2022-12-02 16:50:04.160968, 1.42229
2022-12-02 16:50:04.169065, 1.43695
2022-12-02 16:50:04.181635, 1.44184
2022-12-02 16:50:04.189169, 1.44184
2022-12-02 16:50:04.197624, 1.44673
2022-12-02 16:50:04.206207, 1.47116
2022-12-02 16:50:04.218331, 1.45161
2022-12-02 16:50:04.225987, 1.45161
2022-12-02 16:50:04.233921, 1.49071
2022-12-02 16:50:04.246842, 1.45650
2022-12-02 16:50:04.255362, 1.46139
2022-12-02 16:50:04.263313, 1.47116
2022-12-02 16:50:04.271767, 1.47116
2022-12-02 16:50:04.283683, 1.47116
2022-12-02 16:50:04.292324, 1.48094
2022-12-02 16:50:04.299917, 1.47605
2022-12-02 16:50:04.312621, 1.47605
2022-12-02 16:50:04.320589, 1.48094
2022-12-02 16:50:04.328766, 1.47116
2022-12-02 16:50:04.336571, 1.46628
2022-12-02 16:50:04.349519, 1.46139
2022-12-02 16:50:04.357747, 1.47116
2022-12-02 16:50:04.364964, 1.45650
2022-12-02 16:50:04.378283, 1.45650
2022-12-02 16:50:04.386332, 1.46139
2022-12-02 16:50:04.394385, 1.45161
2022-12-02 16:50:04.402506, 1.45161
2022-12-02 16:50:04.414720, 1.45161
2022-12-02 16:50:04.422956, 1.48583
2022-12-02 16:50:04.431189, 1.45161
2022-12-02 16:50:04.443738, 1.44673
2022-12-02 16:50:04.451935, 1.44673
2022-12-02 16:50:04.459963, 1.44673
2022-12-02 16:50:04.468086, 1.44184
2022-12-02 16:50:04.480314, 1.43695
2022-12-02 16:50:04.488728, 1.43695
2022-12-02 16:50:04.496652, 1.46139
2022-12-02 16:50:04.509027, 1.42229
2022-12-02 16:50:04.516847, 1.41740
2022-12-02 16:50:04.525522, 1.42229
2022-12-02 16:50:04.533846, 1.41251
2022-12-02 16:50:04.545194, 1.40762
2022-12-02 16:50:04.553829, 1.40762
2022-12-02 16:50:04.561999, 1.39785
2022-12-02 16:50:04.574808, 1.39785
2022-12-02 16:50:04.582757, 1.39785
2022-12-02 16:50:04.590507, 1.40274
2022-12-02 16:50:04.599505, 1.38807
2022-12-02 16:50:04.611691, 1.38319
2022-12-02 16:50:04.619079, 1.37830
2022-12-02 16:50:04.627973, 1.41251
2022-12-02 16:50:04.639631, 1.37341
2022-12-02 16:50:04.647873, 1.37341
2022-12-02 16:50:04.656508, 1.37341
2022-12-02 16:50:04.664640, 1.36364
2022-12-02 16:50:04.677105, 1.35875
2022-12-02 16:50:04.684667, 1.35386
2022-12-02 16:50:04.693634, 1.35386
2022-12-02 16:50:04.705761, 1.37830
2022-12-02 16:50:04.714075, 1.35386
2022-12-02 16:50:04.722141, 1.35875
2022-12-02 16:50:04.730189, 1.34897
2022-12-02 16:50:04.742743, 1.35875
2022-12-02 16:50:04.750833, 1.34897
2022-12-02 16:50:04.759068, 1.33920
2022-12-02 16:50:04.771161, 1.34409
2022-12-02 16:50:04.779746, 1.37830
2022-12-02 16:50:04.787693, 1.33920
2022-12-02 16:50:04.795838, 1.33431
2022-12-02 16:50:04.808173, 1.35386
2022-12-02 16:50:04.816177, 1.34409
2022-12-02 16:50:04.824297, 1.34897
2022-12-02 16:50:04.832869, 1.35875
2022-12-02 16:50:04.845182, 1.37341
2022-12-02 16:50:04.852988, 1.38319
2022-12-02 16:50:04.861426, 1.40274
2022-12-02 16:50:04.873337, 1.41251
2022-12-02 16:50:04.881629, 1.42717
2022-12-02 16:50:04.889871, 1.46628
2022-12-02 16:50:04.898207, 1.45161
2022-12-02 16:50:04.910620, 1.46139
2022-12-02 16:50:04.919016, 1.46628
2022-12-02 16:50:04.926861, 1.47605
2022-12-02 16:50:04.938932, 1.48094
2022-12-02 16:50:04.947468, 1.48583
2022-12-02 16:50:04.955600, 1.48583
2022-12-02 16:50:04.963679, 1.49560
2022-12-02 16:50:04.976066, 1.49560
2022-12-02 16:50:04.984499, 1.50049
2022-12-02 16:50:04.992308, 1.50538
2022-12-02 16:50:05.004696, 1.51026
2022-12-02 16:50:05.013031, 1.51026
2022-12-02 16:50:05.021375, 1.51515
2022-12-02 16:50:05.029549, 1.52004
2022-12-02 16:50:05.041646, 1.52981
2022-12-02 16:50:05.049975, 1.53470
2022-12-02 16:50:05.057968, 1.51515
2022-12-02 16:50:05.070361, 1.52004
2022-12-02 16:50:05.078568, 1.51026
2022-12-02 16:50:05.086353, 1.51026
2022-12-02 16:50:05.094903, 1.51026
2022-12-02 16:50:05.107067, 1.51515
2022-12-02 16:50:05.115371, 1.51026
2022-12-02 16:50:05.123309, 1.53470
2022-12-02 16:50:05.135864, 1.51026
2022-12-02 16:50:05.143838, 1.51026
2022-12-02 16:50:05.152386, 1.52004
2022-12-02 16:50:05.160471, 1.51515
2022-12-02 16:50:05.172713, 1.51515
2022-12-02 16:50:05.180498, 1.51026
2022-12-02 16:50:05.189221, 1.51515
2022-12-02 16:50:05.201128, 1.51515
2022-12-02 16:50:05.209507, 1.52493
2022-12-02 16:50:05.217817, 1.52004
2022-12-02 16:50:05.225927, 1.51515
2022-12-02 16:50:05.238376, 1.51026
2022-12-02 16:50:05.246186, 1.51026
2022-12-02 16:50:05.254878, 1.53959
2022-12-02 16:50:05.266605, 1.49560
2022-12-02 16:50:05.275214, 1.49560
2022-12-02 16:50:05.283568, 1.49071
2022-12-02 16:50:05.291305, 1.51515
2022-12-02 16:50:05.303545, 1.49071
2022-12-02 16:50:05.311937, 1.49071
2022-12-02 16:50:05.320045, 1.49071
2022-12-02 16:50:05.332176, 1.48583
2022-12-02 16:50:05.340352, 1.51515
2022-12-02 16:50:05.348943, 1.48094
2022-12-02 16:50:05.356791, 1.48094
2022-12-02 16:50:05.369402, 1.48094
2022-12-02 16:50:05.377449, 1.47605
2022-12-02 16:50:05.385582, 1.48094
2022-12-02 16:50:05.397694, 1.51026
2022-12-02 16:50:05.405966, 1.47605
2022-12-02 16:50:05.414236, 1.47605
2022-12-02 16:50:05.422672, 1.48583
2022-12-02 16:50:05.434782, 1.50538
2022-12-02 16:50:05.442893, 1.47605
2022-12-02 16:50:05.450223, 1.47605
2022-12-02 16:50:05.463406, 1.47116
2022-12-02 16:50:05.471554, 1.46628
2022-12-02 16:50:05.479499, 1.47116
2022-12-02 16:50:05.488233, 1.47605
2022-12-02 16:50:05.500430, 1.48094
2022-12-02 16:50:05.507911, 1.48094
2022-12-02 16:50:05.516544, 1.47116
2022-12-02 16:50:05.528354, 1.47116
2022-12-02 16:50:05.537135, 1.47605
2022-12-02 16:50:05.545278, 1.47605
2022-12-02 16:50:05.553507, 1.48094
2022-12-02 16:50:05.565583, 1.48583
2022-12-02 16:50:05.574291, 1.49560
2022-12-02 16:50:05.581765, 1.50538
2022-12-02 16:50:05.594441, 1.52493
2022-12-02 16:50:05.602604, 1.53959
2022-12-02 16:50:05.610981, 1.56403
2022-12-02 16:50:05.618475, 1.57869
2022-12-02 16:50:05.631181, 1.59824
2022-12-02 16:50:05.639696, 1.61779
2022-12-02 16:50:05.647073, 1.63245
2022-12-02 16:50:05.660241, 1.64223
2022-12-02 16:50:05.668472, 1.66178
2022-12-02 16:50:05.676625, 1.67644
2022-12-02 16:50:05.684925, 1.66178
2022-12-02 16:50:05.696294, 1.66178
2022-12-02 16:50:05.705328, 1.67155
2022-12-02 16:50:05.712760, 1.67155
2022-12-02 16:50:05.721759, 1.67644
2022-12-02 16:50:05.733625, 1.68133
2022-12-02 16:50:05.741680, 1.68622
2022-12-02 16:50:05.750415, 1.69599
2022-12-02 16:50:05.762134, 1.70088
2022-12-02 16:50:05.770925, 1.70577
2022-12-02 16:50:05.778449, 1.71065
2022-12-02 16:50:05.786882, 1.72043
2022-12-02 16:50:05.799382, 1.75464
2022-12-02 16:50:05.806910, 1.73021
2022-12-02 16:50:05.815524, 1.73509
2022-12-02 16:50:05.827369, 1.73998
2022-12-02 16:50:05.836057, 1.73509
2022-12-02 16:50:05.844328, 1.73998
2022-12-02 16:50:05.852109, 1.74487
2022-12-02 16:50:05.864792, 1.74487
2022-12-02 16:50:05.873234, 1.74976
2022-12-02 16:50:05.881287, 1.75464
2022-12-02 16:50:05.893285, 1.77419
2022-12-02 16:50:05.902151, 1.75464
2022-12-02 16:50:05.909657, 1.74976
2022-12-02 16:50:05.918397, 1.77419
2022-12-02 16:50:05.929994, 1.74976
2022-12-02 16:50:05.938460, 1.75464
2022-12-02 16:50:05.946186, 1.76442
2022-12-02 16:50:05.959251, 1.76442
2022-12-02 16:50:05.967102, 1.76442
2022-12-02 16:50:05.974990, 1.76931
2022-12-02 16:50:05.983900, 1.76442
2022-12-02 16:50:05.996149, 1.75464
2022-12-02 16:50:06.003815, 1.75953
2022-12-02 16:50:06.012463, 1.74976
2022-12-02 16:50:06.024439, 1.74487
2022-12-02 16:50:06.032322, 1.73998
2022-12-02 16:50:06.041288, 1.77908
2022-12-02 16:50:06.049486, 1.73998
2022-12-02 16:50:06.061659, 1.74487
2022-12-02 16:50:06.069572, 1.76442
2022-12-02 16:50:06.077306, 1.73998
2022-12-02 16:50:06.090085, 1.73998
2022-12-02 16:50:06.098033, 1.74976
2022-12-02 16:50:06.106492, 1.73998
2022-12-02 16:50:06.114283, 1.73998
2022-12-02 16:50:06.126971, 1.74487
2022-12-02 16:50:06.135121, 1.74487
2022-12-02 16:50:06.143271, 1.73998
2022-12-02 16:50:06.155908, 1.73998
2022-12-02 16:50:06.163755, 1.73509
2022-12-02 16:50:06.171484, 1.74487
2022-12-02 16:50:06.179869, 1.73998
2022-12-02 16:50:06.192612, 1.73509
2022-12-02 16:50:06.201007, 1.73021
2022-12-02 16:50:06.209071, 1.73021
2022-12-02 16:50:06.220574, 1.72532
2022-12-02 16:50:06.229681, 1.72532
2022-12-02 16:50:06.237102, 1.71554
2022-12-02 16:50:06.245852, 1.71554
2022-12-02 16:50:06.257515, 1.73509
2022-12-02 16:50:06.266066, 1.70577
2022-12-02 16:50:06.274348, 1.70577
2022-12-02 16:50:06.286585, 1.71554
2022-12-02 16:50:06.295130, 1.70577
2022-12-02 16:50:06.302953, 1.70577
2022-12-02 16:50:06.310709, 1.71065
2022-12-02 16:50:06.323135, 1.72043
2022-12-02 16:50:06.331671, 1.73021
2022-12-02 16:50:06.339944, 1.74487
2022-12-02 16:50:06.351969, 1.78397
2022-12-02 16:50:06.360613, 1.76931
2022-12-02 16:50:06.368729, 1.77908
2022-12-02 16:50:06.376361, 1.78886
2022-12-02 16:50:06.388653, 1.82796
2022-12-02 16:50:06.397285, 1.79863
2022-12-02 16:50:06.405468, 1.79863
2022-12-02 16:50:06.418052, 1.80841
2022-12-02 16:50:06.425789, 1.79374
2022-12-02 16:50:06.433796, 1.79374
2022-12-02 16:50:06.442719, 1.78886
2022-12-02 16:50:06.454104, 1.78397
2022-12-02 16:50:06.462533, 1.77419
2022-12-02 16:50:06.470616, 1.77908
2022-12-02 16:50:06.483569, 1.77908
2022-12-02 16:50:06.491413, 1.77908
2022-12-02 16:50:06.499392, 1.77908
2022-12-02 16:50:06.507885, 1.80352
2022-12-02 16:50:06.520377, 1.77419
2022-12-02 16:50:06.527955, 1.77419
2022-12-02 16:50:06.536494, 1.76931
2022-12-02 16:50:06.548946, 1.75464
2022-12-02 16:50:06.557321, 1.74487
2022-12-02 16:50:06.564827, 1.74487
2022-12-02 16:50:06.573161, 1.74976
2022-12-02 16:50:06.585491, 1.73509
2022-12-02 16:50:06.593396, 1.73509
2022-12-02 16:50:06.601843, 1.73021
2022-12-02 16:50:06.610100, 1.73998
2022-12-02 16:50:06.622296, 1.73021
2022-12-02 16:50:06.630571, 1.72532
2022-12-02 16:50:06.638859, 1.73021
2022-12-02 16:50:06.650962, 1.73021
2022-12-02 16:50:06.659497, 1.73021
2022-12-02 16:50:06.667416, 1.75953
2022-12-02 16:50:06.676177, 1.72043
2022-12-02 16:50:06.687761, 1.72043
2022-12-02 16:50:06.696598, 1.71065
2022-12-02 16:50:06.704844, 1.70088
2022-12-02 16:50:06.716633, 1.72532
2022-12-02 16:50:06.724471, 1.68622
2022-12-02 16:50:06.732495, 1.68133
2022-12-02 16:50:06.741647, 1.67644
2022-12-02 16:50:06.753030, 1.68133
2022-12-02 16:50:06.761294, 1.66178
2022-12-02 16:50:06.769635, 1.65689
2022-12-02 16:50:06.782093, 1.65200
2022-12-02 16:50:06.790766, 1.68622
2022-12-02 16:50:06.798622, 1.64223
2022-12-02 16:50:06.806868, 1.63245
2022-12-02 16:50:06.818561, 1.64223
2022-12-02 16:50:06.827289, 1.61779
2022-12-02 16:50:06.835538, 1.61290
2022-12-02 16:50:06.847772, 1.60802
2022-12-02 16:50:06.855474, 1.59824
2022-12-02 16:50:06.864376, 1.59335
2022-12-02 16:50:06.872231, 1.59335
2022-12-02 16:50:06.884492, 1.58358
2022-12-02 16:50:06.893114, 1.57869
2022-12-02 16:50:06.900529, 1.56891
2022-12-02 16:50:06.912833, 1.57380
2022-12-02 16:50:06.921742, 1.55914
2022-12-02 16:50:06.929634, 1.54936
2022-12-02 16:50:06.937843, 1.54936
2022-12-02 16:50:06.949815, 1.53959
2022-12-02 16:50:06.958101, 1.52981
2022-12-02 16:50:06.966489, 1.52981
2022-12-02 16:50:06.978452, 1.52004
2022-12-02 16:50:06.986834, 1.51026
2022-12-02 16:50:06.995189, 1.51026
2022-12-02 16:50:07.003092, 1.50049
2022-12-02 16:50:07.015347, 1.49560
2022-12-02 16:50:07.023482, 1.49560
2022-12-02 16:50:07.032278, 1.49560
2022-12-02 16:50:07.043860, 1.49560
2022-12-02 16:50:07.052948, 1.51026
2022-12-02 16:50:07.060831, 1.52981
2022-12-02 16:50:07.068742, 1.53470
2022-12-02 16:50:07.081024, 1.54936
2022-12-02 16:50:07.089206, 1.56403
2022-12-02 16:50:07.097156, 1.58847
2022-12-02 16:50:07.110286, 1.57869
2022-12-02 16:50:07.117939, 1.58358
2022-12-02 16:50:07.126047, 1.59824
2022-12-02 16:50:07.134788, 1.59335
2022-12-02 16:50:07.146308, 1.59824
2022-12-02 16:50:07.154529, 1.60313
2022-12-02 16:50:07.163557, 1.59824
2022-12-02 16:50:07.175641, 1.59824
2022-12-02 16:50:07.183657, 1.59824
2022-12-02 16:50:07.191387, 1.59824
2022-12-02 16:50:07.200039, 1.59824
2022-12-02 16:50:07.212061, 1.59335
2022-12-02 16:50:07.220279, 1.63245
2022-12-02 16:50:07.228749, 1.60313
2022-12-02 16:50:07.241076, 1.60313
2022-12-02 16:50:07.249365, 1.62757
2022-12-02 16:50:07.257160, 1.60802
2022-12-02 16:50:07.265892, 1.60802
2022-12-02 16:50:07.277291, 1.60802
2022-12-02 16:50:07.286302, 1.59824
2022-12-02 16:50:07.294653, 1.59335
2022-12-02 16:50:07.306148, 1.59335
2022-12-02 16:50:07.314995, 1.58847
2022-12-02 16:50:07.322905, 1.58358
2022-12-02 16:50:07.331140, 1.58358
2022-12-02 16:50:07.343365, 1.60802
2022-12-02 16:50:07.351748, 1.57869
2022-12-02 16:50:07.359969, 1.57869
2022-12-02 16:50:07.371960, 1.60313
2022-12-02 16:50:07.380643, 1.56891
2022-12-02 16:50:07.388590, 1.56891
2022-12-02 16:50:07.396493, 1.57869
2022-12-02 16:50:07.408592, 1.55914
2022-12-02 16:50:07.417453, 1.55914
2022-12-02 16:50:07.425728, 1.55914
2022-12-02 16:50:07.433751, 1.54936
2022-12-02 16:50:07.445834, 1.53959
2022-12-02 16:50:07.454334, 1.53959
2022-12-02 16:50:07.462521, 1.52981
2022-12-02 16:50:07.474673, 1.52493
2022-12-02 16:50:07.482557, 1.52004
2022-12-02 16:50:07.491179, 1.54936
2022-12-02 16:50:07.499367, 1.51026
2022-12-02 16:50:07.511598, 1.50538
2022-12-02 16:50:07.519088, 1.52004
2022-12-02 16:50:07.527332, 1.49560
2022-12-02 16:50:07.539532, 1.49071
2022-12-02 16:50:07.548383, 1.49071
2022-12-02 16:50:07.556180, 1.47605
2022-12-02 16:50:07.564437, 1.47116
2022-12-02 16:50:07.576441, 1.47116
2022-12-02 16:50:07.584962, 1.46139
2022-12-02 16:50:07.592807, 1.45650
2022-12-02 16:50:07.605335, 1.45650
2022-12-02 16:50:07.614103, 1.45161
2022-12-02 16:50:07.621676, 1.44673
2022-12-02 16:50:07.629739, 1.44184
2022-12-02 16:50:07.642556, 1.47605
2022-12-02 16:50:07.650932, 1.43695
2022-12-02 16:50:07.658544, 1.43695
2022-12-02 16:50:07.670944, 1.44184
2022-12-02 16:50:07.678916, 1.43206
2022-12-02 16:50:07.687793, 1.43206
2022-12-02 16:50:07.696040, 1.42717
2022-12-02 16:50:07.708186, 1.46139
2022-12-02 16:50:07.715873, 1.42229
2022-12-02 16:50:07.724665, 1.41740
2022-12-02 16:50:07.736308, 1.41740
2022-12-02 16:50:07.745063, 1.41740
2022-12-02 16:50:07.752995, 1.41740
2022-12-02 16:50:07.761619, 1.41251
2022-12-02 16:50:07.773799, 1.42229
2022-12-02 16:50:07.781666, 1.41740
2022-12-02 16:50:07.789242, 1.42229
2022-12-02 16:50:07.802356, 1.43695
2022-12-02 16:50:07.810434, 1.44673
2022-12-02 16:50:07.818051, 1.45650
2022-12-02 16:50:07.826662, 1.47605
2022-12-02 16:50:07.838923, 1.52493
2022-12-02 16:50:07.847149, 1.50049
2022-12-02 16:50:07.855543, 1.51515
2022-12-02 16:50:07.867862, 1.52493
2022-12-02 16:50:07.875896, 1.56891
2022-12-02 16:50:07.884209, 1.53959
2022-12-02 16:50:07.892599, 1.54448
2022-12-02 16:50:07.904259, 1.56403
2022-12-02 16:50:07.912991, 1.55425
2022-12-02 16:50:07.920522, 1.55914
2022-12-02 16:50:07.932833, 1.56403
2022-12-02 16:50:07.941346, 1.57380
2022-12-02 16:50:07.949761, 1.57380
2022-12-02 16:50:07.957825, 1.58358
2022-12-02 16:50:07.969785, 1.58847
2022-12-02 16:50:07.978530, 1.59824
2022-12-02 16:50:07.986579, 1.59824
2022-12-02 16:50:07.998772, 1.61779
2022-12-02 16:50:08.006994, 1.60802
2022-12-02 16:50:08.014758, 1.60802
2022-12-02 16:50:08.023575, 1.61290
2022-12-02 16:50:08.035510, 1.61779
2022-12-02 16:50:08.043336, 1.60802
2022-12-02 16:50:08.051943, 1.60802
2022-12-02 16:50:08.064275, 1.60802
2022-12-02 16:50:08.072125, 1.60802
2022-12-02 16:50:08.080737, 1.63245
2022-12-02 16:50:08.089374, 1.60313
2022-12-02 16:50:08.100962, 1.60313
2022-12-02 16:50:08.109409, 1.60313
2022-12-02 16:50:08.117606, 1.60313
2022-12-02 16:50:08.129981, 1.60313
2022-12-02 16:50:08.137919, 1.64223
2022-12-02 16:50:08.146459, 1.61290
2022-12-02 16:50:08.154607, 1.60802
2022-12-02 16:50:08.166229, 1.60802
2022-12-02 16:50:08.174791, 1.60802
2022-12-02 16:50:08.183052, 1.60802
2022-12-02 16:50:08.195285, 1.60802
2022-12-02 16:50:08.203712, 1.60313
2022-12-02 16:50:08.212301, 1.59824
2022-12-02 16:50:08.220392, 1.59335
2022-12-02 16:50:08.232595, 1.61779
2022-12-02 16:50:08.240937, 1.58847
2022-12-02 16:50:08.249484, 1.58358
2022-12-02 16:50:08.261468, 1.58358
2022-12-02 16:50:08.268952, 1.57869
2022-12-02 16:50:08.277950, 1.56891
2022-12-02 16:50:08.285753, 1.59824
2022-12-02 16:50:08.297808, 1.55425
2022-12-02 16:50:08.306514, 1.55425
2022-12-02 16:50:08.314764, 1.54936
2022-12-02 16:50:08.323043, 1.54448
2022-12-02 16:50:08.335346, 1.53959
2022-12-02 16:50:08.343042, 1.53470
2022-12-02 16:50:08.351693, 1.52981
2022-12-02 16:50:08.363996, 1.52493
2022-12-02 16:50:08.372037, 1.52493
2022-12-02 16:50:08.380173, 1.55425
2022-12-02 16:50:08.389124, 1.51026
2022-12-02 16:50:08.400776, 1.51026
2022-12-02 16:50:08.408552, 1.50538
2022-12-02 16:50:08.417155, 1.50049
2022-12-02 16:50:08.429494, 1.49560
2022-12-02 16:50:08.437461, 1.49071
2022-12-02 16:50:08.445906, 1.51026
2022-12-02 16:50:08.453978, 1.48583
2022-12-02 16:50:08.466292, 1.48583
2022-12-02 16:50:08.474588, 1.48583
2022-12-02 16:50:08.482475, 1.47605
2022-12-02 16:50:08.494913, 1.47116
2022-12-02 16:50:08.503292, 1.47116
2022-12-02 16:50:08.511404, 1.47116
2022-12-02 16:50:08.519586, 1.47605
2022-12-02 16:50:08.531879, 1.46628
2022-12-02 16:50:08.540027, 1.46628
2022-12-02 16:50:08.548550, 1.47116
2022-12-02 16:50:08.559940, 1.47116
2022-12-02 16:50:08.568314, 1.47605
2022-12-02 16:50:08.576618, 1.48583
2022-12-02 16:50:08.584965, 1.50538
2022-12-02 16:50:08.596586, 1.52004
2022-12-02 16:50:08.605074, 1.53470
2022-12-02 16:50:08.613126, 1.54936
2022-12-02 16:50:08.625222, 1.56403
2022-12-02 16:50:08.634081, 1.57869
2022-12-02 16:50:08.642118, 1.59335
2022-12-02 16:50:08.650437, 1.60802
2022-12-02 16:50:08.663052, 1.60802
2022-12-02 16:50:08.671243, 1.61290
2022-12-02 16:50:08.679507, 1.62268
2022-12-02 16:50:08.691643, 1.63734
2022-12-02 16:50:08.699582, 1.62757
2022-12-02 16:50:08.708011, 1.62757
2022-12-02 16:50:08.715700, 1.63734
2022-12-02 16:50:08.727851, 1.63734
2022-12-02 16:50:08.736483, 1.64223
2022-12-02 16:50:08.744146, 1.64712
2022-12-02 16:50:08.757106, 1.65200
2022-12-02 16:50:08.765626, 1.66178
2022-12-02 16:50:08.773728, 1.66178
2022-12-02 16:50:08.781665, 1.70577
2022-12-02 16:50:08.793863, 1.67644
2022-12-02 16:50:08.801963, 1.68133
2022-12-02 16:50:08.810137, 1.70088
2022-12-02 16:50:08.822770, 1.68133
2022-12-02 16:50:08.830901, 1.68133
2022-12-02 16:50:08.839020, 1.69110
2022-12-02 16:50:08.847607, 1.68622
2022-12-02 16:50:08.858641, 1.68622
2022-12-02 16:50:08.867451, 1.69599
2022-12-02 16:50:08.875235, 1.69599
2022-12-02 16:50:08.888187, 1.70088
2022-12-02 16:50:08.895999, 1.70088
2022-12-02 16:50:08.904390, 1.70577
2022-12-02 16:50:08.912675, 1.70577
2022-12-02 16:50:08.925118, 1.71065
2022-12-02 16:50:08.933000, 1.74976
2022-12-02 16:50:08.941515, 1.71554
2022-12-02 16:50:08.953856, 1.72532
2022-12-02 16:50:08.961748, 1.74487
2022-12-02 16:50:08.970022, 1.72532
2022-12-02 16:50:08.978397, 1.72532
2022-12-02 16:50:08.990052, 1.73021
2022-12-02 16:50:08.998442, 1.72043
2022-12-02 16:50:09.006979, 1.72043
2022-12-02 16:50:09.018877, 1.72043
2022-12-02 16:50:09.026605, 1.71554
2022-12-02 16:50:09.035284, 1.71554
2022-12-02 16:50:09.042855, 1.72043
2022-12-02 16:50:09.055874, 1.71554
2022-12-02 16:50:09.064219, 1.71065
2022-12-02 16:50:09.072381, 1.71065
2022-12-02 16:50:09.083827, 1.70577
2022-12-02 16:50:09.092741, 1.70088
2022-12-02 16:50:09.100812, 1.70088
2022-12-02 16:50:09.109433, 1.73021
2022-12-02 16:50:09.121596, 1.69599
2022-12-02 16:50:09.128775, 1.69599
2022-12-02 16:50:09.137964, 1.72043
2022-12-02 16:50:09.150415, 1.69599
2022-12-02 16:50:09.158675, 1.70088
2022-12-02 16:50:09.166512, 1.70088
2022-12-02 16:50:09.174544, 1.69110
2022-12-02 16:50:09.187246, 1.71554
2022-12-02 16:50:09.195014, 1.68622
2022-12-02 16:50:09.203990, 1.68133
2022-12-02 16:50:09.211770, 1.68133
2022-12-02 16:50:09.224140, 1.68133
2022-12-02 16:50:09.232345, 1.67644
2022-12-02 16:50:09.240354, 1.67644
2022-12-02 16:50:09.252097, 1.67155
2022-12-02 16:50:09.260796, 1.67155
2022-12-02 16:50:09.268543, 1.67155
2022-12-02 16:50:09.277116, 1.66667
2022-12-02 16:50:09.289016, 1.67155
2022-12-02 16:50:09.297357, 1.71065
2022-12-02 16:50:09.305611, 1.67155
2022-12-02 16:50:09.317762, 1.67644
2022-12-02 16:50:09.325862, 1.68133
2022-12-02 16:50:09.334237, 1.69110
2022-12-02 16:50:09.342613, 1.72532
2022-12-02 16:50:09.354544, 1.71554
2022-12-02 16:50:09.363026, 1.73021
2022-12-02 16:50:09.371084, 1.75464
2022-12-02 16:50:09.383541, 1.76931
2022-12-02 16:50:09.391801, 1.78397
2022-12-02 16:50:09.399947, 1.80352
2022-12-02 16:50:09.408155, 1.81329
2022-12-02 16:50:09.420261, 1.82796
2022-12-02 16:50:09.428132, 1.83773
2022-12-02 16:50:09.436585, 1.84262
2022-12-02 16:50:09.449002, 1.84262
2022-12-02 16:50:09.457145, 1.84751
2022-12-02 16:50:09.465546, 1.86217
2022-12-02 16:50:09.473689, 1.83773
2022-12-02 16:50:09.485783, 1.83284
2022-12-02 16:50:09.493756, 1.86217
2022-12-02 16:50:09.502129, 1.82307
2022-12-02 16:50:09.514556, 1.82307
2022-12-02 16:50:09.522170, 1.84751
2022-12-02 16:50:09.530919, 1.82796
2022-12-02 16:50:09.539261, 1.82796
2022-12-02 16:50:09.551204, 1.84262
2022-12-02 16:50:09.559622, 1.83773
2022-12-02 16:50:09.567817, 1.83773
2022-12-02 16:50:09.579727, 1.83773
2022-12-02 16:50:09.588246, 1.82796
2022-12-02 16:50:09.596232, 1.82796
2022-12-02 16:50:09.604807, 1.82307
2022-12-02 16:50:09.616793, 1.82307
2022-12-02 16:50:09.625275, 1.82307
2022-12-02 16:50:09.633106, 1.82307
2022-12-02 16:50:09.645613, 1.85728
2022-12-02 16:50:09.653573, 1.83773
2022-12-02 16:50:09.661727, 1.84751
2022-12-02 16:50:09.670162, 1.86706
2022-12-02 16:50:09.682276, 1.85728
2022-12-02 16:50:09.690802, 1.86217
2022-12-02 16:50:09.698680, 1.86217
2022-12-02 16:50:09.710990, 1.85239
2022-12-02 16:50:09.719021, 1.84751
2022-12-02 16:50:09.727765, 1.84262
2022-12-02 16:50:09.735723, 1.83284
2022-12-02 16:50:09.747715, 1.82307
2022-12-02 16:50:09.756206, 1.81818
2022-12-02 16:50:09.764166, 1.82796
2022-12-02 16:50:09.776857, 1.80352
2022-12-02 16:50:09.784786, 1.79374
2022-12-02 16:50:09.793057, 1.78886
2022-12-02 16:50:09.801415, 1.77908
2022-12-02 16:50:09.813323, 1.79863
2022-12-02 16:50:09.821411, 1.75953
2022-12-02 16:50:09.829766, 1.74976
2022-12-02 16:50:09.842302, 1.73998
2022-12-02 16:50:09.849627, 1.73021
2022-12-02 16:50:09.858242, 1.71554
2022-12-02 16:50:09.866337, 1.70577
2022-12-02 16:50:09.878840, 1.69599
2022-12-02 16:50:09.887334, 1.69110
2022-12-02 16:50:09.895370, 1.71554
2022-12-02 16:50:09.907351, 1.67644
2022-12-02 16:50:09.916083, 1.66667
2022-12-02 16:50:09.923927, 1.67155
2022-12-02 16:50:09.931779, 1.65689
2022-12-02 16:50:09.944528, 1.64712
2022-12-02 16:50:09.952138, 1.64712
2022-12-02 16:50:09.961050, 1.63245
2022-12-02 16:50:09.973282, 1.62757
2022-12-02 16:50:09.980966, 1.62268
2022-12-02 16:50:09.989635, 1.61290
2022-12-02 16:50:09.997560, 1.60802
2022-12-02 16:50:10.009910, 1.60313
2022-12-02 16:50:10.018315, 1.59824
2022-12-02 16:50:10.025976, 1.58847
2022-12-02 16:50:10.034039, 1.58358
2022-12-02 16:50:10.047092, 1.61779
2022-12-02 16:50:10.055280, 1.57869
2022-12-02 16:50:10.062839, 1.57869
2022-12-02 16:50:10.075119, 1.58847
2022-12-02 16:50:10.083009, 1.58358
2022-12-02 16:50:10.092337, 1.59335
2022-12-02 16:50:10.100146, 1.60313
2022-12-02 16:50:10.112339, 1.65200
2022-12-02 16:50:10.120813, 1.62757
2022-12-02 16:50:10.128837, 1.63734
2022-12-02 16:50:10.140835, 1.66178
2022-12-02 16:50:10.149475, 1.64712
2022-12-02 16:50:10.157383, 1.64712
2022-12-02 16:50:10.165623, 1.64712
2022-12-02 16:50:10.178117, 1.63734
2022-12-02 16:50:10.185494, 1.63734
2022-12-02 16:50:10.194343, 1.62757
2022-12-02 16:50:10.206739, 1.64712
2022-12-02 16:50:10.214181, 1.61779
2022-12-02 16:50:10.222970, 1.61779
2022-12-02 16:50:10.230961, 1.62268
2022-12-02 16:50:10.243285, 1.61290
2022-12-02 16:50:10.251799, 1.61290
2022-12-02 16:50:10.259977, 1.61290
2022-12-02 16:50:10.271881, 1.61290
2022-12-02 16:50:10.279718, 1.61290
2022-12-02 16:50:10.288761, 1.61290
2022-12-02 16:50:10.297044, 1.61779
2022-12-02 16:50:10.308933, 1.60313
2022-12-02 16:50:10.317179, 1.59824
2022-12-02 16:50:10.325566, 1.59824
2022-12-02 16:50:10.337698, 1.58847
2022-12-02 16:50:10.345839, 1.57869
2022-12-02 16:50:10.354357, 1.57869
2022-12-02 16:50:10.362254, 1.56891
2022-12-02 16:50:10.374492, 1.56891
2022-12-02 16:50:10.383028, 1.56891
2022-12-02 16:50:10.390906, 1.56891
2022-12-02 16:50:10.403251, 1.56403
2022-12-02 16:50:10.411425, 1.56403
2022-12-02 16:50:10.419935, 1.59335
2022-12-02 16:50:10.427805, 1.55425
2022-12-02 16:50:10.439489, 1.55425
2022-12-02 16:50:10.448373, 1.57869
2022-12-02 16:50:10.456650, 1.54936
2022-12-02 16:50:10.468735, 1.53959
2022-12-02 16:50:10.477117, 1.53959
2022-12-02 16:50:10.484890, 1.52981
2022-12-02 16:50:10.493247, 1.52004
2022-12-02 16:50:10.505505, 1.52004
2022-12-02 16:50:10.513330, 1.51026
2022-12-02 16:50:10.522280, 1.50538
2022-12-02 16:50:10.534264, 1.50538
2022-12-02 16:50:10.542205, 1.50538
2022-12-02 16:50:10.550570, 1.49560
2022-12-02 16:50:10.558808, 1.48583
2022-12-02 16:50:10.570633, 1.48583
2022-12-02 16:50:10.579423, 1.47605
2022-12-02 16:50:10.587315, 1.47116
2022-12-02 16:50:10.599349, 1.46628
2022-12-02 16:50:10.608280, 1.45650
2022-12-02 16:50:10.616084, 1.45161
2022-12-02 16:50:10.624639, 1.44673
2022-12-02 16:50:10.636689, 1.47116
2022-12-02 16:50:10.644914, 1.43695
2022-12-02 16:50:10.653043, 1.43206
2022-12-02 16:50:10.665470, 1.44184
2022-12-02 16:50:10.673794, 1.42229
2022-12-02 16:50:10.681741, 1.41740
2022-12-02 16:50:10.690127, 1.41740
2022-12-02 16:50:10.702295, 1.41251
2022-12-02 16:50:10.710777, 1.40762
2022-12-02 16:50:10.717956, 1.40762
2022-12-02 16:50:10.731071, 1.40274
2022-12-02 16:50:10.739204, 1.40274
2022-12-02 16:50:10.747425, 1.39785
2022-12-02 16:50:10.755295, 1.39296
2022-12-02 16:50:10.767784, 1.38807
2022-12-02 16:50:10.775892, 1.38319
2022-12-02 16:50:10.784263, 1.38807
2022-12-02 16:50:10.796432, 1.37830
2022-12-02 16:50:10.804301, 1.37830
2022-12-02 16:50:10.812527, 1.38319
2022-12-02 16:50:10.821087, 1.37830
2022-12-02 16:50:10.832657, 1.37830
2022-12-02 16:50:10.841514, 1.38319
2022-12-02 16:50:10.849969, 1.38807
2022-12-02 16:50:10.861294, 1.39296
2022-12-02 16:50:10.870219, 1.40762
2022-12-02 16:50:10.877885, 1.42229
2022-12-02 16:50:10.886311, 1.42717
2022-12-02 16:50:10.898776, 1.43695
2022-12-02 16:50:10.907132, 1.44673
2022-12-02 16:50:10.915328, 1.45650
2022-12-02 16:50:10.923516, 1.46139
2022-12-02 16:50:10.935971, 1.46628
2022-12-02 16:50:10.944232, 1.51026
2022-12-02 16:50:10.951956, 1.47605
2022-12-02 16:50:10.964337, 1.47605
2022-12-02 16:50:10.972154, 1.49560
2022-12-02 16:50:10.980443, 1.48094
2022-12-02 16:50:10.988866, 1.48094
2022-12-02 16:50:11.001490, 1.49071
2022-12-02 16:50:11.009605, 1.48583
2022-12-02 16:50:11.017733, 1.49071
2022-12-02 16:50:11.030080, 1.49560
2022-12-02 16:50:11.037681, 1.49560
2022-12-02 16:50:11.046362, 1.49560
2022-12-02 16:50:11.054529, 1.50538
2022-12-02 16:50:11.067047, 1.50049
2022-12-02 16:50:11.075254, 1.50049
2022-12-02 16:50:11.082918, 1.50538
2022-12-02 16:50:11.095737, 1.50538
2022-12-02 16:50:11.103632, 1.50049
2022-12-02 16:50:11.111756, 1.50049
2022-12-02 16:50:11.120256, 1.50049
2022-12-02 16:50:11.132100, 1.49560
2022-12-02 16:50:11.140611, 1.49071
2022-12-02 16:50:11.148835, 1.49560
2022-12-02 16:50:11.160431, 1.49071
2022-12-02 16:50:11.169355, 1.48583
2022-12-02 16:50:11.177548, 1.48583
2022-12-02 16:50:11.185513, 1.49071
2022-12-02 16:50:11.197874, 1.48583
2022-12-02 16:50:11.205503, 1.49071
2022-12-02 16:50:11.213950, 1.49071
2022-12-02 16:50:11.226689, 1.49560
2022-12-02 16:50:11.234766, 1.48583
2022-12-02 16:50:11.242788, 1.48583
2022-12-02 16:50:11.251365, 1.48094
2022-12-02 16:50:11.263571, 1.48094
2022-12-02 16:50:11.271131, 1.47605
2022-12-02 16:50:11.279200, 1.47116
2022-12-02 16:50:11.291857, 1.47116
2022-12-02 16:50:11.299625, 1.47116
2022-12-02 16:50:11.308441, 1.46628
2022-12-02 16:50:11.316273, 1.46628
2022-12-02 16:50:11.328780, 1.46139
2022-12-02 16:50:11.336773, 1.46139
2022-12-02 16:50:11.345248, 1.49071
2022-12-02 16:50:11.357206, 1.45650
2022-12-02 16:50:11.365712, 1.45161
2022-12-02 16:50:11.373974, 1.45650
2022-12-02 16:50:11.382215, 1.44673
2022-12-02 16:50:11.393881, 1.44184
2022-12-02 16:50:11.402385, 1.44184
2022-12-02 16:50:11.411184, 1.43695
2022-12-02 16:50:11.423108, 1.43206
2022-12-02 16:50:11.430807, 1.42717
2022-12-02 16:50:11.439196, 1.43206
2022-12-02 16:50:11.447988, 1.42717
2022-12-02 16:50:11.459868, 1.42717
2022-12-02 16:50:11.467768, 1.42229
2022-12-02 16:50:11.476410, 1.45650
2022-12-02 16:50:11.488616, 1.41740
2022-12-02 16:50:11.497003, 1.41740
2022-12-02 16:50:11.505323, 1.41251
2022-12-02 16:50:11.513296, 1.40762
2022-12-02 16:50:11.524873, 1.43206
2022-12-02 16:50:11.533576, 1.40762
2022-12-02 16:50:11.541310, 1.40762
2022-12-02 16:50:11.553995, 1.40762
2022-12-02 16:50:11.562654, 1.40274
2022-12-02 16:50:11.570229, 1.40274
2022-12-02 16:50:11.578725, 1.40274
2022-12-02 16:50:11.590952, 1.40274
2022-12-02 16:50:11.599513, 1.40762
2022-12-02 16:50:11.607387, 1.42229
2022-12-02 16:50:11.619475, 1.41740
2022-12-02 16:50:11.628189, 1.42717
2022-12-02 16:50:11.636306, 1.44184
2022-12-02 16:50:11.644575, 1.45650
2022-12-02 16:50:11.656665, 1.47116
2022-12-02 16:50:11.665058, 1.48094
2022-12-02 16:50:11.673037, 1.49560
2022-12-02 16:50:11.684821, 1.51026
2022-12-02 16:50:11.693339, 1.51515
2022-12-02 16:50:11.701869, 1.52493
2022-12-02 16:50:11.709855, 1.52981
2022-12-02 16:50:11.722017, 1.53959
2022-12-02 16:50:11.730243, 1.54936
2022-12-02 16:50:11.738681, 1.57380
2022-12-02 16:50:11.750473, 1.55914
2022-12-02 16:50:11.759212, 1.56403
2022-12-02 16:50:11.767537, 1.57380
2022-12-02 16:50:11.775667, 1.58847
2022-12-02 16:50:11.786970, 1.58847
2022-12-02 16:50:11.795769, 1.59335
2022-12-02 16:50:11.803429, 1.60313
2022-12-02 16:50:11.811611, 1.62757
2022-12-02 16:50:11.824684, 1.61290
2022-12-02 16:50:11.832737, 1.61779
2022-12-02 16:50:11.840779, 1.62268
2022-12-02 16:50:11.853436, 1.63245
2022-12-02 16:50:11.861324, 1.65200
2022-12-02 16:50:11.869276, 1.63245
2022-12-02 16:50:11.877430, 1.63245
2022-12-02 16:50:11.889608, 1.66667
2022-12-02 16:50:11.898482, 1.64223
2022-12-02 16:50:11.906307, 1.64712
2022-12-02 16:50:11.918987, 1.66667
2022-12-02 16:50:11.926893, 1.65200
2022-12-02 16:50:11.934811, 1.65200
2022-12-02 16:50:11.943354, 1.66667
2022-12-02 16:50:11.955144, 1.66178
2022-12-02 16:50:11.963663, 1.66667
2022-12-02 16:50:11.972091, 1.67644
2022-12-02 16:50:11.983723, 1.67644
2022-12-02 16:50:11.992034, 1.68133
2022-12-02 16:50:12.000317, 1.68622
2022-12-02 16:50:12.008839, 1.68622
2022-12-02 16:50:12.021018, 1.68622
2022-12-02 16:50:12.029047, 1.69110
2022-12-02 16:50:12.037223, 1.68622
2022-12-02 16:50:12.049660, 1.68133
2022-12-02 16:50:12.057698, 1.68133
2022-12-02 16:50:12.066482, 1.68133
2022-12-02 16:50:12.074557, 1.68133
2022-12-02 16:50:12.086601, 1.68133
2022-12-02 16:50:12.095222, 1.71065
2022-12-02 16:50:12.103065, 1.67644
2022-12-02 16:50:12.115178, 1.67644
2022-12-02 16:50:12.123865, 1.70088
2022-12-02 16:50:12.131613, 1.67155
2022-12-02 16:50:12.140336, 1.67155
2022-12-02 16:50:12.152214, 1.67644
2022-12-02 16:50:12.160263, 1.66667
2022-12-02 16:50:12.168500, 1.66667
2022-12-02 16:50:12.181054, 1.67155
2022-12-02 16:50:12.188996, 1.66667
2022-12-02 16:50:12.197496, 1.66667
2022-12-02 16:50:12.205598, 1.67155
2022-12-02 16:50:12.217289, 1.66667
2022-12-02 16:50:12.225244, 1.67155
2022-12-02 16:50:12.234375, 1.67155
2022-12-02 16:50:12.246430, 1.66667
2022-12-02 16:50:12.254522, 1.66667
2022-12-02 16:50:12.262570, 1.66667
2022-12-02 16:50:12.270944, 1.66178
2022-12-02 16:50:12.283435, 1.66178
2022-12-02 16:50:12.291764, 1.66178
2022-12-02 16:50:12.299752, 1.69599
2022-12-02 16:50:12.311962, 1.66178
2022-12-02 16:50:12.320254, 1.66178
2022-12-02 16:50:12.328667, 1.66178
2022-12-02 16:50:12.336788, 1.66667
2022-12-02 16:50:12.349014, 1.66178
2022-12-02 16:50:12.357271, 1.66667
2022-12-02 16:50:12.365137, 1.67155
2022-12-02 16:50:12.377195, 1.71065
2022-12-02 16:50:12.384571, 1.68622
2022-12-02 16:50:12.394095, 1.70088
2022-12-02 16:50:12.401679, 1.73509
2022-12-02 16:50:12.414428, 1.73509
2022-12-02 16:50:12.422637, 1.75464
2022-12-02 16:50:12.430366, 1.77908
2022-12-02 16:50:12.442356, 1.78397
2022-12-02 16:50:12.451171, 1.79863
2022-12-02 16:50:12.459846, 1.81329
2022-12-02 16:50:12.467539, 1.81818
2022-12-02 16:50:12.479705, 1.82307
2022-12-02 16:50:12.487981, 1.83284
2022-12-02 16:50:12.496284, 1.83284
2022-12-02 16:50:12.508056, 1.83773
2022-12-02 16:50:12.516542, 1.84262
2022-12-02 16:50:12.524940, 1.84262
2022-12-02 16:50:12.533357, 1.84262
2022-12-02 16:50:12.545573, 1.84751
2022-12-02 16:50:12.553643, 1.89150
2022-12-02 16:50:12.561963, 1.85728
2022-12-02 16:50:12.573893, 1.86217
2022-12-02 16:50:12.582417, 1.89150
2022-12-02 16:50:12.590640, 1.87195
2022-12-02 16:50:12.598723, 1.87195
2022-12-02 16:50:12.611048, 1.88661
2022-12-02 16:50:12.618827, 1.87683
2022-12-02 16:50:12.627057, 1.87195
2022-12-02 16:50:12.635823, 1.87683
2022-12-02 16:50:12.647853, 1.87195
2022-12-02 16:50:12.655392, 1.86706
2022-12-02 16:50:12.664329, 1.87683
2022-12-02 16:50:12.676619, 1.87195
2022-12-02 16:50:12.684383, 1.87683
2022-12-02 16:50:12.692971, 1.88172
2022-12-02 16:50:12.701379, 1.88172
2022-12-02 16:50:12.713273, 1.88172
2022-12-02 16:50:12.721830, 1.88661
2022-12-02 16:50:12.729143, 1.92571
2022-12-02 16:50:12.742158, 1.89150
2022-12-02 16:50:12.749802, 1.89638
2022-12-02 16:50:12.758394, 1.92571
2022-12-02 16:50:12.766028, 1.90616
2022-12-02 16:50:12.778872, 1.90127
2022-12-02 16:50:12.787187, 1.91593
2022-12-02 16:50:12.794744, 1.90127
2022-12-02 16:50:12.807819, 1.90127
2022-12-02 16:50:12.815599, 1.89638
2022-12-02 16:50:12.824066, 1.89150
2022-12-02 16:50:12.832374, 1.89150
2022-12-02 16:50:12.844454, 1.88661
2022-12-02 16:50:12.852822, 1.88172
2022-12-02 16:50:12.860502, 1.87683
2022-12-02 16:50:12.873261, 1.87683
2022-12-02 16:50:12.881507, 1.89150
2022-12-02 16:50:12.889338, 1.86217
2022-12-02 16:50:12.897923, 1.85239
2022-12-02 16:50:12.909884, 1.84751
2022-12-02 16:50:12.918462, 1.86706
2022-12-02 16:50:12.926735, 1.83773
2022-12-02 16:50:12.938786, 1.83284
2022-12-02 16:50:12.946860, 1.82307
2022-12-02 16:50:12.954405, 1.81818
2022-12-02 16:50:12.962778, 1.81329
2022-12-02 16:50:12.975550, 1.80352
2022-12-02 16:50:12.983688, 1.79374
2022-12-02 16:50:12.991727, 1.78886
2022-12-02 16:50:13.004237, 1.80841
2022-12-02 16:50:13.012482, 1.77908
2022-12-02 16:50:13.020320, 1.76931
2022-12-02 16:50:13.028170, 1.77419
2022-12-02 16:50:13.041051, 1.75464
2022-12-02 16:50:13.049248, 1.74487
2022-12-02 16:50:13.057708, 1.74487
2022-12-02 16:50:13.069568, 1.73509
2022-12-02 16:50:13.078108, 1.73021
2022-12-02 16:50:13.085478, 1.73021
2022-12-02 16:50:13.093893, 1.72043
2022-12-02 16:50:13.106450, 1.72043
2022-12-02 16:50:13.114864, 1.72532
2022-12-02 16:50:13.122398, 1.72532
2022-12-02 16:50:13.135036, 1.73509
2022-12-02 16:50:13.143721, 1.74976
2022-12-02 16:50:13.151806, 1.79374
2022-12-02 16:50:13.160073, 1.77419
2022-12-02 16:50:13.171934, 1.78397
2022-12-02 16:50:13.180329, 1.81329
2022-12-02 16:50:13.188468, 1.79863
2022-12-02 16:50:13.201033, 1.80352
2022-12-02 16:50:13.208523, 1.80841
2022-12-02 16:50:13.217454, 1.82796
2022-12-02 16:50:13.224840, 1.80841
2022-12-02 16:50:13.237754, 1.80352
2022-12-02 16:50:13.245563, 1.81818
2022-12-02 16:50:13.253658, 1.81818
2022-12-02 16:50:13.266499, 1.78886
2022-12-02 16:50:13.274667, 1.78397
2022-12-02 16:50:13.282448, 1.78397
2022-12-02 16:50:13.291042, 1.78886
2022-12-02 16:50:13.302626, 1.79863
2022-12-02 16:50:13.311053, 1.78397
2022-12-02 16:50:13.319253, 1.78397
2022-12-02 16:50:13.331672, 1.77908
2022-12-02 16:50:13.340009, 1.80841
2022-12-02 16:50:13.348294, 1.76931
2022-12-02 16:50:13.356627, 1.75953
2022-12-02 16:50:13.368873, 1.75464
2022-12-02 16:50:13.377052, 1.75464
2022-12-02 16:50:13.385365, 1.77419
2022-12-02 16:50:13.397688, 1.73509
2022-12-02 16:50:13.405653, 1.73021
2022-12-02 16:50:13.413346, 1.73509
2022-12-02 16:50:13.421834, 1.74976
2022-12-02 16:50:13.434242, 1.72532
2022-12-02 16:50:13.442649, 1.72043
2022-12-02 16:50:13.450592, 1.72043
2022-12-02 16:50:13.462388, 1.72043
2022-12-02 16:50:13.471224, 1.72043
2022-12-02 16:50:13.478926, 1.71065
2022-12-02 16:50:13.487313, 1.70577
2022-12-02 16:50:13.499978, 1.70088
2022-12-02 16:50:13.508095, 1.70577
2022-12-02 16:50:13.516362, 1.68622
2022-12-02 16:50:13.524700, 1.67644
2022-12-02 16:50:13.536701, 1.67155
2022-12-02 16:50:13.544884, 1.65689
2022-12-02 16:50:13.553122, 1.65200
2022-12-02 16:50:13.565295, 1.64712
2022-12-02 16:50:13.573006, 1.67155
2022-12-02 16:50:13.581490, 1.63245
2022-12-02 16:50:13.589255, 1.62757
2022-12-02 16:50:13.601883, 1.63734
2022-12-02 16:50:13.609930, 1.61290
2022-12-02 16:50:13.618633, 1.60802
2022-12-02 16:50:13.630357, 1.60313
2022-12-02 16:50:13.639315, 1.59335
2022-12-02 16:50:13.647319, 1.58358
2022-12-02 16:50:13.654988, 1.57869
2022-12-02 16:50:13.667882, 1.60802
2022-12-02 16:50:13.675532, 1.56403
2022-12-02 16:50:13.684514, 1.56403
2022-12-02 16:50:13.696261, 1.57869
2022-12-02 16:50:13.704518, 1.54936
2022-12-02 16:50:13.712545, 1.54448
2022-12-02 16:50:13.720975, 1.54936
2022-12-02 16:50:13.732710, 1.53470
2022-12-02 16:50:13.741036, 1.52493
2022-12-02 16:50:13.749786, 1.52493
2022-12-02 16:50:13.762215, 1.52004
2022-12-02 16:50:13.769319, 1.51515
2022-12-02 16:50:13.777939, 1.51026
2022-12-02 16:50:13.785552, 1.50538
2022-12-02 16:50:13.798560, 1.50049
2022-12-02 16:50:13.807059, 1.49560
2022-12-02 16:50:13.815053, 1.49560
2022-12-02 16:50:13.826901, 1.48583
2022-12-02 16:50:13.835094, 1.48583
2022-12-02 16:50:13.843646, 1.48583
2022-12-02 16:50:13.852184, 1.48583
2022-12-02 16:50:13.864585, 1.48583
2022-12-02 16:50:13.872867, 1.49071
2022-12-02 16:50:13.880978, 1.51515
2022-12-02 16:50:13.892206, 1.51026
2022-12-02 16:50:13.901210, 1.52493
2022-12-02 16:50:13.909306, 1.55914
2022-12-02 16:50:13.917948, 1.54936
2022-12-02 16:50:13.929965, 1.56403
2022-12-02 16:50:13.937970, 1.58358
2022-12-02 16:50:13.946608, 1.58358
2022-12-02 16:50:13.958580, 1.59335
2022-12-02 16:50:13.966702, 1.60802
2022-12-02 16:50:13.975610, 1.60802
2022-12-02 16:50:13.983467, 1.60802
2022-12-02 16:50:13.995426, 1.61779
2022-12-02 16:50:14.003630, 1.61779
2022-12-02 16:50:14.011926, 1.61779
2022-12-02 16:50:14.024216, 1.62268
2022-12-02 16:50:14.032073, 1.64223
2022-12-02 16:50:14.040866, 1.62757
2022-12-02 16:50:14.048525, 1.63245
2022-12-02 16:50:14.061017, 1.64223
2022-12-02 16:50:14.069264, 1.63734
2022-12-02 16:50:14.077502, 1.64223
2022-12-02 16:50:14.089530, 1.64712
2022-12-02 16:50:14.098128, 1.64223
2022-12-02 16:50:14.106299, 1.64223
2022-12-02 16:50:14.114200, 1.64223
2022-12-02 16:50:14.126134, 1.65200
2022-12-02 16:50:14.134775, 1.63245
2022-12-02 16:50:14.142958, 1.62757
2022-12-02 16:50:14.155292, 1.62757
2022-12-02 16:50:14.163364, 1.62268
2022-12-02 16:50:14.171661, 1.61290
2022-12-02 16:50:14.180060, 1.61779
2022-12-02 16:50:14.191657, 1.60802
2022-12-02 16:50:14.200373, 1.60802
2022-12-02 16:50:14.208233, 1.60802
2022-12-02 16:50:14.220516, 1.61779
2022-12-02 16:50:14.228668, 1.60313
2022-12-02 16:50:14.237102, 1.60313
2022-12-02 16:50:14.245339, 1.60313
2022-12-02 16:50:14.257481, 1.59335
2022-12-02 16:50:14.265604, 1.58847
2022-12-02 16:50:14.274208, 1.58847
2022-12-02 16:50:14.286420, 1.58358
2022-12-02 16:50:14.294762, 1.57380
2022-12-02 16:50:14.302432, 1.56891
2022-12-02 16:50:14.311009, 1.56403
2022-12-02 16:50:14.322991, 1.55914
2022-12-02 16:50:14.331096, 1.55425
2022-12-02 16:50:14.339819, 1.55425
2022-12-02 16:50:14.352074, 1.57869
2022-12-02 16:50:14.360100, 1.53959
2022-12-02 16:50:14.368351, 1.53470
2022-12-02 16:50:14.375935, 1.54936
2022-12-02 16:50:14.388851, 1.52493
2022-12-02 16:50:14.396896, 1.52004
2022-12-02 16:50:14.404596, 1.52981
2022-12-02 16:50:14.413392, 1.51026
2022-12-02 16:50:14.425627, 1.50538
2022-12-02 16:50:14.433174, 1.51026
2022-12-02 16:50:14.441487, 1.50049
2022-12-02 16:50:14.454332, 1.49560
2022-12-02 16:50:14.462238, 1.49560
2022-12-02 16:50:14.470517, 1.49071
2022-12-02 16:50:14.478834, 1.48583
2022-12-02 16:50:14.490408, 1.48583
2022-12-02 16:50:14.499429, 1.47605
2022-12-02 16:50:14.507353, 1.47605
2022-12-02 16:50:14.519361, 1.46628
2022-12-02 16:50:14.527931, 1.49560
2022-12-02 16:50:14.535618, 1.46139
2022-12-02 16:50:14.543849, 1.45650
2022-12-02 16:50:14.556481, 1.46628
2022-12-02 16:50:14.564978, 1.45161
2022-12-02 16:50:14.573338, 1.44673
2022-12-02 16:50:14.585357, 1.45161
2022-12-02 16:50:14.593444, 1.44184
2022-12-02 16:50:14.601736, 1.44673
2022-12-02 16:50:14.609416, 1.45161
2022-12-02 16:50:14.621492, 1.45650
2022-12-02 16:50:14.630221, 1.46628
2022-12-02 16:50:14.638411, 1.47605
2022-12-02 16:50:14.651044, 1.49560
2022-12-02 16:50:14.658768, 1.51026
2022-12-02 16:50:14.666884, 1.52981
2022-12-02 16:50:14.675439, 1.54448
2022-12-02 16:50:14.687461, 1.56891
2022-12-02 16:50:14.695726, 1.56891
2022-12-02 16:50:14.703927, 1.58358
2022-12-02 16:50:14.716323, 1.59824
2022-12-02 16:50:14.724174, 1.64223
2022-12-02 16:50:14.732124, 1.61779
2022-12-02 16:50:14.740946, 1.62268
2022-12-02 16:50:14.753196, 1.64223
2022-12-02 16:50:14.761680, 1.64223
2022-12-02 16:50:14.769037, 1.64712
2022-12-02 16:50:14.781737, 1.65689
2022-12-02 16:50:14.790375, 1.66178
2022-12-02 16:50:14.798565, 1.66667
2022-12-02 16:50:14.806612, 1.67155
2022-12-02 16:50:14.818139, 1.71065
2022-12-02 16:50:14.826907, 1.68133
2022-12-02 16:50:14.834757, 1.68622
2022-12-02 16:50:14.847561, 1.70088
2022-12-02 16:50:14.855774, 1.68622
2022-12-02 16:50:14.863282, 1.68622
2022-12-02 16:50:14.871829, 1.69110
2022-12-02 16:50:14.883848, 1.68133
2022-12-02 16:50:14.892342, 1.68133
2022-12-02 16:50:14.900121, 1.68622
2022-12-02 16:50:14.912975, 1.68133
2022-12-02 16:50:14.920390, 1.68133
2022-12-02 16:50:14.928702, 1.68133
2022-12-02 16:50:14.937689, 1.68133
2022-12-02 16:50:14.949738, 1.68622
2022-12-02 16:50:14.957601, 1.68622
2022-12-02 16:50:14.966058, 1.68622
2022-12-02 16:50:14.978039, 1.68622
2022-12-02 16:50:14.986245, 1.69110
2022-12-02 16:50:14.994278, 1.72043
2022-12-02 16:50:15.002934, 1.68622
2022-12-02 16:50:15.014724, 1.68622
2022-12-02 16:50:15.023179, 1.70088
2022-12-02 16:50:15.031278, 1.68133
2022-12-02 16:50:15.044119, 1.67644
2022-12-02 16:50:15.052037, 1.68133
2022-12-02 16:50:15.060429, 1.67155
2022-12-02 16:50:15.068760, 1.66667
2022-12-02 16:50:15.080508, 1.67155
2022-12-02 16:50:15.089520, 1.66667
2022-12-02 16:50:15.097315, 1.66178
2022-12-02 16:50:15.109303, 1.65689
2022-12-02 16:50:15.117681, 1.68133
2022-12-02 16:50:15.126054, 1.65200
2022-12-02 16:50:15.134409, 1.64223
2022-12-02 16:50:15.146616, 1.63734
2022-12-02 16:50:15.154892, 1.63245
2022-12-02 16:50:15.162205, 1.63245
2022-12-02 16:50:15.174435, 1.65200
2022-12-02 16:50:15.182766, 1.62268
2022-12-02 16:50:15.191662, 1.62268
2022-12-02 16:50:15.199901, 1.62268
2022-12-02 16:50:15.212135, 1.61779
2022-12-02 16:50:15.220372, 1.61779
2022-12-02 16:50:15.228479, 1.61290
2022-12-02 16:50:15.236613, 1.60802
2022-12-02 16:50:15.248491, 1.60313
2022-12-02 16:50:15.256947, 1.63734
2022-12-02 16:50:15.264673, 1.59824
2022-12-02 16:50:15.277310, 1.59335
2022-12-02 16:50:15.285984, 1.59335
2022-12-02 16:50:15.293891, 1.59335
2022-12-02 16:50:15.302131, 1.58847
2022-12-02 16:50:15.313894, 1.58847
2022-12-02 16:50:15.322754, 1.59335
2022-12-02 16:50:15.330623, 1.60802
2022-12-02 16:50:15.343263, 1.59335
2022-12-02 16:50:15.350612, 1.59824
2022-12-02 16:50:15.358894, 1.63245
2022-12-02 16:50:15.367822, 1.62268
2022-12-02 16:50:15.379469, 1.64223
2022-12-02 16:50:15.387879, 1.66667
2022-12-02 16:50:15.396583, 1.69599
2022-12-02 16:50:15.407825, 1.71554
2022-12-02 16:50:15.416815, 1.73998
2022-12-02 16:50:15.424436, 1.76442
2022-12-02 16:50:15.433450, 1.79863
2022-12-02 16:50:15.445635, 1.80352
2022-12-02 16:50:15.453271, 1.82307
2022-12-02 16:50:15.462122, 1.85728
2022-12-02 16:50:15.474294, 1.84751
2022-12-02 16:50:15.482064, 1.85728
2022-12-02 16:50:15.490522, 1.88172
2022-12-02 16:50:15.498933, 1.87683
2022-12-02 16:50:15.510870, 1.88661
2022-12-02 16:50:15.519149, 1.89638
2022-12-02 16:50:15.527579, 1.89638
2022-12-02 16:50:15.539205, 1.90616
2022-12-02 16:50:15.548021, 1.91593
2022-12-02 16:50:15.556329, 1.92082
2022-12-02 16:50:15.563897, 1.92571
2022-12-02 16:50:15.575839, 1.93060
2022-12-02 16:50:15.584354, 1.93548
2022-12-02 16:50:15.592277, 1.93548
2022-12-02 16:50:15.605349, 1.94037
2022-12-02 16:50:15.612922, 1.94037
2022-12-02 16:50:15.621111, 1.94037
2022-12-02 16:50:15.629687, 1.94037
2022-12-02 16:50:15.641662, 1.95992
2022-12-02 16:50:15.650013, 1.94037
2022-12-02 16:50:15.658309, 1.94526
2022-12-02 16:50:15.670504, 1.97947
2022-12-02 16:50:15.678563, 1.95015
2022-12-02 16:50:15.687260, 1.95503
2022-12-02 16:50:15.694899, 1.97947
2022-12-02 16:50:15.706899, 1.95992
2022-12-02 16:50:15.715265, 1.96481
2022-12-02 16:50:15.724237, 1.96970
2022-12-02 16:50:15.735861, 1.96481
2022-12-02 16:50:15.744027, 1.96481
2022-12-02 16:50:15.752968, 1.96481
2022-12-02 16:50:15.760559, 1.95992
2022-12-02 16:50:15.772802, 1.95503
2022-12-02 16:50:15.780940, 1.95015
2022-12-02 16:50:15.789316, 1.95015
2022-12-02 16:50:15.801791, 1.94037
2022-12-02 16:50:15.809289, 1.93548
2022-12-02 16:50:15.818022, 1.96970
2022-12-02 16:50:15.826395, 1.93060
2022-12-02 16:50:15.838692, 1.92571
2022-12-02 16:50:15.846780, 1.92082
2022-12-02 16:50:15.855259, 1.93548
2022-12-02 16:50:15.867113, 1.91105
2022-12-02 16:50:15.875503, 1.90616
2022-12-02 16:50:15.883668, 1.90127
2022-12-02 16:50:15.892026, 1.89638
2022-12-02 16:50:15.904285, 1.89638
2022-12-02 16:50:15.911859, 1.88661
2022-12-02 16:50:15.920226, 1.88172
2022-12-02 16:50:15.933065, 1.87683
2022-12-02 16:50:15.940466, 1.87683
2022-12-02 16:50:15.949415, 1.89150
2022-12-02 16:50:15.957695, 1.86706
2022-12-02 16:50:15.969742, 1.86706
2022-12-02 16:50:15.977774, 1.86217
2022-12-02 16:50:15.985494, 1.86706
2022-12-02 16:50:15.998423, 1.85728
2022-12-02 16:50:16.006211, 1.85239
2022-12-02 16:50:16.014764, 1.84751
2022-12-02 16:50:16.023260, 1.84262
2022-12-02 16:50:16.034845, 1.84751
2022-12-02 16:50:16.042973, 1.83773
2022-12-02 16:50:16.051019, 1.83284
2022-12-02 16:50:16.064033, 1.83284
2022-12-02 16:50:16.072034, 1.83773
2022-12-02 16:50:16.079777, 1.83773
2022-12-02 16:50:16.088609, 1.85239
2022-12-02 16:50:16.100332, 1.86706
2022-12-02 16:50:16.108296, 1.90616
2022-12-02 16:50:16.116649, 1.91105
2022-12-02 16:50:16.125191, 1.93060
2022-12-02 16:50:16.137274, 1.95503
2022-12-02 16:50:16.145140, 1.97458
2022-12-02 16:50:16.153869, 1.99413
2022-12-02 16:50:16.166459, 2.01369
2022-12-02 16:50:16.174172, 2.02835
2022-12-02 16:50:16.182902, 2.03812
2022-12-02 16:50:16.190381, 2.04301
2022-12-02 16:50:16.202938, 2.07722
2022-12-02 16:50:16.211457, 2.04790
2022-12-02 16:50:16.219313, 2.05279
2022-12-02 16:50:16.231141, 2.08700
2022-12-02 16:50:16.239797, 2.05767
2022-12-02 16:50:16.247753, 2.06256
2022-12-02 16:50:16.256293, 2.07722
2022-12-02 16:50:16.268327, 2.07234
2022-12-02 16:50:16.277115, 2.07722
2022-12-02 16:50:16.285168, 2.08700
2022-12-02 16:50:16.297295, 2.08211
2022-12-02 16:50:16.305902, 2.07722
2022-12-02 16:50:16.314021, 2.07234
2022-12-02 16:50:16.321985, 2.06256
2022-12-02 16:50:16.334453, 2.05767
2022-12-02 16:50:16.342658, 2.05279
2022-12-02 16:50:16.350777, 2.04790
2022-12-02 16:50:16.362962, 2.04790
2022-12-02 16:50:16.371378, 2.04790
2022-12-02 16:50:16.379248, 2.04790
2022-12-02 16:50:16.387227, 2.04790
2022-12-02 16:50:16.399288, 2.04790
2022-12-02 16:50:16.408238, 2.07234
2022-12-02 16:50:16.415896, 2.03812
2022-12-02 16:50:16.428053, 2.03812
2022-12-02 16:50:16.436287, 2.04790
2022-12-02 16:50:16.444544, 2.02835
2022-12-02 16:50:16.452933, 2.02346
2022-12-02 16:50:16.465570, 2.01369
2022-12-02 16:50:16.473821, 2.01857
2022-12-02 16:50:16.481474, 1.98925
2022-12-02 16:50:16.493691, 1.97947
2022-12-02 16:50:16.501946, 1.96481
2022-12-02 16:50:16.509757, 1.95503
2022-12-02 16:50:16.518487, 1.94037
2022-12-02 16:50:16.530148, 1.93060
2022-12-02 16:50:16.539100, 1.92082
2022-12-02 16:50:16.546831, 1.90616
2022-12-02 16:50:16.559406, 1.89638
2022-12-02 16:50:16.567333, 1.88172
2022-12-02 16:50:16.576127, 1.87195
2022-12-02 16:50:16.583788, 1.85728
2022-12-02 16:50:16.596384, 1.84262
2022-12-02 16:50:16.603944, 1.82796
2022-12-02 16:50:16.612678, 1.84751
2022-12-02 16:50:16.624808, 1.80352
2022-12-02 16:50:16.632720, 1.79374
2022-12-02 16:50:16.641453, 1.81818
2022-12-02 16:50:16.649208, 1.77908
2022-12-02 16:50:16.661197, 1.76442
2022-12-02 16:50:16.669768, 1.76442
2022-12-02 16:50:16.678709, 1.74976
2022-12-02 16:50:16.689860, 1.73998
2022-12-02 16:50:16.698284, 1.73021
2022-12-02 16:50:16.707026, 1.71554
2022-12-02 16:50:16.714611, 1.70577
2022-12-02 16:50:16.727217, 1.69599
2022-12-02 16:50:16.735780, 1.69110
2022-12-02 16:50:16.743895, 1.67155
2022-12-02 16:50:16.756633, 1.66667
2022-12-02 16:50:16.764523, 1.66178
2022-12-02 16:50:16.772153, 1.64712
2022-12-02 16:50:16.781009, 1.64223
2022-12-02 16:50:16.792378, 1.64223
2022-12-02 16:50:16.801232, 1.67155
2022-12-02 16:50:16.809521, 1.65689
2022-12-02 16:50:16.821842, 1.67644
2022-12-02 16:50:16.829219, 1.69110
2022-12-02 16:50:16.837407, 1.70577
2022-12-02 16:50:16.846184, 1.72532
2022-12-02 16:50:16.858782, 1.74487
2022-12-02 16:50:16.866260, 1.75464
2022-12-02 16:50:16.875032, 1.76931
2022-12-02 16:50:16.886547, 1.77908
2022-12-02 16:50:16.895378, 1.79374
2022-12-02 16:50:16.903967, 1.78886
2022-12-02 16:50:16.911498, 1.78886
2022-12-02 16:50:16.924267, 1.78886
2022-12-02 16:50:16.932447, 1.78397
2022-12-02 16:50:16.940819, 1.77908
2022-12-02 16:50:16.952793, 1.78397
2022-12-02 16:50:16.960412, 1.78397
2022-12-02 16:50:16.969251, 1.78397
2022-12-02 16:50:16.976902, 1.78886
2022-12-02 16:50:16.989542, 1.82307
2022-12-02 16:50:16.998109, 1.78886
2022-12-02 16:50:17.006360, 1.78397
2022-12-02 16:50:17.014139, 1.80841
2022-12-02 16:50:17.026575, 1.76931
2022-12-02 16:50:17.034108, 1.75953
2022-12-02 16:50:17.043064, 1.76442
2022-12-02 16:50:17.055318, 1.73998
2022-12-02 16:50:17.063497, 1.72532
2022-12-02 16:50:17.071523, 1.72043
2022-12-02 16:50:17.079702, 1.71065
2022-12-02 16:50:17.091629, 1.70088
2022-12-02 16:50:17.100394, 1.70088
2022-12-02 16:50:17.108430, 1.69110
2022-12-02 16:50:17.120739, 1.69110
2022-12-02 16:50:17.128977, 1.68133
2022-12-02 16:50:17.137064, 1.71554
2022-12-02 16:50:17.145133, 1.67644
2022-12-02 16:50:17.157630, 1.67155
2022-12-02 16:50:17.165979, 1.69599
2022-12-02 16:50:17.174135, 1.66667
2022-12-02 16:50:17.186214, 1.66178
2022-12-02 16:50:17.194221, 1.66178
2022-12-02 16:50:17.202937, 1.64223
2022-12-02 16:50:17.211153, 1.63245
2022-12-02 16:50:17.222981, 1.62268
2022-12-02 16:50:17.231634, 1.60802
2022-12-02 16:50:17.239866, 1.59824
2022-12-02 16:50:17.252021, 1.58847
2022-12-02 16:50:17.259949, 1.57869
2022-12-02 16:50:17.268252, 1.57380
2022-12-02 16:50:17.276682, 1.56403
2022-12-02 16:50:17.288641, 1.57869
2022-12-02 16:50:17.297124, 1.54936
2022-12-02 16:50:17.305338, 1.53959
2022-12-02 16:50:17.316601, 1.53959
2022-12-02 16:50:17.325780, 1.52004
2022-12-02 16:50:17.333750, 1.51026
2022-12-02 16:50:17.342075, 1.50049
2022-12-02 16:50:17.354129, 1.48583
2022-12-02 16:50:17.362516, 1.47605
2022-12-02 16:50:17.370738, 1.47116
2022-12-02 16:50:17.382999, 1.45650
2022-12-02 16:50:17.391312, 1.45161
2022-12-02 16:50:17.399075, 1.44673
2022-12-02 16:50:17.407742, 1.44673
2022-12-02 16:50:17.419861, 1.43695
2022-12-02 16:50:17.428016, 1.42717
2022-12-02 16:50:17.436133, 1.45650
2022-12-02 16:50:17.447945, 1.41251
2022-12-02 16:50:17.456723, 1.40762
2022-12-02 16:50:17.464292, 1.41740
2022-12-02 16:50:17.473199, 1.39785
2022-12-02 16:50:17.484971, 1.39296
2022-12-02 16:50:17.493171, 1.40274
2022-12-02 16:50:17.501596, 1.40274
2022-12-02 16:50:17.514049, 1.41251
2022-12-02 16:50:17.522381, 1.42717
2022-12-02 16:50:17.530184, 1.44184
2022-12-02 16:50:17.538530, 1.46139
2022-12-02 16:50:17.550894, 1.48583
2022-12-02 16:50:17.559118, 1.53470
2022-12-02 16:50:17.567160, 1.52981
2022-12-02 16:50:17.579308, 1.55425
2022-12-02 16:50:17.587871, 1.60313
2022-12-02 16:50:17.596105, 1.58847
2022-12-02 16:50:17.604503, 1.60313
2022-12-02 16:50:17.616529, 1.62268
2022-12-02 16:50:17.624676, 1.62757
2022-12-02 16:50:17.632553, 1.63734
2022-12-02 16:50:17.645046, 1.64223
2022-12-02 16:50:17.652980, 1.64712
2022-12-02 16:50:17.660876, 1.65200
2022-12-02 16:50:17.669764, 1.65200
2022-12-02 16:50:17.681854, 1.65200
2022-12-02 16:50:17.690443, 1.65689
2022-12-02 16:50:17.698365, 1.65689
2022-12-02 16:50:17.710693, 1.66178
2022-12-02 16:50:17.719036, 1.65689
2022-12-02 16:50:17.727173, 1.65200
2022-12-02 16:50:17.734738, 1.67644
2022-12-02 16:50:17.747031, 1.63734
2022-12-02 16:50:17.755704, 1.62757
2022-12-02 16:50:17.763848, 1.64223
2022-12-02 16:50:17.775632, 1.61290
2022-12-02 16:50:17.783902, 1.60313
2022-12-02 16:50:17.792576, 1.61290
2022-12-02 16:50:17.800235, 1.59335
2022-12-02 16:50:17.812158, 1.59335
2022-12-02 16:50:17.821187, 1.59824
2022-12-02 16:50:17.829631, 1.58358
2022-12-02 16:50:17.841532, 1.58358
2022-12-02 16:50:17.850042, 1.58847
2022-12-02 16:50:17.857491, 1.58358
2022-12-02 16:50:17.866315, 1.58358
2022-12-02 16:50:17.878682, 1.58358
2022-12-02 16:50:17.886542, 1.57869
2022-12-02 16:50:17.894283, 1.57380
2022-12-02 16:50:17.902565, 1.57380
2022-12-02 16:50:17.915243, 1.56403
2022-12-02 16:50:17.923710, 1.55914
2022-12-02 16:50:17.931805, 1.55425
2022-12-02 16:50:17.943513, 1.56891
2022-12-02 16:50:17.952421, 1.53470
2022-12-02 16:50:17.959997, 1.52493
2022-12-02 16:50:17.967896, 1.52981
2022-12-02 16:50:17.980234, 1.51026
2022-12-02 16:50:17.988936, 1.50049
2022-12-02 16:50:17.997535, 1.50049
2022-12-02 16:50:18.008943, 1.48583
2022-12-02 16:50:18.017870, 1.47605
2022-12-02 16:50:18.026174, 1.47116
2022-12-02 16:50:18.033748, 1.45650
2022-12-02 16:50:18.045682, 1.44673
2022-12-02 16:50:18.054764, 1.44184
2022-12-02 16:50:18.062133, 1.43695
2022-12-02 16:50:18.074336, 1.42717
2022-12-02 16:50:18.082903, 1.41740
2022-12-02 16:50:18.091080, 1.45161
2022-12-02 16:50:18.099671, 1.41251
2022-12-02 16:50:18.111179, 1.41251
2022-12-02 16:50:18.120112, 1.41740
2022-12-02 16:50:18.127850, 1.40274
2022-12-02 16:50:18.140642, 1.40274
2022-12-02 16:50:18.149064, 1.40274
2022-12-02 16:50:18.156906, 1.39296
2022-12-02 16:50:18.164426, 1.39296
2022-12-02 16:50:18.177596, 1.39296
2022-12-02 16:50:18.185278, 1.40274
2022-12-02 16:50:18.193957, 1.38319
2022-12-02 16:50:18.205683, 1.37830
2022-12-02 16:50:18.214344, 1.41740
2022-12-02 16:50:18.221822, 1.38319
2022-12-02 16:50:18.230427, 1.38807
2022-12-02 16:50:18.242690, 1.40762
2022-12-02 16:50:18.251160, 1.41251
2022-12-02 16:50:18.259409, 1.43206
2022-12-02 16:50:18.271926, 1.45650
2022-12-02 16:50:18.279557, 1.48094
2022-12-02 16:50:18.288227, 1.50538
2022-12-02 16:50:18.296550, 1.53470
2022-12-02 16:50:18.308687, 1.59335
2022-12-02 16:50:18.316431, 1.59335
2022-12-02 16:50:18.325159, 1.61779
2022-12-02 16:50:18.337421, 1.65200
2022-12-02 16:50:18.345368, 1.65689
2022-12-02 16:50:18.353267, 1.66667
2022-12-02 16:50:18.361901, 1.68133
2022-12-02 16:50:18.373916, 1.68622
2022-12-02 16:50:18.382396, 1.69110
2022-12-02 16:50:18.390749, 1.69599
2022-12-02 16:50:18.402488, 1.73509
2022-12-02 16:50:18.411111, 1.70577
2022-12-02 16:50:18.419010, 1.71065
2022-12-02 16:50:18.426749, 1.71554
2022-12-02 16:50:18.439602, 1.71554
2022-12-02 16:50:18.447934, 1.71554
2022-12-02 16:50:18.456134, 1.71065
2022-12-02 16:50:18.468465, 1.72043
2022-12-02 16:50:18.476354, 1.70088
2022-12-02 16:50:18.484636, 1.69110
2022-12-02 16:50:18.492884, 1.72043
2022-12-02 16:50:18.505131, 1.68133
2022-12-02 16:50:18.513137, 1.67155
2022-12-02 16:50:18.521852, 1.69110
2022-12-02 16:50:18.533575, 1.66667
2022-12-02 16:50:18.542028, 1.66178
2022-12-02 16:50:18.550076, 1.67155
2022-12-02 16:50:18.558447, 1.65689
2022-12-02 16:50:18.570973, 1.65200
2022-12-02 16:50:18.578384, 1.65689
2022-12-02 16:50:18.586735, 1.65200
2022-12-02 16:50:18.599416, 1.64712
2022-12-02 16:50:18.607926, 1.64712
2022-12-02 16:50:18.615691, 1.64712
2022-12-02 16:50:18.624281, 1.64712
2022-12-02 16:50:18.636457, 1.63245
2022-12-02 16:50:18.644606, 1.62268
2022-12-02 16:50:18.652157, 1.61290
2022-12-02 16:50:18.664226, 1.60802
2022-12-02 16:50:18.673226, 1.60313
2022-12-02 16:50:18.680979, 1.58847
2022-12-02 16:50:18.689827, 1.58358
2022-12-02 16:50:18.701239, 1.57380
2022-12-02 16:50:18.710126, 1.57380
2022-12-02 16:50:18.718141, 1.55914
2022-12-02 16:50:18.726134, 1.55425
2022-12-02 16:50:18.738857, 1.54448
2022-12-02 16:50:18.746650, 1.52981
2022-12-02 16:50:18.754505, 1.52493
2022-12-02 16:50:18.766869, 1.51515
2022-12-02 16:50:18.775091, 1.53959
2022-12-02 16:50:18.782997, 1.50049
2022-12-02 16:50:18.792107, 1.49071
2022-12-02 16:50:18.803625, 1.51515
2022-12-02 16:50:18.812238, 1.47605
2022-12-02 16:50:18.820300, 1.47116
2022-12-02 16:50:18.832987, 1.48094
2022-12-02 16:50:18.841273, 1.45650
2022-12-02 16:50:18.849368, 1.45161
2022-12-02 16:50:18.857357, 1.45161
2022-12-02 16:50:18.869010, 1.44673
2022-12-02 16:50:18.877553, 1.44184
2022-12-02 16:50:18.885842, 1.43695
2022-12-02 16:50:18.898231, 1.43206
2022-12-02 16:50:18.905922, 1.42717
2022-12-02 16:50:18.914785, 1.42229
2022-12-02 16:50:18.922460, 1.41740
2022-12-02 16:50:18.935356, 1.41251
2022-12-02 16:50:18.943075, 1.40762
2022-12-02 16:50:18.951121, 1.44673
2022-12-02 16:50:18.963977, 1.40274
2022-12-02 16:50:18.971844, 1.40762
2022-12-02 16:50:18.980415, 1.42717
2022-12-02 16:50:18.987996, 1.42229
2022-12-02 16:50:19.000977, 1.43206
2022-12-02 16:50:19.008314, 1.45650
2022-12-02 16:50:19.016654, 1.47605
2022-12-02 16:50:19.028805, 1.49560
2022-12-02 16:50:19.037547, 1.52493
2022-12-02 16:50:19.045996, 1.58358
2022-12-02 16:50:19.053874, 1.57380
2022-12-02 16:50:19.065970, 1.60313
2022-12-02 16:50:19.073957, 1.64223
2022-12-02 16:50:19.082856, 1.64223
2022-12-02 16:50:19.095095, 1.65689
2022-12-02 16:50:19.102641, 1.67644
2022-12-02 16:50:19.111001, 1.68133
2022-12-02 16:50:19.119534, 1.69110
2022-12-02 16:50:19.131330, 1.70088
2022-12-02 16:50:19.139446, 1.70577
2022-12-02 16:50:19.147740, 1.74976
2022-12-02 16:50:19.160617, 1.71554
2022-12-02 16:50:19.168845, 1.72532
2022-12-02 16:50:19.176880, 1.75464
2022-12-02 16:50:19.184998, 1.74487
2022-12-02 16:50:19.197179, 1.74487
2022-12-02 16:50:19.204869, 1.76442
2022-12-02 16:50:19.213895, 1.75464
2022-12-02 16:50:19.226276, 1.75464
2022-12-02 16:50:19.233841, 1.75464
2022-12-02 16:50:19.242517, 1.74487
2022-12-02 16:50:19.250343, 1.74487
2022-12-02 16:50:19.262453, 1.73998
2022-12-02 16:50:19.271056, 1.73509
2022-12-02 16:50:19.279199, 1.73021
2022-12-02 16:50:19.290814, 1.73021
2022-12-02 16:50:19.298962, 1.73021
2022-12-02 16:50:19.308287, 1.72532
2022-12-02 16:50:19.316056, 1.73021
2022-12-02 16:50:19.328516, 1.73021
2022-12-02 16:50:19.335994, 1.73021
2022-12-02 16:50:19.344074, 1.73021
2022-12-02 16:50:19.357060, 1.74976
2022-12-02 16:50:19.365337, 1.73021
2022-12-02 16:50:19.373262, 1.73021
2022-12-02 16:50:19.381819, 1.74487
2022-12-02 16:50:19.393316, 1.72532
2022-12-02 16:50:19.402322, 1.72043
2022-12-02 16:50:19.410470, 1.72043
2022-12-02 16:50:19.422863, 1.71065
2022-12-02 16:50:19.430881, 1.71065
2022-12-02 16:50:19.439350, 1.70577
2022-12-02 16:50:19.447216, 1.70088
2022-12-02 16:50:19.459136, 1.70088
2022-12-02 16:50:19.467780, 1.69599
2022-12-02 16:50:19.475720, 1.70088
2022-12-02 16:50:19.488033, 1.68622
2022-12-02 16:50:19.496426, 1.67644
2022-12-02 16:50:19.504687, 1.66667
2022-12-02 16:50:19.512765, 1.66667
2022-12-02 16:50:19.524740, 1.68133
2022-12-02 16:50:19.533417, 1.65689
2022-12-02 16:50:19.541713, 1.65200
2022-12-02 16:50:19.553524, 1.65200
2022-12-02 16:50:19.561726, 1.67155
2022-12-02 16:50:19.569434, 1.64712
2022-12-02 16:50:19.578277, 1.64223
2022-12-02 16:50:19.590360, 1.65689
2022-12-02 16:50:19.598400, 1.64223
2022-12-02 16:50:19.606865, 1.63734
2022-12-02 16:50:19.614995, 1.63734
2022-12-02 16:50:19.626811, 1.66178
2022-12-02 16:50:19.635519, 1.62757
2022-12-02 16:50:19.643455, 1.62268
2022-12-02 16:50:19.655715, 1.63245
2022-12-02 16:50:19.664593, 1.62268
2022-12-02 16:50:19.672463, 1.62268
2022-12-02 16:50:19.680219, 1.62268
2022-12-02 16:50:19.693181, 1.65689
2022-12-02 16:50:19.701470, 1.62268
2022-12-02 16:50:19.709537, 1.62268
2022-12-02 16:50:19.721264, 1.62757
2022-12-02 16:50:19.729278, 1.62757
2022-12-02 16:50:19.738432, 1.63245
2022-12-02 16:50:19.745856, 1.64712
2022-12-02 16:50:19.757958, 1.66178
2022-12-02 16:50:19.766375, 1.68133
2022-12-02 16:50:19.774858, 1.70088
2022-12-02 16:50:19.786685, 1.72532
2022-12-02 16:50:19.795345, 1.73998
2022-12-02 16:50:19.803152, 1.75464
2022-12-02 16:50:19.812076, 1.77419
2022-12-02 16:50:19.823926, 1.79374
2022-12-02 16:50:19.832410, 1.79863
2022-12-02 16:50:19.840384, 1.80352
2022-12-02 16:50:19.852605, 1.81329
2022-12-02 16:50:19.860374, 1.81329
2022-12-02 16:50:19.869207, 1.81818
2022-12-02 16:50:19.877578, 1.81818
2022-12-02 16:50:19.889559, 1.81818
2022-12-02 16:50:19.898076, 1.82307
2022-12-02 16:50:19.906040, 1.82796
2022-12-02 16:50:19.917855, 1.84262
2022-12-02 16:50:19.925969, 1.82796
2022-12-02 16:50:19.934313, 1.83284
2022-12-02 16:50:19.942585, 1.86706
2022-12-02 16:50:19.954891, 1.83773
2022-12-02 16:50:19.963553, 1.83284
2022-12-02 16:50:19.971542, 1.84262
2022-12-02 16:50:19.983355, 1.82307
2022-12-02 16:50:19.992252, 1.82307
2022-12-02 16:50:19.999820, 1.82796
2022-12-02 16:50:20.008518, 1.82307
2022-12-02 16:50:20.020194, 1.82307
2022-12-02 16:50:20.028330, 1.82796
2022-12-02 16:50:20.036529, 1.83284
2022-12-02 16:50:20.048970, 1.83284
2022-12-02 16:50:20.057819, 1.84262
2022-12-02 16:50:20.065255, 1.83773
2022-12-02 16:50:20.073473, 1.84262
2022-12-02 16:50:20.086050, 1.84751
2022-12-02 16:50:20.094652, 1.84262
2022-12-02 16:50:20.102100, 1.84262
2022-12-02 16:50:20.115084, 1.83773
2022-12-02 16:50:20.122837, 1.87195
2022-12-02 16:50:20.131423, 1.83284
2022-12-02 16:50:20.139517, 1.82307
2022-12-02 16:50:20.151432, 1.84262
2022-12-02 16:50:20.159541, 1.81329
2022-12-02 16:50:20.167519, 1.80352
2022-12-02 16:50:20.180486, 1.79863
2022-12-02 16:50:20.188123, 1.79374
2022-12-02 16:50:20.196729, 1.78397
2022-12-02 16:50:20.204922, 1.77908
2022-12-02 16:50:20.217465, 1.80352
2022-12-02 16:50:20.225236, 1.76931
2022-12-02 16:50:20.233248, 1.75953
2022-12-02 16:50:20.245835, 1.75953
2022-12-02 16:50:20.254448, 1.76442
2022-12-02 16:50:20.262086, 1.73998
2022-12-02 16:50:20.270626, 1.73509
2022-12-02 16:50:20.283016, 1.73021
2022-12-02 16:50:20.290947, 1.72532
2022-12-02 16:50:20.298858, 1.71554
2022-12-02 16:50:20.311562, 1.71554
2022-12-02 16:50:20.319822, 1.71554
2022-12-02 16:50:20.328068, 1.70088
2022-12-02 16:50:20.335966, 1.69599
2022-12-02 16:50:20.348585, 1.69599
2022-12-02 16:50:20.356547, 1.68622
2022-12-02 16:50:20.365046, 1.67644
2022-12-02 16:50:20.377259, 1.67155
2022-12-02 16:50:20.385210, 1.66178
2022-12-02 16:50:20.393497, 1.65200
2022-12-02 16:50:20.401608, 1.64223
2022-12-02 16:50:20.414032, 1.66178
2022-12-02 16:50:20.422357, 1.63245
2022-12-02 16:50:20.430584, 1.63245
2022-12-02 16:50:20.442210, 1.66178
2022-12-02 16:50:20.450349, 1.62268
2022-12-02 16:50:20.459256, 1.61779
2022-12-02 16:50:20.467372, 1.62757
2022-12-02 16:50:20.479651, 1.62268
2022-12-02 16:50:20.487736, 1.63734
2022-12-02 16:50:20.495408, 1.65200
2022-12-02 16:50:20.504321, 1.66178
2022-12-02 16:50:20.516528, 1.67644
2022-12-02 16:50:20.524391, 1.69599
2022-12-02 16:50:20.532912, 1.70088
2022-12-02 16:50:20.545170, 1.71065
2022-12-02 16:50:20.552649, 1.72043
2022-12-02 16:50:20.561629, 1.73021
2022-12-02 16:50:20.569245, 1.72532
2022-12-02 16:50:20.581236, 1.72043
2022-12-02 16:50:20.590190, 1.74487
2022-12-02 16:50:20.597558, 1.71554
2022-12-02 16:50:20.609972, 1.71554
2022-12-02 16:50:20.618365, 1.71554
2022-12-02 16:50:20.626627, 1.73509
2022-12-02 16:50:20.635416, 1.71065
2022-12-02 16:50:20.646915, 1.71065
2022-12-02 16:50:20.655661, 1.71554
2022-12-02 16:50:20.663241, 1.71065
2022-12-02 16:50:20.675946, 1.71065
2022-12-02 16:50:20.684122, 1.70577
2022-12-02 16:50:20.692010, 1.70088
2022-12-02 16:50:20.700342, 1.72043
2022-12-02 16:50:20.712879, 1.68133
2022-12-02 16:50:20.720741, 1.67155
2022-12-02 16:50:20.728960, 1.67155
2022-12-02 16:50:20.741018, 1.69110
2022-12-02 16:50:20.749513, 1.65200
2022-12-02 16:50:20.758313, 1.64712
2022-12-02 16:50:20.765791, 1.64712
2022-12-02 16:50:20.778694, 1.64223
2022-12-02 16:50:20.786216, 1.63734
2022-12-02 16:50:20.794587, 1.63734
2022-12-02 16:50:20.806991, 1.67155
2022-12-02 16:50:20.815545, 1.63245
2022-12-02 16:50:20.823155, 1.62757
2022-12-02 16:50:20.831482, 1.63734
2022-12-02 16:50:20.844097, 1.62268
2022-12-02 16:50:20.852222, 1.61779
2022-12-02 16:50:20.859805, 1.61290
2022-12-02 16:50:20.872322, 1.59824
2022-12-02 16:50:20.880775, 1.58847
2022-12-02 16:50:20.888904, 1.58358
2022-12-02 16:50:20.897442, 1.56891
2022-12-02 16:50:20.909292, 1.56403
2022-12-02 16:50:20.917432, 1.55425
2022-12-02 16:50:20.925551, 1.54448
2022-12-02 16:50:20.937660, 1.53959
2022-12-02 16:50:20.946370, 1.53470
2022-12-02 16:50:20.954526, 1.53959
2022-12-02 16:50:20.962374, 1.51515
2022-12-02 16:50:20.974812, 1.50538
2022-12-02 16:50:20.983317, 1.52981
2022-12-02 16:50:20.991543, 1.48583
2022-12-02 16:50:21.003237, 1.48094
2022-12-02 16:50:21.012140, 1.47605
2022-12-02 16:50:21.020282, 1.46628
2022-12-02 16:50:21.028558, 1.46139
2022-12-02 16:50:21.040252, 1.46139
2022-12-02 16:50:21.048713, 1.45650
2022-12-02 16:50:21.056722, 1.45161
2022-12-02 16:50:21.069358, 1.44673
2022-12-02 16:50:21.077365, 1.47116
2022-12-02 16:50:21.085933, 1.43206
2022-12-02 16:50:21.093773, 1.42717
2022-12-02 16:50:21.106089, 1.42717
2022-12-02 16:50:21.114556, 1.41740
2022-12-02 16:50:21.122590, 1.40762
2022-12-02 16:50:21.134886, 1.40762
2022-12-02 16:50:21.143149, 1.40274
2022-12-02 16:50:21.151224, 1.39785
2022-12-02 16:50:21.159314, 1.39296
2022-12-02 16:50:21.171760, 1.39296
2022-12-02 16:50:21.179792, 1.38807
2022-12-02 16:50:21.188066, 1.38319
2022-12-02 16:50:21.200501, 1.40274
2022-12-02 16:50:21.208511, 1.38807
2022-12-02 16:50:21.216866, 1.39296
2022-12-02 16:50:21.224870, 1.43695
2022-12-02 16:50:21.237329, 1.41251
2022-12-02 16:50:21.245218, 1.42717
2022-12-02 16:50:21.253772, 1.45650
2022-12-02 16:50:21.265569, 1.45161
2022-12-02 16:50:21.273669, 1.46139
2022-12-02 16:50:21.282105, 1.48094
2022-12-02 16:50:21.290465, 1.48583
2022-12-02 16:50:21.302969, 1.49560
2022-12-02 16:50:21.311200, 1.49560
2022-12-02 16:50:21.319363, 1.53959
2022-12-02 16:50:21.327363, 1.50049
2022-12-02 16:50:21.339646, 1.50538
2022-12-02 16:50:21.347607, 1.51515
2022-12-02 16:50:21.356068, 1.51026
2022-12-02 16:50:21.368372, 1.51026
2022-12-02 16:50:21.376607, 1.52004
2022-12-02 16:50:21.384565, 1.52004
2022-12-02 16:50:21.393201, 1.52004
2022-12-02 16:50:21.405196, 1.52493
2022-12-02 16:50:21.413482, 1.55914
2022-12-02 16:50:21.421649, 1.52493
2022-12-02 16:50:21.433573, 1.52493
2022-12-02 16:50:21.441943, 1.52981
2022-12-02 16:50:21.450324, 1.51026
2022-12-02 16:50:21.458368, 1.50538
2022-12-02 16:50:21.470724, 1.51026
2022-12-02 16:50:21.478875, 1.49560
2022-12-02 16:50:21.487234, 1.49071
2022-12-02 16:50:21.499291, 1.49071
2022-12-02 16:50:21.507683, 1.48094
2022-12-02 16:50:21.515992, 1.48094
2022-12-02 16:50:21.523777, 1.48094
2022-12-02 16:50:21.536264, 1.47116
2022-12-02 16:50:21.544655, 1.47116
2022-12-02 16:50:21.552758, 1.46628
2022-12-02 16:50:21.564871, 1.47605
2022-12-02 16:50:21.573266, 1.46628
2022-12-02 16:50:21.581286, 1.46628
2022-12-02 16:50:21.589725, 1.46628
2022-12-02 16:50:21.601750, 1.45650
2022-12-02 16:50:21.610268, 1.45161
2022-12-02 16:50:21.618154, 1.44673
2022-12-02 16:50:21.630468, 1.44184
2022-12-02 16:50:21.638703, 1.43206
2022-12-02 16:50:21.646902, 1.42717
2022-12-02 16:50:21.655336, 1.44673
2022-12-02 16:50:21.667416, 1.41740
2022-12-02 16:50:21.675410, 1.41251
2022-12-02 16:50:21.683603, 1.41740
2022-12-02 16:50:21.696046, 1.40762
2022-12-02 16:50:21.704154, 1.40762
2022-12-02 16:50:21.712390, 1.39785
2022-12-02 16:50:21.720464, 1.42229
2022-12-02 16:50:21.732778, 1.38807
2022-12-02 16:50:21.741228, 1.37830
2022-12-02 16:50:21.749147, 1.37341
2022-12-02 16:50:21.761484, 1.36852
2022-12-02 16:50:21.769972, 1.36364
2022-12-02 16:50:21.777873, 1.36364
2022-12-02 16:50:21.786353, 1.36364
2022-12-02 16:50:21.798677, 1.35386
2022-12-02 16:50:21.806715, 1.35386
2022-12-02 16:50:21.814967, 1.34897
2022-12-02 16:50:21.827162, 1.37830
2022-12-02 16:50:21.835339, 1.33920
2022-12-02 16:50:21.843408, 1.33431
2022-12-02 16:50:21.851745, 1.34409
2022-12-02 16:50:21.863790, 1.33431
2022-12-02 16:50:21.872398, 1.32454
2022-12-02 16:50:21.880605, 1.32454
2022-12-02 16:50:21.892625, 1.33431
2022-12-02 16:50:21.900439, 1.32454
2022-12-02 16:50:21.909025, 1.31476
2022-12-02 16:50:21.917124, 1.31476
2022-12-02 16:50:21.929414, 1.30987
2022-12-02 16:50:21.937861, 1.31476
2022-12-02 16:50:21.945771, 1.30499
2022-12-02 16:50:21.957415, 1.30499
2022-12-02 16:50:21.965728, 1.31476
2022-12-02 16:50:21.974567, 1.31476
2022-12-02 16:50:21.983008, 1.32454
2022-12-02 16:50:21.995165, 1.33431
2022-12-02 16:50:22.003093, 1.35875
2022-12-02 16:50:22.011646, 1.36364
2022-12-02 16:50:22.023484, 1.38319
2022-12-02 16:50:22.031941, 1.39785
2022-12-02 16:50:22.040346, 1.45161
2022-12-02 16:50:22.048357, 1.43695
2022-12-02 16:50:22.060766, 1.44673
2022-12-02 16:50:22.068894, 1.46139
2022-12-02 16:50:22.077230, 1.50049
2022-12-02 16:50:22.089434, 1.48094
2022-12-02 16:50:22.097487, 1.48094
2022-12-02 16:50:22.105513, 1.48583
2022-12-02 16:50:22.114018, 1.49071
2022-12-02 16:50:22.125673, 1.49560
2022-12-02 16:50:22.133787, 1.50049
2022-12-02 16:50:22.142413, 1.51515
2022-12-02 16:50:22.154133, 1.53959
2022-12-02 16:50:22.163068, 1.52004
2022-12-02 16:50:22.171210, 1.52981
2022-12-02 16:50:22.179245, 1.53470
2022-12-02 16:50:22.191525, 1.55425
2022-12-02 16:50:22.199987, 1.53470
2022-12-02 16:50:22.208044, 1.53470
2022-12-02 16:50:22.215887, 1.53470
2022-12-02 16:50:22.228039, 1.53959
2022-12-02 16:50:22.236906, 1.52493
2022-12-02 16:50:22.245145, 1.52004
2022-12-02 16:50:22.256898, 1.52493
2022-12-02 16:50:22.265255, 1.52004
2022-12-02 16:50:22.273926, 1.51515
2022-12-02 16:50:22.281704, 1.51515
2022-12-02 16:50:22.293811, 1.54448
2022-12-02 16:50:22.301900, 1.51026
2022-12-02 16:50:22.309709, 1.51026
2022-12-02 16:50:22.322606, 1.51026
2022-12-02 16:50:22.330706, 1.51026
2022-12-02 16:50:22.338895, 1.50538
2022-12-02 16:50:22.347177, 1.50538
2022-12-02 16:50:22.359752, 1.50538
2022-12-02 16:50:22.367643, 1.50049
2022-12-02 16:50:22.375923, 1.50049
2022-12-02 16:50:22.388090, 1.50049
2022-12-02 16:50:22.396572, 1.49560
2022-12-02 16:50:22.404852, 1.49071
2022-12-02 16:50:22.412704, 1.48583
2022-12-02 16:50:22.425023, 1.48094
2022-12-02 16:50:22.433395, 1.47605
2022-12-02 16:50:22.441781, 1.46628
2022-12-02 16:50:22.453973, 1.46628
2022-12-02 16:50:22.461881, 1.47605
2022-12-02 16:50:22.470242, 1.45650
2022-12-02 16:50:22.478180, 1.45161
2022-12-02 16:50:22.490771, 1.44673
2022-12-02 16:50:22.498868, 1.45161
2022-12-02 16:50:22.506747, 1.44184
2022-12-02 16:50:22.519144, 1.43695
2022-12-02 16:50:22.527689, 1.43206
2022-12-02 16:50:22.535816, 1.43206
2022-12-02 16:50:22.544087, 1.42229
2022-12-02 16:50:22.556371, 1.41740
2022-12-02 16:50:22.564347, 1.41251
2022-12-02 16:50:22.572495, 1.43695
2022-12-02 16:50:22.584991, 1.41251
2022-12-02 16:50:22.593014, 1.40762
2022-12-02 16:50:22.601487, 1.40274
2022-12-02 16:50:22.609294, 1.40762
2022-12-02 16:50:22.621798, 1.38807
2022-12-02 16:50:22.630011, 1.38319
2022-12-02 16:50:22.638345, 1.37830
2022-12-02 16:50:22.650544, 1.37830
2022-12-02 16:50:22.658567, 1.37341
2022-12-02 16:50:22.666846, 1.37341
2022-12-02 16:50:22.675233, 1.37341
2022-12-02 16:50:22.687258, 1.37830
2022-12-02 16:50:22.695616, 1.37341
2022-12-02 16:50:22.703431, 1.36852
2022-12-02 16:50:22.715681, 1.36852
2022-12-02 16:50:22.724215, 1.36364
2022-12-02 16:50:22.732479, 1.36364
2022-12-02 16:50:22.740778, 1.36364
2022-12-02 16:50:22.752233, 1.36852
2022-12-02 16:50:22.761260, 1.36852
2022-12-02 16:50:22.769214, 1.37341
2022-12-02 16:50:22.781561, 1.38319
2022-12-02 16:50:22.789397, 1.40762
2022-12-02 16:50:22.797840, 1.41740
2022-12-02 16:50:22.806255, 1.43695
2022-12-02 16:50:22.817560, 1.45650
2022-12-02 16:50:22.826538, 1.48094
2022-12-02 16:50:22.834793, 1.49560
2022-12-02 16:50:22.847124, 1.51515
2022-12-02 16:50:22.855332, 1.54936
2022-12-02 16:50:22.863361, 1.54448
2022-12-02 16:50:22.871867, 1.55914
2022-12-02 16:50:22.883635, 1.56891
2022-12-02 16:50:22.892212, 1.59824
2022-12-02 16:50:22.900000, 1.58847
2022-12-02 16:50:22.912456, 1.59335
2022-12-02 16:50:22.920906, 1.60313
2022-12-02 16:50:22.929116, 1.61290
2022-12-02 16:50:22.937368, 1.61779
2022-12-02 16:50:22.949235, 1.62757
2022-12-02 16:50:22.957463, 1.63734
2022-12-02 16:50:22.965340, 1.64712
2022-12-02 16:50:22.977922, 1.66178
2022-12-02 16:50:22.986199, 1.66178
2022-12-02 16:50:22.993881, 1.66667
2022-12-02 16:50:23.002490, 1.67644
2022-12-02 16:50:23.014973, 1.67155
2022-12-02 16:50:23.022876, 1.67155
2022-12-02 16:50:23.031337, 1.67644
2022-12-02 16:50:23.039062, 1.67644
2022-12-02 16:50:23.052013, 1.67644
2022-12-02 16:50:23.060166, 1.68133
2022-12-02 16:50:23.068347, 1.68622
2022-12-02 16:50:23.080463, 1.69110
2022-12-02 16:50:23.088577, 1.69110
2022-12-02 16:50:23.096918, 1.73021
2022-12-02 16:50:23.105350, 1.70088
2022-12-02 16:50:23.117180, 1.70577
2022-12-02 16:50:23.125417, 1.73509
2022-12-02 16:50:23.133976, 1.71554
2022-12-02 16:50:23.145848, 1.72043
2022-12-02 16:50:23.153906, 1.73021
2022-12-02 16:50:23.162365, 1.72043
2022-12-02 16:50:23.170466, 1.72532
2022-12-02 16:50:23.182676, 1.73021
2022-12-02 16:50:23.191135, 1.72532
2022-12-02 16:50:23.199290, 1.72532
2022-12-02 16:50:23.211665, 1.72043
2022-12-02 16:50:23.219803, 1.71554
2022-12-02 16:50:23.228067, 1.71554
2022-12-02 16:50:23.236279, 1.71554
2022-12-02 16:50:23.248380, 1.71554
2022-12-02 16:50:23.256834, 1.71554
2022-12-02 16:50:23.264630, 1.71065
2022-12-02 16:50:23.277209, 1.71554
2022-12-02 16:50:23.285372, 1.70577
2022-12-02 16:50:23.293728, 1.70088
2022-12-02 16:50:23.301098, 1.73509
2022-12-02 16:50:23.313936, 1.69599
2022-12-02 16:50:23.321823, 1.70088
2022-12-02 16:50:23.330606, 1.71554
2022-12-02 16:50:23.342704, 1.69599
2022-12-02 16:50:23.350417, 1.69599
2022-12-02 16:50:23.359106, 1.70088
2022-12-02 16:50:23.367116, 1.70088
2022-12-02 16:50:23.379500, 1.69110
2022-12-02 16:50:23.387714, 1.69110
2022-12-02 16:50:23.395970, 1.68622
2022-12-02 16:50:23.408022, 1.69599
2022-12-02 16:50:23.416394, 1.67644
2022-12-02 16:50:23.424735, 1.67155
2022-12-02 16:50:23.432977, 1.67155
2022-12-02 16:50:23.444837, 1.70577
2022-12-02 16:50:23.453261, 1.66667
2022-12-02 16:50:23.461569, 1.66667
2022-12-02 16:50:23.473055, 1.68622
2022-12-02 16:50:23.482019, 1.66667
2022-12-02 16:50:23.489761, 1.67155
2022-12-02 16:50:23.497648, 1.67155
2022-12-02 16:50:23.510216, 1.67644
2022-12-02 16:50:23.518230, 1.70577
2022-12-02 16:50:23.527191, 1.68133
2022-12-02 16:50:23.539456, 1.68622
2022-12-02 16:50:23.547479, 1.69599
2022-12-02 16:50:23.555738, 1.70088
2022-12-02 16:50:23.563850, 1.71554
2022-12-02 16:50:23.575293, 1.73998
2022-12-02 16:50:23.584073, 1.78397
2022-12-02 16:50:23.592165, 1.78397
2022-12-02 16:50:23.604510, 1.80352
2022-12-02 16:50:23.612871, 1.83284
2022-12-02 16:50:23.620753, 1.84262
2022-12-02 16:50:23.629198, 1.86217
2022-12-02 16:50:23.641180, 1.87683
2022-12-02 16:50:23.649643, 1.88661
2022-12-02 16:50:23.658150, 1.89638
2022-12-02 16:50:23.670392, 1.90616
2022-12-02 16:50:23.678502, 1.90616
2022-12-02 16:50:23.686929, 1.91105
2022-12-02 16:50:23.695063, 1.91593
2022-12-02 16:50:23.706975, 1.91593
2022-12-02 16:50:23.715085, 1.91593
2022-12-02 16:50:23.723395, 1.92571
2022-12-02 16:50:23.735990, 1.94037
2022-12-02 16:50:23.744019, 1.93060
2022-12-02 16:50:23.752411, 1.93548
2022-12-02 16:50:23.760542, 1.96481
2022-12-02 16:50:23.772812, 1.93548
2022-12-02 16:50:23.781065, 1.93548
2022-12-02 16:50:23.789070, 1.94526
2022-12-02 16:50:23.800746, 1.92571
2022-12-02 16:50:23.809373, 1.92571
2022-12-02 16:50:23.817922, 1.93060
2022-12-02 16:50:23.825286, 1.92571
2022-12-02 16:50:23.838254, 1.93060
2022-12-02 16:50:23.846116, 1.93548
2022-12-02 16:50:23.854724, 1.93548
2022-12-02 16:50:23.866907, 1.94037
2022-12-02 16:50:23.874509, 1.95015
2022-12-02 16:50:23.883153, 1.95015
2022-12-02 16:50:23.891777, 1.95503
2022-12-02 16:50:23.903901, 1.95992
2022-12-02 16:50:23.911640, 1.99902
2022-12-02 16:50:23.920457, 1.96481
2022-12-02 16:50:23.928513, 1.96970
2022-12-02 16:50:23.940386, 1.98925
2022-12-02 16:50:23.948290, 1.96970
2022-12-02 16:50:23.957032, 1.96970
2022-12-02 16:50:23.969470, 1.97458
2022-12-02 16:50:23.977183, 1.95992
2022-12-02 16:50:23.985932, 1.95503
2022-12-02 16:50:23.993763, 1.95503
2022-12-02 16:50:24.006233, 1.95015
2022-12-02 16:50:24.014377, 1.94037
2022-12-02 16:50:24.022701, 1.94037
2022-12-02 16:50:24.034900, 1.93060
2022-12-02 16:50:24.043240, 1.92571
2022-12-02 16:50:24.051043, 1.91593
2022-12-02 16:50:24.059309, 1.93060
2022-12-02 16:50:24.071987, 1.89638
2022-12-02 16:50:24.079985, 1.88661
2022-12-02 16:50:24.088299, 1.88661
2022-12-02 16:50:24.100234, 1.86706
2022-12-02 16:50:24.108623, 1.86217
2022-12-02 16:50:24.116630, 1.86217
2022-12-02 16:50:24.124879, 1.84751
2022-12-02 16:50:24.137339, 1.83773
2022-12-02 16:50:24.145714, 1.83284
2022-12-02 16:50:24.153925, 1.81818
2022-12-02 16:50:24.165857, 1.81329
2022-12-02 16:50:24.173981, 1.80352
2022-12-02 16:50:24.182018, 1.79374
2022-12-02 16:50:24.190832, 1.78397
2022-12-02 16:50:24.202772, 1.77908
2022-12-02 16:50:24.210535, 1.77908
2022-12-02 16:50:24.218880, 1.76442
2022-12-02 16:50:24.230832, 1.75464
2022-12-02 16:50:24.239637, 1.78397
2022-12-02 16:50:24.247646, 1.73998
2022-12-02 16:50:24.255924, 1.72532
2022-12-02 16:50:24.268024, 1.73998
2022-12-02 16:50:24.275889, 1.71065
2022-12-02 16:50:24.284599, 1.71065
2022-12-02 16:50:24.296739, 1.71554
2022-12-02 16:50:24.305184, 1.71554
2022-12-02 16:50:24.313475, 1.72043
2022-12-02 16:50:24.321786, 1.73509
2022-12-02 16:50:24.333632, 1.78397
2022-12-02 16:50:24.341893, 1.76442
2022-12-02 16:50:24.350204, 1.77419
2022-12-02 16:50:24.362361, 1.78397
2022-12-02 16:50:24.370935, 1.78397
2022-12-02 16:50:24.378377, 1.78397
2022-12-02 16:50:24.386535, 1.78886
2022-12-02 16:50:24.399436, 1.77908
2022-12-02 16:50:24.407061, 1.77419
2022-12-02 16:50:24.415585, 1.77419
2022-12-02 16:50:24.427840, 1.76931
2022-12-02 16:50:24.436553, 1.76442
2022-12-02 16:50:24.444158, 1.75953
2022-12-02 16:50:24.452706, 1.75953
2022-12-02 16:50:24.464869, 1.74976
2022-12-02 16:50:24.472856, 1.74976
2022-12-02 16:50:24.481591, 1.77908
2022-12-02 16:50:24.493324, 1.73998
2022-12-02 16:50:24.501767, 1.73998
2022-12-02 16:50:24.510214, 1.75953
2022-12-02 16:50:24.518112, 1.73021
2022-12-02 16:50:24.530171, 1.72532
2022-12-02 16:50:24.538850, 1.72532
2022-12-02 16:50:24.546509, 1.71065
2022-12-02 16:50:24.559042, 1.70088
2022-12-02 16:50:24.567234, 1.69599
2022-12-02 16:50:24.575597, 1.68622
2022-12-02 16:50:24.583858, 1.67644
2022-12-02 16:50:24.595742, 1.67155
2022-12-02 16:50:24.604047, 1.70088
2022-12-02 16:50:24.612518, 1.66178
2022-12-02 16:50:24.624779, 1.65689
2022-12-02 16:50:24.633110, 1.67155
2022-12-02 16:50:24.640847, 1.64712
2022-12-02 16:50:24.649472, 1.64712
2022-12-02 16:50:24.661341, 1.64712
2022-12-02 16:50:24.669699, 1.63734
2022-12-02 16:50:24.677812, 1.63734
2022-12-02 16:50:24.690328, 1.63245
2022-12-02 16:50:24.698354, 1.62268
2022-12-02 16:50:24.706144, 1.60802
2022-12-02 16:50:24.714535, 1.60313
2022-12-02 16:50:24.726274, 1.58847
2022-12-02 16:50:24.735454, 1.58358
2022-12-02 16:50:24.742631, 1.57380
2022-12-02 16:50:24.755302, 1.57869
2022-12-02 16:50:24.764173, 1.56403
2022-12-02 16:50:24.772372, 1.55425
2022-12-02 16:50:24.779995, 1.58358
2022-12-02 16:50:24.792627, 1.54448
2022-12-02 16:50:24.800564, 1.53959
2022-12-02 16:50:24.809105, 1.53959
2022-12-02 16:50:24.817440, 1.52493
2022-12-02 16:50:24.828952, 1.51515
2022-12-02 16:50:24.837390, 1.51515
2022-12-02 16:50:24.845763, 1.50538
2022-12-02 16:50:24.858213, 1.49560
2022-12-02 16:50:24.865784, 1.49560
2022-12-02 16:50:24.874355, 1.48583
2022-12-02 16:50:24.882332, 1.48094
2022-12-02 16:50:24.895137, 1.47605
2022-12-02 16:50:24.903069, 1.50049
2022-12-02 16:50:24.911664, 1.46139
2022-12-02 16:50:24.923722, 1.45161
2022-12-02 16:50:24.931593, 1.46139
2022-12-02 16:50:24.940119, 1.44184
2022-12-02 16:50:24.948237, 1.43695
2022-12-02 16:50:24.960431, 1.43206
2022-12-02 16:50:24.968657, 1.42717
2022-12-02 16:50:24.977099, 1.42229
2022-12-02 16:50:24.989307, 1.41740
2022-12-02 16:50:24.997270, 1.44673
2022-12-02 16:50:25.005070, 1.40274
2022-12-02 16:50:25.013486, 1.40274
2022-12-02 16:50:25.025916, 1.42229
2022-12-02 16:50:25.034334, 1.39296
2022-12-02 16:50:25.042559, 1.39296
2022-12-02 16:50:25.054353, 1.40762
2022-12-02 16:50:25.062417, 1.40274
2022-12-02 16:50:25.070518, 1.41251
2022-12-02 16:50:25.079310, 1.43695
2022-12-02 16:50:25.091555, 1.45161
2022-12-02 16:50:25.099251, 1.47116
2022-12-02 16:50:25.108028, 1.49071
2022-12-02 16:50:25.119878, 1.50538
2022-12-02 16:50:25.128615, 1.52493
2022-12-02 16:50:25.136252, 1.53959
2022-12-02 16:50:25.144277, 1.57380
2022-12-02 16:50:25.156897, 1.55914
2022-12-02 16:50:25.164874, 1.56403
2022-12-02 16:50:25.173221, 1.58847
2022-12-02 16:50:25.185435, 1.57380
2022-12-02 16:50:25.193724, 1.57869
2022-12-02 16:50:25.202029, 1.59335
2022-12-02 16:50:25.210476, 1.58847
2022-12-02 16:50:25.222473, 1.59335
2022-12-02 16:50:25.230763, 1.59824
2022-12-02 16:50:25.239149, 1.59824
2022-12-02 16:50:25.251217, 1.59824
2022-12-02 16:50:25.259506, 1.60802
2022-12-02 16:50:25.267311, 1.60802
2022-12-02 16:50:25.275334, 1.60802
2022-12-02 16:50:25.287487, 1.60802
2022-12-02 16:50:25.295948, 1.59824
2022-12-02 16:50:25.304839, 1.59824
2022-12-02 16:50:25.317054, 1.59335
2022-12-02 16:50:25.324951, 1.62757
2022-12-02 16:50:25.333083, 1.58847
2022-12-02 16:50:25.341740, 1.58358
2022-12-02 16:50:25.353677, 1.60802
2022-12-02 16:50:25.361668, 1.57869
2022-12-02 16:50:25.370220, 1.57869
2022-12-02 16:50:25.382117, 1.58847
2022-12-02 16:50:25.390256, 1.57380
2022-12-02 16:50:25.398888, 1.56891
2022-12-02 16:50:25.406963, 1.57380
2022-12-02 16:50:25.419122, 1.56891
2022-12-02 16:50:25.426920, 1.56403
2022-12-02 16:50:25.435637, 1.56891
2022-12-02 16:50:25.447993, 1.56403
2022-12-02 16:50:25.456375, 1.56403
2022-12-02 16:50:25.464330, 1.55914
2022-12-02 16:50:25.472283, 1.55914
2022-12-02 16:50:25.484517, 1.54936
2022-12-02 16:50:25.492319, 1.54448
2022-12-02 16:50:25.501632, 1.56891
2022-12-02 16:50:25.512805, 1.52981
2022-12-02 16:50:25.521392, 1.52493
2022-12-02 16:50:25.529477, 1.53959
2022-12-02 16:50:25.538129, 1.51026
2022-12-02 16:50:25.550353, 1.50538
2022-12-02 16:50:25.558011, 1.51026
2022-12-02 16:50:25.566778, 1.49071
2022-12-02 16:50:25.579039, 1.48583
2022-12-02 16:50:25.587187, 1.48094
2022-12-02 16:50:25.595326, 1.47116
2022-12-02 16:50:25.603343, 1.46139
2022-12-02 16:50:25.615778, 1.45650
2022-12-02 16:50:25.624040, 1.48583
2022-12-02 16:50:25.632289, 1.44673
2022-12-02 16:50:25.640390, 1.44184
2022-12-02 16:50:25.652700, 1.46139
2022-12-02 16:50:25.660959, 1.42717
2022-12-02 16:50:25.669342, 1.42717
2022-12-02 16:50:25.681089, 1.43206
2022-12-02 16:50:25.689172, 1.41740
2022-12-02 16:50:25.697485, 1.41251
2022-12-02 16:50:25.705890, 1.41251
2022-12-02 16:50:25.717898, 1.40762
2022-12-02 16:50:25.726606, 1.40762
2022-12-02 16:50:25.734447, 1.40762
2022-12-02 16:50:25.746792, 1.40274
2022-12-02 16:50:25.754688, 1.39785
2022-12-02 16:50:25.763223, 1.39785
2022-12-02 16:50:25.771402, 1.39296
2022-12-02 16:50:25.783689, 1.39296
2022-12-02 16:50:25.792272, 1.39296
2022-12-02 16:50:25.800288, 1.41740
2022-12-02 16:50:25.812222, 1.38807
2022-12-02 16:50:25.820527, 1.39296
2022-12-02 16:50:25.828998, 1.39785
2022-12-02 16:50:25.837194, 1.40274
2022-12-02 16:50:25.849519, 1.41740
2022-12-02 16:50:25.856848, 1.43695
2022-12-02 16:50:25.866022, 1.46139
2022-12-02 16:50:25.878104, 1.48094
2022-12-02 16:50:25.886217, 1.50538
2022-12-02 16:50:25.894388, 1.56403
2022-12-02 16:50:25.902376, 1.55425
2022-12-02 16:50:25.915029, 1.57380
2022-12-02 16:50:25.923047, 1.60313
2022-12-02 16:50:25.931097, 1.61290
2022-12-02 16:50:25.943708, 1.62757
2022-12-02 16:50:25.951811, 1.64223
2022-12-02 16:50:25.959850, 1.68622
2022-12-02 16:50:25.967971, 1.66178
2022-12-02 16:50:25.980152, 1.66667
2022-12-02 16:50:25.988954, 1.67644
2022-12-02 16:50:25.996916, 1.67644
2022-12-02 16:50:26.009173, 1.68622
2022-12-02 16:50:26.017453, 1.69110
2022-12-02 16:50:26.025017, 1.73021
2022-12-02 16:50:26.033851, 1.70088
2022-12-02 16:50:26.046059, 1.70577
2022-12-02 16:50:26.053928, 1.72532
2022-12-02 16:50:26.061777, 1.70577
2022-12-02 16:50:26.074821, 1.70577
2022-12-02 16:50:26.082754, 1.71065
2022-12-02 16:50:26.091312, 1.70088
2022-12-02 16:50:26.099414, 1.69599
2022-12-02 16:50:26.111260, 1.69599
2022-12-02 16:50:26.119834, 1.69110
2022-12-02 16:50:26.127854, 1.68133
2022-12-02 16:50:26.139952, 1.68622
2022-12-02 16:50:26.148355, 1.68133
2022-12-02 16:50:26.156824, 1.67644
2022-12-02 16:50:26.164932, 1.68133
2022-12-02 16:50:26.176852, 1.68133
2022-12-02 16:50:26.185330, 1.68133
2022-12-02 16:50:26.192981, 1.68133
2022-12-02 16:50:26.205888, 1.71554
2022-12-02 16:50:26.213750, 1.68133
2022-12-02 16:50:26.222371, 1.68133
2022-12-02 16:50:26.230076, 1.71065
2022-12-02 16:50:26.242556, 1.68133
2022-12-02 16:50:26.250753, 1.68133
2022-12-02 16:50:26.258950, 1.69110
2022-12-02 16:50:26.271390, 1.67155
2022-12-02 16:50:26.279218, 1.66667
2022-12-02 16:50:26.287449, 1.66667
2022-12-02 16:50:26.295503, 1.65689
2022-12-02 16:50:26.308143, 1.65689
2022-12-02 16:50:26.316073, 1.65200
2022-12-02 16:50:26.324548, 1.66178
2022-12-02 16:50:26.336435, 1.64712
2022-12-02 16:50:26.345170, 1.64223
2022-12-02 16:50:26.353443, 1.64223
2022-12-02 16:50:26.361414, 1.64223
2022-12-02 16:50:26.373387, 1.64712
2022-12-02 16:50:26.382078, 1.62757
2022-12-02 16:50:26.389761, 1.62757
2022-12-02 16:50:26.402517, 1.62757
2022-12-02 16:50:26.410530, 1.62268
2022-12-02 16:50:26.419047, 1.61779
2022-12-02 16:50:26.426934, 1.62268
2022-12-02 16:50:26.438686, 1.64223
2022-12-02 16:50:26.447283, 1.61779
2022-12-02 16:50:26.455425, 1.61779
2022-12-02 16:50:26.467799, 1.61290
2022-12-02 16:50:26.476307, 1.61290
2022-12-02 16:50:26.484118, 1.60802
2022-12-02 16:50:26.492641, 1.60313
2022-12-02 16:50:26.504756, 1.61290
2022-12-02 16:50:26.512564, 1.59824
2022-12-02 16:50:26.520479, 1.59824
2022-12-02 16:50:26.529065, 1.60313
2022-12-02 16:50:26.541523, 1.59824
2022-12-02 16:50:26.549512, 1.59824
2022-12-02 16:50:26.557869, 1.59335
2022-12-02 16:50:26.570160, 1.63734
2022-12-02 16:50:26.577858, 1.60313
2022-12-02 16:50:26.586728, 1.60802
2022-12-02 16:50:26.594382, 1.61779
2022-12-02 16:50:26.606835, 1.62268
2022-12-02 16:50:26.614932, 1.63734
2022-12-02 16:50:26.623248, 1.65200
2022-12-02 16:50:26.635652, 1.71065
2022-12-02 16:50:26.643743, 1.70088
2022-12-02 16:50:26.652289, 1.73021
2022-12-02 16:50:26.660283, 1.75953
2022-12-02 16:50:26.672199, 1.78397
2022-12-02 16:50:26.680975, 1.80841
2022-12-02 16:50:26.689186, 1.83773
2022-12-02 16:50:26.701236, 1.85728
2022-12-02 16:50:26.709363, 1.87195
2022-12-02 16:50:26.717674, 1.88661
2022-12-02 16:50:26.725697, 1.92082
2022-12-02 16:50:26.737948, 1.90616
2022-12-02 16:50:26.746637, 1.91593
2022-12-02 16:50:26.754752, 1.95015
2022-12-02 16:50:26.766600, 1.92571
2022-12-02 16:50:26.774400, 1.93548
2022-12-02 16:50:26.783464, 1.95992
2022-12-02 16:50:26.791405, 1.95503
2022-12-02 16:50:26.803354, 1.95992
2022-12-02 16:50:26.811678, 1.97458
2022-12-02 16:50:26.820175, 1.97458
2022-12-02 16:50:26.832157, 1.97458
2022-12-02 16:50:26.840876, 1.98436
2022-12-02 16:50:26.848301, 1.98436
2022-12-02 16:50:26.856911, 1.98925
2022-12-02 16:50:26.869213, 1.98925
2022-12-02 16:50:26.877079, 1.98436
2022-12-02 16:50:26.885679, 1.97947
2022-12-02 16:50:26.897854, 1.97947
2022-12-02 16:50:26.906422, 2.00880
2022-12-02 16:50:26.913960, 1.97947
2022-12-02 16:50:26.922111, 1.97947
2022-12-02 16:50:26.934605, 2.01369
2022-12-02 16:50:26.942404, 1.97458
2022-12-02 16:50:26.951347, 1.97947
2022-12-02 16:50:26.963337, 1.98925
2022-12-02 16:50:26.971720, 1.97947
2022-12-02 16:50:26.979955, 1.97947
2022-12-02 16:50:26.987920, 1.98436
2022-12-02 16:50:27.000312, 1.97458
2022-12-02 16:50:27.008592, 1.96970
2022-12-02 16:50:27.016591, 1.96481
2022-12-02 16:50:27.029089, 1.95503
2022-12-02 16:50:27.037062, 1.95015
2022-12-02 16:50:27.045396, 1.94037
2022-12-02 16:50:27.053398, 1.94037
2022-12-02 16:50:27.066022, 1.93060
2022-12-02 16:50:27.074345, 1.92571
2022-12-02 16:50:27.081977, 1.92082
2022-12-02 16:50:27.094427, 1.92082
2022-12-02 16:50:27.102392, 1.92571
2022-12-02 16:50:27.111105, 1.90616
2022-12-02 16:50:27.119353, 1.89638
2022-12-02 16:50:27.131560, 1.88661
2022-12-02 16:50:27.139383, 1.90127
2022-12-02 16:50:27.147511, 1.86706
2022-12-02 16:50:27.159887, 1.86217
2022-12-02 16:50:27.168312, 1.86217
2022-12-02 16:50:27.176239, 1.85239
2022-12-02 16:50:27.184916, 1.84751
2022-12-02 16:50:27.196698, 1.84262
2022-12-02 16:50:27.205236, 1.87195
2022-12-02 16:50:27.213311, 1.82796
2022-12-02 16:50:27.225760, 1.82307
2022-12-02 16:50:27.233535, 1.82307
2022-12-02 16:50:27.241900, 1.80841
2022-12-02 16:50:27.249895, 1.80352
2022-12-02 16:50:27.261818, 1.79863
2022-12-02 16:50:27.270843, 1.78886
2022-12-02 16:50:27.278391, 1.78397
2022-12-02 16:50:27.291107, 1.77908
2022-12-02 16:50:27.299392, 1.77419
2022-12-02 16:50:27.307324, 1.76931
2022-12-02 16:50:27.315616, 1.76442
2022-12-02 16:50:27.327422, 1.79863
2022-12-02 16:50:27.336377, 1.76442
2022-12-02 16:50:27.343818, 1.76931
2022-12-02 16:50:27.356405, 1.79863
2022-12-02 16:50:27.364259, 1.79863
2022-12-02 16:50:27.373054, 1.81818
2022-12-02 16:50:27.381504, 1.84262
2022-12-02 16:50:27.392984, 1.86217
2022-12-02 16:50:27.401281, 1.88172
2022-12-02 16:50:27.410206, 1.90127
2022-12-02 16:50:27.418069, 1.95015
2022-12-02 16:50:27.429774, 1.93060
2022-12-02 16:50:27.438457, 1.94526
2022-12-02 16:50:27.446357, 1.95503
2022-12-02 16:50:27.459005, 1.99413
2022-12-02 16:50:27.467353, 1.96481
2022-12-02 16:50:27.475805, 1.96481
2022-12-02 16:50:27.483529, 1.97947
2022-12-02 16:50:27.496420, 1.97458
2022-12-02 16:50:27.504233, 1.96970
2022-12-02 16:50:27.512065, 1.97947
2022-12-02 16:50:27.524521, 1.97458
2022-12-02 16:50:27.533008, 1.97458
2022-12-02 16:50:27.541006, 1.97947
2022-12-02 16:50:27.548670, 1.97458
2022-12-02 16:50:27.560806, 1.96970
2022-12-02 16:50:27.569616, 1.96481
2022-12-02 16:50:27.578015, 1.95503
2022-12-02 16:50:27.590075, 1.94037
2022-12-02 16:50:27.598478, 1.93060
2022-12-02 16:50:27.606449, 1.95015
2022-12-02 16:50:27.614713, 1.91105
2022-12-02 16:50:27.627197, 1.90616
2022-12-02 16:50:27.635151, 1.90616
2022-12-02 16:50:27.643726, 1.89638
2022-12-02 16:50:27.655564, 1.89150
2022-12-02 16:50:27.663668, 1.88661
2022-12-02 16:50:27.671903, 1.91593
2022-12-02 16:50:27.680542, 1.88172
2022-12-02 16:50:27.692282, 1.87683
2022-12-02 16:50:27.700636, 1.87683
2022-12-02 16:50:27.708909, 1.86706
2022-12-02 16:50:27.721193, 1.86217
2022-12-02 16:50:27.729310, 1.85728
2022-12-02 16:50:27.737554, 1.88661
2022-12-02 16:50:27.746038, 1.84262
2022-12-02 16:50:27.758055, 1.83773
2022-12-02 16:50:27.766198, 1.84262
2022-12-02 16:50:27.774673, 1.81329
2022-12-02 16:50:27.786603, 1.79863
2022-12-02 16:50:27.795161, 1.79863
2022-12-02 16:50:27.803350, 1.77908
2022-12-02 16:50:27.811280, 1.76931
2022-12-02 16:50:27.823607, 1.76442
2022-12-02 16:50:27.831624, 1.74487
2022-12-02 16:50:27.840090, 1.73021
2022-12-02 16:50:27.852383, 1.72532
2022-12-02 16:50:27.860684, 1.70577
2022-12-02 16:50:27.868723, 1.69110
2022-12-02 16:50:27.876623, 1.67644
2022-12-02 16:50:27.889142, 1.66667
2022-12-02 16:50:27.897499, 1.65200
2022-12-02 16:50:27.905802, 1.64223
2022-12-02 16:50:27.917971, 1.63245
2022-12-02 16:50:27.926102, 1.62268
2022-12-02 16:50:27.933773, 1.61290
2022-12-02 16:50:27.941943, 1.63245
2022-12-02 16:50:27.954483, 1.58358
2022-12-02 16:50:27.962807, 1.56891
2022-12-02 16:50:27.970542, 1.56891
2022-12-02 16:50:27.982613, 1.54936
2022-12-02 16:50:27.991619, 1.53959
2022-12-02 16:50:28.000027, 1.52981
2022-12-02 16:50:28.008253, 1.52004
2022-12-02 16:50:28.020442, 1.51026
2022-12-02 16:50:28.028616, 1.50538
2022-12-02 16:50:28.036800, 1.49560
2022-12-02 16:50:28.048863, 1.49560
2022-12-02 16:50:28.056919, 1.49560
2022-12-02 16:50:28.064635, 1.49071
2022-12-02 16:50:28.073571, 1.50049
2022-12-02 16:50:28.085114, 1.51026
2022-12-02 16:50:28.094109, 1.55425
2022-12-02 16:50:28.102025, 1.54936
2022-12-02 16:50:28.114015, 1.56403
2022-12-02 16:50:28.122817, 1.59824
2022-12-02 16:50:28.130939, 1.60802
2022-12-02 16:50:28.138532, 1.62757
2022-12-02 16:50:28.151268, 1.64712
2022-12-02 16:50:28.158970, 1.65689
2022-12-02 16:50:28.167778, 1.66667
2022-12-02 16:50:28.179908, 1.67155
2022-12-02 16:50:28.187878, 1.67644
2022-12-02 16:50:28.196088, 1.67644
2022-12-02 16:50:28.204080, 1.68133
2022-12-02 16:50:28.216428, 1.71065
2022-12-02 16:50:28.225274, 1.68622
2022-12-02 16:50:28.233540, 1.68622
2022-12-02 16:50:28.241631, 1.70577
2022-12-02 16:50:28.253978, 1.69110
2022-12-02 16:50:28.261770, 1.69110
2022-12-02 16:50:28.270381, 1.69110
2022-12-02 16:50:28.282606, 1.68622
2022-12-02 16:50:28.290643, 1.67644
2022-12-02 16:50:28.298526, 1.67155
2022-12-02 16:50:28.306728, 1.65689
2022-12-02 16:50:28.319549, 1.64712
2022-12-02 16:50:28.327467, 1.63734
2022-12-02 16:50:28.335918, 1.66667
2022-12-02 16:50:28.347840, 1.62268
2022-12-02 16:50:28.356023, 1.61290
2022-12-02 16:50:28.363758, 1.63734
2022-12-02 16:50:28.372075, 1.60313
2022-12-02 16:50:28.385042, 1.59824
2022-12-02 16:50:28.393328, 1.60313
2022-12-02 16:50:28.401421, 1.59335
2022-12-02 16:50:28.413327, 1.59335
2022-12-02 16:50:28.421248, 1.58847
2022-12-02 16:50:28.429635, 1.58358
2022-12-02 16:50:28.437958, 1.57869
2022-12-02 16:50:28.449779, 1.57869
2022-12-02 16:50:28.458406, 1.56891
2022-12-02 16:50:28.466631, 1.56403
2022-12-02 16:50:28.478321, 1.55425
2022-12-02 16:50:28.486849, 1.57380
2022-12-02 16:50:28.494887, 1.53959
2022-12-02 16:50:28.503129, 1.52981
2022-12-02 16:50:28.515399, 1.53470
2022-12-02 16:50:28.524324, 1.51026
2022-12-02 16:50:28.532428, 1.50049
2022-12-02 16:50:28.544726, 1.50538
2022-12-02 16:50:28.552982, 1.49071
2022-12-02 16:50:28.560596, 1.48583
2022-12-02 16:50:28.569395, 1.48094
2022-12-02 16:50:28.581533, 1.46628
2022-12-02 16:50:28.589702, 1.45650
2022-12-02 16:50:28.598091, 1.44673
2022-12-02 16:50:28.610176, 1.46139
2022-12-02 16:50:28.618549, 1.43206
2022-12-02 16:50:28.626323, 1.42229
2022-12-02 16:50:28.634859, 1.44673
2022-12-02 16:50:28.646382, 1.41251
2022-12-02 16:50:28.655027, 1.40762
2022-12-02 16:50:28.663293, 1.41740
2022-12-02 16:50:28.675742, 1.40274
2022-12-02 16:50:28.684034, 1.39296
2022-12-02 16:50:28.691428, 1.40274
2022-12-02 16:50:28.700069, 1.39296
2022-12-02 16:50:28.712365, 1.38319
2022-12-02 16:50:28.720561, 1.38807
2022-12-02 16:50:28.728744, 1.37830
2022-12-02 16:50:28.740935, 1.37341
2022-12-02 16:50:28.749378, 1.36852
2022-12-02 16:50:28.757443, 1.36364
2022-12-02 16:50:28.765890, 1.35875
2022-12-02 16:50:28.777812, 1.35875
2022-12-02 16:50:28.785829, 1.38807
2022-12-02 16:50:28.793735, 1.35875
2022-12-02 16:50:28.806440, 1.35875
2022-12-02 16:50:28.814715, 1.39785
2022-12-02 16:50:28.823082, 1.38319
2022-12-02 16:50:28.831477, 1.40274
2022-12-02 16:50:28.843234, 1.42717
2022-12-02 16:50:28.852043, 1.44673
2022-12-02 16:50:28.860016, 1.46628
2022-12-02 16:50:28.872060, 1.49071
2022-12-02 16:50:28.880635, 1.50538
2022-12-02 16:50:28.888344, 1.52004
2022-12-02 16:50:28.896317, 1.53959
2022-12-02 16:50:28.908494, 1.54448
2022-12-02 16:50:28.917284, 1.55425
2022-12-02 16:50:28.924783, 1.56403
2022-12-02 16:50:28.937726, 1.57869
2022-12-02 16:50:28.945955, 1.57380
2022-12-02 16:50:28.953451, 1.57869
2022-12-02 16:50:28.962358, 1.61779
2022-12-02 16:50:28.974673, 1.58847
2022-12-02 16:50:28.983058, 1.58847
2022-12-02 16:50:28.990920, 1.60802
2022-12-02 16:50:29.003354, 1.59335
2022-12-02 16:50:29.011612, 1.59335
2022-12-02 16:50:29.019954, 1.59335
2022-12-02 16:50:29.027285, 1.58358
2022-12-02 16:50:29.040228, 1.57869
2022-12-02 16:50:29.047732, 1.57869
2022-12-02 16:50:29.056210, 1.56891
2022-12-02 16:50:29.068602, 1.56403
2022-12-02 16:50:29.076673, 1.56403
2022-12-02 16:50:29.085351, 1.55425
2022-12-02 16:50:29.093251, 1.54448
2022-12-02 16:50:29.105520, 1.53959
2022-12-02 16:50:29.113378, 1.52981
2022-12-02 16:50:29.121993, 1.52981
2022-12-02 16:50:29.130157, 1.52004
2022-12-02 16:50:29.141974, 1.54936
2022-12-02 16:50:29.150893, 1.51515
2022-12-02 16:50:29.159240, 1.51026
2022-12-02 16:50:29.171060, 1.53959
2022-12-02 16:50:29.179449, 1.51026
2022-12-02 16:50:29.187385, 1.51026
2022-12-02 16:50:29.196042, 1.52493
2022-12-02 16:50:29.207484, 1.51026
2022-12-02 16:50:29.215739, 1.50049
2022-12-02 16:50:29.224066, 1.50049
2022-12-02 16:50:29.236693, 1.49071
2022-12-02 16:50:29.244859, 1.48583
2022-12-02 16:50:29.253243, 1.48094
2022-12-02 16:50:29.261293, 1.47116
2022-12-02 16:50:29.273103, 1.46628
2022-12-02 16:50:29.282004, 1.46628
2022-12-02 16:50:29.290196, 1.45650
2022-12-02 16:50:29.302448, 1.45161
2022-12-02 16:50:29.310181, 1.44673
2022-12-02 16:50:29.318882, 1.43695
2022-12-02 16:50:29.326429, 1.43206
2022-12-02 16:50:29.338547, 1.42717
2022-12-02 16:50:29.347016, 1.45650
2022-12-02 16:50:29.355032, 1.41251
2022-12-02 16:50:29.367406, 1.40762
2022-12-02 16:50:29.375415, 1.40762
2022-12-02 16:50:29.384591, 1.39785
2022-12-02 16:50:29.392117, 1.39296
2022-12-02 16:50:29.404814, 1.39296
2022-12-02 16:50:29.412291, 1.38807
2022-12-02 16:50:29.421151, 1.38319
2022-12-02 16:50:29.433250, 1.37830
2022-12-02 16:50:29.441765, 1.40274
2022-12-02 16:50:29.449356, 1.37341
2022-12-02 16:50:29.457548, 1.36852
2022-12-02 16:50:29.470116, 1.37830
2022-12-02 16:50:29.478765, 1.36364
2022-12-02 16:50:29.486489, 1.36364
2022-12-02 16:50:29.498702, 1.35875
2022-12-02 16:50:29.507333, 1.36852
2022-12-02 16:50:29.514878, 1.35386
2022-12-02 16:50:29.523763, 1.35875
2022-12-02 16:50:29.535377, 1.39296
2022-12-02 16:50:29.543708, 1.35875
2022-12-02 16:50:29.551751, 1.35875
2022-12-02 16:50:29.564147, 1.37341
2022-12-02 16:50:29.572493, 1.37341
2022-12-02 16:50:29.580282, 1.38319
2022-12-02 16:50:29.589310, 1.40274
2022-12-02 16:50:29.601134, 1.41740
2022-12-02 16:50:29.608889, 1.44184
2022-12-02 16:50:29.617797, 1.46628
2022-12-02 16:50:29.630071, 1.51515
2022-12-02 16:50:29.637924, 1.50049
2022-12-02 16:50:29.645960, 1.51026
2022-12-02 16:50:29.654692, 1.52981
2022-12-02 16:50:29.666823, 1.53470
2022-12-02 16:50:29.674399, 1.54448
2022-12-02 16:50:29.683042, 1.55425
2022-12-02 16:50:29.695664, 1.55914
2022-12-02 16:50:29.703114, 1.56403
2022-12-02 16:50:29.712082, 1.57380
2022-12-02 16:50:29.719711, 1.58847
2022-12-02 16:50:29.732139, 1.57869
2022-12-02 16:50:29.740666, 1.57869
2022-12-02 16:50:29.748370, 1.59335
2022-12-02 16:50:29.761301, 1.58358
2022-12-02 16:50:29.768711, 1.58847
2022-12-02 16:50:29.777724, 1.58847
2022-12-02 16:50:29.785176, 1.61290
2022-12-02 16:50:29.797880, 1.58358
2022-12-02 16:50:29.806278, 1.57869
2022-12-02 16:50:29.814246, 1.57380
2022-12-02 16:50:29.826793, 1.59824
2022-12-02 16:50:29.834389, 1.56403
2022-12-02 16:50:29.842757, 1.55914
2022-12-02 16:50:29.850687, 1.55914
2022-12-02 16:50:29.863618, 1.57380
2022-12-02 16:50:29.871398, 1.54936
2022-12-02 16:50:29.879157, 1.54936
2022-12-02 16:50:29.892126, 1.54936
2022-12-02 16:50:29.900575, 1.54936
2022-12-02 16:50:29.908084, 1.56891
2022-12-02 16:50:29.916853, 1.54936
2022-12-02 16:50:29.929236, 1.54936
2022-12-02 16:50:29.937366, 1.55425
2022-12-02 16:50:29.945271, 1.54936
2022-12-02 16:50:29.957671, 1.54936
2022-12-02 16:50:29.965251, 1.54448
2022-12-02 16:50:29.973583, 1.54448
2022-12-02 16:50:29.982058, 1.53470
2022-12-02 16:50:29.994464, 1.52981
2022-12-02 16:50:30.002912, 1.53959
2022-12-02 16:50:30.010765, 1.52493
2022-12-02 16:50:30.018635, 1.52493
2022-12-02 16:50:30.030824, 1.52981
2022-12-02 16:50:30.039697, 1.52493
2022-12-02 16:50:30.047132, 1.52004
2022-12-02 16:50:30.059836, 1.52004
2022-12-02 16:50:30.067991, 1.52493
2022-12-02 16:50:30.075787, 1.51026
2022-12-02 16:50:30.084718, 1.50049
2022-12-02 16:50:30.096782, 1.50049
2022-12-02 16:50:30.104879, 1.51026
2022-12-02 16:50:30.113643, 1.49560
2022-12-02 16:50:30.125869, 1.49071
2022-12-02 16:50:30.133946, 1.49071
2022-12-02 16:50:30.141400, 1.48583
2022-12-02 16:50:30.150489, 1.48094
2022-12-02 16:50:30.161844, 1.48094
2022-12-02 16:50:30.170678, 1.49071
2022-12-02 16:50:30.178704, 1.47605
2022-12-02 16:50:30.191022, 1.47116
2022-12-02 16:50:30.199010, 1.47605
2022-12-02 16:50:30.207509, 1.47116
2022-12-02 16:50:30.215487, 1.47605
2022-12-02 16:50:30.227572, 1.47605
2022-12-02 16:50:30.236166, 1.51026
2022-12-02 16:50:30.244387, 1.48094
2022-12-02 16:50:30.256401, 1.48094
2022-12-02 16:50:30.264556, 1.49071
2022-12-02 16:50:30.272483, 1.48583
2022-12-02 16:50:30.281378, 1.49071
2022-12-02 16:50:30.292888, 1.49071
2022-12-02 16:50:30.301863, 1.53470
2022-12-02 16:50:30.309492, 1.50538
2022-12-02 16:50:30.321865, 1.51026
2022-12-02 16:50:30.330205, 1.52493
2022-12-02 16:50:30.338063, 1.57380
2022-12-02 16:50:30.346205, 1.55425
2022-12-02 16:50:30.358599, 1.56891
2022-12-02 16:50:30.367494, 1.59824
2022-12-02 16:50:30.375344, 1.60802
2022-12-02 16:50:30.387052, 1.62757
2022-12-02 16:50:30.396107, 1.64712
2022-12-02 16:50:30.403868, 1.66178
2022-12-02 16:50:30.412506, 1.66667
2022-12-02 16:50:30.424161, 1.67644
2022-12-02 16:50:30.432476, 1.69110
2022-12-02 16:50:30.441312, 1.69599
2022-12-02 16:50:30.453339, 1.70088
2022-12-02 16:50:30.461554, 1.70577
2022-12-02 16:50:30.469453, 1.71065
2022-12-02 16:50:30.477570, 1.71554
2022-12-02 16:50:30.489840, 1.72043
2022-12-02 16:50:30.497791, 1.73998
2022-12-02 16:50:30.506036, 1.72532
2022-12-02 16:50:30.518416, 1.73509
2022-12-02 16:50:30.526850, 1.76442
2022-12-02 16:50:30.535099, 1.73998
2022-12-02 16:50:30.543297, 1.74487
2022-12-02 16:50:30.555736, 1.76442
2022-12-02 16:50:30.563239, 1.74976
2022-12-02 16:50:30.571808, 1.75464
2022-12-02 16:50:30.583979, 1.75953
2022-12-02 16:50:30.592397, 1.75464
2022-12-02 16:50:30.600749, 1.75464
2022-12-02 16:50:30.608969, 1.75953
2022-12-02 16:50:30.621416, 1.75464
2022-12-02 16:50:30.629350, 1.75464
2022-12-02 16:50:30.637653, 1.75953
2022-12-02 16:50:30.649542, 1.75953
2022-12-02 16:50:30.657986, 1.75953
2022-12-02 16:50:30.666095, 1.76442
2022-12-02 16:50:30.674358, 1.76442
2022-12-02 16:50:30.686608, 1.75953
2022-12-02 16:50:30.694658, 1.75953
2022-12-02 16:50:30.702695, 1.79863
