2022-12-02 14:55:50.203492, 1.80841
2022-12-02 14:55:50.215094, 1.73998
2022-12-02 14:55:50.223609, 1.71065
2022-12-02 14:55:50.231320, 1.62757
2022-12-02 14:55:50.244347, 1.57869
2022-12-02 14:55:50.252215, 1.55425
2022-12-02 14:55:50.260579, 1.49560
2022-12-02 14:55:50.268380, 1.46628
2022-12-02 14:55:50.280858, 1.47605
2022-12-02 14:55:50.289572, 1.43206
2022-12-02 14:55:50.297071, 1.42229
2022-12-02 14:55:50.308934, 1.44184
2022-12-02 14:55:50.317997, 1.43206
2022-12-02 14:55:50.325864, 1.45161
2022-12-02 14:55:50.334054, 1.50049
2022-12-02 14:55:50.346246, 1.51026
2022-12-02 14:55:50.354010, 1.53470
2022-12-02 14:55:50.363021, 1.56403
2022-12-02 14:55:50.375063, 1.55914
2022-12-02 14:55:50.383045, 1.55914
2022-12-02 14:55:50.391652, 1.54448
2022-12-02 14:55:50.399485, 1.52004
2022-12-02 14:55:50.412400, 1.50049
2022-12-02 14:55:50.419839, 1.48583
2022-12-02 14:55:50.428706, 1.46139
2022-12-02 14:55:50.441153, 1.44184
2022-12-02 14:55:50.449368, 1.42229
2022-12-02 14:55:50.457386, 1.39296
2022-12-02 14:55:50.465709, 1.36852
2022-12-02 14:55:50.477565, 1.33920
2022-12-02 14:55:50.485652, 1.31476
2022-12-02 14:55:50.494356, 1.29521
2022-12-02 14:55:50.506578, 1.27566
2022-12-02 14:55:50.514363, 1.26100
2022-12-02 14:55:50.523318, 1.25122
2022-12-02 14:55:50.530752, 1.24145
2022-12-02 14:55:50.543302, 1.22678
2022-12-02 14:55:50.550712, 1.20235
2022-12-02 14:55:50.558840, 1.17791
2022-12-02 14:55:50.571891, 1.19257
2022-12-02 14:55:50.579460, 1.14369
2022-12-02 14:55:50.588143, 1.13881
2022-12-02 14:55:50.595696, 1.17302
2022-12-02 14:55:50.608698, 1.19257
2022-12-02 14:55:50.616650, 1.26100
2022-12-02 14:55:50.624756, 1.38807
2022-12-02 14:55:50.632606, 1.51515
2022-12-02 14:55:50.645550, 1.67155
2022-12-02 14:55:50.653536, 1.84751
2022-12-02 14:55:50.661294, 1.97947
2022-12-02 14:55:50.673362, 2.10166
2022-12-02 14:55:50.682480, 2.19941
2022-12-02 14:55:50.690635, 2.23851
2022-12-02 14:55:50.699005, 2.25318
2022-12-02 14:55:50.711280, 2.26784
2022-12-02 14:55:50.719008, 2.18964
2022-12-02 14:55:50.727648, 2.12121
2022-12-02 14:55:50.739465, 2.06256
2022-12-02 14:55:50.748029, 1.96481
2022-12-02 14:55:50.756074, 1.89150
2022-12-02 14:55:50.764474, 1.85239
2022-12-02 14:55:50.776176, 1.76442
2022-12-02 14:55:50.784071, 1.70088
2022-12-02 14:55:50.792886, 1.67155
2022-12-02 14:55:50.804938, 1.59335
2022-12-02 14:55:50.813277, 1.52981
2022-12-02 14:55:50.821730, 1.48583
2022-12-02 14:55:50.829897, 1.42717
2022-12-02 14:55:50.842181, 1.39296
2022-12-02 14:55:50.850352, 1.37341
2022-12-02 14:55:50.858575, 1.35875
2022-12-02 14:55:50.869817, 1.36364
2022-12-02 14:55:50.878677, 1.37830
2022-12-02 14:55:50.887383, 1.39296
2022-12-02 14:55:50.895425, 1.40762
2022-12-02 14:55:50.907800, 1.42717
2022-12-02 14:55:50.915954, 1.44184
2022-12-02 14:55:50.924232, 1.46139
2022-12-02 14:55:50.936255, 1.48094
2022-12-02 14:55:50.944638, 1.49560
2022-12-02 14:55:50.952969, 1.50049
2022-12-02 14:55:50.961086, 1.50538
2022-12-02 14:55:50.973207, 1.52004
2022-12-02 14:55:50.981392, 1.48094
2022-12-02 14:55:50.989579, 1.47116
2022-12-02 14:55:51.001385, 1.48094
2022-12-02 14:55:51.009806, 1.43206
2022-12-02 14:55:51.017930, 1.42229
2022-12-02 14:55:51.026348, 1.42717
2022-12-02 14:55:51.038596, 1.39785
2022-12-02 14:55:51.046533, 1.38319
2022-12-02 14:55:51.055206, 1.37341
2022-12-02 14:55:51.066862, 1.34897
2022-12-02 14:55:51.074872, 1.33431
2022-12-02 14:55:51.083294, 1.32454
2022-12-02 14:55:51.092019, 1.30499
2022-12-02 14:55:51.104399, 1.30010
2022-12-02 14:55:51.112562, 1.30499
2022-12-02 14:55:51.120740, 1.28543
2022-12-02 14:55:51.133057, 1.28543
2022-12-02 14:55:51.141543, 1.28543
2022-12-02 14:55:51.149202, 1.28543
2022-12-02 14:55:51.157848, 1.31476
2022-12-02 14:55:51.169651, 1.37830
2022-12-02 14:55:51.178182, 1.47605
2022-12-02 14:55:51.186375, 1.61290
2022-12-02 14:55:51.197988, 1.78397
2022-12-02 14:55:51.206372, 1.95015
2022-12-02 14:55:51.214775, 2.11144
2022-12-02 14:55:51.223019, 2.25318
2022-12-02 14:55:51.235324, 2.35093
2022-12-02 14:55:51.243629, 2.41935
2022-12-02 14:55:51.251897, 2.45357
2022-12-02 14:55:51.263232, 2.44379
2022-12-02 14:55:51.272389, 2.40469
2022-12-02 14:55:51.280254, 2.35582
2022-12-02 14:55:51.288436, 2.28739
2022-12-02 14:55:51.301632, 2.21896
2022-12-02 14:55:51.328535, 2.15054
2022-12-02 14:55:51.335154, 2.07722
2022-12-02 14:55:51.336643, 2.02346
2022-12-02 14:55:51.338753, 1.95992
2022-12-02 14:55:51.345364, 1.91105
2022-12-02 14:55:51.355135, 1.85239
2022-12-02 14:55:51.365559, 1.80352
2022-12-02 14:55:51.374163, 1.78886
2022-12-02 14:55:51.382935, 1.70577
2022-12-02 14:55:51.394962, 1.67644
2022-12-02 14:55:51.403368, 1.67644
2022-12-02 14:55:51.411184, 1.63245
2022-12-02 14:55:51.418975, 1.63245
2022-12-02 14:55:51.431733, 1.66667
2022-12-02 14:55:51.442493, 1.65200
2022-12-02 14:55:51.448465, 1.66178
2022-12-02 14:55:51.460024, 1.68622
2022-12-02 14:55:51.468831, 1.68622
2022-12-02 14:55:51.476518, 1.70088
2022-12-02 14:55:51.485332, 1.71554
2022-12-02 14:55:51.503940, 1.71554
2022-12-02 14:55:51.506452, 1.71554
2022-12-02 14:55:51.513402, 1.71554
2022-12-02 14:55:51.522056, 1.70577
2022-12-02 14:55:51.534223, 1.69110
2022-12-02 14:55:51.542536, 1.67644
2022-12-02 14:55:51.550744, 1.65689
2022-12-02 14:55:51.563019, 1.63734
2022-12-02 14:55:51.571262, 1.60802
2022-12-02 14:55:51.579482, 1.57869
2022-12-02 14:55:51.587764, 1.55914
2022-12-02 14:55:51.599740, 1.53470
2022-12-02 14:55:51.607927, 1.55914
2022-12-02 14:55:51.616495, 1.50049
2022-12-02 14:55:51.628996, 1.48583
2022-12-02 14:55:51.637122, 1.50049
2022-12-02 14:55:51.645010, 1.45161
2022-12-02 14:55:51.652882, 1.42717
2022-12-02 14:55:51.665652, 1.45650
2022-12-02 14:55:51.673774, 1.40274
2022-12-02 14:55:51.681554, 1.39296
2022-12-02 14:55:51.694123, 1.42229
2022-12-02 14:55:51.718705, 1.41740
2022-12-02 14:55:51.720194, 1.47116
2022-12-02 14:55:51.721188, 1.56403
2022-12-02 14:55:51.733783, 1.67155
2022-12-02 14:55:51.769514, 1.81818
2022-12-02 14:55:52.014635, 1.99413
2022-12-02 14:55:52.036410, 2.12610
2022-12-02 14:55:52.052248, 2.25318
2022-12-02 14:55:52.055287, 2.36559
2022-12-02 14:55:52.057219, 2.41447
2022-12-02 14:55:52.058304, 2.44379
2022-12-02 14:55:52.060199, 2.43891
2022-12-02 14:55:52.061192, 2.39980
2022-12-02 14:55:52.062211, 2.34604
2022-12-02 14:55:52.062707, 2.28250
2022-12-02 14:55:52.063720, 2.20919
2022-12-02 14:55:52.065124, 2.14565
2022-12-02 14:55:52.066126, 2.10166
2022-12-02 14:55:52.067159, 2.03812
2022-12-02 14:55:52.068581, 1.99413
2022-12-02 14:55:52.069212, 1.96970
2022-12-02 14:55:52.070567, 1.89150
2022-12-02 14:55:52.072590, 1.83773
2022-12-02 14:55:52.073625, 1.78397
2022-12-02 14:55:52.075505, 1.73509
2022-12-02 14:55:52.076506, 1.70088
2022-12-02 14:55:52.077780, 1.69599
2022-12-02 14:55:52.078721, 1.65200
2022-12-02 14:55:52.079613, 1.64223
2022-12-02 14:55:52.079986, 1.64712
2022-12-02 14:55:52.081551, 1.65689
2022-12-02 14:55:52.082570, 1.66667
2022-12-02 14:55:52.083674, 1.67155
2022-12-02 14:55:52.087115, 1.68133
2022-12-02 14:55:52.093647, 1.69110
2022-12-02 14:55:52.096301, 1.69110
2022-12-02 14:55:52.098459, 1.69599
2022-12-02 14:55:52.100174, 1.70088
2022-12-02 14:55:52.104600, 1.70577
2022-12-02 14:55:52.105669, 1.68622
2022-12-02 14:55:52.106136, 1.67155
2022-12-02 14:55:52.107816, 1.68622
2022-12-02 14:55:52.108720, 1.62757
2022-12-02 14:55:52.109477, 1.59824
2022-12-02 14:55:52.111788, 1.60802
2022-12-02 14:55:52.123772, 1.55425
2022-12-02 14:55:52.132850, 1.52981
2022-12-02 14:55:52.139915, 1.53959
2022-12-02 14:55:52.160982, 1.50049
2022-12-02 14:55:52.162351, 1.48583
2022-12-02 14:55:52.193888, 1.48583
2022-12-02 14:55:52.195250, 1.46139
2022-12-02 14:55:52.199425, 1.44673
2022-12-02 14:55:52.201726, 1.43206
2022-12-02 14:55:52.205960, 1.41251
2022-12-02 14:55:52.218499, 1.39296
2022-12-02 14:55:52.226242, 1.39296
2022-12-02 14:55:52.234822, 1.38807
2022-12-02 14:55:52.242166, 1.40274
2022-12-02 14:55:52.255425, 1.44184
2022-12-02 14:55:52.263456, 1.51026
2022-12-02 14:55:52.271547, 1.61779
2022-12-02 14:55:52.283855, 1.74976
2022-12-02 14:55:52.291422, 1.90127
2022-12-02 14:55:52.299925, 2.04790
2022-12-02 14:55:52.308029, 2.18475
2022-12-02 14:55:52.320498, 2.28739
2022-12-02 14:55:52.329174, 2.35093
2022-12-02 14:55:52.337112, 2.38514
2022-12-02 14:55:52.354368, 2.37048
2022-12-02 14:55:52.358001, 2.33627
2022-12-02 14:55:52.369163, 2.29228
2022-12-02 14:55:52.374725, 2.23363
2022-12-02 14:55:52.386129, 2.17009
2022-12-02 14:55:52.394089, 2.11632
2022-12-02 14:55:52.402763, 2.05279
2022-12-02 14:55:52.410301, 2.00391
2022-12-02 14:55:52.422986, 1.95503
2022-12-02 14:55:52.431440, 1.95015
2022-12-02 14:55:52.439350, 1.85728
2022-12-02 14:55:52.452047, 1.81329
2022-12-02 14:55:52.459975, 1.76442
2022-12-02 14:55:52.467746, 1.72532
2022-12-02 14:55:52.476157, 1.69599
2022-12-02 14:55:52.488526, 1.65689
2022-12-02 14:55:52.496953, 1.64223
2022-12-02 14:55:52.505112, 1.63245
2022-12-02 14:55:52.517205, 1.61779
2022-12-02 14:55:52.525403, 1.62268
2022-12-02 14:55:52.533647, 1.63245
2022-12-02 14:55:52.541415, 1.64223
2022-12-02 14:55:52.553624, 1.65200
2022-12-02 14:55:52.562639, 1.66667
2022-12-02 14:55:52.570268, 1.66667
2022-12-02 14:55:52.582180, 1.67155
2022-12-02 14:55:52.590379, 1.67155
2022-12-02 14:55:52.598562, 1.66178
2022-12-02 14:55:52.607499, 1.64712
2022-12-02 14:55:52.658778, 1.63245
2022-12-02 14:55:52.667439, 1.62268
2022-12-02 14:55:52.669009, 1.59824
2022-12-02 14:55:52.670325, 1.57869
2022-12-02 14:55:52.672135, 1.56891
2022-12-02 14:55:52.673073, 1.53959
2022-12-02 14:55:52.674123, 1.51515
2022-12-02 14:55:52.684921, 1.53470
2022-12-02 14:55:52.693216, 1.48094
2022-12-02 14:55:52.701781, 1.46628
2022-12-02 14:55:52.713848, 1.46628
2022-12-02 14:55:52.721409, 1.42717
2022-12-02 14:55:52.729683, 1.41251
2022-12-02 14:55:52.737776, 1.40762
2022-12-02 14:55:52.750247, 1.38319
2022-12-02 14:55:52.759153, 1.36852
2022-12-02 14:55:52.767278, 1.36364
2022-12-02 14:55:52.779079, 1.34897
2022-12-02 14:55:52.787601, 1.35386
2022-12-02 14:55:52.795691, 1.37830
2022-12-02 14:55:52.803921, 1.42229
2022-12-02 14:55:52.815801, 1.50049
2022-12-02 14:55:52.824140, 1.61779
2022-12-02 14:55:52.832350, 1.74976
2022-12-02 14:55:52.845052, 1.89638
2022-12-02 14:55:52.852716, 2.06745
2022-12-02 14:55:52.861481, 2.15054
2022-12-02 14:55:52.869880, 2.23851
2022-12-02 14:55:52.882039, 2.31183
2022-12-02 14:55:52.890228, 2.30205
2022-12-02 14:55:52.898568, 2.28739
2022-12-02 14:55:52.910700, 2.26295
2022-12-02 14:55:52.919052, 2.19941
2022-12-02 14:55:52.927098, 2.14565
2022-12-02 14:55:52.935203, 2.10166
2022-12-02 14:55:52.947167, 2.03812
2022-12-02 14:55:52.956231, 1.98436
2022-12-02 14:55:52.963383, 1.94037
2022-12-02 14:55:52.976423, 1.89150
2022-12-02 14:55:52.983955, 1.84751
2022-12-02 14:55:52.992910, 1.80841
2022-12-02 14:55:53.000535, 1.76442
2022-12-02 14:55:53.012853, 1.72043
2022-12-02 14:55:53.020756, 1.68133
2022-12-02 14:55:53.029678, 1.64223
2022-12-02 14:55:53.040973, 1.60802
2022-12-02 14:55:53.049895, 1.60313
2022-12-02 14:55:53.058405, 1.57869
2022-12-02 14:55:53.066411, 1.57869
2022-12-02 14:55:53.078873, 1.58847
2022-12-02 14:55:53.087046, 1.59824
2022-12-02 14:55:53.095033, 1.60802
2022-12-02 14:55:53.106953, 1.62757
2022-12-02 14:55:53.115475, 1.62757
2022-12-02 14:55:53.123364, 1.63734
2022-12-02 14:55:53.131369, 1.63734
2022-12-02 14:55:53.144029, 1.63245
2022-12-02 14:55:53.151848, 1.62757
2022-12-02 14:55:53.160351, 1.62268
2022-12-02 14:55:53.172950, 1.64712
2022-12-02 14:55:53.180970, 1.59335
2022-12-02 14:55:53.188538, 1.56891
2022-12-02 14:55:53.197125, 1.56403
2022-12-02 14:55:53.209754, 1.52981
2022-12-02 14:55:53.217885, 1.50538
2022-12-02 14:55:53.225219, 1.49071
2022-12-02 14:55:53.233956, 1.46139
2022-12-02 14:55:53.246036, 1.44673
2022-12-02 14:55:53.253929, 1.43695
2022-12-02 14:55:53.262765, 1.40762
2022-12-02 14:55:53.275224, 1.39785
2022-12-02 14:55:53.283479, 1.38807
2022-12-02 14:55:53.291476, 1.36852
2022-12-02 14:55:53.299541, 1.34897
2022-12-02 14:55:53.311922, 1.33920
2022-12-02 14:55:53.320368, 1.31965
2022-12-02 14:55:53.328430, 1.30987
2022-12-02 14:55:53.339838, 1.30987
2022-12-02 14:55:53.348666, 1.30499
2022-12-02 14:55:53.357219, 1.32942
2022-12-02 14:55:53.365423, 1.37341
2022-12-02 14:55:53.377707, 1.46139
2022-12-02 14:55:53.385980, 1.58358
2022-12-02 14:55:53.394302, 1.73021
2022-12-02 14:55:53.406524, 1.88172
2022-12-02 14:55:53.414604, 2.01857
2022-12-02 14:55:53.423251, 2.13587
2022-12-02 14:55:53.430495, 2.21408
2022-12-02 14:55:53.442409, 2.26295
2022-12-02 14:55:53.451414, 2.27273
2022-12-02 14:55:53.459499, 2.25806
2022-12-02 14:55:53.471611, 2.21896
2022-12-02 14:55:53.479533, 2.17009
2022-12-02 14:55:53.487874, 2.11144
2022-12-02 14:55:53.496215, 2.05767
2022-12-02 14:55:53.508140, 2.00880
2022-12-02 14:55:53.516658, 1.95503
2022-12-02 14:55:53.524606, 1.91105
2022-12-02 14:55:53.536666, 1.88661
2022-12-02 14:55:53.545691, 1.82307
2022-12-02 14:55:53.553377, 1.78397
2022-12-02 14:55:53.561693, 1.74976
2022-12-02 14:55:53.574556, 1.69599
2022-12-02 14:55:53.582390, 1.65689
2022-12-02 14:55:53.590791, 1.62757
2022-12-02 14:55:53.602452, 1.58358
2022-12-02 14:55:53.610978, 1.56403
2022-12-02 14:55:53.619602, 1.56403
2022-12-02 14:55:53.627645, 1.54936
2022-12-02 14:55:53.640045, 1.55914
2022-12-02 14:55:53.647501, 1.60313
2022-12-02 14:55:53.655997, 1.57869
2022-12-02 14:55:53.668500, 1.58358
2022-12-02 14:55:53.676216, 1.60802
2022-12-02 14:55:53.684101, 1.59824
2022-12-02 14:55:53.692950, 1.59824
2022-12-02 14:55:53.705348, 1.62757
2022-12-02 14:55:53.713286, 1.58358
2022-12-02 14:55:53.721798, 1.57380
2022-12-02 14:55:53.733742, 1.56891
2022-12-02 14:55:53.741703, 1.53470
2022-12-02 14:55:53.749747, 1.51515
2022-12-02 14:55:53.758671, 1.50538
2022-12-02 14:55:53.770757, 1.46628
2022-12-02 14:55:53.779186, 1.44184
2022-12-02 14:55:53.787612, 1.42717
2022-12-02 14:55:53.799863, 1.39785
2022-12-02 14:55:53.807936, 1.38319
2022-12-02 14:55:53.816052, 1.36364
2022-12-02 14:55:53.823964, 1.33920
2022-12-02 14:55:53.836508, 1.32942
2022-12-02 14:55:53.844791, 1.31476
2022-12-02 14:55:53.853011, 1.29521
2022-12-02 14:55:53.865081, 1.27566
2022-12-02 14:55:53.872887, 1.26100
2022-12-02 14:55:53.881489, 1.24633
2022-12-02 14:55:53.889879, 1.23656
2022-12-02 14:55:53.901788, 1.22190
2022-12-02 14:55:53.909686, 1.25611
2022-12-02 14:55:53.918150, 1.23167
2022-12-02 14:55:53.930325, 1.26100
2022-12-02 14:55:53.938702, 1.36364
2022-12-02 14:55:53.946722, 1.44673
2022-12-02 14:55:53.955189, 1.58358
2022-12-02 14:55:53.966884, 1.75464
2022-12-02 14:55:53.975433, 1.88661
2022-12-02 14:55:53.983031, 2.01369
2022-12-02 14:55:53.996135, 2.12121
2022-12-02 14:55:54.004341, 2.18475
2022-12-02 14:55:54.012562, 2.20919
2022-12-02 14:55:54.021230, 2.20919
2022-12-02 14:55:54.032807, 2.17986
2022-12-02 14:55:54.040604, 2.13587
2022-12-02 14:55:54.049363, 2.08211
2022-12-02 14:55:54.062204, 2.02346
2022-12-02 14:55:54.070230, 1.96481
2022-12-02 14:55:54.078421, 1.95015
2022-12-02 14:55:54.086071, 1.86217
2022-12-02 14:55:54.098638, 1.80841
2022-12-02 14:55:54.107365, 1.79374
2022-12-02 14:55:54.115040, 1.72043
2022-12-02 14:55:54.123507, 1.68133
2022-12-02 14:55:54.135714, 1.66178
2022-12-02 14:55:54.143959, 1.58847
2022-12-02 14:55:54.151958, 1.54448
2022-12-02 14:55:54.163613, 1.52981
2022-12-02 14:55:54.172679, 1.48094
2022-12-02 14:55:54.180109, 1.46139
2022-12-02 14:55:54.189098, 1.46139
2022-12-02 14:55:54.200234, 1.45650
2022-12-02 14:55:54.209677, 1.46628
2022-12-02 14:55:54.216498, 1.49071
2022-12-02 14:55:54.229419, 1.49560
2022-12-02 14:55:54.238325, 1.51026
2022-12-02 14:55:54.245908, 1.52004
2022-12-02 14:55:54.254476, 1.52493
2022-12-02 14:55:54.266665, 1.52004
2022-12-02 14:55:54.275329, 1.52493
2022-12-02 14:55:54.283047, 1.52004
2022-12-02 14:55:54.295430, 1.51026
2022-12-02 14:55:54.303265, 1.49560
2022-12-02 14:55:54.311786, 1.47605
2022-12-02 14:55:54.320242, 1.45161
2022-12-02 14:55:54.332133, 1.42717
2022-12-02 14:55:54.340609, 1.44673
2022-12-02 14:55:54.348169, 1.38807
2022-12-02 14:55:54.360221, 1.36852
2022-12-02 14:55:54.368680, 1.37341
2022-12-02 14:55:54.376782, 1.32454
2022-12-02 14:55:54.384642, 1.31476
2022-12-02 14:55:54.397543, 1.32454
2022-12-02 14:55:54.405324, 1.29032
2022-12-02 14:55:54.413792, 1.27077
2022-12-02 14:55:54.426147, 1.29521
2022-12-02 14:55:54.434226, 1.24633
2022-12-02 14:55:54.442538, 1.23167
2022-12-02 14:55:54.450180, 1.22190
2022-12-02 14:55:54.462487, 1.20723
2022-12-02 14:55:54.470429, 1.20235
2022-12-02 14:55:54.479204, 1.19257
2022-12-02 14:55:54.491350, 1.21212
2022-12-02 14:55:54.499086, 1.25611
2022-12-02 14:55:54.508147, 1.32942
2022-12-02 14:55:54.516338, 1.44184
2022-12-02 14:55:54.528339, 1.58358
2022-12-02 14:55:54.536744, 1.74487
2022-12-02 14:55:54.544958, 1.90127
2022-12-02 14:55:54.556618, 2.04301
2022-12-02 14:55:54.564674, 2.13587
2022-12-02 14:55:54.573671, 2.19453
2022-12-02 14:55:54.581238, 2.20919
2022-12-02 14:55:54.593713, 2.21408
2022-12-02 14:55:54.602475, 2.14565
2022-12-02 14:55:54.610158, 2.09189
2022-12-02 14:55:54.623275, 2.02346
2022-12-02 14:55:54.630994, 1.95503
2022-12-02 14:55:54.639411, 1.90127
2022-12-02 14:55:54.647354, 1.83773
2022-12-02 14:55:54.659734, 1.78886
2022-12-02 14:55:54.667405, 1.74487
2022-12-02 14:55:54.675774, 1.69599
2022-12-02 14:55:54.688362, 1.64223
2022-12-02 14:55:54.698903, 1.59824
2022-12-02 14:55:54.704764, 1.53959
2022-12-02 14:55:54.712972, 1.49560
2022-12-02 14:55:54.724661, 1.46139
2022-12-02 14:55:54.736602, 1.43206
2022-12-02 14:55:54.741838, 1.40762
2022-12-02 14:55:54.842795, 1.39785
2022-12-02 14:55:54.843725, 1.42717
2022-12-02 14:55:54.844881, 1.40274
2022-12-02 14:55:54.846656, 1.41251
2022-12-02 14:55:54.847589, 1.46628
2022-12-02 14:55:54.848835, 1.43695
2022-12-02 14:55:54.850022, 1.45650
2022-12-02 14:55:54.851556, 1.50049
2022-12-02 14:55:54.852407, 1.48094
2022-12-02 14:55:54.853064, 1.48583
2022-12-02 14:55:54.854057, 1.50049
2022-12-02 14:55:54.855548, 1.47116
2022-12-02 14:55:54.864490, 1.45161
2022-12-02 14:55:54.871872, 1.44673
2022-12-02 14:55:54.915332, 1.41740
2022-12-02 14:55:54.944309, 1.39296
2022-12-02 14:55:54.947637, 1.38319
2022-12-02 14:55:54.948886, 1.34897
2022-12-02 14:55:54.950471, 1.32942
2022-12-02 14:55:54.952729, 1.31965
2022-12-02 14:55:54.954722, 1.29521
2022-12-02 14:55:55.028600, 1.27077
2022-12-02 14:55:55.047480, 1.28543
2022-12-02 14:55:55.055518, 1.24145
2022-12-02 14:55:55.057235, 1.22190
2022-12-02 14:55:55.060030, 1.23656
2022-12-02 14:55:55.070166, 1.19257
2022-12-02 14:55:55.072172, 1.17791
2022-12-02 14:55:55.076303, 1.19257
2022-12-02 14:55:55.078350, 1.15836
2022-12-02 14:55:55.079711, 1.14858
2022-12-02 14:55:55.081236, 1.15347
2022-12-02 14:55:55.084016, 1.13392
2022-12-02 14:55:55.085681, 1.13881
2022-12-02 14:55:55.087291, 1.17302
2022-12-02 14:55:55.088517, 1.21212
2022-12-02 14:55:55.090275, 1.30499
2022-12-02 14:55:55.097769, 1.45161
2022-12-02 14:55:55.106103, 1.60313
2022-12-02 14:55:55.117601, 1.76931
2022-12-02 14:55:55.126091, 1.94037
2022-12-02 14:55:55.134206, 2.05767
2022-12-02 14:55:55.142463, 2.14565
2022-12-02 14:55:55.154523, 2.20430
2022-12-02 14:55:55.162727, 2.19453
2022-12-02 14:55:55.171580, 2.17009
2022-12-02 14:55:55.183763, 2.13099
2022-12-02 14:55:55.192052, 2.06256
2022-12-02 14:55:55.200483, 2.01369
2022-12-02 14:55:55.208507, 1.92571
2022-12-02 14:55:55.220098, 1.85239
2022-12-02 14:55:55.228189, 1.79374
2022-12-02 14:55:55.236398, 1.74487
2022-12-02 14:55:55.249224, 1.69599
2022-12-02 14:55:55.257454, 1.65200
2022-12-02 14:55:55.266104, 1.61290
2022-12-02 14:55:55.273697, 1.60313
2022-12-02 14:55:55.286447, 1.52493
2022-12-02 14:55:55.294587, 1.48094
2022-12-02 14:55:55.302755, 1.46628
2022-12-02 14:55:55.315076, 1.40274
2022-12-02 14:55:55.323217, 1.38319
2022-12-02 14:55:55.331446, 1.38807
2022-12-02 14:55:55.339618, 1.36852
2022-12-02 14:55:55.351639, 1.37341
2022-12-02 14:55:55.360441, 1.40274
2022-12-02 14:55:55.368173, 1.40274
2022-12-02 14:55:55.379957, 1.41251
2022-12-02 14:55:55.388849, 1.44673
2022-12-02 14:55:55.396480, 1.43695
2022-12-02 14:55:55.404738, 1.44673
2022-12-02 14:55:55.417214, 1.45161
2022-12-02 14:55:55.424810, 1.44184
2022-12-02 14:55:55.433951, 1.43206
2022-12-02 14:55:55.445217, 1.42229
2022-12-02 14:55:55.454236, 1.40274
2022-12-02 14:55:55.462345, 1.38807
2022-12-02 14:55:55.470838, 1.37341
2022-12-02 14:55:55.482153, 1.34409
2022-12-02 14:55:55.490831, 1.32454
2022-12-02 14:55:55.499101, 1.30010
2022-12-02 14:55:55.511416, 1.27566
2022-12-02 14:55:55.519731, 1.25611
2022-12-02 14:55:55.528026, 1.24145
2022-12-02 14:55:55.536170, 1.26100
2022-12-02 14:55:55.548185, 1.21701
2022-12-02 14:55:55.555995, 1.20235
2022-12-02 14:55:55.564572, 1.22190
2022-12-02 14:55:55.576957, 1.18280
2022-12-02 14:55:55.584989, 1.16813
2022-12-02 14:55:55.593185, 1.19257
2022-12-02 14:55:55.601426, 1.15347
2022-12-02 14:55:55.614042, 1.14369
2022-12-02 14:55:55.622327, 1.17302
2022-12-02 14:55:55.630409, 1.15836
2022-12-02 14:55:55.642384, 1.20235
2022-12-02 14:55:55.650745, 1.30499
2022-12-02 14:55:55.658827, 1.37830
2022-12-02 14:55:55.667401, 1.51515
2022-12-02 14:55:55.679090, 1.72043
2022-12-02 14:55:55.687845, 1.86706
2022-12-02 14:55:55.695611, 2.02346
2022-12-02 14:55:55.708346, 2.18964
2022-12-02 14:55:55.715867, 2.25318
2022-12-02 14:55:55.724622, 2.31183
2022-12-02 14:55:55.732527, 2.35093
2022-12-02 14:55:55.745212, 2.29228
2022-12-02 14:55:55.753474, 2.24340
2022-12-02 14:55:55.761183, 2.17498
2022-12-02 14:55:55.774022, 2.11144
2022-12-02 14:55:55.782045, 2.04301
2022-12-02 14:55:55.790516, 2.01857
2022-12-02 14:55:55.798417, 1.92571
2022-12-02 14:55:55.811226, 1.87683
2022-12-02 14:55:55.819119, 1.86217
2022-12-02 14:55:55.827361, 1.78397
2022-12-02 14:55:55.835127, 1.73998
2022-12-02 14:55:55.847579, 1.72532
2022-12-02 14:55:55.855017, 1.65689
2022-12-02 14:55:55.863837, 1.61290
2022-12-02 14:55:55.876192, 1.61779
2022-12-02 14:55:55.883724, 1.55425
2022-12-02 14:55:55.892649, 1.52981
2022-12-02 14:55:55.900083, 1.52493
2022-12-02 14:55:55.912867, 1.52493
2022-12-02 14:55:55.921281, 1.52981
2022-12-02 14:55:55.928903, 1.57869
2022-12-02 14:55:55.941757, 1.55425
2022-12-02 14:55:55.949460, 1.56891
2022-12-02 14:55:55.958241, 1.59335
2022-12-02 14:55:55.966217, 1.58847
2022-12-02 14:55:55.978432, 1.58847
2022-12-02 14:55:55.987348, 1.59335
2022-12-02 14:55:55.995099, 1.58358
2022-12-02 14:55:56.007188, 1.57380
2022-12-02 14:55:56.015827, 1.56891
2022-12-02 14:55:56.023458, 1.54936
2022-12-02 14:55:56.031865, 1.52981
2022-12-02 14:55:56.044360, 1.51515
2022-12-02 14:55:56.051634, 1.48583
2022-12-02 14:55:56.060757, 1.45650
2022-12-02 14:55:56.073069, 1.44673
2022-12-02 14:55:56.081418, 1.42229
2022-12-02 14:55:56.089439, 1.40274
2022-12-02 14:55:56.097426, 1.40274
2022-12-02 14:55:56.110118, 1.37830
2022-12-02 14:55:56.117984, 1.36852
2022-12-02 14:55:56.125912, 1.36364
2022-12-02 14:55:56.138612, 1.34409
2022-12-02 14:55:56.146411, 1.32942
2022-12-02 14:55:56.154945, 1.32454
2022-12-02 14:55:56.162950, 1.30987
2022-12-02 14:55:56.174826, 1.29521
2022-12-02 14:55:56.183188, 1.29521
2022-12-02 14:55:56.191273, 1.27566
2022-12-02 14:55:56.203514, 1.27566
2022-12-02 14:55:56.211331, 1.28543
2022-12-02 14:55:56.220338, 1.30499
2022-12-02 14:55:56.227856, 1.36364
2022-12-02 14:55:56.239837, 1.46139
2022-12-02 14:55:56.248482, 1.63734
2022-12-02 14:55:56.256762, 1.76931
2022-12-02 14:55:56.268758, 1.94037
2022-12-02 14:55:56.277566, 2.13587
2022-12-02 14:55:56.285573, 2.23851
2022-12-02 14:55:56.293955, 2.34115
2022-12-02 14:55:56.305443, 2.40958
2022-12-02 14:55:56.313700, 2.39980
2022-12-02 14:55:56.322446, 2.38025
2022-12-02 14:55:56.334607, 2.36070
2022-12-02 14:55:56.342365, 2.27273
2022-12-02 14:55:56.351060, 2.19941
2022-12-02 14:55:56.359757, 2.13099
2022-12-02 14:55:56.371385, 2.05767
2022-12-02 14:55:56.380089, 1.99413
2022-12-02 14:55:56.387807, 1.93548
2022-12-02 14:55:56.399947, 1.88172
2022-12-02 14:55:56.408260, 1.85239
2022-12-02 14:55:56.416859, 1.78886
2022-12-02 14:55:56.424337, 1.74976
2022-12-02 14:55:56.436754, 1.72532
2022-12-02 14:55:56.445327, 1.65689
2022-12-02 14:55:56.453453, 1.62268
2022-12-02 14:55:56.465626, 1.59824
2022-12-02 14:55:56.474493, 1.55914
2022-12-02 14:55:56.482041, 1.53959
2022-12-02 14:55:56.490905, 1.52981
2022-12-02 14:55:56.503258, 1.52981
2022-12-02 14:55:56.511127, 1.53470
2022-12-02 14:55:56.519570, 1.54936
2022-12-02 14:55:56.531581, 1.56891
2022-12-02 14:55:56.539587, 1.58358
2022-12-02 14:55:56.547744, 1.59335
2022-12-02 14:55:56.556010, 1.59824
2022-12-02 14:55:56.567981, 1.59824
2022-12-02 14:55:56.576482, 1.58847
2022-12-02 14:55:56.584484, 1.57869
2022-12-02 14:55:56.596652, 1.56403
2022-12-02 14:55:56.605323, 1.57869
2022-12-02 14:55:56.613094, 1.52981
2022-12-02 14:55:56.621694, 1.51515
2022-12-02 14:55:56.633194, 1.49071
2022-12-02 14:55:56.641727, 1.47116
2022-12-02 14:55:56.650113, 1.44673
2022-12-02 14:55:56.662573, 1.42717
2022-12-02 14:55:56.670553, 1.41251
2022-12-02 14:55:56.678725, 1.39785
2022-12-02 14:55:56.686625, 1.37830
2022-12-02 14:55:56.698843, 1.36852
2022-12-02 14:55:56.707815, 1.34897
2022-12-02 14:55:56.715133, 1.38319
2022-12-02 14:55:56.724202, 1.33431
2022-12-02 14:55:56.736043, 1.32454
2022-12-02 14:55:56.744373, 1.31476
2022-12-02 14:55:56.752669, 1.30010
2022-12-02 14:55:56.764939, 1.29521
2022-12-02 14:55:56.772714, 1.27566
2022-12-02 14:55:56.780407, 1.26588
2022-12-02 14:55:56.789477, 1.26100
2022-12-02 14:55:56.801535, 1.29032
2022-12-02 14:55:56.810025, 1.32454
2022-12-02 14:55:56.818232, 1.40762
2022-12-02 14:55:56.830551, 1.53470
2022-12-02 14:55:56.838716, 1.69110
2022-12-02 14:55:56.847128, 1.86217
2022-12-02 14:55:56.855116, 2.07234
2022-12-02 14:55:56.866583, 2.17009
2022-12-02 14:55:56.875059, 2.27761
2022-12-02 14:55:56.883875, 2.35582
2022-12-02 14:55:56.896340, 2.36559
2022-12-02 14:55:56.904499, 2.35582
2022-12-02 14:55:56.912697, 2.34604
2022-12-02 14:55:56.921061, 2.25806
2022-12-02 14:55:56.932167, 2.18964
2022-12-02 14:55:56.941139, 2.11144
2022-12-02 14:55:56.948915, 2.04301
2022-12-02 14:55:56.961172, 1.97947
2022-12-02 14:55:56.969411, 1.91593
2022-12-02 14:55:56.977772, 1.85728
2022-12-02 14:55:56.986410, 1.80352
2022-12-02 14:55:56.998559, 1.74976
2022-12-02 14:55:57.007355, 1.69599
2022-12-02 14:55:57.015259, 1.63734
2022-12-02 14:55:57.027332, 1.58358
2022-12-02 14:55:57.034745, 1.53470
2022-12-02 14:55:57.043809, 1.50049
2022-12-02 14:55:57.052240, 1.47116
2022-12-02 14:55:57.063650, 1.45161
2022-12-02 14:55:57.071678, 1.45161
2022-12-02 14:55:57.080489, 1.45161
2022-12-02 14:55:57.093155, 1.47116
2022-12-02 14:55:57.101242, 1.49071
2022-12-02 14:55:57.109500, 1.50049
2022-12-02 14:55:57.117583, 1.50538
2022-12-02 14:55:57.128957, 1.51515
2022-12-02 14:55:57.137636, 1.51515
2022-12-02 14:55:57.145436, 1.51026
2022-12-02 14:55:57.158385, 1.52981
2022-12-02 14:55:57.165950, 1.51515
2022-12-02 14:55:57.174732, 1.51026
2022-12-02 14:55:57.182952, 1.50049
2022-12-02 14:55:57.195127, 1.48094
2022-12-02 14:55:57.203343, 1.45650
2022-12-02 14:55:57.211525, 1.43695
2022-12-02 14:55:57.224274, 1.40274
2022-12-02 14:55:57.231961, 1.37830
2022-12-02 14:55:57.240249, 1.36364
2022-12-02 14:55:57.248645, 1.33920
2022-12-02 14:55:57.261131, 1.32942
2022-12-02 14:55:57.269349, 1.31476
2022-12-02 14:55:57.277660, 1.29521
2022-12-02 14:55:57.289581, 1.27566
2022-12-02 14:55:57.297297, 1.26588
2022-12-02 14:55:57.305956, 1.24633
2022-12-02 14:55:57.314062, 1.23656
2022-12-02 14:55:57.325924, 1.23167
2022-12-02 14:55:57.333967, 1.21212
2022-12-02 14:55:57.342801, 1.20723
2022-12-02 14:55:57.354541, 1.20235
2022-12-02 14:55:57.362693, 1.18768
2022-12-02 14:55:57.371301, 1.17791
2022-12-02 14:55:57.379190, 1.18280
2022-12-02 14:55:57.392251, 1.22678
2022-12-02 14:55:57.399763, 1.27566
2022-12-02 14:55:57.408478, 1.37830
2022-12-02 14:55:57.420783, 1.54936
2022-12-02 14:55:57.428392, 1.69110
2022-12-02 14:55:57.437362, 1.86217
2022-12-02 14:55:57.444869, 2.04790
2022-12-02 14:55:57.457543, 2.14076
2022-12-02 14:55:57.464966, 2.23363
2022-12-02 14:55:57.473717, 2.32160
2022-12-02 14:55:57.486346, 2.29717
2022-12-02 14:55:57.493707, 2.28250
2022-12-02 14:55:57.501885, 2.24340
2022-12-02 14:55:57.510364, 2.18475
2022-12-02 14:55:57.522636, 2.12610
2022-12-02 14:55:57.530780, 2.04301
2022-12-02 14:55:57.539005, 1.97947
2022-12-02 14:55:57.547524, 1.90616
2022-12-02 14:55:57.559768, 1.84751
2022-12-02 14:55:57.567875, 1.79863
2022-12-02 14:55:57.576259, 1.73998
2022-12-02 14:55:57.588514, 1.68622
2022-12-02 14:55:57.596269, 1.64223
2022-12-02 14:55:57.605359, 1.59335
2022-12-02 14:55:57.613580, 1.54448
2022-12-02 14:55:57.625440, 1.51515
2022-12-02 14:55:57.633019, 1.47605
2022-12-02 14:55:57.641945, 1.46139
2022-12-02 14:55:57.654142, 1.46139
2022-12-02 14:55:57.662244, 1.45650
2022-12-02 14:55:57.670493, 1.46139
2022-12-02 14:55:57.677862, 1.47605
2022-12-02 14:55:57.691378, 1.49071
2022-12-02 14:55:57.698631, 1.50049
2022-12-02 14:55:57.707249, 1.52493
2022-12-02 14:55:57.719786, 1.52493
2022-12-02 14:55:57.727378, 1.53959
2022-12-02 14:55:57.736254, 1.54448
2022-12-02 14:55:57.744284, 1.52981
2022-12-02 14:55:57.756201, 1.52004
2022-12-02 14:55:57.764655, 1.50538
2022-12-02 14:55:57.772220, 1.48583
2022-12-02 14:55:57.785250, 1.46628
2022-12-02 14:55:57.793447, 1.44184
2022-12-02 14:55:57.801568, 1.42229
2022-12-02 14:55:57.809772, 1.40274
2022-12-02 14:55:57.822252, 1.37830
2022-12-02 14:55:57.829820, 1.35386
2022-12-02 14:55:57.838562, 1.33920
2022-12-02 14:55:57.850750, 1.31965
2022-12-02 14:55:57.858842, 1.30010
2022-12-02 14:55:57.866318, 1.28055
2022-12-02 14:55:57.875253, 1.27077
2022-12-02 14:55:57.887708, 1.24633
2022-12-02 14:55:57.895914, 1.23656
2022-12-02 14:55:57.904362, 1.22678
2022-12-02 14:55:57.915318, 1.20723
2022-12-02 14:55:57.924147, 1.19746
2022-12-02 14:55:57.931894, 1.17791
2022-12-02 14:55:57.940659, 1.16325
2022-12-02 14:55:57.953254, 1.14858
2022-12-02 14:55:57.960930, 1.15347
2022-12-02 14:55:57.969127, 1.16813
2022-12-02 14:55:57.981777, 1.21701
2022-12-02 14:55:57.990024, 1.30987
2022-12-02 14:55:57.998246, 1.43206
2022-12-02 14:55:58.006368, 1.59824
2022-12-02 14:55:58.018601, 1.77419
2022-12-02 14:55:58.026877, 1.93060
2022-12-02 14:55:58.035373, 2.07234
2022-12-02 14:55:58.047060, 2.17498
2022-12-02 14:55:58.055658, 2.23363
2022-12-02 14:55:58.063355, 2.25806
2022-12-02 14:55:58.071241, 2.24829
2022-12-02 14:55:58.084243, 2.20430
2022-12-02 14:55:58.092346, 2.15543
2022-12-02 14:55:58.100606, 2.10166
2022-12-02 14:55:58.111955, 2.02346
2022-12-02 14:55:58.121182, 1.95503
2022-12-02 14:55:58.128979, 1.92571
2022-12-02 14:55:58.137482, 1.81818
2022-12-02 14:55:58.149523, 1.75464
2022-12-02 14:55:58.158239, 1.73021
2022-12-02 14:55:58.165260, 1.62757
2022-12-02 14:55:58.177790, 1.56891
2022-12-02 14:55:58.186204, 1.52981
2022-12-02 14:55:58.194182, 1.46628
2022-12-02 14:55:58.202771, 1.41740
2022-12-02 14:55:58.215252, 1.38807
2022-12-02 14:55:58.223612, 1.35875
2022-12-02 14:55:58.231882, 1.34409
2022-12-02 14:55:58.244239, 1.34409
2022-12-02 14:55:58.252363, 1.34897
2022-12-02 14:55:58.259619, 1.36364
2022-12-02 14:55:58.268592, 1.38807
2022-12-02 14:55:58.280620, 1.39785
2022-12-02 14:55:58.289372, 1.41251
2022-12-02 14:55:58.296995, 1.45650
2022-12-02 14:55:58.309540, 1.44184
2022-12-02 14:55:58.317845, 1.44673
2022-12-02 14:55:58.326030, 1.48583
2022-12-02 14:55:58.334248, 1.43695
2022-12-02 14:55:58.346050, 1.42717
2022-12-02 14:55:58.354486, 1.44184
2022-12-02 14:55:58.362251, 1.38807
2022-12-02 14:55:58.375248, 1.37341
2022-12-02 14:55:58.382903, 1.36364
2022-12-02 14:55:58.391563, 1.32942
2022-12-02 14:55:58.399420, 1.30499
2022-12-02 14:55:58.411264, 1.29032
2022-12-02 14:55:58.420360, 1.26588
2022-12-02 14:55:58.427955, 1.24633
2022-12-02 14:55:58.436585, 1.24145
2022-12-02 14:55:58.448128, 1.20723
2022-12-02 14:55:58.457341, 1.18768
2022-12-02 14:55:58.465012, 1.18280
2022-12-02 14:55:58.476777, 1.16813
2022-12-02 14:55:58.485613, 1.14858
2022-12-02 14:55:58.494006, 1.15836
2022-12-02 14:55:58.502250, 1.11926
2022-12-02 14:55:58.513522, 1.10948
2022-12-02 14:55:58.521759, 1.10459
2022-12-02 14:55:58.530548, 1.08993
2022-12-02 14:55:58.542964, 1.09482
2022-12-02 14:55:58.551259, 1.12414
2022-12-02 14:55:58.559323, 1.18280
2022-12-02 14:55:58.567661, 1.29521
2022-12-02 14:55:58.579573, 1.44673
2022-12-02 14:55:58.587457, 1.60802
2022-12-02 14:55:58.595259, 1.77908
2022-12-02 14:55:58.607842, 1.95015
2022-12-02 14:55:58.616172, 2.06745
2022-12-02 14:55:58.624626, 2.16031
2022-12-02 14:55:58.632527, 2.21408
2022-12-02 14:55:58.644947, 2.22385
2022-12-02 14:55:58.652796, 2.20430
2022-12-02 14:55:58.661648, 2.16031
2022-12-02 14:55:58.673728, 2.08700
2022-12-02 14:55:58.681462, 2.01369
2022-12-02 14:55:58.690479, 1.96970
2022-12-02 14:55:58.698086, 1.85728
2022-12-02 14:55:58.710497, 1.78886
2022-12-02 14:55:58.719373, 1.71554
2022-12-02 14:55:58.727333, 1.65200
2022-12-02 14:55:58.739554, 1.59335
2022-12-02 14:55:58.747846, 1.53470
2022-12-02 14:55:58.755763, 1.47605
2022-12-02 14:55:58.764197, 1.41740
2022-12-02 14:55:58.776501, 1.40274
2022-12-02 14:55:58.784678, 1.32942
2022-12-02 14:55:58.792831, 1.30987
2022-12-02 14:55:58.804169, 1.33431
2022-12-02 14:55:58.812772, 1.29521
2022-12-02 14:55:58.821578, 1.30010
2022-12-02 14:55:58.828853, 1.34409
2022-12-02 14:55:58.841794, 1.32942
2022-12-02 14:55:58.850220, 1.34897
2022-12-02 14:55:58.858308, 1.37830
2022-12-02 14:55:58.870507, 1.37341
2022-12-02 14:55:58.878312, 1.38807
2022-12-02 14:55:58.887208, 1.39296
2022-12-02 14:55:58.894589, 1.39785
2022-12-02 14:55:58.907445, 1.40762
2022-12-02 14:55:58.914865, 1.38807
2022-12-02 14:55:58.924028, 1.37830
2022-12-02 14:55:58.936414, 1.38319
2022-12-02 14:55:58.944475, 1.34409
2022-12-02 14:55:58.952929, 1.32454
2022-12-02 14:55:58.960757, 1.30987
2022-12-02 14:55:58.972070, 1.28055
2022-12-02 14:55:58.980209, 1.25611
2022-12-02 14:55:58.989373, 1.24633
2022-12-02 14:55:59.000654, 1.22678
2022-12-02 14:55:59.008927, 1.20723
2022-12-02 14:55:59.017800, 1.19746
2022-12-02 14:55:59.025355, 1.17791
2022-12-02 14:55:59.038373, 1.16325
2022-12-02 14:55:59.046370, 1.14858
2022-12-02 14:55:59.054359, 1.14858
2022-12-02 14:55:59.066648, 1.11926
2022-12-02 14:55:59.075227, 1.10459
2022-12-02 14:55:59.083814, 1.11926
2022-12-02 14:55:59.091682, 1.07527
2022-12-02 14:55:59.104258, 1.07527
2022-12-02 14:55:59.111991, 1.12414
2022-12-02 14:55:59.120558, 1.11926
2022-12-02 14:55:59.132460, 1.18280
2022-12-02 14:55:59.141266, 1.29032
2022-12-02 14:55:59.148283, 1.43206
2022-12-02 14:55:59.157553, 1.60802
2022-12-02 14:55:59.169529, 1.78397
2022-12-02 14:55:59.177431, 1.94037
2022-12-02 14:55:59.185091, 2.09189
2022-12-02 14:55:59.197680, 2.16520
2022-12-02 14:55:59.206637, 2.21408
2022-12-02 14:55:59.214497, 2.22385
2022-12-02 14:55:59.223010, 2.19453
2022-12-02 14:55:59.235324, 2.14076
2022-12-02 14:55:59.243612, 2.10655
2022-12-02 14:55:59.251610, 2.00391
2022-12-02 14:55:59.259724, 1.93060
2022-12-02 14:55:59.272393, 1.85728
2022-12-02 14:55:59.280132, 1.78886
2022-12-02 14:55:59.288423, 1.73998
2022-12-02 14:55:59.300471, 1.66178
2022-12-02 14:55:59.308426, 1.60802
2022-12-02 14:55:59.316756, 1.55425
2022-12-02 14:55:59.324594, 1.50049
2022-12-02 14:55:59.337110, 1.45650
2022-12-02 14:55:59.345210, 1.41740
2022-12-02 14:55:59.352990, 1.38319
2022-12-02 14:55:59.366039, 1.35875
2022-12-02 14:55:59.373822, 1.36852
2022-12-02 14:55:59.382496, 1.35875
2022-12-02 14:55:59.390361, 1.36852
2022-12-02 14:55:59.402580, 1.39785
2022-12-02 14:55:59.410523, 1.41740
2022-12-02 14:55:59.419573, 1.45650
2022-12-02 14:55:59.431292, 1.49071
2022-12-02 14:55:59.440268, 1.51515
2022-12-02 14:55:59.448153, 1.52981
2022-12-02 14:55:59.456537, 1.54448
2022-12-02 14:55:59.468785, 1.54936
2022-12-02 14:55:59.476407, 1.54936
2022-12-02 14:55:59.484914, 1.54448
2022-12-02 14:55:59.497475, 1.56891
2022-12-02 14:55:59.505566, 1.52493
2022-12-02 14:55:59.513855, 1.50538
2022-12-02 14:55:59.521872, 1.52493
2022-12-02 14:55:59.534258, 1.47116
2022-12-02 14:55:59.541561, 1.45650
2022-12-02 14:55:59.550618, 1.46139
2022-12-02 14:55:59.562741, 1.42717
2022-12-02 14:55:59.570729, 1.41251
2022-12-02 14:55:59.579050, 1.40762
2022-12-02 14:55:59.587639, 1.38807
2022-12-02 14:55:59.599385, 1.37341
2022-12-02 14:55:59.608350, 1.37341
2022-12-02 14:55:59.615418, 1.34897
2022-12-02 14:55:59.628123, 1.33920
2022-12-02 14:55:59.636412, 1.35875
2022-12-02 14:55:59.644015, 1.31476
2022-12-02 14:55:59.653270, 1.30987
2022-12-02 14:55:59.664343, 1.34897
2022-12-02 14:55:59.673325, 1.32942
2022-12-02 14:55:59.681246, 1.37341
2022-12-02 14:55:59.693982, 1.48094
2022-12-02 14:55:59.702264, 1.59335
2022-12-02 14:55:59.710365, 1.74976
2022-12-02 14:55:59.718527, 1.93060
2022-12-02 14:55:59.730675, 2.09677
2022-12-02 14:55:59.738597, 2.23851
2022-12-02 14:55:59.747150, 2.36070
2022-12-02 14:55:59.759509, 2.42424
2022-12-02 14:55:59.767537, 2.45357
2022-12-02 14:55:59.775894, 2.43891
2022-12-02 14:55:59.784061, 2.39492
2022-12-02 14:55:59.796290, 2.33627
2022-12-02 14:55:59.804554, 2.26784
2022-12-02 14:55:59.812500, 2.19453
2022-12-02 14:55:59.825403, 2.12610
2022-12-02 14:55:59.833267, 2.05279
2022-12-02 14:55:59.841426, 1.99902
2022-12-02 14:55:59.849465, 1.94526
2022-12-02 14:55:59.861672, 1.88661
2022-12-02 14:55:59.870400, 1.83284
2022-12-02 14:55:59.878269, 1.79863
2022-12-02 14:55:59.889802, 1.72532
2022-12-02 14:55:59.897724, 1.68622
2022-12-02 14:55:59.906612, 1.65689
2022-12-02 14:55:59.914392, 1.61779
2022-12-02 14:55:59.927048, 1.60313
2022-12-02 14:55:59.935616, 1.59335
2022-12-02 14:55:59.943337, 1.58847
2022-12-02 14:55:59.956393, 1.60313
2022-12-02 14:55:59.964336, 1.61779
2022-12-02 14:55:59.972636, 1.61779
2022-12-02 14:55:59.980734, 1.63245
2022-12-02 14:55:59.993037, 1.64712
2022-12-02 14:56:00.001401, 1.65200
2022-12-02 14:56:00.009392, 1.66178
2022-12-02 14:56:00.020943, 1.66667
2022-12-02 14:56:00.029569, 1.65689
2022-12-02 14:56:00.037080, 1.65200
2022-12-02 14:56:00.045672, 1.64223
2022-12-02 14:56:00.058512, 1.62757
2022-12-02 14:56:00.066442, 1.60802
2022-12-02 14:56:00.074287, 1.58358
2022-12-02 14:56:00.087115, 1.56403
2022-12-02 14:56:00.094938, 1.54936
2022-12-02 14:56:00.103081, 1.52493
2022-12-02 14:56:00.111595, 1.50049
2022-12-02 14:56:00.123514, 1.48094
2022-12-02 14:56:00.132191, 1.46628
2022-12-02 14:56:00.139519, 1.45161
2022-12-02 14:56:00.148648, 1.43695
2022-12-02 14:56:00.161175, 1.43206
2022-12-02 14:56:00.169251, 1.41251
2022-12-02 14:56:00.177281, 1.39785
2022-12-02 14:56:00.189606, 1.39785
2022-12-02 14:56:00.197635, 1.37341
2022-12-02 14:56:00.205301, 1.36364
2022-12-02 14:56:00.213658, 1.35875
2022-12-02 14:56:00.226187, 1.36364
2022-12-02 14:56:00.233965, 1.38807
2022-12-02 14:56:00.241864, 1.46628
2022-12-02 14:56:00.254816, 1.56891
2022-12-02 14:56:00.262762, 1.70577
2022-12-02 14:56:00.271281, 1.87195
2022-12-02 14:56:00.278839, 2.02835
2022-12-02 14:56:00.291255, 2.17986
2022-12-02 14:56:00.299335, 2.30694
2022-12-02 14:56:00.307939, 2.39003
2022-12-02 14:56:00.320828, 2.43402
2022-12-02 14:56:00.328677, 2.43891
2022-12-02 14:56:00.337269, 2.40958
2022-12-02 14:56:00.345026, 2.35582
2022-12-02 14:56:00.357541, 2.29228
2022-12-02 14:56:00.365492, 2.21896
2022-12-02 14:56:00.374060, 2.15543
2022-12-02 14:56:00.385580, 2.07234
2022-12-02 14:56:00.393619, 2.01369
2022-12-02 14:56:00.402415, 1.94037
2022-12-02 14:56:00.410073, 1.88661
2022-12-02 14:56:00.423383, 1.84262
2022-12-02 14:56:00.430741, 1.77908
2022-12-02 14:56:00.439598, 1.73021
2022-12-02 14:56:00.451701, 1.70088
2022-12-02 14:56:00.459425, 1.64223
2022-12-02 14:56:00.468261, 1.61290
2022-12-02 14:56:00.476204, 1.60802
2022-12-02 14:56:00.488584, 1.56891
2022-12-02 14:56:00.496777, 1.55914
2022-12-02 14:56:00.504975, 1.58847
2022-12-02 14:56:00.517340, 1.57380
2022-12-02 14:56:00.525477, 1.58358
2022-12-02 14:56:00.533693, 1.63734
2022-12-02 14:56:00.541842, 1.61290
2022-12-02 14:56:00.553781, 1.62268
2022-12-02 14:56:00.562208, 1.64223
2022-12-02 14:56:00.570348, 1.63734
2022-12-02 14:56:00.581802, 1.63245
2022-12-02 14:56:00.590655, 1.66178
2022-12-02 14:56:00.598596, 1.61290
2022-12-02 14:56:00.607486, 1.59335
2022-12-02 14:56:00.619843, 1.61779
2022-12-02 14:56:00.627828, 1.55425
2022-12-02 14:56:00.636278, 1.53470
2022-12-02 14:56:00.647483, 1.53959
2022-12-02 14:56:00.656698, 1.49560
2022-12-02 14:56:00.664066, 1.47605
2022-12-02 14:56:00.672446, 1.48583
2022-12-02 14:56:00.684048, 1.44184
2022-12-02 14:56:00.692587, 1.42717
2022-12-02 14:56:00.700897, 1.44673
2022-12-02 14:56:00.713960, 1.39296
2022-12-02 14:56:00.721808, 1.37341
2022-12-02 14:56:00.730027, 1.39785
2022-12-02 14:56:00.738332, 1.34897
2022-12-02 14:56:00.750822, 1.33920
2022-12-02 14:56:00.758953, 1.32454
2022-12-02 14:56:00.767380, 1.31965
2022-12-02 14:56:00.779278, 1.32942
2022-12-02 14:56:00.787150, 1.34897
2022-12-02 14:56:00.795586, 1.40274
2022-12-02 14:56:00.804022, 1.49071
2022-12-02 14:56:00.815708, 1.61290
2022-12-02 14:56:00.824291, 1.75464
2022-12-02 14:56:00.831602, 1.91593
2022-12-02 14:56:00.844526, 2.06745
2022-12-02 14:56:00.853291, 2.19453
2022-12-02 14:56:00.861275, 2.29228
2022-12-02 14:56:00.869508, 2.35582
2022-12-02 14:56:00.880701, 2.36559
2022-12-02 14:56:00.889819, 2.35582
2022-12-02 14:56:00.897411, 2.31183
2022-12-02 14:56:00.910348, 2.25318
2022-12-02 14:56:00.918758, 2.18964
2022-12-02 14:56:00.926481, 2.10655
2022-12-02 14:56:00.935398, 2.04301
2022-12-02 14:56:00.947252, 1.97458
2022-12-02 14:56:00.955628, 1.92082
2022-12-02 14:56:00.963508, 1.86217
2022-12-02 14:56:00.976356, 1.81329
2022-12-02 14:56:00.984138, 1.76442
2022-12-02 14:56:00.992430, 1.71554
2022-12-02 14:56:01.000564, 1.67155
2022-12-02 14:56:01.012880, 1.63734
2022-12-02 14:56:01.021406, 1.59335
2022-12-02 14:56:01.029092, 1.56403
2022-12-02 14:56:01.036438, 1.55425
2022-12-02 14:56:01.049545, 1.53470
2022-12-02 14:56:01.056795, 1.53959
2022-12-02 14:56:01.065430, 1.54936
2022-12-02 14:56:01.077523, 1.56403
2022-12-02 14:56:01.086744, 1.57869
2022-12-02 14:56:01.094611, 1.59335
2022-12-02 14:56:01.102894, 1.64223
2022-12-02 14:56:01.115109, 1.61290
2022-12-02 14:56:01.123354, 1.62268
2022-12-02 14:56:01.131413, 1.64223
2022-12-02 14:56:01.143292, 1.60313
2022-12-02 14:56:01.152019, 1.59335
2022-12-02 14:56:01.159730, 1.58358
2022-12-02 14:56:01.168566, 1.55914
2022-12-02 14:56:01.180570, 1.53959
2022-12-02 14:56:01.189123, 1.54936
2022-12-02 14:56:01.197130, 1.50538
2022-12-02 14:56:01.209553, 1.48583
2022-12-02 14:56:01.217173, 1.50049
2022-12-02 14:56:01.225060, 1.44673
2022-12-02 14:56:01.233217, 1.42717
2022-12-02 14:56:01.246137, 1.41251
2022-12-02 14:56:01.254661, 1.39785
2022-12-02 14:56:01.262231, 1.38319
2022-12-02 14:56:01.274698, 1.37341
2022-12-02 14:56:01.282200, 1.35875
2022-12-02 14:56:01.291126, 1.34897
2022-12-02 14:56:01.299449, 1.33431
2022-12-02 14:56:01.311250, 1.31965
2022-12-02 14:56:01.319874, 1.32454
2022-12-02 14:56:01.327572, 1.30987
2022-12-02 14:56:01.339703, 1.31965
2022-12-02 14:56:01.347836, 1.34897
2022-12-02 14:56:01.356659, 1.40274
2022-12-02 14:56:01.364927, 1.50049
2022-12-02 14:56:01.377119, 1.63734
2022-12-02 14:56:01.385136, 1.78886
2022-12-02 14:56:01.393506, 1.94037
2022-12-02 14:56:01.405383, 2.08700
2022-12-02 14:56:01.413789, 2.19453
2022-12-02 14:56:01.422576, 2.27761
2022-12-02 14:56:01.430465, 2.31672
2022-12-02 14:56:01.442604, 2.32160
2022-12-02 14:56:01.451296, 2.29228
2022-12-02 14:56:01.459046, 2.24340
2022-12-02 14:56:01.471625, 2.18475
2022-12-02 14:56:01.479582, 2.11632
2022-12-02 14:56:01.487739, 2.05279
2022-12-02 14:56:01.495321, 1.98436
2022-12-02 14:56:01.508224, 1.93060
2022-12-02 14:56:01.516846, 1.90127
2022-12-02 14:56:01.524957, 1.82307
2022-12-02 14:56:01.537102, 1.77419
2022-12-02 14:56:01.545261, 1.73509
2022-12-02 14:56:01.553489, 1.67644
2022-12-02 14:56:01.561564, 1.62757
2022-12-02 14:56:01.574044, 1.58847
2022-12-02 14:56:01.581354, 1.53959
2022-12-02 14:56:01.590528, 1.52004
2022-12-02 14:56:01.601813, 1.50049
2022-12-02 14:56:01.610628, 1.48583
2022-12-02 14:56:01.619392, 1.49071
2022-12-02 14:56:01.627259, 1.51026
2022-12-02 14:56:01.639674, 1.50538
2022-12-02 14:56:01.647259, 1.51026
2022-12-02 14:56:01.655952, 1.54448
2022-12-02 14:56:01.668385, 1.51515
2022-12-02 14:56:01.676373, 1.51026
2022-12-02 14:56:01.684732, 1.52981
2022-12-02 14:56:01.692559, 1.48583
2022-12-02 14:56:01.704779, 1.46628
2022-12-02 14:56:01.713392, 1.43695
2022-12-02 14:56:01.721403, 1.41251
2022-12-02 14:56:01.733414, 1.37830
2022-12-02 14:56:01.741959, 1.34409
2022-12-02 14:56:01.749530, 1.30499
2022-12-02 14:56:01.758513, 1.27077
2022-12-02 14:56:01.770655, 1.22678
2022-12-02 14:56:01.778766, 1.18768
2022-12-02 14:56:01.787277, 1.16325
2022-12-02 14:56:01.799432, 1.12903
2022-12-02 14:56:01.807630, 1.10459
2022-12-02 14:56:01.815530, 1.09482
2022-12-02 14:56:01.823801, 1.07038
2022-12-02 14:56:01.836280, 1.05083
2022-12-02 14:56:01.844161, 1.04106
2022-12-02 14:56:01.852669, 1.02151
2022-12-02 14:56:01.860571, 1.01173
2022-12-02 14:56:01.872531, 1.00684
2022-12-02 14:56:01.880382, 0.98729
2022-12-02 14:56:01.889521, 0.98240
2022-12-02 14:56:01.901393, 0.98729
2022-12-02 14:56:01.909351, 1.01173
2022-12-02 14:56:01.917579, 1.07038
2022-12-02 14:56:01.926099, 1.18768
2022-12-02 14:56:01.938223, 1.31965
2022-12-02 14:56:01.946871, 1.49071
2022-12-02 14:56:01.955377, 1.71065
2022-12-02 14:56:01.967072, 1.86706
2022-12-02 14:56:01.975700, 2.02835
2022-12-02 14:56:01.983729, 2.13099
2022-12-02 14:56:01.991803, 2.19453
2022-12-02 14:56:02.004395, 2.22385
2022-12-02 14:56:02.012172, 2.19453
2022-12-02 14:56:02.020622, 2.16031
2022-12-02 14:56:02.032857, 2.09189
2022-12-02 14:56:02.041360, 2.02346
2022-12-02 14:56:02.049382, 1.95992
2022-12-02 14:56:02.057252, 1.90127
2022-12-02 14:56:02.069166, 1.84262
2022-12-02 14:56:02.077649, 1.80352
2022-12-02 14:56:02.086058, 1.74487
2022-12-02 14:56:02.097810, 1.70088
2022-12-02 14:56:02.105971, 1.66667
2022-12-02 14:56:02.114173, 1.61290
2022-12-02 14:56:02.122157, 1.56891
2022-12-02 14:56:02.134968, 1.54936
2022-12-02 14:56:02.143023, 1.49071
2022-12-02 14:56:02.150720, 1.46139
2022-12-02 14:56:02.162843, 1.45650
2022-12-02 14:56:02.171609, 1.45161
2022-12-02 14:56:02.180119, 1.45650
2022-12-02 14:56:02.187765, 1.47605
2022-12-02 14:56:02.200748, 1.49071
2022-12-02 14:56:02.208943, 1.50538
2022-12-02 14:56:02.217399, 1.52981
2022-12-02 14:56:02.229437, 1.54448
2022-12-02 14:56:02.237159, 1.55425
2022-12-02 14:56:02.245869, 1.55425
2022-12-02 14:56:02.253708, 1.55425
2022-12-02 14:56:02.266089, 1.54936
2022-12-02 14:56:02.274472, 1.55914
2022-12-02 14:56:02.282784, 1.52981
2022-12-02 14:56:02.294962, 1.51515
2022-12-02 14:56:02.303399, 1.52004
2022-12-02 14:56:02.311092, 1.48583
2022-12-02 14:56:02.319651, 1.47116
2022-12-02 14:56:02.331722, 1.48583
2022-12-02 14:56:02.340392, 1.43695
2022-12-02 14:56:02.348037, 1.40762
2022-12-02 14:56:02.359968, 1.39785
2022-12-02 14:56:02.368770, 1.38319
2022-12-02 14:56:02.376770, 1.35875
2022-12-02 14:56:02.385402, 1.37341
2022-12-02 14:56:02.396796, 1.32454
2022-12-02 14:56:02.405291, 1.31476
2022-12-02 14:56:02.413505, 1.32942
2022-12-02 14:56:02.425817, 1.28543
2022-12-02 14:56:02.433811, 1.27077
2022-12-02 14:56:02.442058, 1.28055
2022-12-02 14:56:02.450526, 1.26588
2022-12-02 14:56:02.462834, 1.29032
2022-12-02 14:56:02.470585, 1.35386
2022-12-02 14:56:02.479378, 1.43206
2022-12-02 14:56:02.491250, 1.55425
2022-12-02 14:56:02.499722, 1.70088
2022-12-02 14:56:02.507672, 1.86217
2022-12-02 14:56:02.516376, 2.01369
2022-12-02 14:56:02.528148, 2.17498
2022-12-02 14:56:02.536698, 2.23363
2022-12-02 14:56:02.544476, 2.28250
2022-12-02 14:56:02.557290, 2.30694
2022-12-02 14:56:02.565363, 2.29228
2022-12-02 14:56:02.573760, 2.25318
2022-12-02 14:56:02.581679, 2.18964
2022-12-02 14:56:02.593404, 2.13099
2022-12-02 14:56:02.601917, 2.07234
2022-12-02 14:56:02.610278, 2.00391
2022-12-02 14:56:02.622348, 1.95015
2022-12-02 14:56:02.630093, 1.88661
2022-12-02 14:56:02.638062, 1.83773
2022-12-02 14:56:02.646613, 1.79374
2022-12-02 14:56:02.659092, 1.74487
2022-12-02 14:56:02.667056, 1.70088
2022-12-02 14:56:02.675656, 1.69110
2022-12-02 14:56:02.688395, 1.61779
2022-12-02 14:56:02.696366, 1.57380
2022-12-02 14:56:02.704573, 1.57869
2022-12-02 14:56:02.712747, 1.53470
2022-12-02 14:56:02.724290, 1.53959
2022-12-02 14:56:02.732572, 1.52981
2022-12-02 14:56:02.740421, 1.53470
2022-12-02 14:56:02.748604, 1.55425
2022-12-02 14:56:02.761546, 1.55914
2022-12-02 14:56:02.769779, 1.57380
2022-12-02 14:56:02.778120, 1.58847
2022-12-02 14:56:02.790295, 1.58358
2022-12-02 14:56:02.798768, 1.57869
2022-12-02 14:56:02.806906, 1.60802
2022-12-02 14:56:02.815413, 1.56891
2022-12-02 14:56:02.827119, 1.56403
2022-12-02 14:56:02.835710, 1.55425
2022-12-02 14:56:02.843086, 1.54448
2022-12-02 14:56:02.856201, 1.52493
2022-12-02 14:56:02.863727, 1.54448
2022-12-02 14:56:02.872503, 1.49071
2022-12-02 14:56:02.880406, 1.47605
2022-12-02 14:56:02.892932, 1.45161
2022-12-02 14:56:02.901164, 1.43695
2022-12-02 14:56:02.909241, 1.42229
2022-12-02 14:56:02.921637, 1.40274
2022-12-02 14:56:02.929470, 1.38807
2022-12-02 14:56:02.937984, 1.36852
2022-12-02 14:56:02.945969, 1.34409
2022-12-02 14:56:02.958108, 1.32942
2022-12-02 14:56:02.966822, 1.30987
2022-12-02 14:56:02.974690, 1.30010
2022-12-02 14:56:02.987287, 1.30010
2022-12-02 14:56:02.995387, 1.30987
2022-12-02 14:56:03.003464, 1.32942
2022-12-02 14:56:03.011591, 1.37830
2022-12-02 14:56:03.024293, 1.46628
2022-12-02 14:56:03.032298, 1.58847
2022-12-02 14:56:03.040549, 1.73998
2022-12-02 14:56:03.052724, 1.93060
2022-12-02 14:56:03.060819, 2.04301
2022-12-02 14:56:03.068941, 2.17498
2022-12-02 14:56:03.076887, 2.25318
2022-12-02 14:56:03.089483, 2.30694
2022-12-02 14:56:03.097096, 2.34115
2022-12-02 14:56:03.105919, 2.29717
2022-12-02 14:56:03.118300, 2.27761
2022-12-02 14:56:03.125283, 2.19941
2022-12-02 14:56:03.134580, 2.17009
2022-12-02 14:56:03.142483, 2.06256
2022-12-02 14:56:03.155295, 2.01369
2022-12-02 14:56:03.162945, 1.94037
2022-12-02 14:56:03.171826, 1.88661
2022-12-02 14:56:03.183701, 1.87195
2022-12-02 14:56:03.191558, 1.78886
2022-12-02 14:56:03.200113, 1.73998
2022-12-02 14:56:03.208554, 1.69599
2022-12-02 14:56:03.220324, 1.65200
2022-12-02 14:56:03.228912, 1.61290
2022-12-02 14:56:03.237398, 1.57380
2022-12-02 14:56:03.248464, 1.54936
2022-12-02 14:56:03.257497, 1.57869
2022-12-02 14:56:03.265587, 1.53959
2022-12-02 14:56:03.273124, 1.54448
2022-12-02 14:56:03.285114, 1.54936
2022-12-02 14:56:03.294147, 1.56403
2022-12-02 14:56:03.302711, 1.58358
2022-12-02 14:56:03.314835, 1.58358
2022-12-02 14:56:03.323379, 1.59824
2022-12-02 14:56:03.330870, 1.61779
2022-12-02 14:56:03.339263, 1.59335
2022-12-02 14:56:03.351818, 1.58847
2022-12-02 14:56:03.359690, 1.58358
2022-12-02 14:56:03.368386, 1.55914
2022-12-02 14:56:03.379699, 1.53959
2022-12-02 14:56:03.388779, 1.52493
2022-12-02 14:56:03.396446, 1.49560
2022-12-02 14:56:03.405004, 1.47605
2022-12-02 14:56:03.417395, 1.45650
2022-12-02 14:56:03.425509, 1.42717
2022-12-02 14:56:03.433633, 1.40762
2022-12-02 14:56:03.446057, 1.38807
2022-12-02 14:56:03.454391, 1.35875
2022-12-02 14:56:03.462327, 1.33431
2022-12-02 14:56:03.470535, 1.33431
2022-12-02 14:56:03.482563, 1.30010
2022-12-02 14:56:03.491428, 1.28055
2022-12-02 14:56:03.498913, 1.28543
2022-12-02 14:56:03.511378, 1.24145
2022-12-02 14:56:03.519770, 1.22190
2022-12-02 14:56:03.527667, 1.22190
2022-12-02 14:56:03.536404, 1.24145
2022-12-02 14:56:03.548145, 1.29521
2022-12-02 14:56:03.556014, 1.38807
2022-12-02 14:56:03.563808, 1.51515
2022-12-02 14:56:03.577020, 1.67644
2022-12-02 14:56:03.585128, 1.82307
2022-12-02 14:56:03.593484, 1.96481
2022-12-02 14:56:03.601479, 2.10166
2022-12-02 14:56:03.613146, 2.16520
2022-12-02 14:56:03.620798, 2.21408
2022-12-02 14:56:03.629578, 2.25318
2022-12-02 14:56:03.638504, 2.20919
2022-12-02 14:56:03.650377, 2.16520
2022-12-02 14:56:03.658593, 2.11144
2022-12-02 14:56:03.666874, 2.05767
2022-12-02 14:56:03.679410, 2.04790
2022-12-02 14:56:03.687742, 1.95992
2022-12-02 14:56:03.695912, 1.92571
2022-12-02 14:56:03.703125, 1.86706
2022-12-02 14:56:03.716399, 1.82307
2022-12-02 14:56:03.724440, 1.77908
2022-12-02 14:56:03.732633, 1.73021
2022-12-02 14:56:03.743934, 1.68622
2022-12-02 14:56:03.753395, 1.63734
2022-12-02 14:56:03.761150, 1.62268
2022-12-02 14:56:03.769534, 1.56891
2022-12-02 14:56:03.781504, 1.55425
2022-12-02 14:56:03.789322, 1.54448
2022-12-02 14:56:03.798399, 1.54448
2022-12-02 14:56:03.810057, 1.55914
2022-12-02 14:56:03.818578, 1.56403
2022-12-02 14:56:03.826476, 1.57380
2022-12-02 14:56:03.835264, 1.58847
2022-12-02 14:56:03.846298, 1.59335
2022-12-02 14:56:03.854719, 1.60313
2022-12-02 14:56:03.863820, 1.62757
2022-12-02 14:56:03.875496, 1.61779
2022-12-02 14:56:03.884244, 1.61290
2022-12-02 14:56:03.891978, 1.64223
2022-12-02 14:56:03.900202, 1.58847
2022-12-02 14:56:03.912463, 1.57380
2022-12-02 14:56:03.921004, 1.54936
2022-12-02 14:56:03.929292, 1.52493
2022-12-02 14:56:03.941162, 1.51026
2022-12-02 14:56:03.949768, 1.48094
2022-12-02 14:56:03.957841, 1.46139
2022-12-02 14:56:03.966217, 1.44673
2022-12-02 14:56:03.978153, 1.42717
2022-12-02 14:56:03.986512, 1.40762
2022-12-02 14:56:03.994642, 1.38807
2022-12-02 14:56:04.006446, 1.37341
2022-12-02 14:56:04.015281, 1.35386
2022-12-02 14:56:04.022821, 1.34409
2022-12-02 14:56:04.031717, 1.32454
2022-12-02 14:56:04.043809, 1.31965
2022-12-02 14:56:04.052198, 1.34897
2022-12-02 14:56:04.060061, 1.37830
2022-12-02 14:56:04.072711, 1.45650
2022-12-02 14:56:04.080460, 1.57380
2022-12-02 14:56:04.089117, 1.71065
2022-12-02 14:56:04.097263, 1.86706
2022-12-02 14:56:04.109266, 2.03812
2022-12-02 14:56:04.117512, 2.15054
2022-12-02 14:56:04.125710, 2.25318
2022-12-02 14:56:04.137911, 2.33138
2022-12-02 14:56:04.145846, 2.33627
2022-12-02 14:56:04.154163, 2.33138
2022-12-02 14:56:04.162506, 2.32160
2022-12-02 14:56:04.174583, 2.23363
2022-12-02 14:56:04.183414, 2.17009
2022-12-02 14:56:04.190441, 2.10166
2022-12-02 14:56:04.203716, 2.02835
2022-12-02 14:56:04.211778, 1.95992
2022-12-02 14:56:04.219992, 1.91105
2022-12-02 14:56:04.228214, 1.85239
2022-12-02 14:56:04.240564, 1.80352
2022-12-02 14:56:04.248835, 1.76442
2022-12-02 14:56:04.257007, 1.71554
2022-12-02 14:56:04.269301, 1.66667
2022-12-02 14:56:04.276701, 1.64712
2022-12-02 14:56:04.285761, 1.58358
2022-12-02 14:56:04.293536, 1.54936
2022-12-02 14:56:04.305833, 1.52981
2022-12-02 14:56:04.313863, 1.51515
2022-12-02 14:56:04.322398, 1.52493
2022-12-02 14:56:04.334881, 1.52004
2022-12-02 14:56:04.342441, 1.52981
2022-12-02 14:56:04.351296, 1.56403
2022-12-02 14:56:04.358594, 1.55914
2022-12-02 14:56:04.371728, 1.56891
2022-12-02 14:56:04.379131, 1.58847
2022-12-02 14:56:04.387775, 1.58358
2022-12-02 14:56:04.400434, 1.58847
2022-12-02 14:56:04.408523, 1.59335
2022-12-02 14:56:04.416747, 1.58358
2022-12-02 14:56:04.424402, 1.57380
2022-12-02 14:56:04.436692, 1.56403
2022-12-02 14:56:04.445438, 1.53470
2022-12-02 14:56:04.452634, 1.51026
2022-12-02 14:56:04.461751, 1.49071
2022-12-02 14:56:04.473821, 1.46139
2022-12-02 14:56:04.481953, 1.44184
2022-12-02 14:56:04.490321, 1.43206
2022-12-02 14:56:04.502851, 1.41251
2022-12-02 14:56:04.510630, 1.39785
2022-12-02 14:56:04.519127, 1.38807
2022-12-02 14:56:04.527240, 1.36364
2022-12-02 14:56:04.539692, 1.34897
2022-12-02 14:56:04.547509, 1.33431
2022-12-02 14:56:04.555976, 1.32454
2022-12-02 14:56:04.567887, 1.32942
2022-12-02 14:56:04.576233, 1.36852
2022-12-02 14:56:04.584747, 1.43695
2022-12-02 14:56:04.592537, 1.53959
2022-12-02 14:56:04.604071, 1.67644
2022-12-02 14:56:04.612569, 1.82307
2022-12-02 14:56:04.621319, 1.96970
2022-12-02 14:56:04.632820, 2.11144
2022-12-02 14:56:04.641067, 2.19941
2022-12-02 14:56:04.649989, 2.26784
2022-12-02 14:56:04.657993, 2.30205
2022-12-02 14:56:04.670696, 2.29228
2022-12-02 14:56:04.678801, 2.25806
2022-12-02 14:56:04.687182, 2.24340
2022-12-02 14:56:04.699349, 2.14076
2022-12-02 14:56:04.707528, 2.07234
2022-12-02 14:56:04.715649, 1.99902
2022-12-02 14:56:04.723867, 1.93548
2022-12-02 14:56:04.736301, 1.87683
2022-12-02 14:56:04.744083, 1.82307
2022-12-02 14:56:04.752671, 1.77908
2022-12-02 14:56:04.764134, 1.72043
2022-12-02 14:56:04.772911, 1.67155
2022-12-02 14:56:04.780586, 1.62268
2022-12-02 14:56:04.789045, 1.56891
2022-12-02 14:56:04.800833, 1.52493
2022-12-02 14:56:04.809451, 1.49560
2022-12-02 14:56:04.817889, 1.51515
2022-12-02 14:56:04.829219, 1.47116
2022-12-02 14:56:04.838617, 1.47605
2022-12-02 14:56:04.845747, 1.47605
2022-12-02 14:56:04.854920, 1.49071
2022-12-02 14:56:04.866532, 1.50049
2022-12-02 14:56:04.874919, 1.50538
2022-12-02 14:56:04.883354, 1.52004
2022-12-02 14:56:04.895967, 1.52981
2022-12-02 14:56:04.904403, 1.53470
2022-12-02 14:56:04.912524, 1.52981
2022-12-02 14:56:04.920612, 1.53470
2022-12-02 14:56:04.932777, 1.52004
2022-12-02 14:56:04.940558, 1.51026
2022-12-02 14:56:04.949410, 1.49071
2022-12-02 14:56:04.961197, 1.46628
2022-12-02 14:56:04.969638, 1.44184
2022-12-02 14:56:04.977747, 1.42717
2022-12-02 14:56:04.985837, 1.39785
2022-12-02 14:56:04.998292, 1.36852
2022-12-02 14:56:05.006411, 1.34897
2022-12-02 14:56:05.014014, 1.31965
2022-12-02 14:56:05.026705, 1.30010
2022-12-02 14:56:05.035050, 1.28543
2022-12-02 14:56:05.042736, 1.25611
2022-12-02 14:56:05.050859, 1.23656
2022-12-02 14:56:05.063463, 1.25611
2022-12-02 14:56:05.072413, 1.21212
2022-12-02 14:56:05.080334, 1.21212
2022-12-02 14:56:05.092583, 1.27077
2022-12-02 14:56:05.100832, 1.29521
2022-12-02 14:56:05.108715, 1.38807
2022-12-02 14:56:05.117307, 1.56403
2022-12-02 14:56:05.128909, 1.68133
2022-12-02 14:56:05.137587, 1.83773
2022-12-02 14:56:05.145522, 1.99902
2022-12-02 14:56:05.157474, 2.09677
2022-12-02 14:56:05.166419, 2.16520
2022-12-02 14:56:05.173451, 2.20919
2022-12-02 14:56:05.182776, 2.19453
2022-12-02 14:56:05.194215, 2.16520
2022-12-02 14:56:05.202849, 2.13587
2022-12-02 14:56:05.210680, 2.04790
2022-12-02 14:56:05.223280, 1.98925
2022-12-02 14:56:05.231398, 1.91105
2022-12-02 14:56:05.239534, 1.85728
2022-12-02 14:56:05.247883, 1.78886
2022-12-02 14:56:05.259557, 1.72532
2022-12-02 14:56:05.268409, 1.66667
2022-12-02 14:56:05.276706, 1.59824
2022-12-02 14:56:05.288611, 1.53959
2022-12-02 14:56:05.297023, 1.51515
2022-12-02 14:56:05.305013, 1.42717
2022-12-02 14:56:05.313432, 1.38807
2022-12-02 14:56:05.325398, 1.39785
2022-12-02 14:56:05.333942, 1.35386
2022-12-02 14:56:05.342089, 1.33920
2022-12-02 14:56:05.349908, 1.33920
2022-12-02 14:56:05.362024, 1.34409
2022-12-02 14:56:05.370262, 1.35875
2022-12-02 14:56:05.378692, 1.36852
2022-12-02 14:56:05.391223, 1.38807
2022-12-02 14:56:05.399481, 1.41251
2022-12-02 14:56:05.407602, 1.41740
2022-12-02 14:56:05.416207, 1.43206
2022-12-02 14:56:05.428074, 1.43695
2022-12-02 14:56:05.436586, 1.42717
2022-12-02 14:56:05.444724, 1.41740
2022-12-02 14:56:05.457250, 1.41251
2022-12-02 14:56:05.464719, 1.38807
2022-12-02 14:56:05.473465, 1.36852
2022-12-02 14:56:05.481576, 1.35386
2022-12-02 14:56:05.493865, 1.32942
2022-12-02 14:56:05.502415, 1.30987
2022-12-02 14:56:05.510087, 1.28543
2022-12-02 14:56:05.522033, 1.26588
2022-12-02 14:56:05.530809, 1.24633
2022-12-02 14:56:05.538927, 1.24145
2022-12-02 14:56:05.546941, 1.20723
2022-12-02 14:56:05.558747, 1.18768
2022-12-02 14:56:05.567638, 1.18280
2022-12-02 14:56:05.575614, 1.15347
2022-12-02 14:56:05.587880, 1.13392
2022-12-02 14:56:05.595534, 1.12903
2022-12-02 14:56:05.604549, 1.11926
2022-12-02 14:56:05.612305, 1.13392
2022-12-02 14:56:05.624764, 1.22190
2022-12-02 14:56:05.633307, 1.27077
2022-12-02 14:56:05.641268, 1.40274
2022-12-02 14:56:05.653200, 1.55425
2022-12-02 14:56:05.661291, 1.72043
2022-12-02 14:56:05.670416, 1.91105
2022-12-02 14:56:05.678402, 2.01857
2022-12-02 14:56:05.690483, 2.11144
2022-12-02 14:56:05.698504, 2.17498
2022-12-02 14:56:05.705973, 2.17009
2022-12-02 14:56:05.719395, 2.15054
2022-12-02 14:56:05.727162, 2.09677
2022-12-02 14:56:05.735295, 2.03324
2022-12-02 14:56:05.744055, 1.95992
2022-12-02 14:56:05.756307, 1.87195
2022-12-02 14:56:05.764309, 1.79863
2022-12-02 14:56:05.772470, 1.73509
2022-12-02 14:56:05.784164, 1.64712
2022-12-02 14:56:05.792689, 1.58358
2022-12-02 14:56:05.801121, 1.55914
2022-12-02 14:56:05.808951, 1.46628
2022-12-02 14:56:05.821427, 1.41740
2022-12-02 14:56:05.829703, 1.37341
2022-12-02 14:56:05.837620, 1.33431
2022-12-02 14:56:05.849796, 1.30499
2022-12-02 14:56:05.857583, 1.28055
2022-12-02 14:56:05.866551, 1.26588
2022-12-02 14:56:05.874911, 1.28543
2022-12-02 14:56:05.887417, 1.27566
2022-12-02 14:56:05.895333, 1.29521
2022-12-02 14:56:05.903660, 1.31965
2022-12-02 14:56:05.915859, 1.34409
2022-12-02 14:56:05.923694, 1.36852
2022-12-02 14:56:05.932424, 1.40274
2022-12-02 14:56:05.940447, 1.39296
2022-12-02 14:56:05.952745, 1.40274
2022-12-02 14:56:05.960460, 1.39785
2022-12-02 14:56:05.969310, 1.39296
2022-12-02 14:56:05.981491, 1.38319
2022-12-02 14:56:05.989548, 1.36364
2022-12-02 14:56:05.997674, 1.34409
2022-12-02 14:56:06.006461, 1.33431
2022-12-02 14:56:06.018031, 1.31476
2022-12-02 14:56:06.026513, 1.29521
2022-12-02 14:56:06.034573, 1.28055
2022-12-02 14:56:06.046366, 1.25611
2022-12-02 14:56:06.055418, 1.24145
2022-12-02 14:56:06.062947, 1.23167
2022-12-02 14:56:06.071502, 1.21701
2022-12-02 14:56:06.083367, 1.20723
2022-12-02 14:56:06.091768, 1.21212
2022-12-02 14:56:06.099295, 1.19746
2022-12-02 14:56:06.112004, 1.18280
2022-12-02 14:56:06.120381, 1.16813
2022-12-02 14:56:06.128428, 1.14858
2022-12-02 14:56:06.137146, 1.14858
2022-12-02 14:56:06.148983, 1.21212
2022-12-02 14:56:06.157545, 1.25122
2022-12-02 14:56:06.165626, 1.36364
2022-12-02 14:56:06.177605, 1.51515
2022-12-02 14:56:06.185844, 1.68622
2022-12-02 14:56:06.194233, 1.85239
2022-12-02 14:56:06.202449, 1.99902
2022-12-02 14:56:06.214930, 2.11144
2022-12-02 14:56:06.223285, 2.18475
2022-12-02 14:56:06.231428, 2.20919
2022-12-02 14:56:06.239426, 2.19941
2022-12-02 14:56:06.251334, 2.16031
2022-12-02 14:56:06.259722, 2.10655
2022-12-02 14:56:06.268610, 2.03324
2022-12-02 14:56:06.279565, 1.95503
2022-12-02 14:56:06.288653, 1.87683
2022-12-02 14:56:06.296633, 1.80352
2022-12-02 14:56:06.304324, 1.73021
2022-12-02 14:56:06.317313, 1.66667
2022-12-02 14:56:06.325438, 1.60802
2022-12-02 14:56:06.332846, 1.54448
2022-12-02 14:56:06.345113, 1.49071
2022-12-02 14:56:06.353142, 1.44184
2022-12-02 14:56:06.361446, 1.40274
2022-12-02 14:56:06.370045, 1.37830
2022-12-02 14:56:06.382434, 1.39785
2022-12-02 14:56:06.389753, 1.35875
2022-12-02 14:56:06.398676, 1.37830
2022-12-02 14:56:06.410616, 1.38807
2022-12-02 14:56:06.419310, 1.41251
2022-12-02 14:56:06.427146, 1.45161
2022-12-02 14:56:06.434868, 1.48583
2022-12-02 14:56:06.448056, 1.51515
2022-12-02 14:56:06.456431, 1.53959
2022-12-02 14:56:06.464802, 1.56403
2022-12-02 14:56:06.476842, 1.57380
2022-12-02 14:56:06.485417, 1.57380
2022-12-02 14:56:06.493122, 1.57380
2022-12-02 14:56:06.501553, 1.56403
2022-12-02 14:56:06.513758, 1.54936
2022-12-02 14:56:06.522005, 1.53470
2022-12-02 14:56:06.529774, 1.52493
2022-12-02 14:56:06.541676, 1.50049
2022-12-02 14:56:06.550692, 1.48583
2022-12-02 14:56:06.559027, 1.50538
2022-12-02 14:56:06.567245, 1.45650
2022-12-02 14:56:06.578376, 1.44673
2022-12-02 14:56:06.587578, 1.46628
2022-12-02 14:56:06.595238, 1.40762
2022-12-02 14:56:06.608137, 1.39296
2022-12-02 14:56:06.616325, 1.37830
2022-12-02 14:56:06.623713, 1.37341
2022-12-02 14:56:06.632594, 1.37341
2022-12-02 14:56:06.644879, 1.34409
2022-12-02 14:56:06.653337, 1.33920
2022-12-02 14:56:06.661197, 1.38807
2022-12-02 14:56:06.672748, 1.37830
2022-12-02 14:56:06.681530, 1.45161
2022-12-02 14:56:06.689850, 1.58358
2022-12-02 14:56:06.697828, 1.71554
2022-12-02 14:56:06.710065, 1.90127
2022-12-02 14:56:06.718751, 2.07722
2022-12-02 14:56:06.726787, 2.23851
2022-12-02 14:56:06.739048, 2.40469
2022-12-02 14:56:06.747297, 2.45846
2022-12-02 14:56:06.755235, 2.50244
2022-12-02 14:56:06.763595, 2.49756
2022-12-02 14:56:06.775827, 2.46823
2022-12-02 14:56:06.784129, 2.41447
2022-12-02 14:56:06.792377, 2.33627
2022-12-02 14:56:06.804184, 2.25806
2022-12-02 14:56:06.812690, 2.17986
2022-12-02 14:56:06.820449, 2.10166
2022-12-02 14:56:06.828705, 2.04790
2022-12-02 14:56:06.840672, 1.95992
2022-12-02 14:56:06.849494, 1.89638
2022-12-02 14:56:06.857051, 1.85239
2022-12-02 14:56:06.869141, 1.77908
2022-12-02 14:56:06.878381, 1.73509
2022-12-02 14:56:06.886392, 1.69110
2022-12-02 14:56:06.894689, 1.65200
2022-12-02 14:56:06.906774, 1.62757
2022-12-02 14:56:06.915332, 1.60802
2022-12-02 14:56:06.923543, 1.60313
2022-12-02 14:56:06.935756, 1.61290
2022-12-02 14:56:06.943756, 1.62268
2022-12-02 14:56:06.952446, 1.64223
2022-12-02 14:56:06.960420, 1.67155
2022-12-02 14:56:06.972493, 1.68622
2022-12-02 14:56:06.980825, 1.70088
2022-12-02 14:56:06.988461, 1.72043
2022-12-02 14:56:07.001447, 1.72532
2022-12-02 14:56:07.009212, 1.72043
2022-12-02 14:56:07.017645, 1.72532
2022-12-02 14:56:07.025589, 1.71065
2022-12-02 14:56:07.038429, 1.69599
2022-12-02 14:56:07.045894, 1.68133
2022-12-02 14:56:07.054487, 1.65689
2022-12-02 14:56:07.062474, 1.63245
2022-12-02 14:56:07.074503, 1.61779
2022-12-02 14:56:07.083431, 1.57869
2022-12-02 14:56:07.090728, 1.54936
2022-12-02 14:56:07.103476, 1.56403
2022-12-02 14:56:07.111783, 1.50538
2022-12-02 14:56:07.119865, 1.49071
2022-12-02 14:56:07.127989, 1.48583
2022-12-02 14:56:07.140131, 1.46628
2022-12-02 14:56:07.148392, 1.45161
2022-12-02 14:56:07.156585, 1.43206
2022-12-02 14:56:07.168724, 1.41251
2022-12-02 14:56:07.177484, 1.40274
2022-12-02 14:56:07.185526, 1.38319
2022-12-02 14:56:07.193610, 1.39296
2022-12-02 14:56:07.205235, 1.43206
2022-12-02 14:56:07.214319, 1.49560
2022-12-02 14:56:07.221714, 1.61290
2022-12-02 14:56:07.234855, 1.79863
2022-12-02 14:56:07.243001, 1.93060
2022-12-02 14:56:07.251086, 2.10166
2022-12-02 14:56:07.258970, 2.26784
2022-12-02 14:56:07.271435, 2.37048
2022-12-02 14:56:07.279602, 2.44868
2022-12-02 14:56:07.288178, 2.49267
2022-12-02 14:56:07.300007, 2.49756
2022-12-02 14:56:07.308122, 2.45846
2022-12-02 14:56:07.316293, 2.39980
2022-12-02 14:56:07.324574, 2.33627
2022-12-02 14:56:07.337315, 2.24829
2022-12-02 14:56:07.344578, 2.16031
2022-12-02 14:56:07.353053, 2.09189
2022-12-02 14:56:07.364907, 2.00880
2022-12-02 14:56:07.373706, 1.94526
2022-12-02 14:56:07.382413, 1.88661
2022-12-02 14:56:07.390203, 1.82307
2022-12-02 14:56:07.402595, 1.76931
2022-12-02 14:56:07.410783, 1.70577
2022-12-02 14:56:07.419318, 1.66178
2022-12-02 14:56:07.431454, 1.63245
2022-12-02 14:56:07.439548, 1.58847
2022-12-02 14:56:07.447851, 1.57380
2022-12-02 14:56:07.455516, 1.58358
2022-12-02 14:56:07.467625, 1.58358
2022-12-02 14:56:07.475761, 1.59335
2022-12-02 14:56:07.483941, 1.61779
2022-12-02 14:56:07.496502, 1.62268
2022-12-02 14:56:07.504662, 1.64223
2022-12-02 14:56:07.513013, 1.68622
2022-12-02 14:56:07.520434, 1.66178
2022-12-02 14:56:07.533332, 1.66178
2022-12-02 14:56:07.540617, 1.67155
2022-12-02 14:56:07.549940, 1.66667
2022-12-02 14:56:07.561873, 1.66178
2022-12-02 14:56:07.570056, 1.64223
2022-12-02 14:56:07.578586, 1.62268
2022-12-02 14:56:07.586584, 1.60802
2022-12-02 14:56:07.598084, 1.57380
2022-12-02 14:56:07.606879, 1.54936
2022-12-02 14:56:07.615483, 1.52493
2022-12-02 14:56:07.627954, 1.50049
2022-12-02 14:56:07.636133, 1.48094
2022-12-02 14:56:07.644369, 1.46628
2022-12-02 14:56:07.652404, 1.48583
2022-12-02 14:56:07.664831, 1.44184
2022-12-02 14:56:07.672973, 1.43206
2022-12-02 14:56:07.681425, 1.41740
2022-12-02 14:56:07.692819, 1.40762
2022-12-02 14:56:07.701720, 1.39296
2022-12-02 14:56:07.709724, 1.37341
2022-12-02 14:56:07.718415, 1.35875
2022-12-02 14:56:07.729967, 1.34897
2022-12-02 14:56:07.738490, 1.34897
2022-12-02 14:56:07.746597, 1.37341
2022-12-02 14:56:07.758472, 1.43206
2022-12-02 14:56:07.767461, 1.53470
2022-12-02 14:56:07.774946, 1.68133
2022-12-02 14:56:07.783568, 1.84262
2022-12-02 14:56:07.795693, 2.01369
2022-12-02 14:56:07.804436, 2.18475
2022-12-02 14:56:07.812098, 2.29717
2022-12-02 14:56:07.824381, 2.39003
2022-12-02 14:56:07.832760, 2.45846
2022-12-02 14:56:07.840909, 2.44868
2022-12-02 14:56:07.849322, 2.42424
2022-12-02 14:56:07.861466, 2.36559
2022-12-02 14:56:07.869613, 2.29717
2022-12-02 14:56:07.877933, 2.21408
2022-12-02 14:56:07.889891, 2.13587
2022-12-02 14:56:07.898136, 2.06745
2022-12-02 14:56:07.906244, 1.99902
2022-12-02 14:56:07.914529, 1.93060
2022-12-02 14:56:07.926716, 1.88172
2022-12-02 14:56:07.935484, 1.81329
2022-12-02 14:56:07.943286, 1.75953
2022-12-02 14:56:07.951705, 1.70088
2022-12-02 14:56:07.963826, 1.66667
2022-12-02 14:56:07.972310, 1.60802
2022-12-02 14:56:07.980320, 1.57380
2022-12-02 14:56:07.992258, 1.54936
2022-12-02 14:56:07.999799, 1.54448
2022-12-02 14:56:08.008326, 1.55425
2022-12-02 14:56:08.017423, 1.56403
2022-12-02 14:56:08.028899, 1.57869
2022-12-02 14:56:08.037579, 1.60313
2022-12-02 14:56:08.045577, 1.61290
2022-12-02 14:56:08.057657, 1.63245
2022-12-02 14:56:08.065816, 1.64712
2022-12-02 14:56:08.073903, 1.65200
2022-12-02 14:56:08.082498, 1.65200
2022-12-02 14:56:08.094500, 1.65689
2022-12-02 14:56:08.103462, 1.64223
2022-12-02 14:56:08.111351, 1.62757
2022-12-02 14:56:08.123395, 1.60802
2022-12-02 14:56:08.131641, 1.57869
2022-12-02 14:56:08.139675, 1.55425
2022-12-02 14:56:08.148420, 1.54448
2022-12-02 14:56:08.159869, 1.50538
2022-12-02 14:56:08.167686, 1.48094
2022-12-02 14:56:08.176933, 1.46139
2022-12-02 14:56:08.188882, 1.44184
2022-12-02 14:56:08.197221, 1.42717
2022-12-02 14:56:08.204840, 1.45161
2022-12-02 14:56:08.213517, 1.39785
2022-12-02 14:56:08.225590, 1.38319
2022-12-02 14:56:08.233812, 1.38807
2022-12-02 14:56:08.242111, 1.34409
2022-12-02 14:56:08.254696, 1.32942
2022-12-02 14:56:08.262691, 1.30987
2022-12-02 14:56:08.271316, 1.29032
2022-12-02 14:56:08.278766, 1.28055
2022-12-02 14:56:08.291108, 1.28055
2022-12-02 14:56:08.299674, 1.30499
2022-12-02 14:56:08.307586, 1.36364
2022-12-02 14:56:08.320437, 1.45650
2022-12-02 14:56:08.328048, 1.59335
2022-12-02 14:56:08.336573, 1.74976
2022-12-02 14:56:08.343805, 1.91593
2022-12-02 14:56:08.356321, 2.09189
2022-12-02 14:56:08.365148, 2.19941
2022-12-02 14:56:08.372951, 2.29717
2022-12-02 14:56:08.385197, 2.38025
2022-12-02 14:56:08.393004, 2.35093
2022-12-02 14:56:08.401491, 2.33138
2022-12-02 14:56:08.409510, 2.27761
2022-12-02 14:56:08.421927, 2.21408
2022-12-02 14:56:08.430550, 2.14076
2022-12-02 14:56:08.438454, 2.06745
2022-12-02 14:56:08.450347, 1.98925
2022-12-02 14:56:08.458484, 1.91593
2022-12-02 14:56:08.466791, 1.84751
2022-12-02 14:56:08.475615, 1.77419
2022-12-02 14:56:08.488150, 1.71554
2022-12-02 14:56:08.495891, 1.65689
2022-12-02 14:56:08.504496, 1.59335
2022-12-02 14:56:08.516840, 1.53470
2022-12-02 14:56:08.524480, 1.49071
2022-12-02 14:56:08.533244, 1.45161
2022-12-02 14:56:08.541241, 1.42229
2022-12-02 14:56:08.553583, 1.41740
2022-12-02 14:56:08.560949, 1.42229
2022-12-02 14:56:08.569799, 1.43695
2022-12-02 14:56:08.582446, 1.48583
2022-12-02 14:56:08.590099, 1.47605
2022-12-02 14:56:08.598880, 1.53959
2022-12-02 14:56:08.606510, 1.52004
2022-12-02 14:56:08.618640, 1.53959
2022-12-02 14:56:08.627404, 1.54448
2022-12-02 14:56:08.635271, 1.54936
2022-12-02 14:56:08.647827, 1.54448
2022-12-02 14:56:08.656253, 1.53470
2022-12-02 14:56:08.664189, 1.52004
2022-12-02 14:56:08.671816, 1.52493
2022-12-02 14:56:08.683729, 1.48583
2022-12-02 14:56:08.692988, 1.45650
2022-12-02 14:56:08.701440, 1.43206
2022-12-02 14:56:08.711774, 1.41251
2022-12-02 14:56:08.721383, 1.38807
2022-12-02 14:56:08.729737, 1.36364
2022-12-02 14:56:08.737864, 1.34409
2022-12-02 14:56:08.750431, 1.33431
2022-12-02 14:56:08.758055, 1.30010
2022-12-02 14:56:08.766772, 1.29032
2022-12-02 14:56:08.778696, 1.29032
2022-12-02 14:56:08.787345, 1.25122
2022-12-02 14:56:08.794973, 1.24145
2022-12-02 14:56:08.803342, 1.26588
2022-12-02 14:56:08.815940, 1.21701
2022-12-02 14:56:08.824008, 1.21212
2022-12-02 14:56:08.832334, 1.20235
2022-12-02 14:56:08.840058, 1.18280
2022-12-02 14:56:08.852690, 1.17791
2022-12-02 14:56:08.860775, 1.19257
2022-12-02 14:56:08.869000, 1.24145
2022-12-02 14:56:08.881034, 1.36852
2022-12-02 14:56:08.889187, 1.47116
2022-12-02 14:56:08.897282, 1.64223
2022-12-02 14:56:08.905750, 1.81329
2022-12-02 14:56:08.917924, 1.97947
2022-12-02 14:56:08.926242, 2.12610
2022-12-02 14:56:08.934727, 2.21896
2022-12-02 14:56:08.946610, 2.27273
2022-12-02 14:56:08.955423, 2.28250
2022-12-02 14:56:08.963339, 2.26295
2022-12-02 14:56:08.971427, 2.23851
2022-12-02 14:56:08.983900, 2.14076
2022-12-02 14:56:08.991797, 2.07234
2022-12-02 14:56:09.000439, 1.98436
2022-12-02 14:56:09.012520, 1.91105
2022-12-02 14:56:09.020456, 1.82796
2022-12-02 14:56:09.028393, 1.76442
2022-12-02 14:56:09.037147, 1.69599
2022-12-02 14:56:09.048694, 1.63245
2022-12-02 14:56:09.057328, 1.60313
2022-12-02 14:56:09.065380, 1.51026
2022-12-02 14:56:09.077447, 1.45650
2022-12-02 14:56:09.086325, 1.41251
2022-12-02 14:56:09.094229, 1.37830
2022-12-02 14:56:09.102630, 1.36852
2022-12-02 14:56:09.114860, 1.35875
2022-12-02 14:56:09.122973, 1.36852
2022-12-02 14:56:09.131466, 1.39296
2022-12-02 14:56:09.143236, 1.40762
2022-12-02 14:56:09.151797, 1.43206
2022-12-02 14:56:09.159788, 1.47116
2022-12-02 14:56:09.168422, 1.48094
2022-12-02 14:56:09.180459, 1.50538
2022-12-02 14:56:09.187814, 1.51026
2022-12-02 14:56:09.196875, 1.51515
2022-12-02 14:56:09.208955, 1.52493
2022-12-02 14:56:09.216374, 1.51026
2022-12-02 14:56:09.225203, 1.49071
2022-12-02 14:56:09.233483, 1.50049
2022-12-02 14:56:09.245683, 1.45161
2022-12-02 14:56:09.254333, 1.43695
2022-12-02 14:56:09.261669, 1.40762
2022-12-02 14:56:09.274438, 1.39296
2022-12-02 14:56:09.282815, 1.37830
2022-12-02 14:56:09.290704, 1.35386
2022-12-02 14:56:09.299428, 1.33431
2022-12-02 14:56:09.310690, 1.32942
2022-12-02 14:56:09.319746, 1.30010
2022-12-02 14:56:09.327694, 1.28055
2022-12-02 14:56:09.339681, 1.27077
2022-12-02 14:56:09.348428, 1.24633
2022-12-02 14:56:09.356064, 1.23656
2022-12-02 14:56:09.364737, 1.23167
2022-12-02 14:56:09.377088, 1.20723
2022-12-02 14:56:09.384934, 1.19746
2022-12-02 14:56:09.392954, 1.18768
2022-12-02 14:56:09.404731, 1.17302
2022-12-02 14:56:09.413685, 1.17791
2022-12-02 14:56:09.421864, 1.21701
2022-12-02 14:56:09.430343, 1.26588
2022-12-02 14:56:09.442333, 1.37830
2022-12-02 14:56:09.450717, 1.57380
2022-12-02 14:56:09.458720, 1.71554
2022-12-02 14:56:09.470410, 1.89638
2022-12-02 14:56:09.479222, 2.06745
2022-12-02 14:56:09.487536, 2.20430
2022-12-02 14:56:09.495695, 2.33627
2022-12-02 14:56:09.507356, 2.34604
2022-12-02 14:56:09.516325, 2.35093
2022-12-02 14:56:09.524062, 2.31672
2022-12-02 14:56:09.536779, 2.27273
2022-12-02 14:56:09.544777, 2.18475
2022-12-02 14:56:09.553053, 2.11144
2022-12-02 14:56:09.560577, 2.06745
2022-12-02 14:56:09.573311, 1.95992
2022-12-02 14:56:09.581893, 1.91593
2022-12-02 14:56:09.589497, 1.85728
2022-12-02 14:56:09.601697, 1.75953
2022-12-02 14:56:09.610266, 1.70088
2022-12-02 14:56:09.618424, 1.64223
2022-12-02 14:56:09.626751, 1.58358
2022-12-02 14:56:09.639469, 1.55914
2022-12-02 14:56:09.646212, 1.50538
2022-12-02 14:56:09.654732, 1.48583
2022-12-02 14:56:09.663638, 1.48583
2022-12-02 14:56:09.675859, 1.47605
2022-12-02 14:56:09.684475, 1.49071
2022-12-02 14:56:09.692013, 1.54936
2022-12-02 14:56:09.704668, 1.53959
2022-12-02 14:56:09.712856, 1.56891
2022-12-02 14:56:09.721120, 1.59824
2022-12-02 14:56:09.728875, 1.61779
2022-12-02 14:56:09.741294, 1.63734
2022-12-02 14:56:09.749818, 1.64223
2022-12-02 14:56:09.757616, 1.65200
2022-12-02 14:56:09.770035, 1.64712
2022-12-02 14:56:09.778293, 1.64223
2022-12-02 14:56:09.786427, 1.63245
2022-12-02 14:56:09.793821, 1.61779
2022-12-02 14:56:09.806419, 1.61290
2022-12-02 14:56:09.815012, 1.58358
2022-12-02 14:56:09.822869, 1.56403
2022-12-02 14:56:09.835755, 1.54936
2022-12-02 14:56:09.843776, 1.52493
2022-12-02 14:56:09.852232, 1.51515
2022-12-02 14:56:09.860045, 1.49560
2022-12-02 14:56:09.872114, 1.48583
2022-12-02 14:56:09.880812, 1.47116
2022-12-02 14:56:09.888585, 1.45650
2022-12-02 14:56:09.901181, 1.44673
2022-12-02 14:56:09.908710, 1.43206
2022-12-02 14:56:09.917583, 1.41251
2022-12-02 14:56:09.925849, 1.40274
2022-12-02 14:56:09.938087, 1.38807
2022-12-02 14:56:09.946147, 1.37341
2022-12-02 14:56:09.954320, 1.37830
2022-12-02 14:56:09.966906, 1.37341
2022-12-02 14:56:09.974859, 1.39785
2022-12-02 14:56:09.983330, 1.46139
2022-12-02 14:56:09.991200, 1.56403
2022-12-02 14:56:10.003653, 1.71065
2022-12-02 14:56:10.011579, 1.87683
2022-12-02 14:56:10.019217, 2.07234
2022-12-02 14:56:10.032161, 2.22874
2022-12-02 14:56:10.040442, 2.37537
2022-12-02 14:56:10.048609, 2.47312
2022-12-02 14:56:10.055991, 2.54154
2022-12-02 14:56:10.069287, 2.54643
2022-12-02 14:56:10.076796, 2.52688
2022-12-02 14:56:10.085463, 2.48289
2022-12-02 14:56:10.097925, 2.41935
2022-12-02 14:56:10.105697, 2.35093
2022-12-02 14:56:10.113445, 2.29228
2022-12-02 14:56:10.122356, 2.20430
2022-12-02 14:56:10.134330, 2.13587
2022-12-02 14:56:10.142697, 2.06745
2022-12-02 14:56:10.151979, 2.00880
2022-12-02 14:56:10.163480, 1.96970
2022-12-02 14:56:10.171096, 1.90127
2022-12-02 14:56:10.179604, 1.84751
2022-12-02 14:56:10.187788, 1.81329
2022-12-02 14:56:10.200440, 1.76442
2022-12-02 14:56:10.208527, 1.73021
2022-12-02 14:56:10.216626, 1.74487
2022-12-02 14:56:10.228457, 1.69110
2022-12-02 14:56:10.237474, 1.69110
2022-12-02 14:56:10.244707, 1.69110
2022-12-02 14:56:10.253022, 1.71065
2022-12-02 14:56:10.265861, 1.72532
2022-12-02 14:56:10.273491, 1.73998
2022-12-02 14:56:10.281920, 1.75464
2022-12-02 14:56:10.293576, 1.78397
2022-12-02 14:56:10.302701, 1.77908
2022-12-02 14:56:10.310278, 1.78886
2022-12-02 14:56:10.319014, 1.77908
2022-12-02 14:56:10.331461, 1.76931
2022-12-02 14:56:10.338889, 1.75953
2022-12-02 14:56:10.347781, 1.73998
2022-12-02 14:56:10.358976, 1.71554
2022-12-02 14:56:10.367676, 1.69599
2022-12-02 14:56:10.376605, 1.67155
2022-12-02 14:56:10.384321, 1.65200
2022-12-02 14:56:10.396853, 1.65200
2022-12-02 14:56:10.404349, 1.60802
2022-12-02 14:56:10.413136, 1.58358
2022-12-02 14:56:10.425393, 1.56403
2022-12-02 14:56:10.433689, 1.54936
2022-12-02 14:56:10.441758, 1.52981
2022-12-02 14:56:10.449781, 1.51515
2022-12-02 14:56:10.462373, 1.50049
2022-12-02 14:56:10.470617, 1.49071
2022-12-02 14:56:10.478800, 1.47116
2022-12-02 14:56:10.490660, 1.46139
2022-12-02 14:56:10.499480, 1.45161
2022-12-02 14:56:10.507615, 1.43695
2022-12-02 14:56:10.515743, 1.43206
2022-12-02 14:56:10.527718, 1.45161
2022-12-02 14:56:10.536408, 1.48094
2022-12-02 14:56:10.543509, 1.55914
2022-12-02 14:56:10.552161, 1.68133
2022-12-02 14:56:10.564875, 1.81818
2022-12-02 14:56:10.572999, 1.98925
2022-12-02 14:56:10.581337, 2.15054
2022-12-02 14:56:10.593454, 2.29228
2022-12-02 14:56:10.600937, 2.40958
2022-12-02 14:56:10.609706, 2.47801
2022-12-02 14:56:10.617480, 2.51711
2022-12-02 14:56:10.629390, 2.52199
2022-12-02 14:56:10.637741, 2.47312
2022-12-02 14:56:10.646300, 2.41447
2022-12-02 14:56:10.658667, 2.36070
2022-12-02 14:56:10.666207, 2.27761
2022-12-02 14:56:10.675011, 2.21408
2022-12-02 14:56:10.683211, 2.14076
2022-12-02 14:56:10.695131, 2.08700
2022-12-02 14:56:10.703118, 2.03324
2022-12-02 14:56:10.711784, 1.97947
2022-12-02 14:56:10.724005, 1.93060
2022-12-02 14:56:10.731856, 1.87683
2022-12-02 14:56:10.740684, 1.82796
2022-12-02 14:56:10.748774, 1.78397
2022-12-02 14:56:10.761065, 1.73998
2022-12-02 14:56:10.769237, 1.71065
2022-12-02 14:56:10.776948, 1.69110
2022-12-02 14:56:10.789246, 1.68133
2022-12-02 14:56:10.797974, 1.67644
2022-12-02 14:56:10.806026, 1.68133
2022-12-02 14:56:10.813685, 1.68622
2022-12-02 14:56:10.825816, 1.69599
2022-12-02 14:56:10.834672, 1.70577
2022-12-02 14:56:10.842748, 1.71554
2022-12-02 14:56:10.854927, 1.72043
2022-12-02 14:56:10.863569, 1.76442
2022-12-02 14:56:10.871655, 1.72532
2022-12-02 14:56:10.879801, 1.72532
2022-12-02 14:56:10.892115, 1.71065
2022-12-02 14:56:10.900315, 1.69110
2022-12-02 14:56:10.908132, 1.68622
2022-12-02 14:56:10.920313, 1.64712
2022-12-02 14:56:10.928393, 1.62268
2022-12-02 14:56:10.937248, 1.59824
2022-12-02 14:56:10.945308, 1.56891
2022-12-02 14:56:10.956830, 1.56403
2022-12-02 14:56:10.965414, 1.52493
2022-12-02 14:56:10.974257, 1.50538
2022-12-02 14:56:10.986240, 1.51515
2022-12-02 14:56:10.994609, 1.47116
2022-12-02 14:56:11.002702, 1.45650
2022-12-02 14:56:11.010489, 1.45161
2022-12-02 14:56:11.022912, 1.42717
2022-12-02 14:56:11.031192, 1.41740
2022-12-02 14:56:11.039547, 1.41251
2022-12-02 14:56:11.051631, 1.38807
2022-12-02 14:56:11.060087, 1.38319
2022-12-02 14:56:11.067874, 1.36852
2022-12-02 14:56:11.075723, 1.36852
2022-12-02 14:56:11.087950, 1.38319
2022-12-02 14:56:11.097133, 1.42229
2022-12-02 14:56:11.104962, 1.50538
2022-12-02 14:56:11.117524, 1.63734
2022-12-02 14:56:11.125789, 1.75953
2022-12-02 14:56:11.133331, 1.92571
2022-12-02 14:56:11.141738, 2.07234
2022-12-02 14:56:11.153388, 2.20430
2022-12-02 14:56:11.162092, 2.30694
2022-12-02 14:56:11.170419, 2.37048
2022-12-02 14:56:11.182093, 2.39003
2022-12-02 14:56:11.190475, 2.38514
2022-12-02 14:56:11.198675, 2.34115
2022-12-02 14:56:11.207576, 2.28739
2022-12-02 14:56:11.219462, 2.25318
2022-12-02 14:56:11.227663, 2.15543
2022-12-02 14:56:11.236209, 2.09189
2022-12-02 14:56:11.248238, 2.03812
2022-12-02 14:56:11.256244, 1.97947
2022-12-02 14:56:11.264984, 1.93060
2022-12-02 14:56:11.272928, 1.87195
2022-12-02 14:56:11.285332, 1.82307
2022-12-02 14:56:11.292881, 1.81329
2022-12-02 14:56:11.300965, 1.73509
2022-12-02 14:56:11.313972, 1.72532
2022-12-02 14:56:11.321671, 1.65200
2022-12-02 14:56:11.330481, 1.62268
2022-12-02 14:56:11.337789, 1.59824
2022-12-02 14:56:11.350875, 1.58847
2022-12-02 14:56:11.359204, 1.58358
2022-12-02 14:56:11.367411, 1.59335
2022-12-02 14:56:11.375516, 1.60802
2022-12-02 14:56:11.387760, 1.61779
2022-12-02 14:56:11.396205, 1.62757
2022-12-02 14:56:11.404386, 1.64223
2022-12-02 14:56:11.416841, 1.64223
2022-12-02 14:56:11.424988, 1.64223
2022-12-02 14:56:11.432939, 1.68133
2022-12-02 14:56:11.440574, 1.63734
2022-12-02 14:56:11.453426, 1.62268
2022-12-02 14:56:11.460998, 1.60802
2022-12-02 14:56:11.470003, 1.58847
2022-12-02 14:56:11.481573, 1.57380
2022-12-02 14:56:11.490243, 1.54448
2022-12-02 14:56:11.497630, 1.52493
2022-12-02 14:56:11.506590, 1.50049
2022-12-02 14:56:11.518141, 1.47605
2022-12-02 14:56:11.526612, 1.45650
2022-12-02 14:56:11.535061, 1.43206
2022-12-02 14:56:11.547144, 1.40762
2022-12-02 14:56:11.555581, 1.39785
2022-12-02 14:56:11.563817, 1.38319
2022-12-02 14:56:11.571896, 1.38807
2022-12-02 14:56:11.584735, 1.34897
2022-12-02 14:56:11.592807, 1.33920
2022-12-02 14:56:11.601475, 1.34897
2022-12-02 14:56:11.612097, 1.30010
2022-12-02 14:56:11.621616, 1.30499
2022-12-02 14:56:11.629795, 1.27077
2022-12-02 14:56:11.637933, 1.25611
2022-12-02 14:56:11.650026, 1.26100
2022-12-02 14:56:11.657807, 1.27566
2022-12-02 14:56:11.666532, 1.34409
2022-12-02 14:56:11.678589, 1.41740
2022-12-02 14:56:11.686937, 1.53959
2022-12-02 14:56:11.695411, 1.71554
2022-12-02 14:56:11.703474, 1.84751
2022-12-02 14:56:11.715876, 1.99413
2022-12-02 14:56:11.723683, 2.11144
2022-12-02 14:56:11.732444, 2.19941
2022-12-02 14:56:11.744198, 2.25806
2022-12-02 14:56:11.752179, 2.26295
2022-12-02 14:56:11.760316, 2.24340
2022-12-02 14:56:11.768683, 2.23851
2022-12-02 14:56:11.781351, 2.14076
2022-12-02 14:56:11.789692, 2.07722
2022-12-02 14:56:11.797993, 2.01369
2022-12-02 14:56:11.809592, 1.94037
2022-12-02 14:56:11.817888, 1.89150
2022-12-02 14:56:11.826091, 1.82307
2022-12-02 14:56:11.834482, 1.78397
2022-12-02 14:56:11.846914, 1.71554
2022-12-02 14:56:11.854792, 1.67155
2022-12-02 14:56:11.863478, 1.64712
2022-12-02 14:56:11.874842, 1.57380
2022-12-02 14:56:11.883774, 1.52493
2022-12-02 14:56:11.892000, 1.49560
2022-12-02 14:56:11.900351, 1.46628
2022-12-02 14:56:11.912125, 1.45161
2022-12-02 14:56:11.920106, 1.48583
2022-12-02 14:56:11.928574, 1.44673
2022-12-02 14:56:11.941151, 1.45650
2022-12-02 14:56:11.949056, 1.47116
2022-12-02 14:56:11.957304, 1.49071
2022-12-02 14:56:11.965270, 1.51026
2022-12-02 14:56:11.977969, 1.52493
2022-12-02 14:56:11.986031, 1.52981
2022-12-02 14:56:11.994070, 1.52981
2022-12-02 14:56:12.006323, 1.53959
2022-12-02 14:56:12.014927, 1.52004
2022-12-02 14:56:12.022548, 1.51026
2022-12-02 14:56:12.031478, 1.49071
2022-12-02 14:56:12.042184, 1.47605
2022-12-02 14:56:12.051760, 1.45650
2022-12-02 14:56:12.059560, 1.43695
2022-12-02 14:56:12.072022, 1.42717
2022-12-02 14:56:12.080443, 1.39296
2022-12-02 14:56:12.088035, 1.37341
2022-12-02 14:56:12.096686, 1.35386
2022-12-02 14:56:12.108914, 1.32942
2022-12-02 14:56:12.117476, 1.34897
2022-12-02 14:56:12.124726, 1.28543
2022-12-02 14:56:12.136930, 1.27566
2022-12-02 14:56:12.145786, 1.25611
2022-12-02 14:56:12.153331, 1.24145
2022-12-02 14:56:12.162044, 1.23656
2022-12-02 14:56:12.174453, 1.22190
2022-12-02 14:56:12.182631, 1.20723
2022-12-02 14:56:12.190966, 1.22190
2022-12-02 14:56:12.202215, 1.18280
2022-12-02 14:56:12.211208, 1.16325
2022-12-02 14:56:12.219702, 1.15347
2022-12-02 14:56:12.227618, 1.14858
2022-12-02 14:56:12.239500, 1.16325
2022-12-02 14:56:12.248499, 1.20235
2022-12-02 14:56:12.256346, 1.28543
2022-12-02 14:56:12.264768, 1.41251
2022-12-02 14:56:12.276153, 1.56403
2022-12-02 14:56:12.285038, 1.74976
2022-12-02 14:56:12.292810, 1.90616
2022-12-02 14:56:12.304780, 2.05279
2022-12-02 14:56:12.313869, 2.15054
2022-12-02 14:56:12.321016, 2.20919
2022-12-02 14:56:12.329753, 2.22385
2022-12-02 14:56:12.342205, 2.19941
2022-12-02 14:56:12.350697, 2.15543
2022-12-02 14:56:12.358925, 2.09189
2022-12-02 14:56:12.371358, 2.02346
2022-12-02 14:56:12.379373, 1.95503
2022-12-02 14:56:12.387425, 1.89150
2022-12-02 14:56:12.394986, 1.82796
2022-12-02 14:56:12.408022, 1.77419
2022-12-02 14:56:12.416462, 1.71554
2022-12-02 14:56:12.423860, 1.65689
2022-12-02 14:56:12.436663, 1.61779
2022-12-02 14:56:12.444864, 1.55425
2022-12-02 14:56:12.452861, 1.51026
2022-12-02 14:56:12.460713, 1.48094
2022-12-02 14:56:12.472463, 1.44673
2022-12-02 14:56:12.480733, 1.42717
2022-12-02 14:56:12.489634, 1.42229
2022-12-02 14:56:12.501621, 1.41251
2022-12-02 14:56:12.509374, 1.41251
2022-12-02 14:56:12.517673, 1.45650
2022-12-02 14:56:12.525809, 1.42717
2022-12-02 14:56:12.538193, 1.44673
2022-12-02 14:56:12.547108, 1.49560
2022-12-02 14:56:12.554904, 1.47116
2022-12-02 14:56:12.567726, 1.48583
2022-12-02 14:56:12.575569, 1.49560
2022-12-02 14:56:12.584253, 1.49071
2022-12-02 14:56:12.591666, 1.48583
2022-12-02 14:56:12.604340, 1.47116
2022-12-02 14:56:12.612719, 1.45650
2022-12-02 14:56:12.620637, 1.44184
2022-12-02 14:56:12.633295, 1.41251
2022-12-02 14:56:12.641540, 1.38807
2022-12-02 14:56:12.649764, 1.36852
2022-12-02 14:56:12.657577, 1.33920
2022-12-02 14:56:12.669824, 1.31965
2022-12-02 14:56:12.678421, 1.30010
2022-12-02 14:56:12.686559, 1.29032
2022-12-02 14:56:12.698858, 1.27077
2022-12-02 14:56:12.706904, 1.27077
2022-12-02 14:56:12.715143, 1.27566
2022-12-02 14:56:12.723363, 1.25122
2022-12-02 14:56:12.735759, 1.26100
2022-12-02 14:56:12.743617, 1.23656
2022-12-02 14:56:12.752477, 1.24145
2022-12-02 14:56:12.764348, 1.23656
2022-12-02 14:56:12.772150, 1.24145
2022-12-02 14:56:12.780096, 1.27566
2022-12-02 14:56:12.788816, 1.24145
2022-12-02 14:56:12.801489, 1.23656
2022-12-02 14:56:12.809494, 1.27566
2022-12-02 14:56:12.817595, 1.26588
2022-12-02 14:56:12.829653, 1.30987
2022-12-02 14:56:12.837780, 1.39296
2022-12-02 14:56:12.846337, 1.51515
2022-12-02 14:56:12.854145, 1.68133
2022-12-02 14:56:12.866411, 1.85728
2022-12-02 14:56:12.875038, 2.02835
2022-12-02 14:56:12.882565, 2.17498
2022-12-02 14:56:12.895440, 2.27761
2022-12-02 14:56:12.903642, 2.35093
2022-12-02 14:56:12.911718, 2.39980
2022-12-02 14:56:12.920071, 2.36559
2022-12-02 14:56:12.932473, 2.32649
2022-12-02 14:56:12.940234, 2.26784
2022-12-02 14:56:12.948756, 2.19941
2022-12-02 14:56:12.960968, 2.13587
2022-12-02 14:56:12.969166, 2.06256
2022-12-02 14:56:12.976819, 1.99413
2022-12-02 14:56:12.985466, 1.97458
2022-12-02 14:56:12.997170, 1.87683
2022-12-02 14:56:13.005241, 1.82796
2022-12-02 14:56:13.013760, 1.79374
2022-12-02 14:56:13.025759, 1.73998
2022-12-02 14:56:13.034407, 1.69599
2022-12-02 14:56:13.042427, 1.64712
2022-12-02 14:56:13.050242, 1.60802
2022-12-02 14:56:13.063389, 1.57869
2022-12-02 14:56:13.071253, 1.56891
2022-12-02 14:56:13.079833, 1.55914
2022-12-02 14:56:13.091991, 1.55914
2022-12-02 14:56:13.100461, 1.56891
2022-12-02 14:56:13.108461, 1.59335
2022-12-02 14:56:13.116728, 1.60802
2022-12-02 14:56:13.128806, 1.62757
2022-12-02 14:56:13.137084, 1.66667
2022-12-02 14:56:13.145461, 1.66178
2022-12-02 14:56:13.153521, 1.67155
2022-12-02 14:56:13.165801, 1.67644
2022-12-02 14:56:13.173739, 1.67155
2022-12-02 14:56:13.181314, 1.66667
2022-12-02 14:56:13.194195, 1.64223
2022-12-02 14:56:13.202266, 1.63245
2022-12-02 14:56:13.210072, 1.60802
2022-12-02 14:56:13.218183, 1.59335
2022-12-02 14:56:13.230903, 1.56891
2022-12-02 14:56:13.239150, 1.54448
2022-12-02 14:56:13.247149, 1.52981
2022-12-02 14:56:13.259703, 1.51515
2022-12-02 14:56:13.267328, 1.48583
2022-12-02 14:56:13.276137, 1.46628
2022-12-02 14:56:13.284185, 1.49071
2022-12-02 14:56:13.296413, 1.43695
2022-12-02 14:56:13.304364, 1.43206
2022-12-02 14:56:13.312895, 1.41740
2022-12-02 14:56:13.325109, 1.40762
2022-12-02 14:56:13.333355, 1.39785
2022-12-02 14:56:13.341669, 1.38319
2022-12-02 14:56:13.349149, 1.37341
2022-12-02 14:56:13.361769, 1.35875
2022-12-02 14:56:13.370145, 1.34409
2022-12-02 14:56:13.378229, 1.34409
2022-12-02 14:56:13.390749, 1.33920
2022-12-02 14:56:13.398277, 1.35875
2022-12-02 14:56:13.406920, 1.42229
2022-12-02 14:56:13.415135, 1.51026
2022-12-02 14:56:13.426741, 1.64712
2022-12-02 14:56:13.434991, 1.81329
2022-12-02 14:56:13.444053, 1.97458
2022-12-02 14:56:13.455893, 2.13587
2022-12-02 14:56:13.464204, 2.29717
2022-12-02 14:56:13.472707, 2.36070
2022-12-02 14:56:13.480757, 2.41935
2022-12-02 14:56:13.492586, 2.42424
2022-12-02 14:56:13.500504, 2.40958
2022-12-02 14:56:13.509210, 2.35582
2022-12-02 14:56:13.521446, 2.29717
2022-12-02 14:56:13.530160, 2.25806
2022-12-02 14:56:13.537679, 2.16031
2022-12-02 14:56:13.546258, 2.13099
2022-12-02 14:56:13.557912, 2.03812
2022-12-02 14:56:13.566468, 1.99902
2022-12-02 14:56:13.575164, 1.93060
2022-12-02 14:56:13.587409, 1.88172
2022-12-02 14:56:13.595494, 1.84751
2022-12-02 14:56:13.603619, 1.79374
2022-12-02 14:56:13.611997, 1.74487
2022-12-02 14:56:13.623336, 1.73509
2022-12-02 14:56:13.632214, 1.66178
2022-12-02 14:56:13.640209, 1.63245
2022-12-02 14:56:13.652604, 1.62757
2022-12-02 14:56:13.660881, 1.58847
2022-12-02 14:56:13.668603, 1.58358
2022-12-02 14:56:13.676684, 1.62268
2022-12-02 14:56:13.689253, 1.58847
2022-12-02 14:56:13.698005, 1.59824
2022-12-02 14:56:13.706303, 1.60802
2022-12-02 14:56:13.718016, 1.63245
2022-12-02 14:56:13.726468, 1.62757
2022-12-02 14:56:13.734086, 1.63245
2022-12-02 14:56:13.742672, 1.64223
2022-12-02 14:56:13.754785, 1.63245
2022-12-02 14:56:13.763007, 1.65689
2022-12-02 14:56:13.771608, 1.60802
2022-12-02 14:56:13.783870, 1.58358
2022-12-02 14:56:13.791969, 1.60313
2022-12-02 14:56:13.800431, 1.53959
2022-12-02 14:56:13.808681, 1.51515
2022-12-02 14:56:13.820328, 1.49071
2022-12-02 14:56:13.828836, 1.46628
2022-12-02 14:56:13.837089, 1.44673
2022-12-02 14:56:13.849390, 1.42717
2022-12-02 14:56:13.857646, 1.41251
2022-12-02 14:56:13.865706, 1.42717
2022-12-02 14:56:13.874039, 1.37830
2022-12-02 14:56:13.885438, 1.36852
2022-12-02 14:56:13.893670, 1.34897
2022-12-02 14:56:13.902738, 1.33920
2022-12-02 14:56:13.914748, 1.32942
2022-12-02 14:56:13.923340, 1.31476
2022-12-02 14:56:13.930993, 1.30499
2022-12-02 14:56:13.939012, 1.29032
2022-12-02 14:56:13.951343, 1.28055
2022-12-02 14:56:13.959881, 1.30987
2022-12-02 14:56:13.968187, 1.28055
2022-12-02 14:56:13.976439, 1.29032
2022-12-02 14:56:13.988835, 1.37341
2022-12-02 14:56:13.997011, 1.41251
2022-12-02 14:56:14.005225, 1.53470
2022-12-02 14:56:14.017473, 1.68622
2022-12-02 14:56:14.025136, 1.85239
2022-12-02 14:56:14.033704, 2.04790
2022-12-02 14:56:14.041717, 2.15054
2022-12-02 14:56:14.053843, 2.26295
2022-12-02 14:56:14.061877, 2.32649
2022-12-02 14:56:14.070909, 2.35582
2022-12-02 14:56:14.082577, 2.37048
2022-12-02 14:56:14.091179, 2.31672
2022-12-02 14:56:14.099663, 2.26784
2022-12-02 14:56:14.107844, 2.20430
2022-12-02 14:56:14.120175, 2.13587
2022-12-02 14:56:14.128081, 2.06745
2022-12-02 14:56:14.136286, 2.00391
2022-12-02 14:56:14.148747, 1.94037
2022-12-02 14:56:14.157109, 1.89638
2022-12-02 14:56:14.165111, 1.83773
2022-12-02 14:56:14.173168, 1.79374
2022-12-02 14:56:14.185667, 1.75464
2022-12-02 14:56:14.193635, 1.71065
2022-12-02 14:56:14.201893, 1.69110
2022-12-02 14:56:14.214480, 1.62268
2022-12-02 14:56:14.221662, 1.59824
2022-12-02 14:56:14.230468, 1.56403
2022-12-02 14:56:14.238666, 1.56403
2022-12-02 14:56:14.250694, 1.52981
2022-12-02 14:56:14.258602, 1.52981
2022-12-02 14:56:14.267345, 1.54936
2022-12-02 14:56:14.279888, 1.54936
2022-12-02 14:56:14.288036, 1.56403
2022-12-02 14:56:14.296210, 1.56891
2022-12-02 14:56:14.304436, 1.57869
2022-12-02 14:56:14.316942, 1.59335
2022-12-02 14:56:14.325395, 1.58847
2022-12-02 14:56:14.333371, 1.58847
2022-12-02 14:56:14.345542, 1.57380
2022-12-02 14:56:14.353643, 1.56403
2022-12-02 14:56:14.361837, 1.57869
2022-12-02 14:56:14.369964, 1.52493
2022-12-02 14:56:14.382366, 1.51515
2022-12-02 14:56:14.390388, 1.48583
2022-12-02 14:56:14.398816, 1.46139
2022-12-02 14:56:14.410988, 1.43695
2022-12-02 14:56:14.419195, 1.40762
2022-12-02 14:56:14.427139, 1.40274
2022-12-02 14:56:14.435240, 1.37341
2022-12-02 14:56:14.447903, 1.34409
2022-12-02 14:56:14.455695, 1.36364
2022-12-02 14:56:14.464371, 1.31476
2022-12-02 14:56:14.475365, 1.30010
2022-12-02 14:56:14.484669, 1.28543
2022-12-02 14:56:14.492921, 1.27077
2022-12-02 14:56:14.501263, 1.29521
2022-12-02 14:56:14.512999, 1.24633
2022-12-02 14:56:14.521345, 1.23656
2022-12-02 14:56:14.529470, 1.22190
2022-12-02 14:56:14.541820, 1.21212
2022-12-02 14:56:14.549712, 1.22190
2022-12-02 14:56:14.558571, 1.20235
2022-12-02 14:56:14.565904, 1.22678
2022-12-02 14:56:14.577747, 1.27077
2022-12-02 14:56:14.586887, 1.36852
2022-12-02 14:56:14.594784, 1.51026
2022-12-02 14:56:14.607059, 1.65689
2022-12-02 14:56:14.615028, 1.83284
2022-12-02 14:56:14.623351, 1.98436
2022-12-02 14:56:14.631052, 2.12121
2022-12-02 14:56:14.643993, 2.22385
2022-12-02 14:56:14.652153, 2.27273
2022-12-02 14:56:14.660396, 2.28739
2022-12-02 14:56:14.672724, 2.27273
2022-12-02 14:56:14.680842, 2.21896
2022-12-02 14:56:14.689017, 2.16031
2022-12-02 14:56:14.697481, 2.09677
2022-12-02 14:56:14.709673, 2.02835
2022-12-02 14:56:14.717970, 1.95992
2022-12-02 14:56:14.726136, 1.90127
2022-12-02 14:56:14.738377, 1.84751
2022-12-02 14:56:14.746587, 1.79374
2022-12-02 14:56:14.754439, 1.75953
2022-12-02 14:56:14.763060, 1.70088
2022-12-02 14:56:14.775625, 1.65689
2022-12-02 14:56:14.795974, 1.59824
2022-12-02 14:56:14.799013, 1.54448
2022-12-02 14:56:14.803806, 1.52493
2022-12-02 14:56:14.811768, 1.48094
2022-12-02 14:56:14.820260, 1.46139
2022-12-02 14:56:14.828253, 1.45650
2022-12-02 14:56:14.840573, 1.45161
2022-12-02 14:56:14.849120, 1.45161
2022-12-02 14:56:14.857214, 1.50049
2022-12-02 14:56:14.865219, 1.47605
2022-12-02 14:56:14.877748, 1.49560
2022-12-02 14:56:14.885832, 1.50538
2022-12-02 14:56:14.893359, 1.51515
2022-12-02 14:56:14.905680, 1.55425
2022-12-02 14:56:14.914461, 1.52493
2022-12-02 14:56:14.922346, 1.51515
2022-12-02 14:56:14.929933, 1.49560
2022-12-02 14:56:14.943250, 1.47605
2022-12-02 14:56:14.951296, 1.45650
2022-12-02 14:56:14.959228, 1.42717
2022-12-02 14:56:14.971793, 1.40762
2022-12-02 14:56:14.979976, 1.37830
2022-12-02 14:56:14.987956, 1.38807
2022-12-02 14:56:14.996055, 1.33431
2022-12-02 14:56:15.008797, 1.30987
2022-12-02 14:56:15.017015, 1.29032
2022-12-02 14:56:15.025093, 1.27566
2022-12-02 14:56:15.037355, 1.28543
2022-12-02 14:56:15.045594, 1.23656
2022-12-02 14:56:15.053581, 1.23167
2022-12-02 14:56:15.065240, 1.21701
2022-12-02 14:56:15.073778, 1.20723
2022-12-02 14:56:15.082180, 1.19257
2022-12-02 14:56:15.090702, 1.17791
2022-12-02 14:56:15.102628, 1.17791
2022-12-02 14:56:15.110863, 1.15836
2022-12-02 14:56:15.119058, 1.14369
2022-12-02 14:56:15.127434, 1.16813
2022-12-02 14:56:15.139351, 1.11926
2022-12-02 14:56:15.147902, 1.12903
2022-12-02 14:56:15.155896, 1.15836
2022-12-02 14:56:15.167854, 1.21701
2022-12-02 14:56:15.177263, 1.31965
2022-12-02 14:56:15.184604, 1.45650
2022-12-02 14:56:15.193222, 1.62757
2022-12-02 14:56:15.205100, 1.79863
2022-12-02 14:56:15.213534, 1.95503
2022-12-02 14:56:15.221192, 2.08211
2022-12-02 14:56:15.233226, 2.17009
2022-12-02 14:56:15.242175, 2.20430
2022-12-02 14:56:15.250289, 2.20919
2022-12-02 14:56:15.258615, 2.16520
2022-12-02 14:56:15.270330, 2.11144
2022-12-02 14:56:15.278156, 2.04790
2022-12-02 14:56:15.287736, 1.97458
2022-12-02 14:56:15.299438, 1.90127
2022-12-02 14:56:15.307050, 1.82796
2022-12-02 14:56:15.315756, 1.76442
2022-12-02 14:56:15.323998, 1.70577
2022-12-02 14:56:15.335460, 1.65689
2022-12-02 14:56:15.344783, 1.61290
2022-12-02 14:56:15.353362, 1.55425
2022-12-02 14:56:15.365111, 1.50049
2022-12-02 14:56:15.374214, 1.46628
2022-12-02 14:56:15.381886, 1.40762
2022-12-02 14:56:15.390563, 1.37830
2022-12-02 14:56:15.401467, 1.34409
2022-12-02 14:56:15.410278, 1.32942
2022-12-02 14:56:15.418298, 1.33431
2022-12-02 14:56:15.430655, 1.33920
2022-12-02 14:56:15.438738, 1.36364
2022-12-02 14:56:15.446999, 1.38319
2022-12-02 14:56:15.454886, 1.40274
2022-12-02 14:56:15.467364, 1.42229
2022-12-02 14:56:15.475659, 1.43695
2022-12-02 14:56:15.483831, 1.46139
2022-12-02 14:56:15.495198, 1.45161
2022-12-02 14:56:15.503959, 1.45650
2022-12-02 14:56:15.512145, 1.44673
2022-12-02 14:56:15.563368, 1.44184
2022-12-02 14:56:15.564361, 1.43206
2022-12-02 14:56:15.567161, 1.41251
2022-12-02 14:56:15.569737, 1.39785
2022-12-02 14:56:15.571131, 1.37341
2022-12-02 14:56:15.573163, 1.35386
2022-12-02 14:56:15.577755, 1.36852
2022-12-02 14:56:15.585635, 1.31476
2022-12-02 14:56:15.598265, 1.30499
2022-12-02 14:56:15.606505, 1.29032
2022-12-02 14:56:15.614882, 1.27566
2022-12-02 14:56:15.626936, 1.29032
2022-12-02 14:56:15.635076, 1.23167
2022-12-02 14:56:15.643090, 1.21212
2022-12-02 14:56:15.651367, 1.19257
2022-12-02 14:56:15.663423, 1.18280
2022-12-02 14:56:15.672027, 1.16813
2022-12-02 14:56:15.679946, 1.14858
2022-12-02 14:56:15.688624, 1.14369
2022-12-02 14:56:15.700070, 1.12903
2022-12-02 14:56:15.709560, 1.11926
2022-12-02 14:56:15.718422, 1.11437
2022-12-02 14:56:15.730928, 1.11926
2022-12-02 14:56:15.737048, 1.14858
2022-12-02 14:56:15.745714, 1.20723
2022-12-02 14:56:15.753438, 1.31965
2022-12-02 14:56:15.766475, 1.45650
2022-12-02 14:56:15.774158, 1.62268
2022-12-02 14:56:15.782492, 1.83284
2022-12-02 14:56:15.795148, 1.97947
2022-12-02 14:56:15.802764, 2.12610
2022-12-02 14:56:15.811499, 2.22385
2022-12-02 14:56:15.819592, 2.28250
2022-12-02 14:56:15.831934, 2.29228
2022-12-02 14:56:15.839854, 2.26784
2022-12-02 14:56:15.847602, 2.21408
2022-12-02 14:56:15.860603, 2.14076
2022-12-02 14:56:15.868875, 2.07234
2022-12-02 14:56:15.877158, 1.99413
2022-12-02 14:56:15.884660, 1.94037
2022-12-02 14:56:15.897881, 1.86706
2022-12-02 14:56:15.905613, 1.81818
2022-12-02 14:56:15.913946, 1.76931
2022-12-02 14:56:15.926261, 1.72532
2022-12-02 14:56:15.934725, 1.69110
2022-12-02 14:56:15.942018, 1.64712
2022-12-02 14:56:15.950512, 1.60802
2022-12-02 14:56:15.962495, 1.57380
2022-12-02 14:56:15.971258, 1.53959
2022-12-02 14:56:15.978928, 1.52004
2022-12-02 14:56:15.991814, 1.50538
2022-12-02 14:56:16.000295, 1.49560
2022-12-02 14:56:16.007954, 1.53959
2022-12-02 14:56:16.016270, 1.50538
2022-12-02 14:56:16.028946, 1.53470
2022-12-02 14:56:16.037539, 1.53959
2022-12-02 14:56:16.045307, 1.55914
2022-12-02 14:56:16.057528, 1.57380
2022-12-02 14:56:16.065844, 1.58847
2022-12-02 14:56:16.074226, 1.59335
2022-12-02 14:56:16.082136, 1.59335
2022-12-02 14:56:16.094513, 1.58847
2022-12-02 14:56:16.102295, 1.57380
2022-12-02 14:56:16.110930, 1.55914
2022-12-02 14:56:16.122110, 1.54936
2022-12-02 14:56:16.130533, 1.52981
2022-12-02 14:56:16.138799, 1.51026
2022-12-02 14:56:16.147636, 1.50049
2022-12-02 14:56:16.159612, 1.47116
2022-12-02 14:56:16.167916, 1.45650
2022-12-02 14:56:16.175872, 1.44184
2022-12-02 14:56:16.188382, 1.42717
2022-12-02 14:56:16.196580, 1.41251
2022-12-02 14:56:16.203831, 1.39296
2022-12-02 14:56:16.212653, 1.38319
2022-12-02 14:56:16.225310, 1.37830
2022-12-02 14:56:16.233676, 1.35386
2022-12-02 14:56:16.241191, 1.33920
2022-12-02 14:56:16.253413, 1.35875
2022-12-02 14:56:16.262113, 1.31965
2022-12-02 14:56:16.270401, 1.31476
2022-12-02 14:56:16.278505, 1.30010
2022-12-02 14:56:16.290844, 1.29032
2022-12-02 14:56:16.299190, 1.29032
2022-12-02 14:56:16.306775, 1.30010
2022-12-02 14:56:16.318814, 1.34897
2022-12-02 14:56:16.327904, 1.40762
2022-12-02 14:56:16.336291, 1.53470
2022-12-02 14:56:16.344521, 1.67155
2022-12-02 14:56:16.356581, 1.84751
2022-12-02 14:56:16.364422, 2.01857
2022-12-02 14:56:16.372884, 2.17986
2022-12-02 14:56:16.385387, 2.32649
2022-12-02 14:56:16.393500, 2.39003
2022-12-02 14:56:16.401640, 2.43402
2022-12-02 14:56:16.409490, 2.43402
2022-12-02 14:56:16.422481, 2.40469
2022-12-02 14:56:16.430386, 2.35093
2022-12-02 14:56:16.437745, 2.29228
2022-12-02 14:56:16.450128, 2.21408
2022-12-02 14:56:16.457654, 2.15543
2022-12-02 14:56:16.467025, 2.08211
2022-12-02 14:56:16.474956, 2.02346
2022-12-02 14:56:16.487288, 1.98436
2022-12-02 14:56:16.494846, 1.93548
2022-12-02 14:56:16.503954, 1.89638
2022-12-02 14:56:16.516219, 1.85239
2022-12-02 14:56:16.524430, 1.81329
2022-12-02 14:56:16.532602, 1.76442
2022-12-02 14:56:16.540902, 1.72532
2022-12-02 14:56:16.551821, 1.68622
2022-12-02 14:56:16.561513, 1.65200
2022-12-02 14:56:16.569177, 1.65200
2022-12-02 14:56:16.577745, 1.61779
2022-12-02 14:56:16.590131, 1.62268
2022-12-02 14:56:16.598319, 1.62268
2022-12-02 14:56:16.606415, 1.62757
2022-12-02 14:56:16.618612, 1.64712
2022-12-02 14:56:16.626428, 1.64223
2022-12-02 14:56:16.635097, 1.65200
2022-12-02 14:56:16.643248, 1.69599
2022-12-02 14:56:16.655585, 1.67155
2022-12-02 14:56:16.663919, 1.67644
2022-12-02 14:56:16.672348, 1.67155
2022-12-02 14:56:16.684382, 1.66178
2022-12-02 14:56:16.691458, 1.68133
2022-12-02 14:56:16.700559, 1.62268
2022-12-02 14:56:16.708614, 1.59335
2022-12-02 14:56:16.720914, 1.61290
2022-12-02 14:56:16.729332, 1.55914
2022-12-02 14:56:16.737309, 1.53470
2022-12-02 14:56:16.749499, 1.51515
2022-12-02 14:56:16.757664, 1.49560
2022-12-02 14:56:16.765393, 1.49071
2022-12-02 14:56:16.774383, 1.46139
2022-12-02 14:56:16.786405, 1.44673
2022-12-02 14:56:16.794916, 1.43695
2022-12-02 14:56:16.802408, 1.42717
2022-12-02 14:56:16.815282, 1.45161
2022-12-02 14:56:16.822910, 1.40274
2022-12-02 14:56:16.831469, 1.38807
2022-12-02 14:56:16.839663, 1.38319
2022-12-02 14:56:16.851146, 1.37341
2022-12-02 14:56:16.860310, 1.36364
2022-12-02 14:56:16.868618, 1.35386
2022-12-02 14:56:16.880803, 1.35386
2022-12-02 14:56:16.888690, 1.35386
2022-12-02 14:56:16.897414, 1.38807
2022-12-02 14:56:16.905205, 1.46139
2022-12-02 14:56:16.917270, 1.56403
2022-12-02 14:56:16.925820, 1.73509
2022-12-02 14:56:16.934016, 1.87195
2022-12-02 14:56:16.946254, 2.03812
2022-12-02 14:56:16.954406, 2.18475
2022-12-02 14:56:16.962359, 2.29717
2022-12-02 14:56:16.969989, 2.40469
2022-12-02 14:56:16.983404, 2.40469
2022-12-02 14:56:16.990837, 2.40469
2022-12-02 14:56:16.999701, 2.36559
2022-12-02 14:56:17.010602, 2.31672
2022-12-02 14:56:17.020035, 2.25806
2022-12-02 14:56:17.028049, 2.17986
2022-12-02 14:56:17.036233, 2.12121
2022-12-02 14:56:17.048932, 2.05767
2022-12-02 14:56:17.056746, 2.02346
2022-12-02 14:56:17.065387, 1.95503
2022-12-02 14:56:17.077507, 1.93548
2022-12-02 14:56:17.085349, 1.85728
2022-12-02 14:56:17.093852, 1.81329
2022-12-02 14:56:17.101909, 1.79374
2022-12-02 14:56:17.114110, 1.72532
2022-12-02 14:56:17.122615, 1.68133
2022-12-02 14:56:17.130720, 1.68133
2022-12-02 14:56:17.142446, 1.61290
2022-12-02 14:56:17.150283, 1.59335
2022-12-02 14:56:17.159375, 1.57869
2022-12-02 14:56:17.167087, 1.57380
2022-12-02 14:56:17.179627, 1.58847
2022-12-02 14:56:17.187780, 1.58847
2022-12-02 14:56:17.195861, 1.59824
2022-12-02 14:56:17.207731, 1.62268
2022-12-02 14:56:17.216597, 1.61779
2022-12-02 14:56:17.224712, 1.62268
2022-12-02 14:56:17.233188, 1.61779
2022-12-02 14:56:17.245341, 1.60802
2022-12-02 14:56:17.253286, 1.61779
2022-12-02 14:56:17.261876, 1.58847
2022-12-02 14:56:17.273100, 1.57380
2022-12-02 14:56:17.282038, 1.55914
2022-12-02 14:56:17.290306, 1.54448
2022-12-02 14:56:17.298558, 1.52004
2022-12-02 14:56:17.311037, 1.49560
2022-12-02 14:56:17.318696, 1.48094
2022-12-02 14:56:17.326710, 1.45650
2022-12-02 14:56:17.339532, 1.44184
2022-12-02 14:56:17.347937, 1.41740
2022-12-02 14:56:17.355836, 1.41251
2022-12-02 14:56:17.364389, 1.37830
2022-12-02 14:56:17.376606, 1.37341
2022-12-02 14:56:17.384681, 1.35875
2022-12-02 14:56:17.392790, 1.35386
2022-12-02 14:56:17.404738, 1.33920
2022-12-02 14:56:17.413048, 1.32942
2022-12-02 14:56:17.421441, 1.34897
2022-12-02 14:56:17.429028, 1.31965
2022-12-02 14:56:17.441672, 1.30499
2022-12-02 14:56:17.450039, 1.30010
2022-12-02 14:56:17.458228, 1.28055
2022-12-02 14:56:17.466512, 1.28543
2022-12-02 14:56:17.478054, 1.33431
2022-12-02 14:56:17.486802, 1.34897
2022-12-02 14:56:17.494163, 1.44184
2022-12-02 14:56:17.506954, 1.56403
2022-12-02 14:56:17.514696, 1.72043
2022-12-02 14:56:17.523450, 1.87195
2022-12-02 14:56:17.531690, 2.03324
2022-12-02 14:56:17.544244, 2.17498
2022-12-02 14:56:17.552067, 2.25806
2022-12-02 14:56:17.560855, 2.32160
2022-12-02 14:56:17.573388, 2.34604
2022-12-02 14:56:17.581296, 2.32649
2022-12-02 14:56:17.589230, 2.28739
2022-12-02 14:56:17.597934, 2.22385
2022-12-02 14:56:17.610024, 2.16031
2022-12-02 14:56:17.617666, 2.09677
2022-12-02 14:56:17.625904, 2.03812
2022-12-02 14:56:17.638366, 1.96970
2022-12-02 14:56:17.646731, 1.92082
2022-12-02 14:56:17.654465, 1.87683
2022-12-02 14:56:17.662500, 1.83284
2022-12-02 14:56:17.675103, 1.79374
2022-12-02 14:56:17.683344, 1.74976
2022-12-02 14:56:17.691616, 1.70577
2022-12-02 14:56:17.703567, 1.66667
2022-12-02 14:56:17.711505, 1.62268
2022-12-02 14:56:17.719792, 1.61290
2022-12-02 14:56:17.728144, 1.56403
2022-12-02 14:56:17.740371, 1.54936
2022-12-02 14:56:17.748981, 1.54936
2022-12-02 14:56:17.757020, 1.55914
2022-12-02 14:56:17.769475, 1.56403
2022-12-02 14:56:17.777811, 1.57380
2022-12-02 14:56:17.785530, 1.60802
2022-12-02 14:56:17.794031, 1.59335
2022-12-02 14:56:17.806004, 1.60802
2022-12-02 14:56:17.814505, 1.60802
2022-12-02 14:56:17.822663, 1.60313
2022-12-02 14:56:17.834960, 1.60802
2022-12-02 14:56:17.842806, 1.59335
2022-12-02 14:56:17.850787, 1.58358
2022-12-02 14:56:17.858872, 1.56403
2022-12-02 14:56:17.871115, 1.53959
2022-12-02 14:56:17.879907, 1.52493
2022-12-02 14:56:17.887382, 1.49071
2022-12-02 14:56:17.899816, 1.47116
2022-12-02 14:56:17.908172, 1.44184
2022-12-02 14:56:17.916892, 1.42229
2022-12-02 14:56:17.924125, 1.40274
2022-12-02 14:56:17.936761, 1.38807
2022-12-02 14:56:17.945154, 1.37341
2022-12-02 14:56:17.953859, 1.37341
2022-12-02 14:56:17.965996, 1.34897
2022-12-02 14:56:17.974289, 1.37341
2022-12-02 14:56:17.982348, 1.32454
2022-12-02 14:56:17.992668, 1.30987
2022-12-02 14:56:18.002820, 1.30499
2022-12-02 14:56:18.010958, 1.29032
2022-12-02 14:56:18.019104, 1.30987
2022-12-02 14:56:18.035643, 1.27077
2022-12-02 14:56:18.043288, 1.26100
2022-12-02 14:56:18.047591, 1.25611
2022-12-02 14:56:18.055683, 1.25611
2022-12-02 14:56:18.067945, 1.31476
2022-12-02 14:56:18.076095, 1.33431
2022-12-02 14:56:18.084497, 1.44184
2022-12-02 14:56:18.096447, 1.56403
2022-12-02 14:56:18.104482, 1.72043
2022-12-02 14:56:18.113586, 1.88172
2022-12-02 14:56:18.120836, 2.03324
2022-12-02 14:56:18.133759, 2.15543
2022-12-02 14:56:18.142236, 2.23851
2022-12-02 14:56:18.150025, 2.28250
2022-12-02 14:56:18.162610, 2.28739
2022-12-02 14:56:18.170802, 2.29228
2022-12-02 14:56:18.178601, 2.22385
2022-12-02 14:56:18.186735, 2.16031
2022-12-02 14:56:18.199487, 2.09677
2022-12-02 14:56:18.207219, 2.02835
2022-12-02 14:56:18.215981, 1.99413
2022-12-02 14:56:18.228123, 1.91105
2022-12-02 14:56:18.236370, 1.86217
2022-12-02 14:56:18.244569, 1.81818
2022-12-02 14:56:18.252237, 1.76442
2022-12-02 14:56:18.264290, 1.72043
2022-12-02 14:56:18.272734, 1.68133
2022-12-02 14:56:18.281345, 1.62268
2022-12-02 14:56:18.289566, 1.57869
2022-12-02 14:56:18.301881, 1.53470
2022-12-02 14:56:18.313551, 1.50049
2022-12-02 14:56:18.318610, 1.47605
2022-12-02 14:56:18.329746, 1.46628
2022-12-02 14:56:18.338466, 1.50049
2022-12-02 14:56:18.346913, 1.46628
2022-12-02 14:56:18.355266, 1.50538
2022-12-02 14:56:18.366773, 1.49071
2022-12-02 14:56:18.375081, 1.50538
2022-12-02 14:56:18.383705, 1.51515
2022-12-02 14:56:18.396029, 1.53470
2022-12-02 14:56:18.404243, 1.52493
2022-12-02 14:56:18.411781, 1.52004
2022-12-02 14:56:18.420570, 1.51515
2022-12-02 14:56:18.432848, 1.52493
2022-12-02 14:56:18.441020, 1.48094
2022-12-02 14:56:18.449401, 1.47116
2022-12-02 14:56:18.460715, 1.44184
2022-12-02 14:56:18.469897, 1.42717
2022-12-02 14:56:18.478168, 1.40274
2022-12-02 14:56:18.486234, 1.38319
2022-12-02 14:56:18.498762, 1.35875
2022-12-02 14:56:18.506904, 1.33431
2022-12-02 14:56:18.515254, 1.31476
2022-12-02 14:56:18.527123, 1.30010
2022-12-02 14:56:18.534725, 1.27566
2022-12-02 14:56:18.543397, 1.26100
2022-12-02 14:56:18.551919, 1.24633
2022-12-02 14:56:18.563333, 1.23656
2022-12-02 14:56:18.572179, 1.22678
2022-12-02 14:56:18.580388, 1.22190
2022-12-02 14:56:18.591894, 1.20235
2022-12-02 14:56:18.600867, 1.19257
2022-12-02 14:56:18.608680, 1.17791
2022-12-02 14:56:18.616998, 1.16813
2022-12-02 14:56:18.629680, 1.16813
2022-12-02 14:56:18.637220, 1.14858
2022-12-02 14:56:18.645498, 1.15347
2022-12-02 14:56:18.658443, 1.16813
2022-12-02 14:56:18.666456, 1.21701
2022-12-02 14:56:18.674542, 1.31476
2022-12-02 14:56:18.682633, 1.44184
2022-12-02 14:56:18.694713, 1.60313
2022-12-02 14:56:18.702768, 1.77419
2022-12-02 14:56:18.711576, 1.93060
2022-12-02 14:56:18.723495, 2.06745
2022-12-02 14:56:18.740659, 2.19453
2022-12-02 14:56:18.748919, 2.21896
2022-12-02 14:56:18.750628, 2.23851
2022-12-02 14:56:18.771325, 2.21408
2022-12-02 14:56:18.774762, 2.17986
2022-12-02 14:56:18.776982, 2.11144
2022-12-02 14:56:18.788936, 2.04301
2022-12-02 14:56:18.797631, 1.97947
2022-12-02 14:56:18.805310, 1.90616
2022-12-02 14:56:18.813926, 1.87683
2022-12-02 14:56:18.826170, 1.77908
2022-12-02 14:56:18.834829, 1.73021
2022-12-02 14:56:18.842520, 1.67644
2022-12-02 14:56:18.854728, 1.64223
2022-12-02 14:56:18.862429, 1.57380
2022-12-02 14:56:18.871323, 1.52981
2022-12-02 14:56:18.878801, 1.49560
2022-12-02 14:56:18.891445, 1.44184
2022-12-02 14:56:18.899177, 1.40762
2022-12-02 14:56:18.907865, 1.38807
2022-12-02 14:56:18.919800, 1.41251
2022-12-02 14:56:18.928410, 1.38319
2022-12-02 14:56:18.936425, 1.40274
2022-12-02 14:56:18.944955, 1.41740
2022-12-02 14:56:18.956476, 1.43206
2022-12-02 14:56:18.964844, 1.48583
2022-12-02 14:56:18.973572, 1.45650
2022-12-02 14:56:18.985645, 1.47116
2022-12-02 14:56:18.994255, 1.47605
2022-12-02 14:56:19.001802, 1.47605
2022-12-02 14:56:19.010597, 1.48583
2022-12-02 14:56:19.022967, 1.46628
2022-12-02 14:56:19.031316, 1.45161
2022-12-02 14:56:19.039402, 1.42717
2022-12-02 14:56:19.051138, 1.41251
2022-12-02 14:56:19.060016, 1.39296
2022-12-02 14:56:19.067718, 1.36364
2022-12-02 14:56:19.076405, 1.34897
2022-12-02 14:56:19.088378, 1.31965
2022-12-02 14:56:19.096558, 1.30010
2022-12-02 14:56:19.118437, 1.31476
2022-12-02 14:56:19.121680, 1.27077
2022-12-02 14:56:19.125319, 1.29032
2022-12-02 14:56:19.165298, 1.24633
2022-12-02 14:56:19.167273, 1.23167
2022-12-02 14:56:19.168462, 1.24633
2022-12-02 14:56:19.170036, 1.20235
2022-12-02 14:56:19.196725, 1.19257
2022-12-02 14:56:19.324849, 1.17791
2022-12-02 14:56:19.353452, 1.17302
2022-12-02 14:56:19.385505, 1.16325
2022-12-02 14:56:19.400929, 1.15836
2022-12-02 14:56:19.404146, 1.15347
2022-12-02 14:56:19.408014, 1.14369
2022-12-02 14:56:19.409580, 1.15347
2022-12-02 14:56:19.411261, 1.17791
2022-12-02 14:56:19.412692, 1.24145
2022-12-02 14:56:19.414176, 1.36364
2022-12-02 14:56:19.415787, 1.51026
2022-12-02 14:56:19.417718, 1.69110
2022-12-02 14:56:19.419383, 1.86217
2022-12-02 14:56:19.421579, 2.03812
2022-12-02 14:56:19.428711, 2.15054
2022-12-02 14:56:19.430799, 2.23363
2022-12-02 14:56:19.432310, 2.26295
2022-12-02 14:56:19.433303, 2.25318
2022-12-02 14:56:19.434793, 2.20919
2022-12-02 14:56:19.436283, 2.15054
2022-12-02 14:56:19.438373, 2.08211
2022-12-02 14:56:19.439669, 2.00880
2022-12-02 14:56:19.441314, 1.94037
2022-12-02 14:56:19.442306, 1.87195
2022-12-02 14:56:19.443300, 1.82796
2022-12-02 14:56:19.444293, 1.73998
2022-12-02 14:56:19.445440, 1.70577
2022-12-02 14:56:19.446609, 1.63245
2022-12-02 14:56:19.447611, 1.57380
2022-12-02 14:56:19.452519, 1.56403
2022-12-02 14:56:19.460685, 1.48094
2022-12-02 14:56:19.469257, 1.43695
2022-12-02 14:56:19.480953, 1.40274
2022-12-02 14:56:19.489734, 1.38319
2022-12-02 14:56:19.497544, 1.37341
2022-12-02 14:56:19.505728, 1.36852
2022-12-02 14:56:19.517995, 1.37830
2022-12-02 14:56:19.526296, 1.39785
2022-12-02 14:56:19.534720, 1.40274
2022-12-02 14:56:19.547051, 1.42717
2022-12-02 14:56:19.555227, 1.48094
2022-12-02 14:56:19.563438, 1.46139
2022-12-02 14:56:19.571624, 1.47605
2022-12-02 14:56:19.584005, 1.48094
2022-12-02 14:56:19.591514, 1.48094
2022-12-02 14:56:19.600733, 1.48094
2022-12-02 14:56:19.612821, 1.47116
2022-12-02 14:56:19.620873, 1.45650
2022-12-02 14:56:19.629428, 1.47116
2022-12-02 14:56:19.637243, 1.41740
2022-12-02 14:56:19.649688, 1.40762
2022-12-02 14:56:19.657500, 1.38319
2022-12-02 14:56:19.666182, 1.36852
2022-12-02 14:56:19.677966, 1.34897
2022-12-02 14:56:19.686156, 1.34409
2022-12-02 14:56:19.694719, 1.32454
2022-12-02 14:56:19.702082, 1.31476
2022-12-02 14:56:19.714606, 1.30499
2022-12-02 14:56:19.723936, 1.29521
2022-12-02 14:56:19.730676, 1.29032
2022-12-02 14:56:19.743239, 1.31965
2022-12-02 14:56:19.751090, 1.27566
2022-12-02 14:56:19.759330, 1.29521
2022-12-02 14:56:19.768630, 1.26588
2022-12-02 14:56:19.779723, 1.25611
2022-12-02 14:56:19.788682, 1.25122
2022-12-02 14:56:19.796418, 1.24633
2022-12-02 14:56:19.808528, 1.24633
2022-12-02 14:56:19.817500, 1.26588
2022-12-02 14:56:19.825452, 1.28543
2022-12-02 14:56:19.833592, 1.34897
2022-12-02 14:56:19.845333, 1.49071
2022-12-02 14:56:19.853483, 1.61290
2022-12-02 14:56:19.862332, 1.81818
2022-12-02 14:56:19.874556, 1.97458
2022-12-02 14:56:19.882466, 2.16520
2022-12-02 14:56:19.890986, 2.28250
2022-12-02 14:56:19.900273, 2.38025
2022-12-02 14:56:19.911089, 2.42913
2022-12-02 14:56:19.919941, 2.44379
2022-12-02 14:56:19.927781, 2.44868
2022-12-02 14:56:19.939368, 2.37537
2022-12-02 14:56:19.947751, 2.31672
2022-12-02 14:56:19.956750, 2.24829
2022-12-02 14:56:19.964982, 2.17498
2022-12-02 14:56:19.976904, 2.11632
2022-12-02 14:56:19.984715, 2.04790
2022-12-02 14:56:19.993522, 1.98925
2022-12-02 14:56:20.004931, 1.94037
2022-12-02 14:56:20.014043, 1.88661
2022-12-02 14:56:20.021886, 1.83773
2022-12-02 14:56:20.030309, 1.80352
2022-12-02 14:56:20.042390, 1.75464
2022-12-02 14:56:20.050381, 1.72532
2022-12-02 14:56:20.058792, 1.68622
2022-12-02 14:56:20.066407, 1.67155
2022-12-02 14:56:20.079449, 1.64223
2022-12-02 14:56:20.087594, 1.64712
2022-12-02 14:56:20.096027, 1.63734
2022-12-02 14:56:20.108046, 1.64223
2022-12-02 14:56:20.116241, 1.65689
2022-12-02 14:56:20.124478, 1.67644
2022-12-02 14:56:20.132676, 1.69110
2022-12-02 14:56:20.144698, 1.70577
2022-12-02 14:56:20.153245, 1.71554
2022-12-02 14:56:20.161427, 1.71554
2022-12-02 14:56:20.173658, 1.72043
2022-12-02 14:56:20.181914, 1.71554
2022-12-02 14:56:20.190016, 1.69599
2022-12-02 14:56:20.198314, 1.69599
2022-12-02 14:56:20.209918, 1.66178
2022-12-02 14:56:20.218947, 1.65689
2022-12-02 14:56:20.227114, 1.62757
2022-12-02 14:56:20.239337, 1.60313
2022-12-02 14:56:20.247516, 1.57869
2022-12-02 14:56:20.255721, 1.54936
2022-12-02 14:56:20.264333, 1.52981
2022-12-02 14:56:20.276388, 1.50538
2022-12-02 14:56:20.284631, 1.49071
2022-12-02 14:56:20.292435, 1.47605
2022-12-02 14:56:20.304138, 1.46139
2022-12-02 14:56:20.313110, 1.45161
2022-12-02 14:56:20.320636, 1.46628
2022-12-02 14:56:20.329368, 1.43206
2022-12-02 14:56:20.341785, 1.45650
2022-12-02 14:56:20.349884, 1.41251
2022-12-02 14:56:20.358168, 1.39785
2022-12-02 14:56:20.370430, 1.39296
2022-12-02 14:56:20.378531, 1.37830
2022-12-02 14:56:20.386750, 1.40762
2022-12-02 14:56:20.394359, 1.36364
2022-12-02 14:56:20.407138, 1.37830
2022-12-02 14:56:20.415656, 1.41740
2022-12-02 14:56:20.424038, 1.51026
2022-12-02 14:56:20.435588, 1.61290
2022-12-02 14:56:20.444831, 1.76931
2022-12-02 14:56:20.486748, 1.94037
2022-12-02 14:56:20.487959, 2.10166
2022-12-02 14:56:20.488455, 2.26295
2022-12-02 14:56:20.490848, 2.37048
2022-12-02 14:56:20.491759, 2.44379
2022-12-02 14:56:20.505059, 2.47801
2022-12-02 14:56:20.631677, 2.46823
2022-12-02 14:56:20.819465, 2.44379
2022-12-02 14:56:20.821452, 2.37537
2022-12-02 14:56:20.822445, 2.31672
