2022-12-02 14:55:50.203492
2022-12-02 14:55:50.215094
2022-12-02 14:55:50.223609
2022-12-02 14:55:50.231320
2022-12-02 14:55:50.244347
2022-12-02 14:55:50.252215
2022-12-02 14:55:50.260579
2022-12-02 14:55:50.268380
2022-12-02 14:55:50.280858
2022-12-02 14:55:50.289572
2022-12-02 14:55:50.297071
2022-12-02 14:55:50.308934
2022-12-02 14:55:50.317997
2022-12-02 14:55:50.325864
2022-12-02 14:55:50.334054
2022-12-02 14:55:50.346246
2022-12-02 14:55:50.354010
2022-12-02 14:55:50.363021
2022-12-02 14:55:50.375063
2022-12-02 14:55:50.383045
2022-12-02 14:55:50.391652
2022-12-02 14:55:50.399485
2022-12-02 14:55:50.412400
2022-12-02 14:55:50.419839
2022-12-02 14:55:50.428706
2022-12-02 14:55:50.441153
2022-12-02 14:55:50.449368
2022-12-02 14:55:50.457386
2022-12-02 14:55:50.465709
2022-12-02 14:55:50.477565
2022-12-02 14:55:50.485652
2022-12-02 14:55:50.494356
2022-12-02 14:55:50.506578
2022-12-02 14:55:50.514363
2022-12-02 14:55:50.523318
2022-12-02 14:55:50.530752
2022-12-02 14:55:50.543302
2022-12-02 14:55:50.550712
2022-12-02 14:55:50.558840
2022-12-02 14:55:50.571891
2022-12-02 14:55:50.579460
2022-12-02 14:55:50.588143
2022-12-02 14:55:50.595696
2022-12-02 14:55:50.608698
2022-12-02 14:55:50.616650
2022-12-02 14:55:50.624756
2022-12-02 14:55:50.632606
2022-12-02 14:55:50.645550
2022-12-02 14:55:50.653536
2022-12-02 14:55:50.661294
2022-12-02 14:55:50.673362
2022-12-02 14:55:50.682480
2022-12-02 14:55:50.690635
2022-12-02 14:55:50.699005
2022-12-02 14:55:50.711280
2022-12-02 14:55:50.719008
2022-12-02 14:55:50.727648
2022-12-02 14:55:50.739465
2022-12-02 14:55:50.748029
2022-12-02 14:55:50.756074
2022-12-02 14:55:50.764474
2022-12-02 14:55:50.776176
2022-12-02 14:55:50.784071
2022-12-02 14:55:50.792886
2022-12-02 14:55:50.804938
2022-12-02 14:55:50.813277
2022-12-02 14:55:50.821730
2022-12-02 14:55:50.829897
2022-12-02 14:55:50.842181
2022-12-02 14:55:50.850352
2022-12-02 14:55:50.858575
2022-12-02 14:55:50.869817
2022-12-02 14:55:50.878677
2022-12-02 14:55:50.887383
2022-12-02 14:55:50.895425
2022-12-02 14:55:50.907800
2022-12-02 14:55:50.915954
2022-12-02 14:55:50.924232
2022-12-02 14:55:50.936255
2022-12-02 14:55:50.944638
2022-12-02 14:55:50.952969
2022-12-02 14:55:50.961086
2022-12-02 14:55:50.973207
2022-12-02 14:55:50.981392
2022-12-02 14:55:50.989579
2022-12-02 14:55:51.001385
2022-12-02 14:55:51.009806
2022-12-02 14:55:51.017930
2022-12-02 14:55:51.026348
2022-12-02 14:55:51.038596
2022-12-02 14:55:51.046533
2022-12-02 14:55:51.055206
2022-12-02 14:55:51.066862
2022-12-02 14:55:51.074872
2022-12-02 14:55:51.083294
2022-12-02 14:55:51.092019
2022-12-02 14:55:51.104399
2022-12-02 14:55:51.112562
2022-12-02 14:55:51.120740
2022-12-02 14:55:51.133057
2022-12-02 14:55:51.141543
2022-12-02 14:55:51.149202
2022-12-02 14:55:51.157848
2022-12-02 14:55:51.169651
2022-12-02 14:55:51.178182
2022-12-02 14:55:51.186375
2022-12-02 14:55:51.197988
2022-12-02 14:55:51.206372
2022-12-02 14:55:51.214775
2022-12-02 14:55:51.223019
2022-12-02 14:55:51.235324
2022-12-02 14:55:51.243629
2022-12-02 14:55:51.251897
2022-12-02 14:55:51.263232
2022-12-02 14:55:51.272389
2022-12-02 14:55:51.280254
2022-12-02 14:55:51.288436
2022-12-02 14:55:51.301632
2022-12-02 14:55:51.328535
2022-12-02 14:55:51.335154
2022-12-02 14:55:51.336643
2022-12-02 14:55:51.338753
2022-12-02 14:55:51.345364
2022-12-02 14:55:51.355135
2022-12-02 14:55:51.365559
2022-12-02 14:55:51.374163
2022-12-02 14:55:51.382935
2022-12-02 14:55:51.394962
2022-12-02 14:55:51.403368
2022-12-02 14:55:51.411184
2022-12-02 14:55:51.418975
2022-12-02 14:55:51.431733
2022-12-02 14:55:51.442493
2022-12-02 14:55:51.448465
2022-12-02 14:55:51.460024
2022-12-02 14:55:51.468831
2022-12-02 14:55:51.476518
2022-12-02 14:55:51.485332
2022-12-02 14:55:51.503940
2022-12-02 14:55:51.506452
2022-12-02 14:55:51.513402
2022-12-02 14:55:51.522056
2022-12-02 14:55:51.534223
2022-12-02 14:55:51.542536
2022-12-02 14:55:51.550744
2022-12-02 14:55:51.563019
2022-12-02 14:55:51.571262
2022-12-02 14:55:51.579482
2022-12-02 14:55:51.587764
2022-12-02 14:55:51.599740
2022-12-02 14:55:51.607927
2022-12-02 14:55:51.616495
2022-12-02 14:55:51.628996
2022-12-02 14:55:51.637122
2022-12-02 14:55:51.645010
2022-12-02 14:55:51.652882
2022-12-02 14:55:51.665652
2022-12-02 14:55:51.673774
2022-12-02 14:55:51.681554
2022-12-02 14:55:51.694123
2022-12-02 14:55:51.718705
2022-12-02 14:55:51.720194
2022-12-02 14:55:51.721188
2022-12-02 14:55:51.733783
2022-12-02 14:55:51.769514
2022-12-02 14:55:52.014635
2022-12-02 14:55:52.036410
2022-12-02 14:55:52.052248
2022-12-02 14:55:52.055287
2022-12-02 14:55:52.057219
2022-12-02 14:55:52.058304
2022-12-02 14:55:52.060199
2022-12-02 14:55:52.061192
2022-12-02 14:55:52.062211
2022-12-02 14:55:52.062707
2022-12-02 14:55:52.063720
2022-12-02 14:55:52.065124
2022-12-02 14:55:52.066126
2022-12-02 14:55:52.067159
2022-12-02 14:55:52.068581
2022-12-02 14:55:52.069212
2022-12-02 14:55:52.070567
2022-12-02 14:55:52.072590
2022-12-02 14:55:52.073625
2022-12-02 14:55:52.075505
2022-12-02 14:55:52.076506
2022-12-02 14:55:52.077780
2022-12-02 14:55:52.078721
2022-12-02 14:55:52.079613
2022-12-02 14:55:52.079986
2022-12-02 14:55:52.081551
2022-12-02 14:55:52.082570
2022-12-02 14:55:52.083674
2022-12-02 14:55:52.087115
2022-12-02 14:55:52.093647
2022-12-02 14:55:52.096301
2022-12-02 14:55:52.098459
2022-12-02 14:55:52.100174
2022-12-02 14:55:52.104600
2022-12-02 14:55:52.105669
2022-12-02 14:55:52.106136
2022-12-02 14:55:52.107816
2022-12-02 14:55:52.108720
2022-12-02 14:55:52.109477
2022-12-02 14:55:52.111788
2022-12-02 14:55:52.123772
2022-12-02 14:55:52.132850
2022-12-02 14:55:52.139915
2022-12-02 14:55:52.160982
2022-12-02 14:55:52.162351
2022-12-02 14:55:52.193888
2022-12-02 14:55:52.195250
2022-12-02 14:55:52.199425
2022-12-02 14:55:52.201726
2022-12-02 14:55:52.205960
2022-12-02 14:55:52.218499
2022-12-02 14:55:52.226242
2022-12-02 14:55:52.234822
2022-12-02 14:55:52.242166
2022-12-02 14:55:52.255425
2022-12-02 14:55:52.263456
2022-12-02 14:55:52.271547
2022-12-02 14:55:52.283855
2022-12-02 14:55:52.291422
2022-12-02 14:55:52.299925
2022-12-02 14:55:52.308029
2022-12-02 14:55:52.320498
2022-12-02 14:55:52.329174
2022-12-02 14:55:52.337112
2022-12-02 14:55:52.354368
2022-12-02 14:55:52.358001
2022-12-02 14:55:52.369163
2022-12-02 14:55:52.374725
2022-12-02 14:55:52.386129
2022-12-02 14:55:52.394089
2022-12-02 14:55:52.402763
2022-12-02 14:55:52.410301
2022-12-02 14:55:52.422986
2022-12-02 14:55:52.431440
2022-12-02 14:55:52.439350
2022-12-02 14:55:52.452047
2022-12-02 14:55:52.459975
2022-12-02 14:55:52.467746
2022-12-02 14:55:52.476157
2022-12-02 14:55:52.488526
2022-12-02 14:55:52.496953
2022-12-02 14:55:52.505112
2022-12-02 14:55:52.517205
2022-12-02 14:55:52.525403
2022-12-02 14:55:52.533647
2022-12-02 14:55:52.541415
2022-12-02 14:55:52.553624
2022-12-02 14:55:52.562639
2022-12-02 14:55:52.570268
2022-12-02 14:55:52.582180
2022-12-02 14:55:52.590379
2022-12-02 14:55:52.598562
2022-12-02 14:55:52.607499
2022-12-02 14:55:52.658778
2022-12-02 14:55:52.667439
2022-12-02 14:55:52.669009
2022-12-02 14:55:52.670325
2022-12-02 14:55:52.672135
2022-12-02 14:55:52.673073
2022-12-02 14:55:52.674123
2022-12-02 14:55:52.684921
2022-12-02 14:55:52.693216
2022-12-02 14:55:52.701781
2022-12-02 14:55:52.713848
2022-12-02 14:55:52.721409
2022-12-02 14:55:52.729683
2022-12-02 14:55:52.737776
2022-12-02 14:55:52.750247
2022-12-02 14:55:52.759153
2022-12-02 14:55:52.767278
2022-12-02 14:55:52.779079
2022-12-02 14:55:52.787601
2022-12-02 14:55:52.795691
2022-12-02 14:55:52.803921
2022-12-02 14:55:52.815801
2022-12-02 14:55:52.824140
2022-12-02 14:55:52.832350
2022-12-02 14:55:52.845052
2022-12-02 14:55:52.852716
2022-12-02 14:55:52.861481
2022-12-02 14:55:52.869880
2022-12-02 14:55:52.882039
2022-12-02 14:55:52.890228
2022-12-02 14:55:52.898568
2022-12-02 14:55:52.910700
2022-12-02 14:55:52.919052
2022-12-02 14:55:52.927098
2022-12-02 14:55:52.935203
2022-12-02 14:55:52.947167
2022-12-02 14:55:52.956231
2022-12-02 14:55:52.963383
2022-12-02 14:55:52.976423
2022-12-02 14:55:52.983955
2022-12-02 14:55:52.992910
2022-12-02 14:55:53.000535
2022-12-02 14:55:53.012853
2022-12-02 14:55:53.020756
2022-12-02 14:55:53.029678
2022-12-02 14:55:53.040973
2022-12-02 14:55:53.049895
2022-12-02 14:55:53.058405
2022-12-02 14:55:53.066411
2022-12-02 14:55:53.078873
2022-12-02 14:55:53.087046
2022-12-02 14:55:53.095033
2022-12-02 14:55:53.106953
2022-12-02 14:55:53.115475
2022-12-02 14:55:53.123364
2022-12-02 14:55:53.131369
2022-12-02 14:55:53.144029
2022-12-02 14:55:53.151848
2022-12-02 14:55:53.160351
2022-12-02 14:55:53.172950
2022-12-02 14:55:53.180970
2022-12-02 14:55:53.188538
2022-12-02 14:55:53.197125
2022-12-02 14:55:53.209754
2022-12-02 14:55:53.217885
2022-12-02 14:55:53.225219
2022-12-02 14:55:53.233956
2022-12-02 14:55:53.246036
2022-12-02 14:55:53.253929
2022-12-02 14:55:53.262765
2022-12-02 14:55:53.275224
2022-12-02 14:55:53.283479
2022-12-02 14:55:53.291476
2022-12-02 14:55:53.299541
2022-12-02 14:55:53.311922
2022-12-02 14:55:53.320368
2022-12-02 14:55:53.328430
2022-12-02 14:55:53.339838
2022-12-02 14:55:53.348666
2022-12-02 14:55:53.357219
2022-12-02 14:55:53.365423
2022-12-02 14:55:53.377707
2022-12-02 14:55:53.385980
2022-12-02 14:55:53.394302
2022-12-02 14:55:53.406524
2022-12-02 14:55:53.414604
2022-12-02 14:55:53.423251
2022-12-02 14:55:53.430495
2022-12-02 14:55:53.442409
2022-12-02 14:55:53.451414
2022-12-02 14:55:53.459499
2022-12-02 14:55:53.471611
2022-12-02 14:55:53.479533
2022-12-02 14:55:53.487874
2022-12-02 14:55:53.496215
2022-12-02 14:55:53.508140
2022-12-02 14:55:53.516658
2022-12-02 14:55:53.524606
2022-12-02 14:55:53.536666
2022-12-02 14:55:53.545691
2022-12-02 14:55:53.553377
2022-12-02 14:55:53.561693
2022-12-02 14:55:53.574556
2022-12-02 14:55:53.582390
2022-12-02 14:55:53.590791
2022-12-02 14:55:53.602452
2022-12-02 14:55:53.610978
2022-12-02 14:55:53.619602
2022-12-02 14:55:53.627645
2022-12-02 14:55:53.640045
2022-12-02 14:55:53.647501
2022-12-02 14:55:53.655997
2022-12-02 14:55:53.668500
2022-12-02 14:55:53.676216
2022-12-02 14:55:53.684101
2022-12-02 14:55:53.692950
2022-12-02 14:55:53.705348
2022-12-02 14:55:53.713286
2022-12-02 14:55:53.721798
2022-12-02 14:55:53.733742
2022-12-02 14:55:53.741703
2022-12-02 14:55:53.749747
2022-12-02 14:55:53.758671
2022-12-02 14:55:53.770757
2022-12-02 14:55:53.779186
2022-12-02 14:55:53.787612
2022-12-02 14:55:53.799863
2022-12-02 14:55:53.807936
2022-12-02 14:55:53.816052
2022-12-02 14:55:53.823964
2022-12-02 14:55:53.836508
2022-12-02 14:55:53.844791
2022-12-02 14:55:53.853011
2022-12-02 14:55:53.865081
2022-12-02 14:55:53.872887
2022-12-02 14:55:53.881489
2022-12-02 14:55:53.889879
2022-12-02 14:55:53.901788
2022-12-02 14:55:53.909686
2022-12-02 14:55:53.918150
2022-12-02 14:55:53.930325
2022-12-02 14:55:53.938702
2022-12-02 14:55:53.946722
2022-12-02 14:55:53.955189
2022-12-02 14:55:53.966884
2022-12-02 14:55:53.975433
2022-12-02 14:55:53.983031
2022-12-02 14:55:53.996135
2022-12-02 14:55:54.004341
2022-12-02 14:55:54.012562
2022-12-02 14:55:54.021230
2022-12-02 14:55:54.032807
2022-12-02 14:55:54.040604
2022-12-02 14:55:54.049363
2022-12-02 14:55:54.062204
2022-12-02 14:55:54.070230
2022-12-02 14:55:54.078421
2022-12-02 14:55:54.086071
2022-12-02 14:55:54.098638
2022-12-02 14:55:54.107365
2022-12-02 14:55:54.115040
2022-12-02 14:55:54.123507
2022-12-02 14:55:54.135714
2022-12-02 14:55:54.143959
2022-12-02 14:55:54.151958
2022-12-02 14:55:54.163613
2022-12-02 14:55:54.172679
2022-12-02 14:55:54.180109
2022-12-02 14:55:54.189098
2022-12-02 14:55:54.200234
2022-12-02 14:55:54.209677
2022-12-02 14:55:54.216498
2022-12-02 14:55:54.229419
2022-12-02 14:55:54.238325
2022-12-02 14:55:54.245908
2022-12-02 14:55:54.254476
2022-12-02 14:55:54.266665
2022-12-02 14:55:54.275329
2022-12-02 14:55:54.283047
2022-12-02 14:55:54.295430
2022-12-02 14:55:54.303265
2022-12-02 14:55:54.311786
2022-12-02 14:55:54.320242
2022-12-02 14:55:54.332133
2022-12-02 14:55:54.340609
2022-12-02 14:55:54.348169
2022-12-02 14:55:54.360221
2022-12-02 14:55:54.368680
2022-12-02 14:55:54.376782
2022-12-02 14:55:54.384642
2022-12-02 14:55:54.397543
2022-12-02 14:55:54.405324
2022-12-02 14:55:54.413792
2022-12-02 14:55:54.426147
2022-12-02 14:55:54.434226
2022-12-02 14:55:54.442538
2022-12-02 14:55:54.450180
2022-12-02 14:55:54.462487
2022-12-02 14:55:54.470429
2022-12-02 14:55:54.479204
2022-12-02 14:55:54.491350
2022-12-02 14:55:54.499086
2022-12-02 14:55:54.508147
2022-12-02 14:55:54.516338
2022-12-02 14:55:54.528339
2022-12-02 14:55:54.536744
2022-12-02 14:55:54.544958
2022-12-02 14:55:54.556618
2022-12-02 14:55:54.564674
2022-12-02 14:55:54.573671
2022-12-02 14:55:54.581238
2022-12-02 14:55:54.593713
2022-12-02 14:55:54.602475
2022-12-02 14:55:54.610158
2022-12-02 14:55:54.623275
2022-12-02 14:55:54.630994
2022-12-02 14:55:54.639411
2022-12-02 14:55:54.647354
2022-12-02 14:55:54.659734
2022-12-02 14:55:54.667405
2022-12-02 14:55:54.675774
2022-12-02 14:55:54.688362
2022-12-02 14:55:54.698903
2022-12-02 14:55:54.704764
2022-12-02 14:55:54.712972
2022-12-02 14:55:54.724661
2022-12-02 14:55:54.736602
2022-12-02 14:55:54.741838
2022-12-02 14:55:54.842795
2022-12-02 14:55:54.843725
2022-12-02 14:55:54.844881
2022-12-02 14:55:54.846656
2022-12-02 14:55:54.847589
2022-12-02 14:55:54.848835
2022-12-02 14:55:54.850022
2022-12-02 14:55:54.851556
2022-12-02 14:55:54.852407
2022-12-02 14:55:54.853064
2022-12-02 14:55:54.854057
2022-12-02 14:55:54.855548
2022-12-02 14:55:54.864490
2022-12-02 14:55:54.871872
2022-12-02 14:55:54.915332
2022-12-02 14:55:54.944309
2022-12-02 14:55:54.947637
2022-12-02 14:55:54.948886
2022-12-02 14:55:54.950471
2022-12-02 14:55:54.952729
2022-12-02 14:55:54.954722
2022-12-02 14:55:55.028600
2022-12-02 14:55:55.047480
2022-12-02 14:55:55.055518
2022-12-02 14:55:55.057235
2022-12-02 14:55:55.060030
2022-12-02 14:55:55.070166
2022-12-02 14:55:55.072172
2022-12-02 14:55:55.076303
2022-12-02 14:55:55.078350
2022-12-02 14:55:55.079711
2022-12-02 14:55:55.081236
2022-12-02 14:55:55.084016
2022-12-02 14:55:55.085681
2022-12-02 14:55:55.087291
2022-12-02 14:55:55.088517
2022-12-02 14:55:55.090275
2022-12-02 14:55:55.097769
2022-12-02 14:55:55.106103
2022-12-02 14:55:55.117601
2022-12-02 14:55:55.126091
2022-12-02 14:55:55.134206
2022-12-02 14:55:55.142463
2022-12-02 14:55:55.154523
2022-12-02 14:55:55.162727
2022-12-02 14:55:55.171580
2022-12-02 14:55:55.183763
2022-12-02 14:55:55.192052
2022-12-02 14:55:55.200483
2022-12-02 14:55:55.208507
2022-12-02 14:55:55.220098
2022-12-02 14:55:55.228189
2022-12-02 14:55:55.236398
2022-12-02 14:55:55.249224
2022-12-02 14:55:55.257454
2022-12-02 14:55:55.266104
2022-12-02 14:55:55.273697
2022-12-02 14:55:55.286447
2022-12-02 14:55:55.294587
2022-12-02 14:55:55.302755
2022-12-02 14:55:55.315076
2022-12-02 14:55:55.323217
2022-12-02 14:55:55.331446
2022-12-02 14:55:55.339618
2022-12-02 14:55:55.351639
2022-12-02 14:55:55.360441
2022-12-02 14:55:55.368173
2022-12-02 14:55:55.379957
2022-12-02 14:55:55.388849
2022-12-02 14:55:55.396480
2022-12-02 14:55:55.404738
2022-12-02 14:55:55.417214
2022-12-02 14:55:55.424810
2022-12-02 14:55:55.433951
2022-12-02 14:55:55.445217
2022-12-02 14:55:55.454236
2022-12-02 14:55:55.462345
2022-12-02 14:55:55.470838
2022-12-02 14:55:55.482153
2022-12-02 14:55:55.490831
2022-12-02 14:55:55.499101
2022-12-02 14:55:55.511416
2022-12-02 14:55:55.519731
2022-12-02 14:55:55.528026
2022-12-02 14:55:55.536170
2022-12-02 14:55:55.548185
2022-12-02 14:55:55.555995
2022-12-02 14:55:55.564572
2022-12-02 14:55:55.576957
2022-12-02 14:55:55.584989
2022-12-02 14:55:55.593185
2022-12-02 14:55:55.601426
2022-12-02 14:55:55.614042
2022-12-02 14:55:55.622327
2022-12-02 14:55:55.630409
2022-12-02 14:55:55.642384
2022-12-02 14:55:55.650745
2022-12-02 14:55:55.658827
2022-12-02 14:55:55.667401
2022-12-02 14:55:55.679090
2022-12-02 14:55:55.687845
2022-12-02 14:55:55.695611
2022-12-02 14:55:55.708346
2022-12-02 14:55:55.715867
2022-12-02 14:55:55.724622
2022-12-02 14:55:55.732527
2022-12-02 14:55:55.745212
2022-12-02 14:55:55.753474
2022-12-02 14:55:55.761183
2022-12-02 14:55:55.774022
2022-12-02 14:55:55.782045
2022-12-02 14:55:55.790516
2022-12-02 14:55:55.798417
2022-12-02 14:55:55.811226
2022-12-02 14:55:55.819119
2022-12-02 14:55:55.827361
2022-12-02 14:55:55.835127
2022-12-02 14:55:55.847579
2022-12-02 14:55:55.855017
2022-12-02 14:55:55.863837
2022-12-02 14:55:55.876192
2022-12-02 14:55:55.883724
2022-12-02 14:55:55.892649
2022-12-02 14:55:55.900083
2022-12-02 14:55:55.912867
2022-12-02 14:55:55.921281
2022-12-02 14:55:55.928903
2022-12-02 14:55:55.941757
2022-12-02 14:55:55.949460
2022-12-02 14:55:55.958241
2022-12-02 14:55:55.966217
2022-12-02 14:55:55.978432
2022-12-02 14:55:55.987348
2022-12-02 14:55:55.995099
2022-12-02 14:55:56.007188
2022-12-02 14:55:56.015827
2022-12-02 14:55:56.023458
2022-12-02 14:55:56.031865
2022-12-02 14:55:56.044360
2022-12-02 14:55:56.051634
2022-12-02 14:55:56.060757
2022-12-02 14:55:56.073069
2022-12-02 14:55:56.081418
2022-12-02 14:55:56.089439
2022-12-02 14:55:56.097426
2022-12-02 14:55:56.110118
2022-12-02 14:55:56.117984
2022-12-02 14:55:56.125912
2022-12-02 14:55:56.138612
2022-12-02 14:55:56.146411
2022-12-02 14:55:56.154945
2022-12-02 14:55:56.162950
2022-12-02 14:55:56.174826
2022-12-02 14:55:56.183188
2022-12-02 14:55:56.191273
2022-12-02 14:55:56.203514
2022-12-02 14:55:56.211331
2022-12-02 14:55:56.220338
2022-12-02 14:55:56.227856
2022-12-02 14:55:56.239837
2022-12-02 14:55:56.248482
2022-12-02 14:55:56.256762
2022-12-02 14:55:56.268758
2022-12-02 14:55:56.277566
2022-12-02 14:55:56.285573
2022-12-02 14:55:56.293955
2022-12-02 14:55:56.305443
2022-12-02 14:55:56.313700
2022-12-02 14:55:56.322446
2022-12-02 14:55:56.334607
2022-12-02 14:55:56.342365
2022-12-02 14:55:56.351060
2022-12-02 14:55:56.359757
2022-12-02 14:55:56.371385
2022-12-02 14:55:56.380089
2022-12-02 14:55:56.387807
2022-12-02 14:55:56.399947
2022-12-02 14:55:56.408260
2022-12-02 14:55:56.416859
2022-12-02 14:55:56.424337
2022-12-02 14:55:56.436754
2022-12-02 14:55:56.445327
2022-12-02 14:55:56.453453
2022-12-02 14:55:56.465626
2022-12-02 14:55:56.474493
2022-12-02 14:55:56.482041
2022-12-02 14:55:56.490905
2022-12-02 14:55:56.503258
2022-12-02 14:55:56.511127
2022-12-02 14:55:56.519570
2022-12-02 14:55:56.531581
2022-12-02 14:55:56.539587
2022-12-02 14:55:56.547744
2022-12-02 14:55:56.556010
2022-12-02 14:55:56.567981
2022-12-02 14:55:56.576482
2022-12-02 14:55:56.584484
2022-12-02 14:55:56.596652
2022-12-02 14:55:56.605323
2022-12-02 14:55:56.613094
2022-12-02 14:55:56.621694
2022-12-02 14:55:56.633194
2022-12-02 14:55:56.641727
2022-12-02 14:55:56.650113
2022-12-02 14:55:56.662573
2022-12-02 14:55:56.670553
2022-12-02 14:55:56.678725
2022-12-02 14:55:56.686625
2022-12-02 14:55:56.698843
2022-12-02 14:55:56.707815
2022-12-02 14:55:56.715133
2022-12-02 14:55:56.724202
2022-12-02 14:55:56.736043
2022-12-02 14:55:56.744373
2022-12-02 14:55:56.752669
2022-12-02 14:55:56.764939
2022-12-02 14:55:56.772714
2022-12-02 14:55:56.780407
2022-12-02 14:55:56.789477
2022-12-02 14:55:56.801535
2022-12-02 14:55:56.810025
2022-12-02 14:55:56.818232
2022-12-02 14:55:56.830551
2022-12-02 14:55:56.838716
2022-12-02 14:55:56.847128
2022-12-02 14:55:56.855116
2022-12-02 14:55:56.866583
2022-12-02 14:55:56.875059
2022-12-02 14:55:56.883875
2022-12-02 14:55:56.896340
2022-12-02 14:55:56.904499
2022-12-02 14:55:56.912697
2022-12-02 14:55:56.921061
2022-12-02 14:55:56.932167
2022-12-02 14:55:56.941139
2022-12-02 14:55:56.948915
2022-12-02 14:55:56.961172
2022-12-02 14:55:56.969411
2022-12-02 14:55:56.977772
2022-12-02 14:55:56.986410
2022-12-02 14:55:56.998559
2022-12-02 14:55:57.007355
2022-12-02 14:55:57.015259
2022-12-02 14:55:57.027332
2022-12-02 14:55:57.034745
2022-12-02 14:55:57.043809
2022-12-02 14:55:57.052240
2022-12-02 14:55:57.063650
2022-12-02 14:55:57.071678
2022-12-02 14:55:57.080489
2022-12-02 14:55:57.093155
2022-12-02 14:55:57.101242
2022-12-02 14:55:57.109500
2022-12-02 14:55:57.117583
2022-12-02 14:55:57.128957
2022-12-02 14:55:57.137636
2022-12-02 14:55:57.145436
2022-12-02 14:55:57.158385
2022-12-02 14:55:57.165950
2022-12-02 14:55:57.174732
2022-12-02 14:55:57.182952
2022-12-02 14:55:57.195127
2022-12-02 14:55:57.203343
2022-12-02 14:55:57.211525
2022-12-02 14:55:57.224274
2022-12-02 14:55:57.231961
2022-12-02 14:55:57.240249
2022-12-02 14:55:57.248645
2022-12-02 14:55:57.261131
2022-12-02 14:55:57.269349
2022-12-02 14:55:57.277660
2022-12-02 14:55:57.289581
2022-12-02 14:55:57.297297
2022-12-02 14:55:57.305956
2022-12-02 14:55:57.314062
2022-12-02 14:55:57.325924
2022-12-02 14:55:57.333967
2022-12-02 14:55:57.342801
2022-12-02 14:55:57.354541
2022-12-02 14:55:57.362693
2022-12-02 14:55:57.371301
2022-12-02 14:55:57.379190
2022-12-02 14:55:57.392251
2022-12-02 14:55:57.399763
2022-12-02 14:55:57.408478
2022-12-02 14:55:57.420783
2022-12-02 14:55:57.428392
2022-12-02 14:55:57.437362
2022-12-02 14:55:57.444869
2022-12-02 14:55:57.457543
2022-12-02 14:55:57.464966
2022-12-02 14:55:57.473717
2022-12-02 14:55:57.486346
2022-12-02 14:55:57.493707
2022-12-02 14:55:57.501885
2022-12-02 14:55:57.510364
2022-12-02 14:55:57.522636
2022-12-02 14:55:57.530780
2022-12-02 14:55:57.539005
2022-12-02 14:55:57.547524
2022-12-02 14:55:57.559768
2022-12-02 14:55:57.567875
2022-12-02 14:55:57.576259
2022-12-02 14:55:57.588514
2022-12-02 14:55:57.596269
2022-12-02 14:55:57.605359
2022-12-02 14:55:57.613580
2022-12-02 14:55:57.625440
2022-12-02 14:55:57.633019
2022-12-02 14:55:57.641945
2022-12-02 14:55:57.654142
2022-12-02 14:55:57.662244
2022-12-02 14:55:57.670493
2022-12-02 14:55:57.677862
2022-12-02 14:55:57.691378
2022-12-02 14:55:57.698631
2022-12-02 14:55:57.707249
2022-12-02 14:55:57.719786
2022-12-02 14:55:57.727378
2022-12-02 14:55:57.736254
2022-12-02 14:55:57.744284
2022-12-02 14:55:57.756201
2022-12-02 14:55:57.764655
2022-12-02 14:55:57.772220
2022-12-02 14:55:57.785250
2022-12-02 14:55:57.793447
2022-12-02 14:55:57.801568
2022-12-02 14:55:57.809772
2022-12-02 14:55:57.822252
2022-12-02 14:55:57.829820
2022-12-02 14:55:57.838562
2022-12-02 14:55:57.850750
2022-12-02 14:55:57.858842
2022-12-02 14:55:57.866318
2022-12-02 14:55:57.875253
2022-12-02 14:55:57.887708
2022-12-02 14:55:57.895914
2022-12-02 14:55:57.904362
2022-12-02 14:55:57.915318
2022-12-02 14:55:57.924147
2022-12-02 14:55:57.931894
2022-12-02 14:55:57.940659
2022-12-02 14:55:57.953254
2022-12-02 14:55:57.960930
2022-12-02 14:55:57.969127
2022-12-02 14:55:57.981777
2022-12-02 14:55:57.990024
2022-12-02 14:55:57.998246
2022-12-02 14:55:58.006368
2022-12-02 14:55:58.018601
2022-12-02 14:55:58.026877
2022-12-02 14:55:58.035373
2022-12-02 14:55:58.047060
2022-12-02 14:55:58.055658
2022-12-02 14:55:58.063355
2022-12-02 14:55:58.071241
2022-12-02 14:55:58.084243
2022-12-02 14:55:58.092346
2022-12-02 14:55:58.100606
2022-12-02 14:55:58.111955
2022-12-02 14:55:58.121182
2022-12-02 14:55:58.128979
2022-12-02 14:55:58.137482
2022-12-02 14:55:58.149523
2022-12-02 14:55:58.158239
2022-12-02 14:55:58.165260
2022-12-02 14:55:58.177790
2022-12-02 14:55:58.186204
2022-12-02 14:55:58.194182
2022-12-02 14:55:58.202771
2022-12-02 14:55:58.215252
2022-12-02 14:55:58.223612
2022-12-02 14:55:58.231882
2022-12-02 14:55:58.244239
2022-12-02 14:55:58.252363
2022-12-02 14:55:58.259619
2022-12-02 14:55:58.268592
2022-12-02 14:55:58.280620
2022-12-02 14:55:58.289372
2022-12-02 14:55:58.296995
2022-12-02 14:55:58.309540
2022-12-02 14:55:58.317845
2022-12-02 14:55:58.326030
2022-12-02 14:55:58.334248
2022-12-02 14:55:58.346050
2022-12-02 14:55:58.354486
2022-12-02 14:55:58.362251
2022-12-02 14:55:58.375248
2022-12-02 14:55:58.382903
2022-12-02 14:55:58.391563
2022-12-02 14:55:58.399420
2022-12-02 14:55:58.411264
2022-12-02 14:55:58.420360
2022-12-02 14:55:58.427955
2022-12-02 14:55:58.436585
2022-12-02 14:55:58.448128
2022-12-02 14:55:58.457341
2022-12-02 14:55:58.465012
2022-12-02 14:55:58.476777
2022-12-02 14:55:58.485613
2022-12-02 14:55:58.494006
2022-12-02 14:55:58.502250
2022-12-02 14:55:58.513522
2022-12-02 14:55:58.521759
2022-12-02 14:55:58.530548
2022-12-02 14:55:58.542964
2022-12-02 14:55:58.551259
2022-12-02 14:55:58.559323
2022-12-02 14:55:58.567661
2022-12-02 14:55:58.579573
2022-12-02 14:55:58.587457
2022-12-02 14:55:58.595259
2022-12-02 14:55:58.607842
2022-12-02 14:55:58.616172
2022-12-02 14:55:58.624626
2022-12-02 14:55:58.632527
2022-12-02 14:55:58.644947
2022-12-02 14:55:58.652796
2022-12-02 14:55:58.661648
2022-12-02 14:55:58.673728
2022-12-02 14:55:58.681462
2022-12-02 14:55:58.690479
2022-12-02 14:55:58.698086
2022-12-02 14:55:58.710497
2022-12-02 14:55:58.719373
2022-12-02 14:55:58.727333
2022-12-02 14:55:58.739554
2022-12-02 14:55:58.747846
2022-12-02 14:55:58.755763
2022-12-02 14:55:58.764197
2022-12-02 14:55:58.776501
2022-12-02 14:55:58.784678
2022-12-02 14:55:58.792831
2022-12-02 14:55:58.804169
2022-12-02 14:55:58.812772
2022-12-02 14:55:58.821578
2022-12-02 14:55:58.828853
2022-12-02 14:55:58.841794
2022-12-02 14:55:58.850220
2022-12-02 14:55:58.858308
2022-12-02 14:55:58.870507
2022-12-02 14:55:58.878312
2022-12-02 14:55:58.887208
2022-12-02 14:55:58.894589
2022-12-02 14:55:58.907445
2022-12-02 14:55:58.914865
2022-12-02 14:55:58.924028
2022-12-02 14:55:58.936414
2022-12-02 14:55:58.944475
2022-12-02 14:55:58.952929
2022-12-02 14:55:58.960757
2022-12-02 14:55:58.972070
2022-12-02 14:55:58.980209
2022-12-02 14:55:58.989373
2022-12-02 14:55:59.000654
2022-12-02 14:55:59.008927
2022-12-02 14:55:59.017800
2022-12-02 14:55:59.025355
2022-12-02 14:55:59.038373
2022-12-02 14:55:59.046370
2022-12-02 14:55:59.054359
2022-12-02 14:55:59.066648
2022-12-02 14:55:59.075227
2022-12-02 14:55:59.083814
2022-12-02 14:55:59.091682
2022-12-02 14:55:59.104258
2022-12-02 14:55:59.111991
2022-12-02 14:55:59.120558
2022-12-02 14:55:59.132460
2022-12-02 14:55:59.141266
2022-12-02 14:55:59.148283
2022-12-02 14:55:59.157553
2022-12-02 14:55:59.169529
2022-12-02 14:55:59.177431
2022-12-02 14:55:59.185091
2022-12-02 14:55:59.197680
2022-12-02 14:55:59.206637
2022-12-02 14:55:59.214497
2022-12-02 14:55:59.223010
2022-12-02 14:55:59.235324
2022-12-02 14:55:59.243612
2022-12-02 14:55:59.251610
2022-12-02 14:55:59.259724
2022-12-02 14:55:59.272393
2022-12-02 14:55:59.280132
2022-12-02 14:55:59.288423
2022-12-02 14:55:59.300471
2022-12-02 14:55:59.308426
2022-12-02 14:55:59.316756
2022-12-02 14:55:59.324594
2022-12-02 14:55:59.337110
2022-12-02 14:55:59.345210
2022-12-02 14:55:59.352990
2022-12-02 14:55:59.366039
2022-12-02 14:55:59.373822
2022-12-02 14:55:59.382496
2022-12-02 14:55:59.390361
2022-12-02 14:55:59.402580
2022-12-02 14:55:59.410523
2022-12-02 14:55:59.419573
2022-12-02 14:55:59.431292
2022-12-02 14:55:59.440268
2022-12-02 14:55:59.448153
2022-12-02 14:55:59.456537
2022-12-02 14:55:59.468785
2022-12-02 14:55:59.476407
2022-12-02 14:55:59.484914
2022-12-02 14:55:59.497475
2022-12-02 14:55:59.505566
2022-12-02 14:55:59.513855
2022-12-02 14:55:59.521872
2022-12-02 14:55:59.534258
2022-12-02 14:55:59.541561
2022-12-02 14:55:59.550618
2022-12-02 14:55:59.562741
2022-12-02 14:55:59.570729
2022-12-02 14:55:59.579050
2022-12-02 14:55:59.587639
2022-12-02 14:55:59.599385
2022-12-02 14:55:59.608350
2022-12-02 14:55:59.615418
2022-12-02 14:55:59.628123
2022-12-02 14:55:59.636412
2022-12-02 14:55:59.644015
2022-12-02 14:55:59.653270
2022-12-02 14:55:59.664343
2022-12-02 14:55:59.673325
2022-12-02 14:55:59.681246
2022-12-02 14:55:59.693982
2022-12-02 14:55:59.702264
2022-12-02 14:55:59.710365
2022-12-02 14:55:59.718527
2022-12-02 14:55:59.730675
2022-12-02 14:55:59.738597
2022-12-02 14:55:59.747150
2022-12-02 14:55:59.759509
2022-12-02 14:55:59.767537
2022-12-02 14:55:59.775894
2022-12-02 14:55:59.784061
2022-12-02 14:55:59.796290
2022-12-02 14:55:59.804554
2022-12-02 14:55:59.812500
2022-12-02 14:55:59.825403
2022-12-02 14:55:59.833267
2022-12-02 14:55:59.841426
2022-12-02 14:55:59.849465
2022-12-02 14:55:59.861672
2022-12-02 14:55:59.870400
2022-12-02 14:55:59.878269
2022-12-02 14:55:59.889802
2022-12-02 14:55:59.897724
2022-12-02 14:55:59.906612
2022-12-02 14:55:59.914392
2022-12-02 14:55:59.927048
2022-12-02 14:55:59.935616
2022-12-02 14:55:59.943337
2022-12-02 14:55:59.956393
2022-12-02 14:55:59.964336
2022-12-02 14:55:59.972636
2022-12-02 14:55:59.980734
2022-12-02 14:55:59.993037
2022-12-02 14:56:00.001401
2022-12-02 14:56:00.009392
2022-12-02 14:56:00.020943
2022-12-02 14:56:00.029569
2022-12-02 14:56:00.037080
2022-12-02 14:56:00.045672
2022-12-02 14:56:00.058512
2022-12-02 14:56:00.066442
2022-12-02 14:56:00.074287
2022-12-02 14:56:00.087115
2022-12-02 14:56:00.094938
2022-12-02 14:56:00.103081
2022-12-02 14:56:00.111595
2022-12-02 14:56:00.123514
2022-12-02 14:56:00.132191
2022-12-02 14:56:00.139519
2022-12-02 14:56:00.148648
2022-12-02 14:56:00.161175
2022-12-02 14:56:00.169251
2022-12-02 14:56:00.177281
2022-12-02 14:56:00.189606
2022-12-02 14:56:00.197635
2022-12-02 14:56:00.205301
2022-12-02 14:56:00.213658
2022-12-02 14:56:00.226187
2022-12-02 14:56:00.233965
2022-12-02 14:56:00.241864
2022-12-02 14:56:00.254816
2022-12-02 14:56:00.262762
2022-12-02 14:56:00.271281
2022-12-02 14:56:00.278839
2022-12-02 14:56:00.291255
2022-12-02 14:56:00.299335
2022-12-02 14:56:00.307939
2022-12-02 14:56:00.320828
2022-12-02 14:56:00.328677
2022-12-02 14:56:00.337269
2022-12-02 14:56:00.345026
2022-12-02 14:56:00.357541
2022-12-02 14:56:00.365492
2022-12-02 14:56:00.374060
2022-12-02 14:56:00.385580
2022-12-02 14:56:00.393619
2022-12-02 14:56:00.402415
2022-12-02 14:56:00.410073
2022-12-02 14:56:00.423383
2022-12-02 14:56:00.430741
2022-12-02 14:56:00.439598
2022-12-02 14:56:00.451701
2022-12-02 14:56:00.459425
2022-12-02 14:56:00.468261
2022-12-02 14:56:00.476204
2022-12-02 14:56:00.488584
2022-12-02 14:56:00.496777
2022-12-02 14:56:00.504975
2022-12-02 14:56:00.517340
2022-12-02 14:56:00.525477
2022-12-02 14:56:00.533693
2022-12-02 14:56:00.541842
2022-12-02 14:56:00.553781
2022-12-02 14:56:00.562208
2022-12-02 14:56:00.570348
2022-12-02 14:56:00.581802
2022-12-02 14:56:00.590655
2022-12-02 14:56:00.598596
2022-12-02 14:56:00.607486
2022-12-02 14:56:00.619843
2022-12-02 14:56:00.627828
2022-12-02 14:56:00.636278
2022-12-02 14:56:00.647483
2022-12-02 14:56:00.656698
2022-12-02 14:56:00.664066
2022-12-02 14:56:00.672446
2022-12-02 14:56:00.684048
2022-12-02 14:56:00.692587
2022-12-02 14:56:00.700897
2022-12-02 14:56:00.713960
2022-12-02 14:56:00.721808
2022-12-02 14:56:00.730027
2022-12-02 14:56:00.738332
2022-12-02 14:56:00.750822
2022-12-02 14:56:00.758953
2022-12-02 14:56:00.767380
2022-12-02 14:56:00.779278
2022-12-02 14:56:00.787150
2022-12-02 14:56:00.795586
2022-12-02 14:56:00.804022
2022-12-02 14:56:00.815708
2022-12-02 14:56:00.824291
2022-12-02 14:56:00.831602
2022-12-02 14:56:00.844526
2022-12-02 14:56:00.853291
2022-12-02 14:56:00.861275
2022-12-02 14:56:00.869508
2022-12-02 14:56:00.880701
2022-12-02 14:56:00.889819
2022-12-02 14:56:00.897411
2022-12-02 14:56:00.910348
2022-12-02 14:56:00.918758
2022-12-02 14:56:00.926481
2022-12-02 14:56:00.935398
2022-12-02 14:56:00.947252
2022-12-02 14:56:00.955628
2022-12-02 14:56:00.963508
2022-12-02 14:56:00.976356
2022-12-02 14:56:00.984138
2022-12-02 14:56:00.992430
2022-12-02 14:56:01.000564
2022-12-02 14:56:01.012880
2022-12-02 14:56:01.021406
2022-12-02 14:56:01.029092
2022-12-02 14:56:01.036438
2022-12-02 14:56:01.049545
2022-12-02 14:56:01.056795
2022-12-02 14:56:01.065430
2022-12-02 14:56:01.077523
2022-12-02 14:56:01.086744
2022-12-02 14:56:01.094611
2022-12-02 14:56:01.102894
2022-12-02 14:56:01.115109
2022-12-02 14:56:01.123354
2022-12-02 14:56:01.131413
2022-12-02 14:56:01.143292
2022-12-02 14:56:01.152019
2022-12-02 14:56:01.159730
2022-12-02 14:56:01.168566
2022-12-02 14:56:01.180570
2022-12-02 14:56:01.189123
2022-12-02 14:56:01.197130
2022-12-02 14:56:01.209553
2022-12-02 14:56:01.217173
2022-12-02 14:56:01.225060
2022-12-02 14:56:01.233217
2022-12-02 14:56:01.246137
2022-12-02 14:56:01.254661
2022-12-02 14:56:01.262231
2022-12-02 14:56:01.274698
2022-12-02 14:56:01.282200
2022-12-02 14:56:01.291126
2022-12-02 14:56:01.299449
2022-12-02 14:56:01.311250
2022-12-02 14:56:01.319874
2022-12-02 14:56:01.327572
2022-12-02 14:56:01.339703
2022-12-02 14:56:01.347836
2022-12-02 14:56:01.356659
2022-12-02 14:56:01.364927
2022-12-02 14:56:01.377119
2022-12-02 14:56:01.385136
2022-12-02 14:56:01.393506
2022-12-02 14:56:01.405383
2022-12-02 14:56:01.413789
2022-12-02 14:56:01.422576
2022-12-02 14:56:01.430465
2022-12-02 14:56:01.442604
2022-12-02 14:56:01.451296
2022-12-02 14:56:01.459046
2022-12-02 14:56:01.471625
2022-12-02 14:56:01.479582
2022-12-02 14:56:01.487739
2022-12-02 14:56:01.495321
2022-12-02 14:56:01.508224
2022-12-02 14:56:01.516846
2022-12-02 14:56:01.524957
2022-12-02 14:56:01.537102
2022-12-02 14:56:01.545261
2022-12-02 14:56:01.553489
2022-12-02 14:56:01.561564
2022-12-02 14:56:01.574044
2022-12-02 14:56:01.581354
2022-12-02 14:56:01.590528
2022-12-02 14:56:01.601813
2022-12-02 14:56:01.610628
2022-12-02 14:56:01.619392
2022-12-02 14:56:01.627259
2022-12-02 14:56:01.639674
2022-12-02 14:56:01.647259
2022-12-02 14:56:01.655952
2022-12-02 14:56:01.668385
2022-12-02 14:56:01.676373
2022-12-02 14:56:01.684732
2022-12-02 14:56:01.692559
2022-12-02 14:56:01.704779
2022-12-02 14:56:01.713392
2022-12-02 14:56:01.721403
2022-12-02 14:56:01.733414
2022-12-02 14:56:01.741959
2022-12-02 14:56:01.749530
2022-12-02 14:56:01.758513
2022-12-02 14:56:01.770655
2022-12-02 14:56:01.778766
2022-12-02 14:56:01.787277
2022-12-02 14:56:01.799432
2022-12-02 14:56:01.807630
2022-12-02 14:56:01.815530
2022-12-02 14:56:01.823801
2022-12-02 14:56:01.836280
2022-12-02 14:56:01.844161
2022-12-02 14:56:01.852669
2022-12-02 14:56:01.860571
2022-12-02 14:56:01.872531
2022-12-02 14:56:01.880382
2022-12-02 14:56:01.889521
2022-12-02 14:56:01.901393
2022-12-02 14:56:01.909351
2022-12-02 14:56:01.917579
2022-12-02 14:56:01.926099
2022-12-02 14:56:01.938223
2022-12-02 14:56:01.946871
2022-12-02 14:56:01.955377
2022-12-02 14:56:01.967072
2022-12-02 14:56:01.975700
2022-12-02 14:56:01.983729
2022-12-02 14:56:01.991803
2022-12-02 14:56:02.004395
2022-12-02 14:56:02.012172
2022-12-02 14:56:02.020622
2022-12-02 14:56:02.032857
2022-12-02 14:56:02.041360
2022-12-02 14:56:02.049382
2022-12-02 14:56:02.057252
2022-12-02 14:56:02.069166
2022-12-02 14:56:02.077649
2022-12-02 14:56:02.086058
2022-12-02 14:56:02.097810
2022-12-02 14:56:02.105971
2022-12-02 14:56:02.114173
2022-12-02 14:56:02.122157
2022-12-02 14:56:02.134968
2022-12-02 14:56:02.143023
2022-12-02 14:56:02.150720
2022-12-02 14:56:02.162843
2022-12-02 14:56:02.171609
2022-12-02 14:56:02.180119
2022-12-02 14:56:02.187765
2022-12-02 14:56:02.200748
2022-12-02 14:56:02.208943
2022-12-02 14:56:02.217399
2022-12-02 14:56:02.229437
2022-12-02 14:56:02.237159
2022-12-02 14:56:02.245869
2022-12-02 14:56:02.253708
2022-12-02 14:56:02.266089
2022-12-02 14:56:02.274472
2022-12-02 14:56:02.282784
2022-12-02 14:56:02.294962
2022-12-02 14:56:02.303399
2022-12-02 14:56:02.311092
2022-12-02 14:56:02.319651
2022-12-02 14:56:02.331722
2022-12-02 14:56:02.340392
2022-12-02 14:56:02.348037
2022-12-02 14:56:02.359968
2022-12-02 14:56:02.368770
2022-12-02 14:56:02.376770
2022-12-02 14:56:02.385402
2022-12-02 14:56:02.396796
2022-12-02 14:56:02.405291
2022-12-02 14:56:02.413505
2022-12-02 14:56:02.425817
2022-12-02 14:56:02.433811
2022-12-02 14:56:02.442058
2022-12-02 14:56:02.450526
2022-12-02 14:56:02.462834
2022-12-02 14:56:02.470585
2022-12-02 14:56:02.479378
2022-12-02 14:56:02.491250
2022-12-02 14:56:02.499722
2022-12-02 14:56:02.507672
2022-12-02 14:56:02.516376
2022-12-02 14:56:02.528148
2022-12-02 14:56:02.536698
2022-12-02 14:56:02.544476
2022-12-02 14:56:02.557290
2022-12-02 14:56:02.565363
2022-12-02 14:56:02.573760
2022-12-02 14:56:02.581679
2022-12-02 14:56:02.593404
2022-12-02 14:56:02.601917
2022-12-02 14:56:02.610278
2022-12-02 14:56:02.622348
2022-12-02 14:56:02.630093
2022-12-02 14:56:02.638062
2022-12-02 14:56:02.646613
2022-12-02 14:56:02.659092
2022-12-02 14:56:02.667056
2022-12-02 14:56:02.675656
2022-12-02 14:56:02.688395
2022-12-02 14:56:02.696366
2022-12-02 14:56:02.704573
2022-12-02 14:56:02.712747
2022-12-02 14:56:02.724290
2022-12-02 14:56:02.732572
2022-12-02 14:56:02.740421
2022-12-02 14:56:02.748604
2022-12-02 14:56:02.761546
2022-12-02 14:56:02.769779
2022-12-02 14:56:02.778120
2022-12-02 14:56:02.790295
2022-12-02 14:56:02.798768
2022-12-02 14:56:02.806906
2022-12-02 14:56:02.815413
2022-12-02 14:56:02.827119
2022-12-02 14:56:02.835710
2022-12-02 14:56:02.843086
2022-12-02 14:56:02.856201
2022-12-02 14:56:02.863727
2022-12-02 14:56:02.872503
2022-12-02 14:56:02.880406
2022-12-02 14:56:02.892932
2022-12-02 14:56:02.901164
2022-12-02 14:56:02.909241
2022-12-02 14:56:02.921637
2022-12-02 14:56:02.929470
2022-12-02 14:56:02.937984
2022-12-02 14:56:02.945969
2022-12-02 14:56:02.958108
2022-12-02 14:56:02.966822
2022-12-02 14:56:02.974690
2022-12-02 14:56:02.987287
2022-12-02 14:56:02.995387
2022-12-02 14:56:03.003464
2022-12-02 14:56:03.011591
2022-12-02 14:56:03.024293
2022-12-02 14:56:03.032298
2022-12-02 14:56:03.040549
2022-12-02 14:56:03.052724
2022-12-02 14:56:03.060819
2022-12-02 14:56:03.068941
2022-12-02 14:56:03.076887
2022-12-02 14:56:03.089483
2022-12-02 14:56:03.097096
2022-12-02 14:56:03.105919
2022-12-02 14:56:03.118300
2022-12-02 14:56:03.125283
2022-12-02 14:56:03.134580
2022-12-02 14:56:03.142483
2022-12-02 14:56:03.155295
2022-12-02 14:56:03.162945
2022-12-02 14:56:03.171826
2022-12-02 14:56:03.183701
2022-12-02 14:56:03.191558
2022-12-02 14:56:03.200113
2022-12-02 14:56:03.208554
2022-12-02 14:56:03.220324
2022-12-02 14:56:03.228912
2022-12-02 14:56:03.237398
2022-12-02 14:56:03.248464
2022-12-02 14:56:03.257497
2022-12-02 14:56:03.265587
2022-12-02 14:56:03.273124
2022-12-02 14:56:03.285114
2022-12-02 14:56:03.294147
2022-12-02 14:56:03.302711
2022-12-02 14:56:03.314835
2022-12-02 14:56:03.323379
2022-12-02 14:56:03.330870
2022-12-02 14:56:03.339263
2022-12-02 14:56:03.351818
2022-12-02 14:56:03.359690
2022-12-02 14:56:03.368386
2022-12-02 14:56:03.379699
2022-12-02 14:56:03.388779
2022-12-02 14:56:03.396446
2022-12-02 14:56:03.405004
2022-12-02 14:56:03.417395
2022-12-02 14:56:03.425509
2022-12-02 14:56:03.433633
2022-12-02 14:56:03.446057
2022-12-02 14:56:03.454391
2022-12-02 14:56:03.462327
2022-12-02 14:56:03.470535
2022-12-02 14:56:03.482563
2022-12-02 14:56:03.491428
2022-12-02 14:56:03.498913
2022-12-02 14:56:03.511378
2022-12-02 14:56:03.519770
2022-12-02 14:56:03.527667
2022-12-02 14:56:03.536404
2022-12-02 14:56:03.548145
2022-12-02 14:56:03.556014
2022-12-02 14:56:03.563808
2022-12-02 14:56:03.577020
2022-12-02 14:56:03.585128
2022-12-02 14:56:03.593484
2022-12-02 14:56:03.601479
2022-12-02 14:56:03.613146
2022-12-02 14:56:03.620798
2022-12-02 14:56:03.629578
2022-12-02 14:56:03.638504
2022-12-02 14:56:03.650377
2022-12-02 14:56:03.658593
2022-12-02 14:56:03.666874
2022-12-02 14:56:03.679410
2022-12-02 14:56:03.687742
2022-12-02 14:56:03.695912
2022-12-02 14:56:03.703125
2022-12-02 14:56:03.716399
2022-12-02 14:56:03.724440
2022-12-02 14:56:03.732633
2022-12-02 14:56:03.743934
2022-12-02 14:56:03.753395
2022-12-02 14:56:03.761150
2022-12-02 14:56:03.769534
2022-12-02 14:56:03.781504
2022-12-02 14:56:03.789322
2022-12-02 14:56:03.798399
2022-12-02 14:56:03.810057
2022-12-02 14:56:03.818578
2022-12-02 14:56:03.826476
2022-12-02 14:56:03.835264
2022-12-02 14:56:03.846298
2022-12-02 14:56:03.854719
2022-12-02 14:56:03.863820
2022-12-02 14:56:03.875496
2022-12-02 14:56:03.884244
2022-12-02 14:56:03.891978
2022-12-02 14:56:03.900202
2022-12-02 14:56:03.912463
2022-12-02 14:56:03.921004
2022-12-02 14:56:03.929292
2022-12-02 14:56:03.941162
2022-12-02 14:56:03.949768
2022-12-02 14:56:03.957841
2022-12-02 14:56:03.966217
2022-12-02 14:56:03.978153
2022-12-02 14:56:03.986512
2022-12-02 14:56:03.994642
2022-12-02 14:56:04.006446
2022-12-02 14:56:04.015281
2022-12-02 14:56:04.022821
2022-12-02 14:56:04.031717
2022-12-02 14:56:04.043809
2022-12-02 14:56:04.052198
2022-12-02 14:56:04.060061
2022-12-02 14:56:04.072711
2022-12-02 14:56:04.080460
2022-12-02 14:56:04.089117
2022-12-02 14:56:04.097263
2022-12-02 14:56:04.109266
2022-12-02 14:56:04.117512
2022-12-02 14:56:04.125710
2022-12-02 14:56:04.137911
2022-12-02 14:56:04.145846
2022-12-02 14:56:04.154163
2022-12-02 14:56:04.162506
2022-12-02 14:56:04.174583
2022-12-02 14:56:04.183414
2022-12-02 14:56:04.190441
2022-12-02 14:56:04.203716
2022-12-02 14:56:04.211778
2022-12-02 14:56:04.219992
2022-12-02 14:56:04.228214
2022-12-02 14:56:04.240564
2022-12-02 14:56:04.248835
2022-12-02 14:56:04.257007
2022-12-02 14:56:04.269301
2022-12-02 14:56:04.276701
2022-12-02 14:56:04.285761
2022-12-02 14:56:04.293536
2022-12-02 14:56:04.305833
2022-12-02 14:56:04.313863
2022-12-02 14:56:04.322398
2022-12-02 14:56:04.334881
2022-12-02 14:56:04.342441
2022-12-02 14:56:04.351296
2022-12-02 14:56:04.358594
2022-12-02 14:56:04.371728
2022-12-02 14:56:04.379131
2022-12-02 14:56:04.387775
2022-12-02 14:56:04.400434
2022-12-02 14:56:04.408523
2022-12-02 14:56:04.416747
2022-12-02 14:56:04.424402
2022-12-02 14:56:04.436692
2022-12-02 14:56:04.445438
2022-12-02 14:56:04.452634
2022-12-02 14:56:04.461751
2022-12-02 14:56:04.473821
2022-12-02 14:56:04.481953
2022-12-02 14:56:04.490321
2022-12-02 14:56:04.502851
2022-12-02 14:56:04.510630
2022-12-02 14:56:04.519127
2022-12-02 14:56:04.527240
2022-12-02 14:56:04.539692
2022-12-02 14:56:04.547509
2022-12-02 14:56:04.555976
2022-12-02 14:56:04.567887
2022-12-02 14:56:04.576233
2022-12-02 14:56:04.584747
2022-12-02 14:56:04.592537
2022-12-02 14:56:04.604071
2022-12-02 14:56:04.612569
2022-12-02 14:56:04.621319
2022-12-02 14:56:04.632820
2022-12-02 14:56:04.641067
2022-12-02 14:56:04.649989
2022-12-02 14:56:04.657993
2022-12-02 14:56:04.670696
2022-12-02 14:56:04.678801
2022-12-02 14:56:04.687182
2022-12-02 14:56:04.699349
2022-12-02 14:56:04.707528
2022-12-02 14:56:04.715649
2022-12-02 14:56:04.723867
2022-12-02 14:56:04.736301
2022-12-02 14:56:04.744083
2022-12-02 14:56:04.752671
2022-12-02 14:56:04.764134
2022-12-02 14:56:04.772911
2022-12-02 14:56:04.780586
2022-12-02 14:56:04.789045
2022-12-02 14:56:04.800833
2022-12-02 14:56:04.809451
2022-12-02 14:56:04.817889
2022-12-02 14:56:04.829219
2022-12-02 14:56:04.838617
2022-12-02 14:56:04.845747
2022-12-02 14:56:04.854920
2022-12-02 14:56:04.866532
2022-12-02 14:56:04.874919
2022-12-02 14:56:04.883354
2022-12-02 14:56:04.895967
2022-12-02 14:56:04.904403
2022-12-02 14:56:04.912524
2022-12-02 14:56:04.920612
2022-12-02 14:56:04.932777
2022-12-02 14:56:04.940558
2022-12-02 14:56:04.949410
2022-12-02 14:56:04.961197
2022-12-02 14:56:04.969638
2022-12-02 14:56:04.977747
2022-12-02 14:56:04.985837
2022-12-02 14:56:04.998292
2022-12-02 14:56:05.006411
2022-12-02 14:56:05.014014
2022-12-02 14:56:05.026705
2022-12-02 14:56:05.035050
2022-12-02 14:56:05.042736
2022-12-02 14:56:05.050859
2022-12-02 14:56:05.063463
2022-12-02 14:56:05.072413
2022-12-02 14:56:05.080334
2022-12-02 14:56:05.092583
2022-12-02 14:56:05.100832
2022-12-02 14:56:05.108715
2022-12-02 14:56:05.117307
2022-12-02 14:56:05.128909
2022-12-02 14:56:05.137587
2022-12-02 14:56:05.145522
2022-12-02 14:56:05.157474
2022-12-02 14:56:05.166419
2022-12-02 14:56:05.173451
2022-12-02 14:56:05.182776
2022-12-02 14:56:05.194215
2022-12-02 14:56:05.202849
2022-12-02 14:56:05.210680
2022-12-02 14:56:05.223280
2022-12-02 14:56:05.231398
2022-12-02 14:56:05.239534
2022-12-02 14:56:05.247883
2022-12-02 14:56:05.259557
2022-12-02 14:56:05.268409
2022-12-02 14:56:05.276706
2022-12-02 14:56:05.288611
2022-12-02 14:56:05.297023
2022-12-02 14:56:05.305013
2022-12-02 14:56:05.313432
2022-12-02 14:56:05.325398
2022-12-02 14:56:05.333942
2022-12-02 14:56:05.342089
2022-12-02 14:56:05.349908
2022-12-02 14:56:05.362024
2022-12-02 14:56:05.370262
2022-12-02 14:56:05.378692
2022-12-02 14:56:05.391223
2022-12-02 14:56:05.399481
2022-12-02 14:56:05.407602
2022-12-02 14:56:05.416207
2022-12-02 14:56:05.428074
2022-12-02 14:56:05.436586
2022-12-02 14:56:05.444724
2022-12-02 14:56:05.457250
2022-12-02 14:56:05.464719
2022-12-02 14:56:05.473465
2022-12-02 14:56:05.481576
2022-12-02 14:56:05.493865
2022-12-02 14:56:05.502415
2022-12-02 14:56:05.510087
2022-12-02 14:56:05.522033
2022-12-02 14:56:05.530809
2022-12-02 14:56:05.538927
2022-12-02 14:56:05.546941
2022-12-02 14:56:05.558747
2022-12-02 14:56:05.567638
2022-12-02 14:56:05.575614
2022-12-02 14:56:05.587880
2022-12-02 14:56:05.595534
2022-12-02 14:56:05.604549
2022-12-02 14:56:05.612305
2022-12-02 14:56:05.624764
2022-12-02 14:56:05.633307
2022-12-02 14:56:05.641268
2022-12-02 14:56:05.653200
2022-12-02 14:56:05.661291
2022-12-02 14:56:05.670416
2022-12-02 14:56:05.678402
2022-12-02 14:56:05.690483
2022-12-02 14:56:05.698504
2022-12-02 14:56:05.705973
2022-12-02 14:56:05.719395
2022-12-02 14:56:05.727162
2022-12-02 14:56:05.735295
2022-12-02 14:56:05.744055
2022-12-02 14:56:05.756307
2022-12-02 14:56:05.764309
2022-12-02 14:56:05.772470
2022-12-02 14:56:05.784164
2022-12-02 14:56:05.792689
2022-12-02 14:56:05.801121
2022-12-02 14:56:05.808951
2022-12-02 14:56:05.821427
2022-12-02 14:56:05.829703
2022-12-02 14:56:05.837620
2022-12-02 14:56:05.849796
2022-12-02 14:56:05.857583
2022-12-02 14:56:05.866551
2022-12-02 14:56:05.874911
2022-12-02 14:56:05.887417
2022-12-02 14:56:05.895333
2022-12-02 14:56:05.903660
2022-12-02 14:56:05.915859
2022-12-02 14:56:05.923694
2022-12-02 14:56:05.932424
2022-12-02 14:56:05.940447
2022-12-02 14:56:05.952745
2022-12-02 14:56:05.960460
2022-12-02 14:56:05.969310
2022-12-02 14:56:05.981491
2022-12-02 14:56:05.989548
2022-12-02 14:56:05.997674
2022-12-02 14:56:06.006461
2022-12-02 14:56:06.018031
2022-12-02 14:56:06.026513
2022-12-02 14:56:06.034573
2022-12-02 14:56:06.046366
2022-12-02 14:56:06.055418
2022-12-02 14:56:06.062947
2022-12-02 14:56:06.071502
2022-12-02 14:56:06.083367
2022-12-02 14:56:06.091768
2022-12-02 14:56:06.099295
2022-12-02 14:56:06.112004
2022-12-02 14:56:06.120381
2022-12-02 14:56:06.128428
2022-12-02 14:56:06.137146
2022-12-02 14:56:06.148983
2022-12-02 14:56:06.157545
2022-12-02 14:56:06.165626
2022-12-02 14:56:06.177605
2022-12-02 14:56:06.185844
2022-12-02 14:56:06.194233
2022-12-02 14:56:06.202449
2022-12-02 14:56:06.214930
2022-12-02 14:56:06.223285
2022-12-02 14:56:06.231428
2022-12-02 14:56:06.239426
2022-12-02 14:56:06.251334
2022-12-02 14:56:06.259722
2022-12-02 14:56:06.268610
2022-12-02 14:56:06.279565
2022-12-02 14:56:06.288653
2022-12-02 14:56:06.296633
2022-12-02 14:56:06.304324
2022-12-02 14:56:06.317313
2022-12-02 14:56:06.325438
2022-12-02 14:56:06.332846
2022-12-02 14:56:06.345113
2022-12-02 14:56:06.353142
2022-12-02 14:56:06.361446
2022-12-02 14:56:06.370045
2022-12-02 14:56:06.382434
2022-12-02 14:56:06.389753
2022-12-02 14:56:06.398676
2022-12-02 14:56:06.410616
2022-12-02 14:56:06.419310
2022-12-02 14:56:06.427146
2022-12-02 14:56:06.434868
2022-12-02 14:56:06.448056
2022-12-02 14:56:06.456431
2022-12-02 14:56:06.464802
2022-12-02 14:56:06.476842
2022-12-02 14:56:06.485417
2022-12-02 14:56:06.493122
2022-12-02 14:56:06.501553
2022-12-02 14:56:06.513758
2022-12-02 14:56:06.522005
2022-12-02 14:56:06.529774
2022-12-02 14:56:06.541676
2022-12-02 14:56:06.550692
2022-12-02 14:56:06.559027
2022-12-02 14:56:06.567245
2022-12-02 14:56:06.578376
2022-12-02 14:56:06.587578
2022-12-02 14:56:06.595238
2022-12-02 14:56:06.608137
2022-12-02 14:56:06.616325
2022-12-02 14:56:06.623713
2022-12-02 14:56:06.632594
2022-12-02 14:56:06.644879
2022-12-02 14:56:06.653337
2022-12-02 14:56:06.661197
2022-12-02 14:56:06.672748
2022-12-02 14:56:06.681530
2022-12-02 14:56:06.689850
2022-12-02 14:56:06.697828
2022-12-02 14:56:06.710065
2022-12-02 14:56:06.718751
2022-12-02 14:56:06.726787
2022-12-02 14:56:06.739048
2022-12-02 14:56:06.747297
2022-12-02 14:56:06.755235
2022-12-02 14:56:06.763595
2022-12-02 14:56:06.775827
2022-12-02 14:56:06.784129
2022-12-02 14:56:06.792377
2022-12-02 14:56:06.804184
2022-12-02 14:56:06.812690
2022-12-02 14:56:06.820449
2022-12-02 14:56:06.828705
2022-12-02 14:56:06.840672
2022-12-02 14:56:06.849494
2022-12-02 14:56:06.857051
2022-12-02 14:56:06.869141
2022-12-02 14:56:06.878381
2022-12-02 14:56:06.886392
2022-12-02 14:56:06.894689
2022-12-02 14:56:06.906774
2022-12-02 14:56:06.915332
2022-12-02 14:56:06.923543
2022-12-02 14:56:06.935756
2022-12-02 14:56:06.943756
2022-12-02 14:56:06.952446
2022-12-02 14:56:06.960420
2022-12-02 14:56:06.972493
2022-12-02 14:56:06.980825
2022-12-02 14:56:06.988461
2022-12-02 14:56:07.001447
2022-12-02 14:56:07.009212
2022-12-02 14:56:07.017645
2022-12-02 14:56:07.025589
2022-12-02 14:56:07.038429
2022-12-02 14:56:07.045894
2022-12-02 14:56:07.054487
2022-12-02 14:56:07.062474
2022-12-02 14:56:07.074503
2022-12-02 14:56:07.083431
2022-12-02 14:56:07.090728
2022-12-02 14:56:07.103476
2022-12-02 14:56:07.111783
2022-12-02 14:56:07.119865
2022-12-02 14:56:07.127989
2022-12-02 14:56:07.140131
2022-12-02 14:56:07.148392
2022-12-02 14:56:07.156585
2022-12-02 14:56:07.168724
2022-12-02 14:56:07.177484
2022-12-02 14:56:07.185526
2022-12-02 14:56:07.193610
2022-12-02 14:56:07.205235
2022-12-02 14:56:07.214319
2022-12-02 14:56:07.221714
2022-12-02 14:56:07.234855
2022-12-02 14:56:07.243001
2022-12-02 14:56:07.251086
2022-12-02 14:56:07.258970
2022-12-02 14:56:07.271435
2022-12-02 14:56:07.279602
2022-12-02 14:56:07.288178
2022-12-02 14:56:07.300007
2022-12-02 14:56:07.308122
2022-12-02 14:56:07.316293
2022-12-02 14:56:07.324574
2022-12-02 14:56:07.337315
2022-12-02 14:56:07.344578
2022-12-02 14:56:07.353053
2022-12-02 14:56:07.364907
2022-12-02 14:56:07.373706
2022-12-02 14:56:07.382413
2022-12-02 14:56:07.390203
2022-12-02 14:56:07.402595
2022-12-02 14:56:07.410783
2022-12-02 14:56:07.419318
2022-12-02 14:56:07.431454
2022-12-02 14:56:07.439548
2022-12-02 14:56:07.447851
2022-12-02 14:56:07.455516
2022-12-02 14:56:07.467625
2022-12-02 14:56:07.475761
2022-12-02 14:56:07.483941
2022-12-02 14:56:07.496502
2022-12-02 14:56:07.504662
2022-12-02 14:56:07.513013
2022-12-02 14:56:07.520434
2022-12-02 14:56:07.533332
2022-12-02 14:56:07.540617
2022-12-02 14:56:07.549940
2022-12-02 14:56:07.561873
2022-12-02 14:56:07.570056
2022-12-02 14:56:07.578586
2022-12-02 14:56:07.586584
2022-12-02 14:56:07.598084
2022-12-02 14:56:07.606879
2022-12-02 14:56:07.615483
2022-12-02 14:56:07.627954
2022-12-02 14:56:07.636133
2022-12-02 14:56:07.644369
2022-12-02 14:56:07.652404
2022-12-02 14:56:07.664831
2022-12-02 14:56:07.672973
2022-12-02 14:56:07.681425
2022-12-02 14:56:07.692819
2022-12-02 14:56:07.701720
2022-12-02 14:56:07.709724
2022-12-02 14:56:07.718415
2022-12-02 14:56:07.729967
2022-12-02 14:56:07.738490
2022-12-02 14:56:07.746597
2022-12-02 14:56:07.758472
2022-12-02 14:56:07.767461
2022-12-02 14:56:07.774946
2022-12-02 14:56:07.783568
2022-12-02 14:56:07.795693
2022-12-02 14:56:07.804436
2022-12-02 14:56:07.812098
2022-12-02 14:56:07.824381
2022-12-02 14:56:07.832760
2022-12-02 14:56:07.840909
2022-12-02 14:56:07.849322
2022-12-02 14:56:07.861466
2022-12-02 14:56:07.869613
2022-12-02 14:56:07.877933
2022-12-02 14:56:07.889891
2022-12-02 14:56:07.898136
2022-12-02 14:56:07.906244
2022-12-02 14:56:07.914529
2022-12-02 14:56:07.926716
2022-12-02 14:56:07.935484
2022-12-02 14:56:07.943286
2022-12-02 14:56:07.951705
2022-12-02 14:56:07.963826
2022-12-02 14:56:07.972310
2022-12-02 14:56:07.980320
2022-12-02 14:56:07.992258
2022-12-02 14:56:07.999799
2022-12-02 14:56:08.008326
2022-12-02 14:56:08.017423
2022-12-02 14:56:08.028899
2022-12-02 14:56:08.037579
2022-12-02 14:56:08.045577
2022-12-02 14:56:08.057657
2022-12-02 14:56:08.065816
2022-12-02 14:56:08.073903
2022-12-02 14:56:08.082498
2022-12-02 14:56:08.094500
2022-12-02 14:56:08.103462
2022-12-02 14:56:08.111351
2022-12-02 14:56:08.123395
2022-12-02 14:56:08.131641
2022-12-02 14:56:08.139675
2022-12-02 14:56:08.148420
2022-12-02 14:56:08.159869
2022-12-02 14:56:08.167686
2022-12-02 14:56:08.176933
2022-12-02 14:56:08.188882
2022-12-02 14:56:08.197221
2022-12-02 14:56:08.204840
2022-12-02 14:56:08.213517
2022-12-02 14:56:08.225590
2022-12-02 14:56:08.233812
2022-12-02 14:56:08.242111
2022-12-02 14:56:08.254696
2022-12-02 14:56:08.262691
2022-12-02 14:56:08.271316
2022-12-02 14:56:08.278766
2022-12-02 14:56:08.291108
2022-12-02 14:56:08.299674
2022-12-02 14:56:08.307586
2022-12-02 14:56:08.320437
2022-12-02 14:56:08.328048
2022-12-02 14:56:08.336573
2022-12-02 14:56:08.343805
2022-12-02 14:56:08.356321
2022-12-02 14:56:08.365148
2022-12-02 14:56:08.372951
2022-12-02 14:56:08.385197
2022-12-02 14:56:08.393004
2022-12-02 14:56:08.401491
2022-12-02 14:56:08.409510
2022-12-02 14:56:08.421927
2022-12-02 14:56:08.430550
2022-12-02 14:56:08.438454
2022-12-02 14:56:08.450347
2022-12-02 14:56:08.458484
2022-12-02 14:56:08.466791
2022-12-02 14:56:08.475615
2022-12-02 14:56:08.488150
2022-12-02 14:56:08.495891
2022-12-02 14:56:08.504496
2022-12-02 14:56:08.516840
2022-12-02 14:56:08.524480
2022-12-02 14:56:08.533244
2022-12-02 14:56:08.541241
2022-12-02 14:56:08.553583
2022-12-02 14:56:08.560949
2022-12-02 14:56:08.569799
2022-12-02 14:56:08.582446
2022-12-02 14:56:08.590099
2022-12-02 14:56:08.598880
2022-12-02 14:56:08.606510
2022-12-02 14:56:08.618640
2022-12-02 14:56:08.627404
2022-12-02 14:56:08.635271
2022-12-02 14:56:08.647827
2022-12-02 14:56:08.656253
2022-12-02 14:56:08.664189
2022-12-02 14:56:08.671816
2022-12-02 14:56:08.683729
2022-12-02 14:56:08.692988
2022-12-02 14:56:08.701440
2022-12-02 14:56:08.711774
2022-12-02 14:56:08.721383
2022-12-02 14:56:08.729737
2022-12-02 14:56:08.737864
2022-12-02 14:56:08.750431
2022-12-02 14:56:08.758055
2022-12-02 14:56:08.766772
2022-12-02 14:56:08.778696
2022-12-02 14:56:08.787345
2022-12-02 14:56:08.794973
2022-12-02 14:56:08.803342
2022-12-02 14:56:08.815940
2022-12-02 14:56:08.824008
2022-12-02 14:56:08.832334
2022-12-02 14:56:08.840058
2022-12-02 14:56:08.852690
2022-12-02 14:56:08.860775
2022-12-02 14:56:08.869000
2022-12-02 14:56:08.881034
2022-12-02 14:56:08.889187
2022-12-02 14:56:08.897282
2022-12-02 14:56:08.905750
2022-12-02 14:56:08.917924
2022-12-02 14:56:08.926242
2022-12-02 14:56:08.934727
2022-12-02 14:56:08.946610
2022-12-02 14:56:08.955423
2022-12-02 14:56:08.963339
2022-12-02 14:56:08.971427
2022-12-02 14:56:08.983900
2022-12-02 14:56:08.991797
2022-12-02 14:56:09.000439
2022-12-02 14:56:09.012520
2022-12-02 14:56:09.020456
2022-12-02 14:56:09.028393
2022-12-02 14:56:09.037147
2022-12-02 14:56:09.048694
2022-12-02 14:56:09.057328
2022-12-02 14:56:09.065380
2022-12-02 14:56:09.077447
2022-12-02 14:56:09.086325
2022-12-02 14:56:09.094229
2022-12-02 14:56:09.102630
2022-12-02 14:56:09.114860
2022-12-02 14:56:09.122973
2022-12-02 14:56:09.131466
2022-12-02 14:56:09.143236
2022-12-02 14:56:09.151797
2022-12-02 14:56:09.159788
2022-12-02 14:56:09.168422
2022-12-02 14:56:09.180459
2022-12-02 14:56:09.187814
2022-12-02 14:56:09.196875
2022-12-02 14:56:09.208955
2022-12-02 14:56:09.216374
2022-12-02 14:56:09.225203
2022-12-02 14:56:09.233483
2022-12-02 14:56:09.245683
2022-12-02 14:56:09.254333
2022-12-02 14:56:09.261669
2022-12-02 14:56:09.274438
2022-12-02 14:56:09.282815
2022-12-02 14:56:09.290704
2022-12-02 14:56:09.299428
2022-12-02 14:56:09.310690
2022-12-02 14:56:09.319746
2022-12-02 14:56:09.327694
2022-12-02 14:56:09.339681
2022-12-02 14:56:09.348428
2022-12-02 14:56:09.356064
2022-12-02 14:56:09.364737
2022-12-02 14:56:09.377088
2022-12-02 14:56:09.384934
2022-12-02 14:56:09.392954
2022-12-02 14:56:09.404731
2022-12-02 14:56:09.413685
2022-12-02 14:56:09.421864
2022-12-02 14:56:09.430343
2022-12-02 14:56:09.442333
2022-12-02 14:56:09.450717
2022-12-02 14:56:09.458720
2022-12-02 14:56:09.470410
2022-12-02 14:56:09.479222
2022-12-02 14:56:09.487536
2022-12-02 14:56:09.495695
2022-12-02 14:56:09.507356
2022-12-02 14:56:09.516325
2022-12-02 14:56:09.524062
2022-12-02 14:56:09.536779
2022-12-02 14:56:09.544777
2022-12-02 14:56:09.553053
2022-12-02 14:56:09.560577
2022-12-02 14:56:09.573311
2022-12-02 14:56:09.581893
2022-12-02 14:56:09.589497
2022-12-02 14:56:09.601697
2022-12-02 14:56:09.610266
2022-12-02 14:56:09.618424
2022-12-02 14:56:09.626751
2022-12-02 14:56:09.639469
2022-12-02 14:56:09.646212
2022-12-02 14:56:09.654732
2022-12-02 14:56:09.663638
2022-12-02 14:56:09.675859
2022-12-02 14:56:09.684475
2022-12-02 14:56:09.692013
2022-12-02 14:56:09.704668
2022-12-02 14:56:09.712856
2022-12-02 14:56:09.721120
2022-12-02 14:56:09.728875
2022-12-02 14:56:09.741294
2022-12-02 14:56:09.749818
2022-12-02 14:56:09.757616
2022-12-02 14:56:09.770035
2022-12-02 14:56:09.778293
2022-12-02 14:56:09.786427
2022-12-02 14:56:09.793821
2022-12-02 14:56:09.806419
2022-12-02 14:56:09.815012
2022-12-02 14:56:09.822869
2022-12-02 14:56:09.835755
2022-12-02 14:56:09.843776
2022-12-02 14:56:09.852232
2022-12-02 14:56:09.860045
2022-12-02 14:56:09.872114
2022-12-02 14:56:09.880812
2022-12-02 14:56:09.888585
2022-12-02 14:56:09.901181
2022-12-02 14:56:09.908710
2022-12-02 14:56:09.917583
2022-12-02 14:56:09.925849
2022-12-02 14:56:09.938087
2022-12-02 14:56:09.946147
2022-12-02 14:56:09.954320
2022-12-02 14:56:09.966906
2022-12-02 14:56:09.974859
2022-12-02 14:56:09.983330
2022-12-02 14:56:09.991200
2022-12-02 14:56:10.003653
2022-12-02 14:56:10.011579
2022-12-02 14:56:10.019217
2022-12-02 14:56:10.032161
2022-12-02 14:56:10.040442
2022-12-02 14:56:10.048609
2022-12-02 14:56:10.055991
2022-12-02 14:56:10.069287
2022-12-02 14:56:10.076796
2022-12-02 14:56:10.085463
2022-12-02 14:56:10.097925
2022-12-02 14:56:10.105697
2022-12-02 14:56:10.113445
2022-12-02 14:56:10.122356
2022-12-02 14:56:10.134330
2022-12-02 14:56:10.142697
2022-12-02 14:56:10.151979
2022-12-02 14:56:10.163480
2022-12-02 14:56:10.171096
2022-12-02 14:56:10.179604
2022-12-02 14:56:10.187788
2022-12-02 14:56:10.200440
2022-12-02 14:56:10.208527
2022-12-02 14:56:10.216626
2022-12-02 14:56:10.228457
2022-12-02 14:56:10.237474
2022-12-02 14:56:10.244707
2022-12-02 14:56:10.253022
2022-12-02 14:56:10.265861
2022-12-02 14:56:10.273491
2022-12-02 14:56:10.281920
2022-12-02 14:56:10.293576
2022-12-02 14:56:10.302701
2022-12-02 14:56:10.310278
2022-12-02 14:56:10.319014
2022-12-02 14:56:10.331461
2022-12-02 14:56:10.338889
2022-12-02 14:56:10.347781
2022-12-02 14:56:10.358976
2022-12-02 14:56:10.367676
2022-12-02 14:56:10.376605
2022-12-02 14:56:10.384321
2022-12-02 14:56:10.396853
2022-12-02 14:56:10.404349
2022-12-02 14:56:10.413136
2022-12-02 14:56:10.425393
2022-12-02 14:56:10.433689
2022-12-02 14:56:10.441758
2022-12-02 14:56:10.449781
2022-12-02 14:56:10.462373
2022-12-02 14:56:10.470617
2022-12-02 14:56:10.478800
2022-12-02 14:56:10.490660
2022-12-02 14:56:10.499480
2022-12-02 14:56:10.507615
2022-12-02 14:56:10.515743
2022-12-02 14:56:10.527718
2022-12-02 14:56:10.536408
2022-12-02 14:56:10.543509
2022-12-02 14:56:10.552161
2022-12-02 14:56:10.564875
2022-12-02 14:56:10.572999
2022-12-02 14:56:10.581337
2022-12-02 14:56:10.593454
2022-12-02 14:56:10.600937
2022-12-02 14:56:10.609706
2022-12-02 14:56:10.617480
2022-12-02 14:56:10.629390
2022-12-02 14:56:10.637741
2022-12-02 14:56:10.646300
2022-12-02 14:56:10.658667
2022-12-02 14:56:10.666207
2022-12-02 14:56:10.675011
2022-12-02 14:56:10.683211
2022-12-02 14:56:10.695131
2022-12-02 14:56:10.703118
2022-12-02 14:56:10.711784
2022-12-02 14:56:10.724005
2022-12-02 14:56:10.731856
2022-12-02 14:56:10.740684
2022-12-02 14:56:10.748774
2022-12-02 14:56:10.761065
2022-12-02 14:56:10.769237
2022-12-02 14:56:10.776948
2022-12-02 14:56:10.789246
2022-12-02 14:56:10.797974
2022-12-02 14:56:10.806026
2022-12-02 14:56:10.813685
2022-12-02 14:56:10.825816
2022-12-02 14:56:10.834672
2022-12-02 14:56:10.842748
2022-12-02 14:56:10.854927
2022-12-02 14:56:10.863569
2022-12-02 14:56:10.871655
2022-12-02 14:56:10.879801
2022-12-02 14:56:10.892115
2022-12-02 14:56:10.900315
2022-12-02 14:56:10.908132
2022-12-02 14:56:10.920313
2022-12-02 14:56:10.928393
2022-12-02 14:56:10.937248
2022-12-02 14:56:10.945308
2022-12-02 14:56:10.956830
2022-12-02 14:56:10.965414
2022-12-02 14:56:10.974257
2022-12-02 14:56:10.986240
2022-12-02 14:56:10.994609
2022-12-02 14:56:11.002702
2022-12-02 14:56:11.010489
2022-12-02 14:56:11.022912
2022-12-02 14:56:11.031192
2022-12-02 14:56:11.039547
2022-12-02 14:56:11.051631
2022-12-02 14:56:11.060087
2022-12-02 14:56:11.067874
2022-12-02 14:56:11.075723
2022-12-02 14:56:11.087950
2022-12-02 14:56:11.097133
2022-12-02 14:56:11.104962
2022-12-02 14:56:11.117524
2022-12-02 14:56:11.125789
2022-12-02 14:56:11.133331
2022-12-02 14:56:11.141738
2022-12-02 14:56:11.153388
2022-12-02 14:56:11.162092
2022-12-02 14:56:11.170419
2022-12-02 14:56:11.182093
2022-12-02 14:56:11.190475
2022-12-02 14:56:11.198675
2022-12-02 14:56:11.207576
2022-12-02 14:56:11.219462
2022-12-02 14:56:11.227663
2022-12-02 14:56:11.236209
2022-12-02 14:56:11.248238
2022-12-02 14:56:11.256244
2022-12-02 14:56:11.264984
2022-12-02 14:56:11.272928
2022-12-02 14:56:11.285332
2022-12-02 14:56:11.292881
2022-12-02 14:56:11.300965
2022-12-02 14:56:11.313972
2022-12-02 14:56:11.321671
2022-12-02 14:56:11.330481
2022-12-02 14:56:11.337789
2022-12-02 14:56:11.350875
2022-12-02 14:56:11.359204
2022-12-02 14:56:11.367411
2022-12-02 14:56:11.375516
2022-12-02 14:56:11.387760
2022-12-02 14:56:11.396205
2022-12-02 14:56:11.404386
2022-12-02 14:56:11.416841
2022-12-02 14:56:11.424988
2022-12-02 14:56:11.432939
2022-12-02 14:56:11.440574
2022-12-02 14:56:11.453426
2022-12-02 14:56:11.460998
2022-12-02 14:56:11.470003
2022-12-02 14:56:11.481573
2022-12-02 14:56:11.490243
2022-12-02 14:56:11.497630
2022-12-02 14:56:11.506590
2022-12-02 14:56:11.518141
2022-12-02 14:56:11.526612
2022-12-02 14:56:11.535061
2022-12-02 14:56:11.547144
2022-12-02 14:56:11.555581
2022-12-02 14:56:11.563817
2022-12-02 14:56:11.571896
2022-12-02 14:56:11.584735
2022-12-02 14:56:11.592807
2022-12-02 14:56:11.601475
2022-12-02 14:56:11.612097
2022-12-02 14:56:11.621616
2022-12-02 14:56:11.629795
2022-12-02 14:56:11.637933
2022-12-02 14:56:11.650026
2022-12-02 14:56:11.657807
2022-12-02 14:56:11.666532
2022-12-02 14:56:11.678589
2022-12-02 14:56:11.686937
2022-12-02 14:56:11.695411
2022-12-02 14:56:11.703474
2022-12-02 14:56:11.715876
2022-12-02 14:56:11.723683
2022-12-02 14:56:11.732444
2022-12-02 14:56:11.744198
2022-12-02 14:56:11.752179
2022-12-02 14:56:11.760316
2022-12-02 14:56:11.768683
2022-12-02 14:56:11.781351
2022-12-02 14:56:11.789692
2022-12-02 14:56:11.797993
2022-12-02 14:56:11.809592
2022-12-02 14:56:11.817888
2022-12-02 14:56:11.826091
2022-12-02 14:56:11.834482
2022-12-02 14:56:11.846914
2022-12-02 14:56:11.854792
2022-12-02 14:56:11.863478
2022-12-02 14:56:11.874842
2022-12-02 14:56:11.883774
2022-12-02 14:56:11.892000
2022-12-02 14:56:11.900351
2022-12-02 14:56:11.912125
2022-12-02 14:56:11.920106
2022-12-02 14:56:11.928574
2022-12-02 14:56:11.941151
2022-12-02 14:56:11.949056
2022-12-02 14:56:11.957304
2022-12-02 14:56:11.965270
2022-12-02 14:56:11.977969
2022-12-02 14:56:11.986031
2022-12-02 14:56:11.994070
2022-12-02 14:56:12.006323
2022-12-02 14:56:12.014927
2022-12-02 14:56:12.022548
2022-12-02 14:56:12.031478
2022-12-02 14:56:12.042184
2022-12-02 14:56:12.051760
2022-12-02 14:56:12.059560
2022-12-02 14:56:12.072022
2022-12-02 14:56:12.080443
2022-12-02 14:56:12.088035
2022-12-02 14:56:12.096686
2022-12-02 14:56:12.108914
2022-12-02 14:56:12.117476
2022-12-02 14:56:12.124726
2022-12-02 14:56:12.136930
2022-12-02 14:56:12.145786
2022-12-02 14:56:12.153331
2022-12-02 14:56:12.162044
2022-12-02 14:56:12.174453
2022-12-02 14:56:12.182631
2022-12-02 14:56:12.190966
2022-12-02 14:56:12.202215
2022-12-02 14:56:12.211208
2022-12-02 14:56:12.219702
2022-12-02 14:56:12.227618
2022-12-02 14:56:12.239500
2022-12-02 14:56:12.248499
2022-12-02 14:56:12.256346
2022-12-02 14:56:12.264768
2022-12-02 14:56:12.276153
2022-12-02 14:56:12.285038
2022-12-02 14:56:12.292810
2022-12-02 14:56:12.304780
2022-12-02 14:56:12.313869
2022-12-02 14:56:12.321016
2022-12-02 14:56:12.329753
2022-12-02 14:56:12.342205
2022-12-02 14:56:12.350697
2022-12-02 14:56:12.358925
2022-12-02 14:56:12.371358
2022-12-02 14:56:12.379373
2022-12-02 14:56:12.387425
2022-12-02 14:56:12.394986
2022-12-02 14:56:12.408022
2022-12-02 14:56:12.416462
2022-12-02 14:56:12.423860
2022-12-02 14:56:12.436663
2022-12-02 14:56:12.444864
2022-12-02 14:56:12.452861
2022-12-02 14:56:12.460713
2022-12-02 14:56:12.472463
2022-12-02 14:56:12.480733
2022-12-02 14:56:12.489634
2022-12-02 14:56:12.501621
2022-12-02 14:56:12.509374
2022-12-02 14:56:12.517673
2022-12-02 14:56:12.525809
2022-12-02 14:56:12.538193
2022-12-02 14:56:12.547108
2022-12-02 14:56:12.554904
2022-12-02 14:56:12.567726
2022-12-02 14:56:12.575569
2022-12-02 14:56:12.584253
2022-12-02 14:56:12.591666
2022-12-02 14:56:12.604340
2022-12-02 14:56:12.612719
2022-12-02 14:56:12.620637
2022-12-02 14:56:12.633295
2022-12-02 14:56:12.641540
2022-12-02 14:56:12.649764
2022-12-02 14:56:12.657577
2022-12-02 14:56:12.669824
2022-12-02 14:56:12.678421
2022-12-02 14:56:12.686559
2022-12-02 14:56:12.698858
2022-12-02 14:56:12.706904
2022-12-02 14:56:12.715143
2022-12-02 14:56:12.723363
2022-12-02 14:56:12.735759
2022-12-02 14:56:12.743617
2022-12-02 14:56:12.752477
2022-12-02 14:56:12.764348
2022-12-02 14:56:12.772150
2022-12-02 14:56:12.780096
2022-12-02 14:56:12.788816
2022-12-02 14:56:12.801489
2022-12-02 14:56:12.809494
2022-12-02 14:56:12.817595
2022-12-02 14:56:12.829653
2022-12-02 14:56:12.837780
2022-12-02 14:56:12.846337
2022-12-02 14:56:12.854145
2022-12-02 14:56:12.866411
2022-12-02 14:56:12.875038
2022-12-02 14:56:12.882565
2022-12-02 14:56:12.895440
2022-12-02 14:56:12.903642
2022-12-02 14:56:12.911718
2022-12-02 14:56:12.920071
2022-12-02 14:56:12.932473
2022-12-02 14:56:12.940234
2022-12-02 14:56:12.948756
2022-12-02 14:56:12.960968
2022-12-02 14:56:12.969166
2022-12-02 14:56:12.976819
2022-12-02 14:56:12.985466
2022-12-02 14:56:12.997170
2022-12-02 14:56:13.005241
2022-12-02 14:56:13.013760
2022-12-02 14:56:13.025759
2022-12-02 14:56:13.034407
2022-12-02 14:56:13.042427
2022-12-02 14:56:13.050242
2022-12-02 14:56:13.063389
2022-12-02 14:56:13.071253
2022-12-02 14:56:13.079833
2022-12-02 14:56:13.091991
2022-12-02 14:56:13.100461
2022-12-02 14:56:13.108461
2022-12-02 14:56:13.116728
2022-12-02 14:56:13.128806
2022-12-02 14:56:13.137084
2022-12-02 14:56:13.145461
2022-12-02 14:56:13.153521
2022-12-02 14:56:13.165801
2022-12-02 14:56:13.173739
2022-12-02 14:56:13.181314
2022-12-02 14:56:13.194195
2022-12-02 14:56:13.202266
2022-12-02 14:56:13.210072
2022-12-02 14:56:13.218183
2022-12-02 14:56:13.230903
2022-12-02 14:56:13.239150
2022-12-02 14:56:13.247149
2022-12-02 14:56:13.259703
2022-12-02 14:56:13.267328
2022-12-02 14:56:13.276137
2022-12-02 14:56:13.284185
2022-12-02 14:56:13.296413
2022-12-02 14:56:13.304364
2022-12-02 14:56:13.312895
2022-12-02 14:56:13.325109
2022-12-02 14:56:13.333355
2022-12-02 14:56:13.341669
2022-12-02 14:56:13.349149
2022-12-02 14:56:13.361769
2022-12-02 14:56:13.370145
2022-12-02 14:56:13.378229
2022-12-02 14:56:13.390749
2022-12-02 14:56:13.398277
2022-12-02 14:56:13.406920
2022-12-02 14:56:13.415135
2022-12-02 14:56:13.426741
2022-12-02 14:56:13.434991
2022-12-02 14:56:13.444053
2022-12-02 14:56:13.455893
2022-12-02 14:56:13.464204
2022-12-02 14:56:13.472707
2022-12-02 14:56:13.480757
2022-12-02 14:56:13.492586
2022-12-02 14:56:13.500504
2022-12-02 14:56:13.509210
2022-12-02 14:56:13.521446
2022-12-02 14:56:13.530160
2022-12-02 14:56:13.537679
2022-12-02 14:56:13.546258
2022-12-02 14:56:13.557912
2022-12-02 14:56:13.566468
2022-12-02 14:56:13.575164
2022-12-02 14:56:13.587409
2022-12-02 14:56:13.595494
2022-12-02 14:56:13.603619
2022-12-02 14:56:13.611997
2022-12-02 14:56:13.623336
2022-12-02 14:56:13.632214
2022-12-02 14:56:13.640209
2022-12-02 14:56:13.652604
2022-12-02 14:56:13.660881
2022-12-02 14:56:13.668603
2022-12-02 14:56:13.676684
2022-12-02 14:56:13.689253
2022-12-02 14:56:13.698005
2022-12-02 14:56:13.706303
2022-12-02 14:56:13.718016
2022-12-02 14:56:13.726468
2022-12-02 14:56:13.734086
2022-12-02 14:56:13.742672
2022-12-02 14:56:13.754785
2022-12-02 14:56:13.763007
2022-12-02 14:56:13.771608
2022-12-02 14:56:13.783870
2022-12-02 14:56:13.791969
2022-12-02 14:56:13.800431
2022-12-02 14:56:13.808681
2022-12-02 14:56:13.820328
2022-12-02 14:56:13.828836
2022-12-02 14:56:13.837089
2022-12-02 14:56:13.849390
2022-12-02 14:56:13.857646
2022-12-02 14:56:13.865706
2022-12-02 14:56:13.874039
2022-12-02 14:56:13.885438
2022-12-02 14:56:13.893670
2022-12-02 14:56:13.902738
2022-12-02 14:56:13.914748
2022-12-02 14:56:13.923340
2022-12-02 14:56:13.930993
2022-12-02 14:56:13.939012
2022-12-02 14:56:13.951343
2022-12-02 14:56:13.959881
2022-12-02 14:56:13.968187
2022-12-02 14:56:13.976439
2022-12-02 14:56:13.988835
2022-12-02 14:56:13.997011
2022-12-02 14:56:14.005225
2022-12-02 14:56:14.017473
2022-12-02 14:56:14.025136
2022-12-02 14:56:14.033704
2022-12-02 14:56:14.041717
2022-12-02 14:56:14.053843
2022-12-02 14:56:14.061877
2022-12-02 14:56:14.070909
2022-12-02 14:56:14.082577
2022-12-02 14:56:14.091179
2022-12-02 14:56:14.099663
2022-12-02 14:56:14.107844
2022-12-02 14:56:14.120175
2022-12-02 14:56:14.128081
2022-12-02 14:56:14.136286
2022-12-02 14:56:14.148747
2022-12-02 14:56:14.157109
2022-12-02 14:56:14.165111
2022-12-02 14:56:14.173168
2022-12-02 14:56:14.185667
2022-12-02 14:56:14.193635
2022-12-02 14:56:14.201893
2022-12-02 14:56:14.214480
2022-12-02 14:56:14.221662
2022-12-02 14:56:14.230468
2022-12-02 14:56:14.238666
2022-12-02 14:56:14.250694
2022-12-02 14:56:14.258602
2022-12-02 14:56:14.267345
2022-12-02 14:56:14.279888
2022-12-02 14:56:14.288036
2022-12-02 14:56:14.296210
2022-12-02 14:56:14.304436
2022-12-02 14:56:14.316942
2022-12-02 14:56:14.325395
2022-12-02 14:56:14.333371
2022-12-02 14:56:14.345542
2022-12-02 14:56:14.353643
2022-12-02 14:56:14.361837
2022-12-02 14:56:14.369964
2022-12-02 14:56:14.382366
2022-12-02 14:56:14.390388
2022-12-02 14:56:14.398816
2022-12-02 14:56:14.410988
2022-12-02 14:56:14.419195
2022-12-02 14:56:14.427139
2022-12-02 14:56:14.435240
2022-12-02 14:56:14.447903
2022-12-02 14:56:14.455695
2022-12-02 14:56:14.464371
2022-12-02 14:56:14.475365
2022-12-02 14:56:14.484669
2022-12-02 14:56:14.492921
2022-12-02 14:56:14.501263
2022-12-02 14:56:14.512999
2022-12-02 14:56:14.521345
2022-12-02 14:56:14.529470
2022-12-02 14:56:14.541820
2022-12-02 14:56:14.549712
2022-12-02 14:56:14.558571
2022-12-02 14:56:14.565904
2022-12-02 14:56:14.577747
2022-12-02 14:56:14.586887
2022-12-02 14:56:14.594784
2022-12-02 14:56:14.607059
2022-12-02 14:56:14.615028
2022-12-02 14:56:14.623351
2022-12-02 14:56:14.631052
2022-12-02 14:56:14.643993
2022-12-02 14:56:14.652153
2022-12-02 14:56:14.660396
2022-12-02 14:56:14.672724
2022-12-02 14:56:14.680842
2022-12-02 14:56:14.689017
2022-12-02 14:56:14.697481
2022-12-02 14:56:14.709673
2022-12-02 14:56:14.717970
2022-12-02 14:56:14.726136
2022-12-02 14:56:14.738377
2022-12-02 14:56:14.746587
2022-12-02 14:56:14.754439
2022-12-02 14:56:14.763060
2022-12-02 14:56:14.775625
2022-12-02 14:56:14.795974
2022-12-02 14:56:14.799013
2022-12-02 14:56:14.803806
2022-12-02 14:56:14.811768
2022-12-02 14:56:14.820260
2022-12-02 14:56:14.828253
2022-12-02 14:56:14.840573
2022-12-02 14:56:14.849120
2022-12-02 14:56:14.857214
2022-12-02 14:56:14.865219
2022-12-02 14:56:14.877748
2022-12-02 14:56:14.885832
2022-12-02 14:56:14.893359
2022-12-02 14:56:14.905680
2022-12-02 14:56:14.914461
2022-12-02 14:56:14.922346
2022-12-02 14:56:14.929933
2022-12-02 14:56:14.943250
2022-12-02 14:56:14.951296
2022-12-02 14:56:14.959228
2022-12-02 14:56:14.971793
2022-12-02 14:56:14.979976
2022-12-02 14:56:14.987956
2022-12-02 14:56:14.996055
2022-12-02 14:56:15.008797
2022-12-02 14:56:15.017015
2022-12-02 14:56:15.025093
2022-12-02 14:56:15.037355
2022-12-02 14:56:15.045594
2022-12-02 14:56:15.053581
2022-12-02 14:56:15.065240
2022-12-02 14:56:15.073778
2022-12-02 14:56:15.082180
2022-12-02 14:56:15.090702
2022-12-02 14:56:15.102628
2022-12-02 14:56:15.110863
2022-12-02 14:56:15.119058
2022-12-02 14:56:15.127434
2022-12-02 14:56:15.139351
2022-12-02 14:56:15.147902
2022-12-02 14:56:15.155896
2022-12-02 14:56:15.167854
2022-12-02 14:56:15.177263
2022-12-02 14:56:15.184604
2022-12-02 14:56:15.193222
2022-12-02 14:56:15.205100
2022-12-02 14:56:15.213534
2022-12-02 14:56:15.221192
2022-12-02 14:56:15.233226
2022-12-02 14:56:15.242175
2022-12-02 14:56:15.250289
2022-12-02 14:56:15.258615
2022-12-02 14:56:15.270330
2022-12-02 14:56:15.278156
2022-12-02 14:56:15.287736
2022-12-02 14:56:15.299438
2022-12-02 14:56:15.307050
2022-12-02 14:56:15.315756
2022-12-02 14:56:15.323998
2022-12-02 14:56:15.335460
2022-12-02 14:56:15.344783
2022-12-02 14:56:15.353362
2022-12-02 14:56:15.365111
2022-12-02 14:56:15.374214
2022-12-02 14:56:15.381886
2022-12-02 14:56:15.390563
2022-12-02 14:56:15.401467
2022-12-02 14:56:15.410278
2022-12-02 14:56:15.418298
2022-12-02 14:56:15.430655
2022-12-02 14:56:15.438738
2022-12-02 14:56:15.446999
2022-12-02 14:56:15.454886
2022-12-02 14:56:15.467364
2022-12-02 14:56:15.475659
2022-12-02 14:56:15.483831
2022-12-02 14:56:15.495198
2022-12-02 14:56:15.503959
2022-12-02 14:56:15.512145
2022-12-02 14:56:15.563368
2022-12-02 14:56:15.564361
2022-12-02 14:56:15.567161
2022-12-02 14:56:15.569737
2022-12-02 14:56:15.571131
2022-12-02 14:56:15.573163
2022-12-02 14:56:15.577755
2022-12-02 14:56:15.585635
2022-12-02 14:56:15.598265
2022-12-02 14:56:15.606505
2022-12-02 14:56:15.614882
2022-12-02 14:56:15.626936
2022-12-02 14:56:15.635076
2022-12-02 14:56:15.643090
2022-12-02 14:56:15.651367
2022-12-02 14:56:15.663423
2022-12-02 14:56:15.672027
2022-12-02 14:56:15.679946
2022-12-02 14:56:15.688624
2022-12-02 14:56:15.700070
2022-12-02 14:56:15.709560
2022-12-02 14:56:15.718422
2022-12-02 14:56:15.730928
2022-12-02 14:56:15.737048
2022-12-02 14:56:15.745714
2022-12-02 14:56:15.753438
2022-12-02 14:56:15.766475
2022-12-02 14:56:15.774158
2022-12-02 14:56:15.782492
2022-12-02 14:56:15.795148
2022-12-02 14:56:15.802764
2022-12-02 14:56:15.811499
2022-12-02 14:56:15.819592
2022-12-02 14:56:15.831934
2022-12-02 14:56:15.839854
2022-12-02 14:56:15.847602
2022-12-02 14:56:15.860603
2022-12-02 14:56:15.868875
2022-12-02 14:56:15.877158
2022-12-02 14:56:15.884660
2022-12-02 14:56:15.897881
2022-12-02 14:56:15.905613
2022-12-02 14:56:15.913946
2022-12-02 14:56:15.926261
2022-12-02 14:56:15.934725
2022-12-02 14:56:15.942018
2022-12-02 14:56:15.950512
2022-12-02 14:56:15.962495
2022-12-02 14:56:15.971258
2022-12-02 14:56:15.978928
2022-12-02 14:56:15.991814
2022-12-02 14:56:16.000295
2022-12-02 14:56:16.007954
2022-12-02 14:56:16.016270
2022-12-02 14:56:16.028946
2022-12-02 14:56:16.037539
2022-12-02 14:56:16.045307
2022-12-02 14:56:16.057528
2022-12-02 14:56:16.065844
2022-12-02 14:56:16.074226
2022-12-02 14:56:16.082136
2022-12-02 14:56:16.094513
2022-12-02 14:56:16.102295
2022-12-02 14:56:16.110930
2022-12-02 14:56:16.122110
2022-12-02 14:56:16.130533
2022-12-02 14:56:16.138799
2022-12-02 14:56:16.147636
2022-12-02 14:56:16.159612
2022-12-02 14:56:16.167916
2022-12-02 14:56:16.175872
2022-12-02 14:56:16.188382
2022-12-02 14:56:16.196580
2022-12-02 14:56:16.203831
2022-12-02 14:56:16.212653
2022-12-02 14:56:16.225310
2022-12-02 14:56:16.233676
2022-12-02 14:56:16.241191
2022-12-02 14:56:16.253413
2022-12-02 14:56:16.262113
2022-12-02 14:56:16.270401
2022-12-02 14:56:16.278505
2022-12-02 14:56:16.290844
2022-12-02 14:56:16.299190
2022-12-02 14:56:16.306775
2022-12-02 14:56:16.318814
2022-12-02 14:56:16.327904
2022-12-02 14:56:16.336291
2022-12-02 14:56:16.344521
2022-12-02 14:56:16.356581
2022-12-02 14:56:16.364422
2022-12-02 14:56:16.372884
2022-12-02 14:56:16.385387
2022-12-02 14:56:16.393500
2022-12-02 14:56:16.401640
2022-12-02 14:56:16.409490
2022-12-02 14:56:16.422481
2022-12-02 14:56:16.430386
2022-12-02 14:56:16.437745
2022-12-02 14:56:16.450128
2022-12-02 14:56:16.457654
2022-12-02 14:56:16.467025
2022-12-02 14:56:16.474956
2022-12-02 14:56:16.487288
2022-12-02 14:56:16.494846
2022-12-02 14:56:16.503954
2022-12-02 14:56:16.516219
2022-12-02 14:56:16.524430
2022-12-02 14:56:16.532602
2022-12-02 14:56:16.540902
2022-12-02 14:56:16.551821
2022-12-02 14:56:16.561513
2022-12-02 14:56:16.569177
2022-12-02 14:56:16.577745
2022-12-02 14:56:16.590131
2022-12-02 14:56:16.598319
2022-12-02 14:56:16.606415
2022-12-02 14:56:16.618612
2022-12-02 14:56:16.626428
2022-12-02 14:56:16.635097
2022-12-02 14:56:16.643248
2022-12-02 14:56:16.655585
2022-12-02 14:56:16.663919
2022-12-02 14:56:16.672348
2022-12-02 14:56:16.684382
2022-12-02 14:56:16.691458
2022-12-02 14:56:16.700559
2022-12-02 14:56:16.708614
2022-12-02 14:56:16.720914
2022-12-02 14:56:16.729332
2022-12-02 14:56:16.737309
2022-12-02 14:56:16.749499
2022-12-02 14:56:16.757664
2022-12-02 14:56:16.765393
2022-12-02 14:56:16.774383
2022-12-02 14:56:16.786405
2022-12-02 14:56:16.794916
2022-12-02 14:56:16.802408
2022-12-02 14:56:16.815282
2022-12-02 14:56:16.822910
2022-12-02 14:56:16.831469
2022-12-02 14:56:16.839663
2022-12-02 14:56:16.851146
2022-12-02 14:56:16.860310
2022-12-02 14:56:16.868618
2022-12-02 14:56:16.880803
2022-12-02 14:56:16.888690
2022-12-02 14:56:16.897414
2022-12-02 14:56:16.905205
2022-12-02 14:56:16.917270
2022-12-02 14:56:16.925820
2022-12-02 14:56:16.934016
2022-12-02 14:56:16.946254
2022-12-02 14:56:16.954406
2022-12-02 14:56:16.962359
2022-12-02 14:56:16.969989
2022-12-02 14:56:16.983404
2022-12-02 14:56:16.990837
2022-12-02 14:56:16.999701
2022-12-02 14:56:17.010602
2022-12-02 14:56:17.020035
2022-12-02 14:56:17.028049
2022-12-02 14:56:17.036233
2022-12-02 14:56:17.048932
2022-12-02 14:56:17.056746
2022-12-02 14:56:17.065387
2022-12-02 14:56:17.077507
2022-12-02 14:56:17.085349
2022-12-02 14:56:17.093852
2022-12-02 14:56:17.101909
2022-12-02 14:56:17.114110
2022-12-02 14:56:17.122615
2022-12-02 14:56:17.130720
2022-12-02 14:56:17.142446
2022-12-02 14:56:17.150283
2022-12-02 14:56:17.159375
2022-12-02 14:56:17.167087
2022-12-02 14:56:17.179627
2022-12-02 14:56:17.187780
2022-12-02 14:56:17.195861
2022-12-02 14:56:17.207731
2022-12-02 14:56:17.216597
2022-12-02 14:56:17.224712
2022-12-02 14:56:17.233188
2022-12-02 14:56:17.245341
2022-12-02 14:56:17.253286
2022-12-02 14:56:17.261876
2022-12-02 14:56:17.273100
2022-12-02 14:56:17.282038
2022-12-02 14:56:17.290306
2022-12-02 14:56:17.298558
2022-12-02 14:56:17.311037
2022-12-02 14:56:17.318696
2022-12-02 14:56:17.326710
2022-12-02 14:56:17.339532
2022-12-02 14:56:17.347937
2022-12-02 14:56:17.355836
2022-12-02 14:56:17.364389
2022-12-02 14:56:17.376606
2022-12-02 14:56:17.384681
2022-12-02 14:56:17.392790
2022-12-02 14:56:17.404738
2022-12-02 14:56:17.413048
2022-12-02 14:56:17.421441
2022-12-02 14:56:17.429028
2022-12-02 14:56:17.441672
2022-12-02 14:56:17.450039
2022-12-02 14:56:17.458228
2022-12-02 14:56:17.466512
2022-12-02 14:56:17.478054
2022-12-02 14:56:17.486802
2022-12-02 14:56:17.494163
2022-12-02 14:56:17.506954
2022-12-02 14:56:17.514696
2022-12-02 14:56:17.523450
2022-12-02 14:56:17.531690
2022-12-02 14:56:17.544244
2022-12-02 14:56:17.552067
2022-12-02 14:56:17.560855
2022-12-02 14:56:17.573388
2022-12-02 14:56:17.581296
2022-12-02 14:56:17.589230
2022-12-02 14:56:17.597934
2022-12-02 14:56:17.610024
2022-12-02 14:56:17.617666
2022-12-02 14:56:17.625904
2022-12-02 14:56:17.638366
2022-12-02 14:56:17.646731
2022-12-02 14:56:17.654465
2022-12-02 14:56:17.662500
2022-12-02 14:56:17.675103
2022-12-02 14:56:17.683344
2022-12-02 14:56:17.691616
2022-12-02 14:56:17.703567
2022-12-02 14:56:17.711505
2022-12-02 14:56:17.719792
2022-12-02 14:56:17.728144
2022-12-02 14:56:17.740371
2022-12-02 14:56:17.748981
2022-12-02 14:56:17.757020
2022-12-02 14:56:17.769475
2022-12-02 14:56:17.777811
2022-12-02 14:56:17.785530
2022-12-02 14:56:17.794031
2022-12-02 14:56:17.806004
2022-12-02 14:56:17.814505
2022-12-02 14:56:17.822663
2022-12-02 14:56:17.834960
2022-12-02 14:56:17.842806
2022-12-02 14:56:17.850787
2022-12-02 14:56:17.858872
2022-12-02 14:56:17.871115
2022-12-02 14:56:17.879907
2022-12-02 14:56:17.887382
2022-12-02 14:56:17.899816
2022-12-02 14:56:17.908172
2022-12-02 14:56:17.916892
2022-12-02 14:56:17.924125
2022-12-02 14:56:17.936761
2022-12-02 14:56:17.945154
2022-12-02 14:56:17.953859
2022-12-02 14:56:17.965996
2022-12-02 14:56:17.974289
2022-12-02 14:56:17.982348
2022-12-02 14:56:17.992668
2022-12-02 14:56:18.002820
2022-12-02 14:56:18.010958
2022-12-02 14:56:18.019104
2022-12-02 14:56:18.035643
2022-12-02 14:56:18.043288
2022-12-02 14:56:18.047591
2022-12-02 14:56:18.055683
2022-12-02 14:56:18.067945
2022-12-02 14:56:18.076095
2022-12-02 14:56:18.084497
2022-12-02 14:56:18.096447
2022-12-02 14:56:18.104482
2022-12-02 14:56:18.113586
2022-12-02 14:56:18.120836
2022-12-02 14:56:18.133759
2022-12-02 14:56:18.142236
2022-12-02 14:56:18.150025
2022-12-02 14:56:18.162610
2022-12-02 14:56:18.170802
2022-12-02 14:56:18.178601
2022-12-02 14:56:18.186735
2022-12-02 14:56:18.199487
2022-12-02 14:56:18.207219
2022-12-02 14:56:18.215981
2022-12-02 14:56:18.228123
2022-12-02 14:56:18.236370
2022-12-02 14:56:18.244569
2022-12-02 14:56:18.252237
2022-12-02 14:56:18.264290
2022-12-02 14:56:18.272734
2022-12-02 14:56:18.281345
2022-12-02 14:56:18.289566
2022-12-02 14:56:18.301881
2022-12-02 14:56:18.313551
2022-12-02 14:56:18.318610
2022-12-02 14:56:18.329746
2022-12-02 14:56:18.338466
2022-12-02 14:56:18.346913
2022-12-02 14:56:18.355266
2022-12-02 14:56:18.366773
2022-12-02 14:56:18.375081
2022-12-02 14:56:18.383705
2022-12-02 14:56:18.396029
2022-12-02 14:56:18.404243
2022-12-02 14:56:18.411781
2022-12-02 14:56:18.420570
2022-12-02 14:56:18.432848
2022-12-02 14:56:18.441020
2022-12-02 14:56:18.449401
2022-12-02 14:56:18.460715
2022-12-02 14:56:18.469897
2022-12-02 14:56:18.478168
2022-12-02 14:56:18.486234
2022-12-02 14:56:18.498762
2022-12-02 14:56:18.506904
2022-12-02 14:56:18.515254
2022-12-02 14:56:18.527123
2022-12-02 14:56:18.534725
2022-12-02 14:56:18.543397
2022-12-02 14:56:18.551919
2022-12-02 14:56:18.563333
2022-12-02 14:56:18.572179
2022-12-02 14:56:18.580388
2022-12-02 14:56:18.591894
2022-12-02 14:56:18.600867
2022-12-02 14:56:18.608680
2022-12-02 14:56:18.616998
2022-12-02 14:56:18.629680
2022-12-02 14:56:18.637220
2022-12-02 14:56:18.645498
2022-12-02 14:56:18.658443
2022-12-02 14:56:18.666456
2022-12-02 14:56:18.674542
2022-12-02 14:56:18.682633
2022-12-02 14:56:18.694713
2022-12-02 14:56:18.702768
2022-12-02 14:56:18.711576
2022-12-02 14:56:18.723495
2022-12-02 14:56:18.740659
2022-12-02 14:56:18.748919
2022-12-02 14:56:18.750628
2022-12-02 14:56:18.771325
2022-12-02 14:56:18.774762
2022-12-02 14:56:18.776982
2022-12-02 14:56:18.788936
2022-12-02 14:56:18.797631
2022-12-02 14:56:18.805310
2022-12-02 14:56:18.813926
2022-12-02 14:56:18.826170
2022-12-02 14:56:18.834829
2022-12-02 14:56:18.842520
2022-12-02 14:56:18.854728
2022-12-02 14:56:18.862429
2022-12-02 14:56:18.871323
2022-12-02 14:56:18.878801
2022-12-02 14:56:18.891445
2022-12-02 14:56:18.899177
2022-12-02 14:56:18.907865
2022-12-02 14:56:18.919800
2022-12-02 14:56:18.928410
2022-12-02 14:56:18.936425
2022-12-02 14:56:18.944955
2022-12-02 14:56:18.956476
2022-12-02 14:56:18.964844
2022-12-02 14:56:18.973572
2022-12-02 14:56:18.985645
2022-12-02 14:56:18.994255
2022-12-02 14:56:19.001802
2022-12-02 14:56:19.010597
2022-12-02 14:56:19.022967
2022-12-02 14:56:19.031316
2022-12-02 14:56:19.039402
2022-12-02 14:56:19.051138
2022-12-02 14:56:19.060016
2022-12-02 14:56:19.067718
2022-12-02 14:56:19.076405
2022-12-02 14:56:19.088378
2022-12-02 14:56:19.096558
2022-12-02 14:56:19.118437
2022-12-02 14:56:19.121680
2022-12-02 14:56:19.125319
2022-12-02 14:56:19.165298
2022-12-02 14:56:19.167273
2022-12-02 14:56:19.168462
2022-12-02 14:56:19.170036
2022-12-02 14:56:19.196725
2022-12-02 14:56:19.324849
2022-12-02 14:56:19.353452
2022-12-02 14:56:19.385505
2022-12-02 14:56:19.400929
2022-12-02 14:56:19.404146
2022-12-02 14:56:19.408014
2022-12-02 14:56:19.409580
2022-12-02 14:56:19.411261
2022-12-02 14:56:19.412692
2022-12-02 14:56:19.414176
2022-12-02 14:56:19.415787
2022-12-02 14:56:19.417718
2022-12-02 14:56:19.419383
2022-12-02 14:56:19.421579
2022-12-02 14:56:19.428711
2022-12-02 14:56:19.430799
2022-12-02 14:56:19.432310
2022-12-02 14:56:19.433303
2022-12-02 14:56:19.434793
2022-12-02 14:56:19.436283
2022-12-02 14:56:19.438373
2022-12-02 14:56:19.439669
2022-12-02 14:56:19.441314
2022-12-02 14:56:19.442306
2022-12-02 14:56:19.443300
2022-12-02 14:56:19.444293
2022-12-02 14:56:19.445440
2022-12-02 14:56:19.446609
2022-12-02 14:56:19.447611
2022-12-02 14:56:19.452519
2022-12-02 14:56:19.460685
2022-12-02 14:56:19.469257
2022-12-02 14:56:19.480953
2022-12-02 14:56:19.489734
2022-12-02 14:56:19.497544
2022-12-02 14:56:19.505728
2022-12-02 14:56:19.517995
2022-12-02 14:56:19.526296
2022-12-02 14:56:19.534720
2022-12-02 14:56:19.547051
2022-12-02 14:56:19.555227
2022-12-02 14:56:19.563438
2022-12-02 14:56:19.571624
2022-12-02 14:56:19.584005
2022-12-02 14:56:19.591514
2022-12-02 14:56:19.600733
2022-12-02 14:56:19.612821
2022-12-02 14:56:19.620873
2022-12-02 14:56:19.629428
2022-12-02 14:56:19.637243
2022-12-02 14:56:19.649688
2022-12-02 14:56:19.657500
2022-12-02 14:56:19.666182
2022-12-02 14:56:19.677966
2022-12-02 14:56:19.686156
2022-12-02 14:56:19.694719
2022-12-02 14:56:19.702082
2022-12-02 14:56:19.714606
2022-12-02 14:56:19.723936
2022-12-02 14:56:19.730676
2022-12-02 14:56:19.743239
2022-12-02 14:56:19.751090
2022-12-02 14:56:19.759330
2022-12-02 14:56:19.768630
2022-12-02 14:56:19.779723
2022-12-02 14:56:19.788682
2022-12-02 14:56:19.796418
2022-12-02 14:56:19.808528
2022-12-02 14:56:19.817500
2022-12-02 14:56:19.825452
2022-12-02 14:56:19.833592
2022-12-02 14:56:19.845333
2022-12-02 14:56:19.853483
2022-12-02 14:56:19.862332
2022-12-02 14:56:19.874556
2022-12-02 14:56:19.882466
2022-12-02 14:56:19.890986
2022-12-02 14:56:19.900273
2022-12-02 14:56:19.911089
2022-12-02 14:56:19.919941
2022-12-02 14:56:19.927781
2022-12-02 14:56:19.939368
2022-12-02 14:56:19.947751
2022-12-02 14:56:19.956750
2022-12-02 14:56:19.964982
2022-12-02 14:56:19.976904
2022-12-02 14:56:19.984715
2022-12-02 14:56:19.993522
2022-12-02 14:56:20.004931
2022-12-02 14:56:20.014043
2022-12-02 14:56:20.021886
2022-12-02 14:56:20.030309
2022-12-02 14:56:20.042390
2022-12-02 14:56:20.050381
2022-12-02 14:56:20.058792
2022-12-02 14:56:20.066407
2022-12-02 14:56:20.079449
2022-12-02 14:56:20.087594
2022-12-02 14:56:20.096027
2022-12-02 14:56:20.108046
2022-12-02 14:56:20.116241
2022-12-02 14:56:20.124478
2022-12-02 14:56:20.132676
2022-12-02 14:56:20.144698
2022-12-02 14:56:20.153245
2022-12-02 14:56:20.161427
2022-12-02 14:56:20.173658
2022-12-02 14:56:20.181914
2022-12-02 14:56:20.190016
2022-12-02 14:56:20.198314
2022-12-02 14:56:20.209918
2022-12-02 14:56:20.218947
2022-12-02 14:56:20.227114
2022-12-02 14:56:20.239337
2022-12-02 14:56:20.247516
2022-12-02 14:56:20.255721
2022-12-02 14:56:20.264333
2022-12-02 14:56:20.276388
2022-12-02 14:56:20.284631
2022-12-02 14:56:20.292435
2022-12-02 14:56:20.304138
2022-12-02 14:56:20.313110
2022-12-02 14:56:20.320636
2022-12-02 14:56:20.329368
2022-12-02 14:56:20.341785
2022-12-02 14:56:20.349884
2022-12-02 14:56:20.358168
2022-12-02 14:56:20.370430
2022-12-02 14:56:20.378531
2022-12-02 14:56:20.386750
2022-12-02 14:56:20.394359
2022-12-02 14:56:20.407138
2022-12-02 14:56:20.415656
2022-12-02 14:56:20.424038
2022-12-02 14:56:20.435588
2022-12-02 14:56:20.444831
2022-12-02 14:56:20.486748
2022-12-02 14:56:20.487959
2022-12-02 14:56:20.488455
2022-12-02 14:56:20.490848
2022-12-02 14:56:20.491759
2022-12-02 14:56:20.505059
2022-12-02 14:56:20.631677
2022-12-02 14:56:20.819465
2022-12-02 14:56:20.821452
2022-12-02 14:56:20.822445
2022-12-02 14:56:20.824011
2022-12-02 14:56:20.825558
2022-12-02 14:56:20.826646
2022-12-02 14:56:20.827640
2022-12-02 14:56:20.828480
2022-12-02 14:56:20.830086
2022-12-02 14:56:20.831717
2022-12-02 14:56:20.832667
2022-12-02 14:56:20.834497
2022-12-02 14:56:20.835622
2022-12-02 14:56:20.836704
2022-12-02 14:56:20.837676
2022-12-02 14:56:20.840080
2022-12-02 14:56:20.841815
2022-12-02 14:56:20.843247
2022-12-02 14:56:20.846674
2022-12-02 14:56:20.847667
2022-12-02 14:56:20.848786
2022-12-02 14:56:20.850220
2022-12-02 14:56:20.851360
2022-12-02 14:56:20.852367
2022-12-02 14:56:20.853603
2022-12-02 14:56:20.854540
2022-12-02 14:56:20.855516
2022-12-02 14:56:20.857246
2022-12-02 14:56:20.858030
2022-12-02 14:56:20.858865
2022-12-02 14:56:20.861057
2022-12-02 14:56:20.862810
2022-12-02 14:56:20.863805
2022-12-02 14:56:20.864991
2022-12-02 14:56:20.865746
2022-12-02 14:56:20.866264
2022-12-02 14:56:20.867458
2022-12-02 14:56:20.867694
2022-12-02 14:56:20.874024
2022-12-02 14:56:20.882194
2022-12-02 14:56:20.890603
2022-12-02 14:56:20.902914
2022-12-02 14:56:20.911031
2022-12-02 14:56:20.919071
2022-12-02 14:56:20.931415
2022-12-02 14:56:20.939683
2022-12-02 14:56:20.947852
2022-12-02 14:56:20.955907
2022-12-02 14:56:20.970999
2022-12-02 14:56:20.978794
2022-12-02 14:56:20.985354
2022-12-02 14:56:20.996527
2022-12-02 14:56:21.006826
2022-12-02 14:56:21.058723
2022-12-02 14:56:21.068309
2022-12-02 14:56:21.072465
2022-12-02 14:56:21.073509
2022-12-02 14:56:21.075745
2022-12-02 14:56:21.077889
2022-12-02 14:56:21.078883
2022-12-02 14:56:21.080610
2022-12-02 14:56:21.087246
2022-12-02 14:56:21.099371
2022-12-02 14:56:21.107350
2022-12-02 14:56:21.115693
2022-12-02 14:56:21.128015
2022-12-02 14:56:21.136013
2022-12-02 14:56:21.144565
2022-12-02 14:56:21.152005
2022-12-02 14:56:21.164558
2022-12-02 14:56:21.173121
2022-12-02 14:56:21.181437
2022-12-02 14:56:21.193326
2022-12-02 14:56:21.201961
2022-12-02 14:56:21.209745
2022-12-02 14:56:21.217956
2022-12-02 14:56:21.230444
2022-12-02 14:56:21.238960
2022-12-02 14:56:21.246564
2022-12-02 14:56:21.258913
2022-12-02 14:56:21.267494
2022-12-02 14:56:21.275118
2022-12-02 14:56:21.283406
2022-12-02 14:56:21.295580
2022-12-02 14:56:21.304023
2022-12-02 14:56:21.311668
2022-12-02 14:56:21.323730
2022-12-02 14:56:21.332866
2022-12-02 14:56:21.340916
2022-12-02 14:56:21.349337
2022-12-02 14:56:21.361533
2022-12-02 14:56:21.369874
2022-12-02 14:56:21.377818
2022-12-02 14:56:21.390275
2022-12-02 14:56:21.398541
2022-12-02 14:56:21.406358
2022-12-02 14:56:21.415018
2022-12-02 14:56:21.426952
2022-12-02 14:56:21.434900
2022-12-02 14:56:21.443245
2022-12-02 14:56:21.455535
2022-12-02 14:56:21.463728
2022-12-02 14:56:21.471630
2022-12-02 14:56:21.480402
2022-12-02 14:56:21.492388
2022-12-02 14:56:21.501475
2022-12-02 14:56:21.509106
2022-12-02 14:56:21.521342
2022-12-02 14:56:21.529244
2022-12-02 14:56:21.537656
2022-12-02 14:56:21.545192
2022-12-02 14:56:21.558277
2022-12-02 14:56:21.566078
2022-12-02 14:56:21.573781
2022-12-02 14:56:21.586840
2022-12-02 14:56:21.594281
2022-12-02 14:56:21.602542
2022-12-02 14:56:21.611263
2022-12-02 14:56:21.623259
2022-12-02 14:56:21.631939
2022-12-02 14:56:21.640186
2022-12-02 14:56:21.652517
2022-12-02 14:56:21.660495
2022-12-02 14:56:21.668577
2022-12-02 14:56:21.677169
2022-12-02 14:56:21.688645
2022-12-02 14:56:21.697002
2022-12-02 14:56:21.705366
2022-12-02 14:56:21.717924
2022-12-02 14:56:21.726134
2022-12-02 14:56:21.733786
2022-12-02 14:56:21.742851
2022-12-02 14:56:21.754851
2022-12-02 14:56:21.762273
2022-12-02 14:56:21.771287
2022-12-02 14:56:21.779039
2022-12-02 14:56:21.791790
2022-12-02 14:56:21.799842
2022-12-02 14:56:21.807929
2022-12-02 14:56:21.820108
2022-12-02 14:56:21.828398
2022-12-02 14:56:21.836772
2022-12-02 14:56:21.845027
2022-12-02 14:56:21.857338
2022-12-02 14:56:21.865303
2022-12-02 14:56:21.873243
2022-12-02 14:56:21.885250
2022-12-02 14:56:21.893882
2022-12-02 14:56:21.902317
2022-12-02 14:56:21.910438
2022-12-02 14:56:21.922776
2022-12-02 14:56:21.930434
2022-12-02 14:56:21.939215
2022-12-02 14:56:21.951288
2022-12-02 14:56:21.959334
2022-12-02 14:56:21.967445
2022-12-02 14:56:21.975442
2022-12-02 14:56:21.988125
2022-12-02 14:56:21.996450
2022-12-02 14:56:22.004850
2022-12-02 14:56:22.016121
2022-12-02 14:56:22.025144
2022-12-02 14:56:22.033147
2022-12-02 14:56:22.041534
2022-12-02 14:56:22.053858
2022-12-02 14:56:22.062263
2022-12-02 14:56:22.070562
2022-12-02 14:56:22.082658
2022-12-02 14:56:22.090747
2022-12-02 14:56:22.098572
2022-12-02 14:56:22.106525
2022-12-02 14:56:22.118646
2022-12-02 14:56:22.127909
2022-12-02 14:56:22.135648
2022-12-02 14:56:22.148356
2022-12-02 14:56:22.155488
2022-12-02 14:56:22.163949
2022-12-02 14:56:22.172781
2022-12-02 14:56:22.184952
2022-12-02 14:56:22.193338
2022-12-02 14:56:22.201205
2022-12-02 14:56:22.213852
2022-12-02 14:56:22.221576
2022-12-02 14:56:22.230422
2022-12-02 14:56:22.238406
2022-12-02 14:56:22.250684
2022-12-02 14:56:22.258604
2022-12-02 14:56:22.266764
2022-12-02 14:56:22.279409
2022-12-02 14:56:22.287612
2022-12-02 14:56:22.295740
2022-12-02 14:56:22.303757
2022-12-02 14:56:22.315994
2022-12-02 14:56:22.323764
2022-12-02 14:56:22.332792
2022-12-02 14:56:22.344598
2022-12-02 14:56:22.353512
2022-12-02 14:56:22.360362
2022-12-02 14:56:22.369323
2022-12-02 14:56:22.381865
2022-12-02 14:56:22.389760
2022-12-02 14:56:22.398421
2022-12-02 14:56:22.410311
2022-12-02 14:56:22.418432
2022-12-02 14:56:22.426698
2022-12-02 14:56:22.434822
2022-12-02 14:56:22.447531
2022-12-02 14:56:22.455416
2022-12-02 14:56:22.463829
2022-12-02 14:56:22.475749
2022-12-02 14:56:22.483674
2022-12-02 14:56:22.492414
2022-12-02 14:56:22.500535
2022-12-02 14:56:22.512931
2022-12-02 14:56:22.521060
2022-12-02 14:56:22.529019
2022-12-02 14:56:22.541651
2022-12-02 14:56:22.549127
2022-12-02 14:56:22.557869
2022-12-02 14:56:22.566166
2022-12-02 14:56:22.577697
2022-12-02 14:56:22.586149
2022-12-02 14:56:22.594474
2022-12-02 14:56:22.602866
2022-12-02 14:56:22.615262
2022-12-02 14:56:22.623205
2022-12-02 14:56:22.630983
2022-12-02 14:56:22.643094
2022-12-02 14:56:22.651622
2022-12-02 14:56:22.660086
2022-12-02 14:56:22.667944
2022-12-02 14:56:22.680818
2022-12-02 14:56:22.688557
2022-12-02 14:56:22.696781
2022-12-02 14:56:22.709438
2022-12-02 14:56:22.717251
2022-12-02 14:56:22.725866
2022-12-02 14:56:22.733654
2022-12-02 14:56:22.746222
2022-12-02 14:56:22.754472
2022-12-02 14:56:22.762782
2022-12-02 14:56:22.774631
2022-12-02 14:56:22.783133
2022-12-02 14:56:22.791130
2022-12-02 14:56:22.798721
2022-12-02 14:56:22.811662
2022-12-02 14:56:22.820237
2022-12-02 14:56:22.828521
2022-12-02 14:56:22.840635
2022-12-02 14:56:22.849025
2022-12-02 14:56:22.856860
2022-12-02 14:56:22.864953
2022-12-02 14:56:22.879542
2022-12-02 14:56:22.885523
2022-12-02 14:56:22.893181
2022-12-02 14:56:22.905734
2022-12-02 14:56:22.914083
2022-12-02 14:56:22.922666
2022-12-02 14:56:22.929886
2022-12-02 14:56:22.941966
2022-12-02 14:56:22.950063
2022-12-02 14:56:22.958959
2022-12-02 14:56:22.971127
2022-12-02 14:56:22.979069
2022-12-02 14:56:22.987005
2022-12-02 14:56:22.995729
2022-12-02 14:56:23.008149
2022-12-02 14:56:23.016168
2022-12-02 14:56:23.024496
2022-12-02 14:56:23.036835
2022-12-02 14:56:23.044718
2022-12-02 14:56:23.053121
2022-12-02 14:56:23.060707
2022-12-02 14:56:23.073782
2022-12-02 14:56:23.081616
2022-12-02 14:56:23.090190
2022-12-02 14:56:23.102435
2022-12-02 14:56:23.110664
2022-12-02 14:56:23.118888
2022-12-02 14:56:23.127440
2022-12-02 14:56:23.139216
2022-12-02 14:56:23.146882
2022-12-02 14:56:23.155029
2022-12-02 14:56:23.168021
2022-12-02 14:56:23.176404
2022-12-02 14:56:23.183913
2022-12-02 14:56:23.193066
2022-12-02 14:56:23.205069
2022-12-02 14:56:23.213544
2022-12-02 14:56:23.221499
2022-12-02 14:56:23.233680
2022-12-02 14:56:23.241957
2022-12-02 14:56:23.249963
2022-12-02 14:56:23.257959
2022-12-02 14:56:23.270155
2022-12-02 14:56:23.278957
2022-12-02 14:56:23.286926
2022-12-02 14:56:23.298891
2022-12-02 14:56:23.307075
2022-12-02 14:56:23.315547
2022-12-02 14:56:23.323553
2022-12-02 14:56:23.336432
2022-12-02 14:56:23.344155
2022-12-02 14:56:23.352420
2022-12-02 14:56:23.364782
2022-12-02 14:56:23.372808
2022-12-02 14:56:23.381525
2022-12-02 14:56:23.389445
2022-12-02 14:56:23.401517
2022-12-02 14:56:23.409833
2022-12-02 14:56:23.417536
2022-12-02 14:56:23.430150
2022-12-02 14:56:23.438118
2022-12-02 14:56:23.446468
2022-12-02 14:56:23.454735
2022-12-02 14:56:23.466929
2022-12-02 14:56:23.474428
2022-12-02 14:56:23.483227
2022-12-02 14:56:23.491597
2022-12-02 14:56:23.503815
2022-12-02 14:56:23.511832
2022-12-02 14:56:23.519879
2022-12-02 14:56:23.532268
2022-12-02 14:56:23.540413
2022-12-02 14:56:23.548799
2022-12-02 14:56:23.556939
2022-12-02 14:56:23.569445
2022-12-02 14:56:23.577058
2022-12-02 14:56:23.585732
2022-12-02 14:56:23.598080
2022-12-02 14:56:23.605846
2022-12-02 14:56:23.614557
2022-12-02 14:56:23.622589
2022-12-02 14:56:23.634835
2022-12-02 14:56:23.643165
2022-12-02 14:56:23.650988
2022-12-02 14:56:23.663582
2022-12-02 14:56:23.671762
2022-12-02 14:56:23.679911
2022-12-02 14:56:23.687939
2022-12-02 14:56:23.700064
2022-12-02 14:56:23.708492
2022-12-02 14:56:23.716725
2022-12-02 14:56:23.729010
2022-12-02 14:56:23.737086
2022-12-02 14:56:23.745581
2022-12-02 14:56:23.753320
2022-12-02 14:56:23.765993
2022-12-02 14:56:23.773406
2022-12-02 14:56:23.782515
2022-12-02 14:56:23.794133
2022-12-02 14:56:23.802728
2022-12-02 14:56:23.810899
2022-12-02 14:56:23.819220
2022-12-02 14:56:23.831510
2022-12-02 14:56:23.839692
2022-12-02 14:56:23.847172
2022-12-02 14:56:23.859736
2022-12-02 14:56:23.867994
2022-12-02 14:56:23.876642
2022-12-02 14:56:23.884468
2022-12-02 14:56:23.897076
2022-12-02 14:56:23.905353
2022-12-02 14:56:23.913309
2022-12-02 14:56:23.925660
2022-12-02 14:56:23.933778
2022-12-02 14:56:23.942082
2022-12-02 14:56:23.949765
2022-12-02 14:56:23.962560
2022-12-02 14:56:23.970733
2022-12-02 14:56:23.978961
2022-12-02 14:56:23.991134
2022-12-02 14:56:23.999469
2022-12-02 14:56:24.007672
2022-12-02 14:56:24.015718
2022-12-02 14:56:24.028349
2022-12-02 14:56:24.035957
2022-12-02 14:56:24.044463
2022-12-02 14:56:24.057127
2022-12-02 14:56:24.065198
2022-12-02 14:56:24.073616
2022-12-02 14:56:24.081684
2022-12-02 14:56:24.093189
2022-12-02 14:56:24.101921
2022-12-02 14:56:24.110547
2022-12-02 14:56:24.122435
2022-12-02 14:56:24.130875
2022-12-02 14:56:24.138965
2022-12-02 14:56:24.146516
2022-12-02 14:56:24.158677
2022-12-02 14:56:24.167366
2022-12-02 14:56:24.175745
2022-12-02 14:56:24.191044
2022-12-02 14:56:24.195850
2022-12-02 14:56:24.204253
2022-12-02 14:56:24.212392
2022-12-02 14:56:24.224729
2022-12-02 14:56:24.232932
2022-12-02 14:56:24.241117
2022-12-02 14:56:24.253248
2022-12-02 14:56:24.260774
2022-12-02 14:56:24.269378
2022-12-02 14:56:24.277317
2022-12-02 14:56:24.289565
2022-12-02 14:56:24.297941
2022-12-02 14:56:24.306269
2022-12-02 14:56:24.318168
2022-12-02 14:56:24.326610
2022-12-02 14:56:24.334880
2022-12-02 14:56:24.342941
2022-12-02 14:56:24.355006
2022-12-02 14:56:24.363662
2022-12-02 14:56:24.372345
2022-12-02 14:56:24.379886
2022-12-02 14:56:24.392702
2022-12-02 14:56:24.400678
2022-12-02 14:56:24.409085
2022-12-02 14:56:24.421122
2022-12-02 14:56:24.429646
2022-12-02 14:56:24.437596
2022-12-02 14:56:24.445160
2022-12-02 14:56:24.457937
2022-12-02 14:56:24.466371
2022-12-02 14:56:24.474343
2022-12-02 14:56:24.486581
2022-12-02 14:56:24.495155
2022-12-02 14:56:24.502592
2022-12-02 14:56:24.511407
2022-12-02 14:56:24.523683
2022-12-02 14:56:24.532052
2022-12-02 14:56:24.540097
2022-12-02 14:56:24.551869
2022-12-02 14:56:24.561103
2022-12-02 14:56:24.568893
2022-12-02 14:56:24.577185
2022-12-02 14:56:24.589352
2022-12-02 14:56:24.597162
2022-12-02 14:56:24.605205
2022-12-02 14:56:24.617386
2022-12-02 14:56:24.626295
2022-12-02 14:56:24.634010
2022-12-02 14:56:24.642245
2022-12-02 14:56:24.654835
2022-12-02 14:56:24.663466
2022-12-02 14:56:24.670951
2022-12-02 14:56:24.683445
2022-12-02 14:56:24.691834
2022-12-02 14:56:24.699533
2022-12-02 14:56:24.707408
2022-12-02 14:56:24.719830
2022-12-02 14:56:24.728532
2022-12-02 14:56:24.736755
2022-12-02 14:56:24.748562
2022-12-02 14:56:24.757159
2022-12-02 14:56:24.764700
2022-12-02 14:56:24.773573
2022-12-02 14:56:24.785794
2022-12-02 14:56:24.793685
2022-12-02 14:56:24.802126
2022-12-02 14:56:24.814429
2022-12-02 14:56:24.822899
2022-12-02 14:56:24.830203
2022-12-02 14:56:24.839612
2022-12-02 14:56:24.851345
2022-12-02 14:56:24.859456
2022-12-02 14:56:24.867019
2022-12-02 14:56:24.880132
2022-12-02 14:56:24.887411
2022-12-02 14:56:24.896488
2022-12-02 14:56:24.904075
2022-12-02 14:56:24.917074
2022-12-02 14:56:24.925382
2022-12-02 14:56:24.933390
2022-12-02 14:56:24.945574
2022-12-02 14:56:24.953369
2022-12-02 14:56:24.962132
2022-12-02 14:56:24.970335
2022-12-02 14:56:24.982240
2022-12-02 14:56:24.989914
2022-12-02 14:56:24.998708
2022-12-02 14:56:25.010955
2022-12-02 14:56:25.019427
2022-12-02 14:56:25.027673
2022-12-02 14:56:25.036079
2022-12-02 14:56:25.048310
2022-12-02 14:56:25.056006
2022-12-02 14:56:25.064142
2022-12-02 14:56:25.077043
2022-12-02 14:56:25.085437
2022-12-02 14:56:25.093444
2022-12-02 14:56:25.101617
2022-12-02 14:56:25.113426
2022-12-02 14:56:25.121277
2022-12-02 14:56:25.129281
2022-12-02 14:56:25.142645
2022-12-02 14:56:25.150215
2022-12-02 14:56:25.158851
2022-12-02 14:56:25.167135
2022-12-02 14:56:25.179193
2022-12-02 14:56:25.187516
2022-12-02 14:56:25.195286
2022-12-02 14:56:25.203131
2022-12-02 14:56:25.215967
2022-12-02 14:56:25.223652
2022-12-02 14:56:25.231972
2022-12-02 14:56:25.244340
2022-12-02 14:56:25.252619
2022-12-02 14:56:25.260258
2022-12-02 14:56:25.269205
2022-12-02 14:56:25.281559
2022-12-02 14:56:25.289230
2022-12-02 14:56:25.297662
2022-12-02 14:56:25.311100
2022-12-02 14:56:25.318359
2022-12-02 14:56:25.326739
2022-12-02 14:56:25.334798
2022-12-02 14:56:25.347076
2022-12-02 14:56:25.354936
2022-12-02 14:56:25.363861
2022-12-02 14:56:25.375014
2022-12-02 14:56:25.383286
2022-12-02 14:56:25.391221
2022-12-02 14:56:25.399469
2022-12-02 14:56:25.412036
2022-12-02 14:56:25.420571
2022-12-02 14:56:25.428811
2022-12-02 14:56:25.441278
2022-12-02 14:56:25.449071
2022-12-02 14:56:25.457182
2022-12-02 14:56:25.464979
2022-12-02 14:56:25.477215
2022-12-02 14:56:25.486177
2022-12-02 14:56:25.494496
2022-12-02 14:56:25.506534
2022-12-02 14:56:25.514270
2022-12-02 14:56:25.523176
2022-12-02 14:56:25.531447
2022-12-02 14:56:25.542827
2022-12-02 14:56:25.551230
2022-12-02 14:56:25.559131
2022-12-02 14:56:25.571526
2022-12-02 14:56:25.579912
2022-12-02 14:56:25.588776
2022-12-02 14:56:25.596987
2022-12-02 14:56:25.608820
2022-12-02 14:56:25.617370
2022-12-02 14:56:25.625216
2022-12-02 14:56:25.637225
2022-12-02 14:56:25.646023
2022-12-02 14:56:25.654226
2022-12-02 14:56:25.662439
2022-12-02 14:56:25.674392
2022-12-02 14:56:25.682260
2022-12-02 14:56:25.690947
2022-12-02 14:56:25.702720
2022-12-02 14:56:25.711569
2022-12-02 14:56:25.719228
2022-12-02 14:56:25.727301
2022-12-02 14:56:25.739121
2022-12-02 14:56:25.748163
2022-12-02 14:56:25.756779
2022-12-02 14:56:25.768773
2022-12-02 14:56:25.777089
2022-12-02 14:56:25.785076
2022-12-02 14:56:25.793561
2022-12-02 14:56:25.805859
2022-12-02 14:56:25.813291
2022-12-02 14:56:25.822118
2022-12-02 14:56:25.834335
2022-12-02 14:56:25.842579
2022-12-02 14:56:25.851430
2022-12-02 14:56:25.859341
2022-12-02 14:56:25.871035
2022-12-02 14:56:25.879671
2022-12-02 14:56:25.887479
2022-12-02 14:56:25.899880
2022-12-02 14:56:25.907891
2022-12-02 14:56:25.916040
2022-12-02 14:56:25.924451
2022-12-02 14:56:25.936635
2022-12-02 14:56:25.944994
2022-12-02 14:56:25.952940
2022-12-02 14:56:25.965481
2022-12-02 14:56:25.973450
2022-12-02 14:56:25.981856
2022-12-02 14:56:25.989726
2022-12-02 14:56:26.002179
2022-12-02 14:56:26.010389
2022-12-02 14:56:26.018498
2022-12-02 14:56:26.030903
2022-12-02 14:56:26.038533
2022-12-02 14:56:26.047479
2022-12-02 14:56:26.055467
2022-12-02 14:56:26.067630
2022-12-02 14:56:26.075874
2022-12-02 14:56:26.083621
2022-12-02 14:56:26.092168
2022-12-02 14:56:26.104595
2022-12-02 14:56:26.112944
2022-12-02 14:56:26.121337
2022-12-02 14:56:26.133619
2022-12-02 14:56:26.141056
2022-12-02 14:56:26.149788
2022-12-02 14:56:26.157932
2022-12-02 14:56:26.169685
2022-12-02 14:56:26.178209
2022-12-02 14:56:26.186440
2022-12-02 14:56:26.198664
2022-12-02 14:56:26.206863
2022-12-02 14:56:26.215146
2022-12-02 14:56:26.223662
2022-12-02 14:56:26.235846
2022-12-02 14:56:26.243805
2022-12-02 14:56:26.252055
2022-12-02 14:56:26.264150
2022-12-02 14:56:26.272671
2022-12-02 14:56:26.280736
2022-12-02 14:56:26.288944
2022-12-02 14:56:26.300600
2022-12-02 14:56:26.309537
2022-12-02 14:56:26.317488
2022-12-02 14:56:26.329918
2022-12-02 14:56:26.338213
2022-12-02 14:56:26.346460
2022-12-02 14:56:26.354661
2022-12-02 14:56:26.366276
2022-12-02 14:56:26.375131
2022-12-02 14:56:26.382589
2022-12-02 14:56:26.394912
2022-12-02 14:56:26.403503
2022-12-02 14:56:26.411697
2022-12-02 14:56:26.419524
2022-12-02 14:56:26.432411
2022-12-02 14:56:26.440513
2022-12-02 14:56:26.449109
2022-12-02 14:56:26.461195
2022-12-02 14:56:26.468689
2022-12-02 14:56:26.477508
2022-12-02 14:56:26.485757
2022-12-02 14:56:26.497993
2022-12-02 14:56:26.506199
2022-12-02 14:56:26.513968
2022-12-02 14:56:26.526636
2022-12-02 14:56:26.534836
2022-12-02 14:56:26.543052
2022-12-02 14:56:26.551228
2022-12-02 14:56:26.562936
2022-12-02 14:56:26.571593
2022-12-02 14:56:26.579863
2022-12-02 14:56:26.592277
2022-12-02 14:56:26.599756
2022-12-02 14:56:26.608706
2022-12-02 14:56:26.616022
2022-12-02 14:56:26.628634
2022-12-02 14:56:26.637238
2022-12-02 14:56:26.645203
2022-12-02 14:56:26.657510
2022-12-02 14:56:26.666035
2022-12-02 14:56:26.674186
2022-12-02 14:56:26.681895
2022-12-02 14:56:26.694380
2022-12-02 14:56:26.702456
2022-12-02 14:56:26.710715
2022-12-02 14:56:26.723194
2022-12-02 14:56:26.731450
2022-12-02 14:56:26.739655
2022-12-02 14:56:26.747946
2022-12-02 14:56:26.760190
2022-12-02 14:56:26.768340
2022-12-02 14:56:26.776579
2022-12-02 14:56:26.788857
2022-12-02 14:56:26.796579
2022-12-02 14:56:26.805268
2022-12-02 14:56:26.813535
2022-12-02 14:56:26.825954
2022-12-02 14:56:26.833476
2022-12-02 14:56:26.842264
2022-12-02 14:56:26.854359
2022-12-02 14:56:26.862073
2022-12-02 14:56:26.870792
2022-12-02 14:56:26.878852
2022-12-02 14:56:26.890981
2022-12-02 14:56:26.899002
2022-12-02 14:56:26.907643
2022-12-02 14:56:26.919955
2022-12-02 14:56:26.927834
2022-12-02 14:56:26.935541
2022-12-02 14:56:26.944469
2022-12-02 14:56:26.956770
2022-12-02 14:56:26.965046
2022-12-02 14:56:26.972933
2022-12-02 14:56:26.981180
2022-12-02 14:56:26.992778
2022-12-02 14:56:27.001743
2022-12-02 14:56:27.009832
2022-12-02 14:56:27.021850
2022-12-02 14:56:27.030312
2022-12-02 14:56:27.038340
2022-12-02 14:56:27.046999
2022-12-02 14:56:27.058674
2022-12-02 14:56:27.067466
2022-12-02 14:56:27.075398
2022-12-02 14:56:27.087846
2022-12-02 14:56:27.095573
2022-12-02 14:56:27.104062
2022-12-02 14:56:27.111740
2022-12-02 14:56:27.123934
2022-12-02 14:56:27.132397
2022-12-02 14:56:27.140618
2022-12-02 14:56:27.153370
2022-12-02 14:56:27.161189
2022-12-02 14:56:27.169949
2022-12-02 14:56:27.177384
2022-12-02 14:56:27.189476
2022-12-02 14:56:27.198513
2022-12-02 14:56:27.206486
2022-12-02 14:56:27.218890
2022-12-02 14:56:27.227222
2022-12-02 14:56:27.234802
2022-12-02 14:56:27.242801
2022-12-02 14:56:27.255655
2022-12-02 14:56:27.264172
2022-12-02 14:56:27.272017
2022-12-02 14:56:27.284445
2022-12-02 14:56:27.292731
2022-12-02 14:56:27.300898
2022-12-02 14:56:27.308478
2022-12-02 14:56:27.320811
2022-12-02 14:56:27.329501
2022-12-02 14:56:27.337684
2022-12-02 14:56:27.349786
2022-12-02 14:56:27.358522
2022-12-02 14:56:27.366409
2022-12-02 14:56:27.374436
2022-12-02 14:56:27.385866
2022-12-02 14:56:27.394721
2022-12-02 14:56:27.403479
2022-12-02 14:56:27.415544
2022-12-02 14:56:27.423304
2022-12-02 14:56:27.431480
2022-12-02 14:56:27.439163
2022-12-02 14:56:27.452414
2022-12-02 14:56:27.460590
2022-12-02 14:56:27.468598
2022-12-02 14:56:27.480356
2022-12-02 14:56:27.488870
2022-12-02 14:56:27.496806
2022-12-02 14:56:27.505327
2022-12-02 14:56:27.517182
2022-12-02 14:56:27.525637
2022-12-02 14:56:27.534309
2022-12-02 14:56:27.546309
2022-12-02 14:56:27.553932
2022-12-02 14:56:27.562721
2022-12-02 14:56:27.570270
2022-12-02 14:56:27.583084
2022-12-02 14:56:27.591666
2022-12-02 14:56:27.599699
2022-12-02 14:56:27.611602
2022-12-02 14:56:27.619534
2022-12-02 14:56:27.628117
2022-12-02 14:56:27.636091
2022-12-02 14:56:27.648858
2022-12-02 14:56:27.657261
2022-12-02 14:56:27.665066
2022-12-02 14:56:27.676944
2022-12-02 14:56:27.685971
2022-12-02 14:56:27.694098
2022-12-02 14:56:27.702085
2022-12-02 14:56:27.714054
2022-12-02 14:56:27.722676
2022-12-02 14:56:27.730686
2022-12-02 14:56:27.743294
2022-12-02 14:56:27.751368
2022-12-02 14:56:27.759618
2022-12-02 14:56:27.767450
2022-12-02 14:56:27.780027
2022-12-02 14:56:27.787866
2022-12-02 14:56:27.796127
2022-12-02 14:56:27.804493
2022-12-02 14:56:27.817025
2022-12-02 14:56:27.825233
2022-12-02 14:56:27.832762
2022-12-02 14:56:27.844874
2022-12-02 14:56:27.853366
2022-12-02 14:56:27.861129
2022-12-02 14:56:27.869519
2022-12-02 14:56:27.882083
2022-12-02 14:56:27.890257
2022-12-02 14:56:27.898619
2022-12-02 14:56:27.910732
2022-12-02 14:56:27.919324
2022-12-02 14:56:27.927429
2022-12-02 14:56:27.935204
2022-12-02 14:56:27.947908
2022-12-02 14:56:27.956191
2022-12-02 14:56:27.963988
2022-12-02 14:56:27.976011
2022-12-02 14:56:27.984262
2022-12-02 14:56:27.993200
2022-12-02 14:56:28.001158
2022-12-02 14:56:28.013346
2022-12-02 14:56:28.020469
2022-12-02 14:56:28.029335
2022-12-02 14:56:28.042260
2022-12-02 14:56:28.049737
2022-12-02 14:56:28.058328
2022-12-02 14:56:28.066047
2022-12-02 14:56:28.079074
2022-12-02 14:56:28.086564
2022-12-02 14:56:28.095362
2022-12-02 14:56:28.107567
2022-12-02 14:56:28.116038
2022-12-02 14:56:28.124181
2022-12-02 14:56:28.131839
2022-12-02 14:56:28.143976
2022-12-02 14:56:28.152831
2022-12-02 14:56:28.160919
2022-12-02 14:56:28.173132
2022-12-02 14:56:28.181074
2022-12-02 14:56:28.189699
2022-12-02 14:56:28.197592
2022-12-02 14:56:28.209950
2022-12-02 14:56:28.218445
2022-12-02 14:56:28.225665
2022-12-02 14:56:28.238341
2022-12-02 14:56:28.246852
2022-12-02 14:56:28.255349
2022-12-02 14:56:28.263015
2022-12-02 14:56:28.275136
2022-12-02 14:56:28.283154
2022-12-02 14:56:28.291595
2022-12-02 14:56:28.304333
2022-12-02 14:56:28.311664
2022-12-02 14:56:28.320805
2022-12-02 14:56:28.328826
2022-12-02 14:56:28.341155
2022-12-02 14:56:28.349423
2022-12-02 14:56:28.357605
2022-12-02 14:56:28.369787
2022-12-02 14:56:28.377440
2022-12-02 14:56:28.386304
2022-12-02 14:56:28.394126
2022-12-02 14:56:28.406156
2022-12-02 14:56:28.414955
2022-12-02 14:56:28.422915
2022-12-02 14:56:28.435218
2022-12-02 14:56:28.443387
2022-12-02 14:56:28.451375
2022-12-02 14:56:28.459832
2022-12-02 14:56:28.471517
2022-12-02 14:56:28.480035
2022-12-02 14:56:28.488755
2022-12-02 14:56:28.500120
2022-12-02 14:56:28.509083
2022-12-02 14:56:28.517068
2022-12-02 14:56:28.525349
2022-12-02 14:56:28.537672
2022-12-02 14:56:28.545659
2022-12-02 14:56:28.554081
2022-12-02 14:56:28.565896
2022-12-02 14:56:28.573875
2022-12-02 14:56:28.582518
2022-12-02 14:56:28.590612
2022-12-02 14:56:28.602662
2022-12-02 14:56:28.611580
2022-12-02 14:56:28.619259
2022-12-02 14:56:28.631642
2022-12-02 14:56:28.639924
2022-12-02 14:56:28.648626
2022-12-02 14:56:28.656631
2022-12-02 14:56:28.668441
2022-12-02 14:56:28.676363
2022-12-02 14:56:28.685012
2022-12-02 14:56:28.693486
2022-12-02 14:56:28.705482
2022-12-02 14:56:28.713601
2022-12-02 14:56:28.722072
2022-12-02 14:56:28.733905
2022-12-02 14:56:28.742199
2022-12-02 14:56:28.750074
2022-12-02 14:56:28.759022
2022-12-02 14:56:28.771166
2022-12-02 14:56:28.779322
2022-12-02 14:56:28.787412
2022-12-02 14:56:28.799860
2022-12-02 14:56:28.808216
2022-12-02 14:56:28.816370
2022-12-02 14:56:28.824453
2022-12-02 14:56:28.836727
2022-12-02 14:56:28.845102
2022-12-02 14:56:28.853419
2022-12-02 14:56:28.865200
2022-12-02 14:56:28.873066
2022-12-02 14:56:28.881500
2022-12-02 14:56:28.889919
2022-12-02 14:56:28.901964
2022-12-02 14:56:28.910525
2022-12-02 14:56:28.917527
2022-12-02 14:56:28.930956
2022-12-02 14:56:28.938984
2022-12-02 14:56:28.947494
2022-12-02 14:56:28.954942
2022-12-02 14:56:28.967725
2022-12-02 14:56:28.975704
2022-12-02 14:56:28.984357
2022-12-02 14:56:28.996050
2022-12-02 14:56:29.004721
2022-12-02 14:56:29.012775
2022-12-02 14:56:29.020454
2022-12-02 14:56:29.033421
2022-12-02 14:56:29.041120
2022-12-02 14:56:29.049200
2022-12-02 14:56:29.061659
2022-12-02 14:56:29.069967
2022-12-02 14:56:29.078530
2022-12-02 14:56:29.086646
2022-12-02 14:56:29.098527
2022-12-02 14:56:29.106594
2022-12-02 14:56:29.115188
2022-12-02 14:56:29.127400
2022-12-02 14:56:29.135524
2022-12-02 14:56:29.143577
2022-12-02 14:56:29.152405
2022-12-02 14:56:29.163887
2022-12-02 14:56:29.172626
2022-12-02 14:56:29.180813
2022-12-02 14:56:29.192531
2022-12-02 14:56:29.201496
2022-12-02 14:56:29.209460
2022-12-02 14:56:29.217466
2022-12-02 14:56:29.229797
2022-12-02 14:56:29.237987
2022-12-02 14:56:29.245887
2022-12-02 14:56:29.258144
2022-12-02 14:56:29.266375
2022-12-02 14:56:29.274957
2022-12-02 14:56:29.282835
2022-12-02 14:56:29.295684
2022-12-02 14:56:29.303575
2022-12-02 14:56:29.311250
2022-12-02 14:56:29.324008
2022-12-02 14:56:29.332075
2022-12-02 14:56:29.340523
2022-12-02 14:56:29.348436
2022-12-02 14:56:29.361148
2022-12-02 14:56:29.369392
2022-12-02 14:56:29.377548
2022-12-02 14:56:29.389752
2022-12-02 14:56:29.398049
2022-12-02 14:56:29.405934
2022-12-02 14:56:29.414312
2022-12-02 14:56:29.426567
2022-12-02 14:56:29.434925
2022-12-02 14:56:29.442848
2022-12-02 14:56:29.454976
2022-12-02 14:56:29.463593
2022-12-02 14:56:29.471601
2022-12-02 14:56:29.479135
2022-12-02 14:56:29.491883
2022-12-02 14:56:29.500278
2022-12-02 14:56:29.508661
2022-12-02 14:56:29.516872
2022-12-02 14:56:29.529590
2022-12-02 14:56:29.538025
2022-12-02 14:56:29.545489
2022-12-02 14:56:29.557470
2022-12-02 14:56:29.565860
2022-12-02 14:56:29.573815
2022-12-02 14:56:29.582230
2022-12-02 14:56:29.593969
2022-12-02 14:56:29.602775
2022-12-02 14:56:29.610693
2022-12-02 14:56:29.623140
2022-12-02 14:56:29.631480
2022-12-02 14:56:29.638995
2022-12-02 14:56:29.647368
2022-12-02 14:56:29.660169
2022-12-02 14:56:29.668400
2022-12-02 14:56:29.675711
2022-12-02 14:56:29.688270
2022-12-02 14:56:29.697006
2022-12-02 14:56:29.704493
2022-12-02 14:56:29.713390
2022-12-02 14:56:29.724891
2022-12-02 14:56:29.733815
2022-12-02 14:56:29.742529
2022-12-02 14:56:29.757022
2022-12-02 14:56:29.762313
2022-12-02 14:56:29.774276
2022-12-02 14:56:29.781877
2022-12-02 14:56:29.807175
2022-12-02 14:56:30.086070
2022-12-02 14:56:30.262043
2022-12-02 14:56:30.311629
2022-12-02 14:56:30.323103
2022-12-02 14:56:30.349427
2022-12-02 14:56:30.355365
2022-12-02 14:56:30.358027
2022-12-02 14:56:30.359595
2022-12-02 14:56:30.361133
2022-12-02 14:56:30.363315
2022-12-02 14:56:30.365246
2022-12-02 14:56:30.366062
2022-12-02 14:56:30.367136
2022-12-02 14:56:30.369430
2022-12-02 14:56:30.370538
2022-12-02 14:56:30.376634
2022-12-02 14:56:30.378043
2022-12-02 14:56:30.379814
2022-12-02 14:56:30.393248
2022-12-02 14:56:30.404690
2022-12-02 14:56:30.407880
2022-12-02 14:56:30.409875
2022-12-02 14:56:30.411081
2022-12-02 14:56:30.412712
2022-12-02 14:56:30.413725
2022-12-02 14:56:30.415016
2022-12-02 14:56:30.417301
2022-12-02 14:56:30.419873
2022-12-02 14:56:30.429953
2022-12-02 14:56:30.432760
2022-12-02 14:56:30.436739
2022-12-02 14:56:30.438080
2022-12-02 14:56:30.439564
2022-12-02 14:56:30.441064
2022-12-02 14:56:30.442686
2022-12-02 14:56:30.443538
2022-12-02 14:56:30.444634
2022-12-02 14:56:30.445673
2022-12-02 14:56:30.448574
2022-12-02 14:56:30.449603
2022-12-02 14:56:30.451464
2022-12-02 14:56:30.453469
2022-12-02 14:56:30.455116
2022-12-02 14:56:30.455915
2022-12-02 14:56:30.456953
2022-12-02 14:56:30.457822
2022-12-02 14:56:30.458856
2022-12-02 14:56:30.459883
2022-12-02 14:56:30.460959
2022-12-02 14:56:30.467190
2022-12-02 14:56:30.476233
2022-12-02 14:56:30.509936
2022-12-02 14:56:30.547491
