HR_time,RR-interval,heart_rate
2.0973700838856035,924,65.44340425531914
2.9775164583733122,943,67.30079555966697
3.8389363142548993,886,69.41332303219444
4.690992910833426,867,70.42325211020862
5.533686248108891,858,71.47858807858806
6.357653066778235,849,72.27878787878787
7.18161988544758,830,71.76284584980237
8.043039741329167,830,70.21352283239423
8.923186115816875,867,69.41332303219444
9.775242712395402,886,70.19593172784661
10.608572790367807,858,70.68991877687529
11.469992646249395,839,70.1851332398317
12.340775761434042,867,69.65766071235916
13.192832358012568,877,69.65766071235916
14.054252213894156,858,68.93991877687529
14.953125106987985,867,66.82739130434783
15.889451037294059,905,65.63061855670102
16.79768718969095,943,66.10402281202018
17.67783356417866,915,66.99402281202018
18.576706457272486,886,66.54916183107673
19.5036691282755,905,64.76693404634581
20.458721577187696,933,64.53755260304683
21.366957729584584,962,64.9824135839903
22.275193881981476,915,65.40123711340206
23.21151981228755,915,64.32179502728926
24.166572261199743,943,63.87693404634581
25.093534932202754,962,65.00114457266159
25.983044565993524,933,66.0805866587744
26.891280718390416,896,65.65334393450196
27.83696990799955,915,63.70759494664771
28.810748875517866,952,63.482894757293614
29.728348287217816,981,64.1302982731554
30.64594769891777,924,64.95183673469387
31.58227362922384,924,63.69437990580847
32.556052596742155,943,62.04940493468794
33.54855808286659,981,62.48532330203488
34.466157494566545,999,63.96748032027438
35.37439364696344,924,65.39229449980554
36.30135631796645,915,64.33424021012851
37.26577202618171,933,63.673621653427475
38.202097956487776,971,64.11848263437093
39.11033410888467,943,64.32179502728926
40.06538655779686,915,63.902971497877495
41.020439006709054,962,63.45811051693404
41.94740167771207,962,64.76693404634581
42.846274570805896,933,65.18575757575758
43.78260050111197,905,64.3478640776699
44.74701620932723,943,63.24637892915504
45.69270539893636,971,64.13637892915504
46.59157829203019,952,65.64851485148515
47.49045118512402,905,65.86
48.42677711543009,905,64.14846153846153
49.40055608294841,943,61.86107836089143
50.402424828375906,981,61.442254831479666
51.357477277288105,1009,62.69971166036507
52.27507668898805,962,63.6782713085234
53.23012913790025,924,62.514872615712946
54.24136114263081,962,61.25741578682754
55.21514011014912,1018,62.33685787294034
56.12337626254602,981,64.80908009516256
57.02224915563984,915,65.8463761324586
57.94921182664286,905,64.97427242724272
58.89490101625199,933,64.52019079458967
59.81250042795194,952,65.66783747415123
60.69264680243965,924,66.31524099001302
61.6102462141396,886,65.25718670033598
62.574661922354856,924,62.31156022279462
63.585893927085415,971,62.09139943120526
64.51285659808843,1018,62.929292929292934
65.43981926909144,933,63.68997668997669
66.41359823660976,933,62.26516251044552
67.40610372273419,981,62.710023491388974
68.31433987513108,999,65.90489528626077
69.15703321240655,915,69.22647936256183
70.00908980898508,849,70.17360274134467
70.87987292416973,858,69.65766071235916
71.74129278005131,877,70.1851332398317
72.57462285802372,867,70.1851332398317
73.44540597320837,839,68.98836049218491
74.35364212560526,877,66.56411806794247
75.28060479660827,915,65.8463761324586
76.1794776897021,933,66.79349951124145
77.05026080488675,905,67.46774193548387
77.94913369798057,877,66.57774193548387
78.88545962828665,905,64.55117647058823
79.84051207719884,943,64.55117647058823
80.73938497029268,962,65.67538699690402
81.62889460408344,905,66.53012889366272
82.5464940157834,896,65.42864374514787
83.49218320539252,924,64.30443321883209
84.4285091356986,952,64.99272537780092
85.31801876948937,943,66.09421052631578
86.2168916625832,896,65.88272537780094
87.16258085219233,905,64.75851485148515
88.0989067824984,952,65.47625678696902
88.96968989768305,943,67.05114619080302
89.84983627217076,877,67.48706455814995
90.76743568387072,886,65.87932262266608
91.70376161417678,924,66.12366030283081
92.57454472936143,943,67.80026940801133
93.42660132593996,877,68.92447993432712
94.31611095973074,858,66.89791446943148
95.27116340864292,896,65.00114457266159
96.19812607964593,962,65.73432535069364
97.05954593552752,933,67.51655313542454
97.93969231001523,867,67.961414116368
98.84792846241213,886,66.31978038777775
99.77489113341514,915,66.56411806794247
100.64567424859979,933,67.51124144672532
101.51645736378443,877,68.65888812628688
102.39660373827215,877,68.41455044612216
103.27675011275986,886,69.18014184397163
104.11944345003532,886,69.92926506117993
104.97150004661384,849,70.17360274134467
105.84228316179849,858,68.69026940801135
106.74115605489231,877,67.46774193548387
107.64002894798615,905,67.71739130434783
108.50144880386773,905,67.9516018306636
109.39095843765851,867,67.49752019801055
110.30855784935846,896,65.8558864694203
111.23552052036148,924,66.33941787858839
112.10630363554611,933,68.01602698376891
112.95836023212465,877,69.16367366333048
113.83850660661236,858,67.77168930360419
114.76546927761537,886,66.09508019842366
115.68306868931532,933,66.09508019842366
116.56321506380303,924,66.09508019842366
117.49017773480604,886,63.89549210630608
118.51077299883966,933,61.90995192865684
119.47518870705491,1028,62.58419435289926
120.37406160014874,971,64.56362165342748
121.30102427115176,905,64.36421911421911
122.27480323867007,933,63.26273396570426
123.2204924282792,981,63.93697638994668
124.11936532137304,952,65.64851485148515
125.01823821446686,905,66.29591836734693
125.93583762616682,905,64.19686176357335
126.92834311229126,924,62.888038234161584
127.88339556120344,999,62.88803823416158
128.8009949729034,962,63.6782713085234
129.7560474218156,924,63.07995198079231
130.73918964863697,962,62.43254846493052
131.6848788382461,990,64.21477624966144
132.56502521273381,952,66.35612963312008
133.45453484652458,886,66.56761478163493
134.39086077683066,896,63.9951539225422
135.3833662629551,943,62.87094339622641
136.31969219326118,999,64.23434765154556
137.19983856774888,943,66.80680851063829
138.0799849422366,886,67.93101903695407
138.96949457602736,886,67.00353314898186
139.8870939877273,896,66.76433941997851
140.77660362151806,924,67.24787082914659
141.6473867367027,896,67.47257101850069
142.55562288909962,877,65.92953696277314
143.5106753380118,915,64.7577133946362
144.42827474971176,962,65.70483677341903
145.2990578648964,924,67.0136603028308
146.19793075799024,877,66.79349951124145
147.12489342899326,905,65.18575757575758
148.06121935929932,933,65.41996810207337
148.95072899309008,943,66.09421052631578
149.84960188618393,896,66.75482908301682
150.75783803858081,905,65.8463761324586
151.6848007095838,915,66.31978038777775
152.56494708407152,933,67.51655313542454
153.4263669399531,886,69.1581868640148
154.2877867958347,867,68.91899313501145
155.17729642962547,867,67.06160183066362
156.11362235993155,896,66.32842105263157
157.00313199372232,943,66.09421052631578
157.90200488681614,896,66.53012889366272
158.8196042985161,905,65.19443321883207
159.76529348812522,924,65.19443321883207
160.66416638121908,952,66.36625678696902
161.5349494964037,905,67.23836049218491
162.4431856488006,877,66.13687534367006
163.38887483840975,915,64.96505177553311
164.3064742501097,952,65.66783747415123
165.1866206245974,924,66.09508019842366
166.11358329560042,886,64.83762336953825
167.08736226311873,933,63.26273396570426
168.03305145272785,981,63.93697638994668
168.9319243458217,952,65.41913340818618
169.84016049821858,905,66.06653692404797
170.75775990991852,915,65.6124552913949
171.6753593216185,924,66.07604726100965
172.56486895540925,924,66.30074745036376
173.47310510780613,896,65.24269316068671
174.4375208160214,915,62.909426030597345
175.43002630214585,971,62.46456504965389
176.35698897314884,999,63.302458547741566
177.28395164415187,933,63.88937922918505
178.24836735236713,933,62.276238475857376
179.2502360977946,971,62.27623847585738
180.17719876879764,1009,63.55899295488851
181.08543492119452,933,65.61699468915964
181.9936710735914,915,64.9824135839903
182.9487235225036,915,63.902971497877495
183.9037759714158,962,63.902971497877495
184.81201212381268,962,65.21179502728927
185.7108850169065,915,65.63061855670102
186.64721094721259,905,62.34684210526316
187.7146225077615,943,60.05945892769306
188.71649125318902,1075,58.85040232391947
189.70899673931345,1009,60.45641736151346
190.69213896613482,999,60.27157831686133
191.7033709708654,990,59.8984126984127
192.71460297559594,1018,61.131313131313135
193.64156564659896,1018,63.83774587985114
194.53107528038973,933,65.8558864694203
195.44867469208967,896,65.01799297133262
196.41309040030492,924,63.682297296501986
197.35877958991406,971,64.37058945547082
198.24828922370483,952,65.88272537780094
199.14716211679865,896,66.09421052631578
200.08348804710474,905,64.14846153846153
201.05726701462305,943,63.25846153846153
201.99359294492913,981,64.14846153846153
202.89246583802296,943,65.63061855670102
203.80070199041984,905,66.29123711340206
204.70893814281675,915,66.76464136872121
205.58908451730446,915,68.21655028454765
206.44114111388296,886,67.99185009519354
207.35874052558293,858,66.0063099175443
208.3231562337982,924,63.47495891560507
209.27820868271039,971,64.1632510745739
210.16771831650115,962,65.00114457266159
211.09468098750415,896,64.79783217974327
212.0590966957194,933,62.276238475857376
213.06096544114692,971,62.27623847585738
213.98792811214992,1009,64.02258492450326
214.87743774594068,933,66.0805866587744
215.7856738983376,896,65.65334393450196
216.7313630879467,915,64.31764825967133
217.67705227755584,952,64.78124022928608
218.5665619113466,952,65.88272537780094
219.46543480444043,896,66.09421052631578
220.40176073474652,905,64.75851485148515
221.34744992435566,943,65.2319191068043
222.22759629884337,952,66.59532336212344
223.10774267333107,886,67.69680851063829
224.0066155664249,886,66.76932262266608
224.92421497812484,905,66.29591836734693
225.8230878712187,924,67.0136603028308
226.69387098640334,905,67.94114619080301
227.57401736089105,877,67.48706455814995
228.491616772591,886,65.66783747415123
229.43730596220013,924,65.19443321883207
230.33617885529395,952,65.64851485148515
231.23505174838778,905,65.64851485148515
232.18074093799692,905,64.75851485148515
233.117066868303,952,65.2319191068043
233.9972132427907,943,67.05114619080302
234.86799635797536,886,67.94114619080301
235.76686925106918,877,66.57774193548387
236.70319518137524,905,64.97
237.63952111168132,943,65.20421052631579
238.52903074547208,943,66.32842105263157
239.41854037926285,896,66.9890396093326
240.32677653165976,896,65.86482908301682
241.26310246196581,915,65.63061855670102
242.16197535505967,943,66.09421052631578
243.05148498885043,905,66.30996810207336
243.97844765985343,896,65.2084829535585
244.92413684946257,933,64.97427242724272
245.8230097425564,952,66.61590615583297
246.684429598438,905,67.9516018306636
247.57393923222875,867,68.1858123569794
248.46344886601952,896,68.1858123569794
249.3248687219011,896,70.25332596859465
250.1394722812674,867,71.76911544227886
250.9728023592398,820,71.76911544227886
251.8342222151214,839,69.94079555966698
252.7143685896091,867,69.1581868640148
253.57578844549067,886,69.94079555966698
254.4091185234631,867,70.95072463768116
255.25181186073854,839,70.45673758865247
256.13195823522625,849,68.70673758865247
257.0308311283201,886,67.45761478163493
257.92034076211087,905,67.70195246179966
258.7911238772955,896,67.70195246179966
259.6899967703893,877,65.7562034739454
260.66377573790766,905,63.326923076923066
261.637554705426,981,63.326923076923066
262.5364275985198,981,66.52179487179487
263.37912093579524,905,69.71666666666665
264.2218142730707,849,70.93919413919411
265.0738708696493,849,72.04307010818637
265.8791111697125,858,73.73830820342448
266.6656249511696,811,76.31456121870188
267.43341221402056,792,77.52613240418118
268.2011994768715,773,76.93477027793533
269.00643977693477,773,75.72319909245603
269.811680076998,811,74.2261427425822
270.6262836363643,811,73.12226677358994
271.4689769736397,820,70.53505747126437
272.3678498667336,849,67.13184818481847
273.3135390563427,905,65.19443321883207
274.2311384680427,952,65.66783747415123
275.1112848425304,924,67.24272687798523
275.9914312170181,886,67.93101903695407
276.8809408508088,886,67.22823333833597
277.78917700320574,896,66.75482908301682
278.68804989629956,915,67.48800986104885
279.54946975218115,905,69.20072463768116
280.39216308945663,867,70.16811594202898
281.2535829453382,849,69.6741288930003
282.13372931982593,867,68.66419981498612
283.01387569431364,886,68.17021276595744
283.89402206880135,886,65.5977519068647
284.88652755492575,886,63.02529104777197
285.8790330410502,999,61.661886792452826
286.81535897135626,999,63.995153922542194
287.70486860514706,943,66.09421052631578
288.6037414982409,896,66.30996810207336
289.5307041692439,905,65.40151515151516
290.4576668402469,933,66.11925708699903
291.32844995543155,933,67.2669037665606
292.20859632991926,877,67.48706455814995
293.1261957416192,886,65.46049909325431
294.0812481905314,924,63.47495891560507
295.0456638987467,962,63.474958915605065
295.9632633104466,971,64.10954002077442
296.89022598144965,924,62.78985776128633
297.9201845047863,933,59.56785243741765
298.9969593246383,1037,57.06352343308864
300.0456443665811,1084,58.18380315336836
301.01942333409943,1056,60.75840496137525
301.9651125237085,981,62.22543792840821
302.93889149122685,952,61.46475416772446
303.9501234959574,981,61.67623931623931
304.8864494262635,1018,63.38777777777778
305.7853223193573,943,64.55117647058823
306.74037476826953,905,63.15379329301813
307.742243513697,962,62.26379329301813
308.6785694440031,1009,64.29035875791376
309.54935255918775,943,66.3483604921849
310.4575887115846,877,66.13687534367006
311.40327790119375,915,63.90699748585608
312.367693609409,952,64.37058945547082
313.2572032431998,971,66.43946590833352
314.1186230990814,896,68.66934376614748
314.989406214266,867,68.66934376614748
315.8789158480568,877,67.93616298811544
316.76842548184754,896,68.44094852515903
317.62048207842605,896,69.95673799884325
318.4538121563985,858,70.19593172784661
319.3339585308862,839,66.50118203309692
320.3451905356167,886,61.744425276340166
321.3845123182565,1018,60.5967785967786
322.3114749892595,1047,62.614919186347755
323.22907440095946,933,64.7316759431045
324.1654003312655,924,64.30443321883209
325.11108952087466,943,64.75851485148515
326.0099624139685,952,66.12191910680428
326.8901087884562,905,66.76932262266608
327.8077082001561,886,65.46049909325431
328.76276064906835,924,63.47495891560507
329.7271763572836,962,63.474958915605065
330.64477576898355,971,65.01799297133263
331.53428540277434,924,65.42864374514787
332.4799745923834,896,64.37058945547084
333.4443903005987,952,62.827555399743275
334.3994427495109,971,63.92904054825813
335.29831564260473,962,64.55117647058823
336.2346415729108,905,63.95285714285714
337.21778379973216,943,62.241318681318674
338.1915627672505,990,62.67723704866561
339.10916217895044,981,63.69437990580847
340.0454881092565,924,63.89378244501684
341.00990381747175,943,62.44072122052704
341.9930460442932,971,62.44072122052704
342.92937197459923,990,63.95285714285714
343.82824486769306,943,64.75851485148515
344.7739340573022,905,63.74137199434229
345.75707628412357,952,61.83422913719943
346.74021851094494,990,62.93571428571428
347.63909140403877,990,64.84285714285714
348.5379642971326,905,66.29591836734693
349.4555637088326,905,65.40591836734694
350.39188963913864,924,65.87932262266608
351.27203601362635,943,67.55593172784661
352.12409261020485,886,68.6801422541624
353.01360224399565,858,67.7526563661902
353.9312016556956,896,66.30074745036376
354.8394378080925,924,67.0339282283958
355.7008576639741,915,67.25862841774989
356.60909381637094,867,66.59800986104887
357.54541974667706,915,64.95637613245862
358.47238241768,943,66.1531488801054
359.3338022735616,933,67.0431488801054
360.23267516665544,867,66.82739130434783
361.16900109696155,905,64.97
362.1053270272676,943,65.20421052631579
362.9948366610584,943,66.81195246179965
363.865619776243,896,67.47257101850069
364.77385592863993,877,66.3483604921849
365.710181858946,915,64.95637613245862
366.637144529949,943,65.65916183107672
367.5172909044367,933,66.54916183107673
368.41616379753054,886,65.51186579378069
369.38994276504883,905,63.52632561613143
370.3543584732641,981,63.52632561613143
371.2532313663579,971,65.2378640776699
372.1521042594518,905,66.07575757575758
373.07906693045476,905,64.97427242724272
374.0247561200639,933,64.74489098394375
374.9329922724608,952,66.13687534367006
375.80377538764543,915,67.23836049218491
376.70264828073925,877,66.79349951124145
377.6296109517423,905,66.07575757575758
378.5284838448361,933,67.0431488801054
379.3899037007177,905,67.71739130434783
380.2887765938115,867,65.61833470057424
381.281282079936,905,63.97670097198399
382.208244750939,999,64.21091149829977
383.09775438472974,933,65.41996810207337
384.03408031503585,896,63.62198830409356
385.04531231976637,943,60.55595959595959
386.07527084310306,1018,59.93382367362949
387.0396865513183,1037,62.40604589585172
387.93855944441214,971,64.13637892915504
388.8842486340213,905,64.13637892915504
389.84866434223653,952,63.906997485856074
390.75690049463344,971,64.77910119107196
391.66513664703035,915,64.77910119107196
392.6295523552456,915,62.721099456800836
393.6314211006731,971,62.060480900099805
394.56774703097915,1009,63.118535189776836
395.4853464426791,943,63.69437990580847
396.45912541019743,924,62.67723704866561
397.4422676370188,981,61.224175824175816
398.4254098638402,990,62.48163265306122
399.3430092755401,990,63.93469387755101
400.26060868724005,924,64.5330132052821
401.2156611361523,924,63.2755563763967
402.18944010367056,962,62.62815286053491
403.1351292932797,981,64.9043676942945
403.9965491491613,952,68.36590615583297
404.8298792271337,867,69.94079555966698
405.7100256016214,839,68.08340425531915
406.6463515319275,886,65.2319191068043
407.59204072153665,943,64.99272537780092
408.4815503553274,952,65.65334393450196
409.3897865077243,896,64.2826068607946
410.40101851245487,915,60.53523843974197
411.4684300730038,1018,59.05308142150247
412.4422090405221,1075,61.071222011071626
413.359808452222,981,63.910137481566046
414.28677112322504,924,63.910137481566046
415.2605500907434,933,62.652680652680644
416.23432905826166,981,62.87284144427
417.15192846996166,981,63.69437990580847
418.0882544002677,924,63.118535189776836
419.0901231456952,943,60.56586006567314
420.1294449283349,1009,59.35680346189956
421.1219504144594,1047,61.19010500681659
422.0395498261593,999,63.96748032027438
422.9477859785562,924,65.6124552913949
423.86538539025617,915,65.39229449980554
424.7923480612592,924,64.94743351886208
425.7193107322622,933,65.63572567783095
426.60882036605295,933,64.5984296405349
427.5825993335713,896,62.26591530802056
428.621921116211,981,58.853133353133344
429.6706061581538,1047,58.65752895752895
430.6537483849752,1056,61.21020408163265
431.5713477966752,990,63.49877551020408
432.50767372698124,924,64.09709483793517
433.4627261758934,943,63.24235294117646
434.41777862480563,962,63.902971497877495
435.3260147772025,962,64.11030987877442
436.27170396681163,915,64.11030987877442
437.22675641572386,952,63.44969132207338
438.1630823460299,962,65.02458072590738
439.0432287205176,943,66.33340425531915
439.94210161361144,886,66.12191910680428
440.8877908032206,905,62.81669666966696
441.91774932655727,952,60.52931349209686
442.91961807198476,1037,60.95655621636929
443.8465807429878,1009,63.334292765534414
444.7641801546877,933,64.10954002077442
445.728595862903,924,64.10954002077442
446.655558533906,971,64.1095400207744
447.57315794560594,933,63.714533085961655
448.5563001724273,924,61.21020408163265
449.6049852143701,990,59.19206349206349
450.6162172191007,1056,59.79038281979458
451.57126966801286,1018,62.73957280506704
452.47950582040977,962,64.53755260304683
453.4064684914128,915,64.53755260304683
454.36152094032497,933,64.53755260304683
455.2697570927219,962,66.17918633163708
456.13117694860347,915,67.48800986104885
457.0300498416973,867,65.81024844720497
458.01319206851866,905,62.1891874180865
459.03378733255227,990,60.88036388867473
459.9888397814645,1028,62.78750674581759
460.8877126745583,962,64.55117647058823
461.82403860486437,905,64.3478640776699
462.7884543130796,943,63.89378244501683
463.70605372477957,971,64.32970081236377
464.62365313647956,924,64.5330132052821
465.57870558539173,924,63.07995198079231
466.5618478122131,962,61.626890756302515
467.5449900390345,990,62.706332842415314
468.4532261914314,990,64.61347569955817
469.3520990845252,915,66.29123711340206
470.2603352369221,905,66.52061855670104
471.15920813001594,915,66.99402281202018
472.03935450450365,905,66.76932262266608
472.9569539162036,886,65.05778416112761
473.9307328837219,924,64.1302982731554
474.84833229542187,981,65.05778416112761
475.7284786699096,924,65.66783747415123
476.6741678595187,886,64.6097831844742
477.638583567734,952,62.03732232538145
478.6310890538584,971,62.68472584124325
479.5486884655583,999,63.0953766150585
480.49437765516745,924,61.84708808608872
481.55242595641334,952,58.78801182400494
482.61983751696226,1066,58.37736105018969
483.5842532251775,1075,61.05046375869064
484.51121589618054,971,63.25479812401571
485.4662683450927,933,63.25479812401571
486.43068405330797,962,63.69965910495916
487.3389202057049,971,63.90699748585608
488.284609395314,915,62.58731522636799
489.31456791865065,952,59.4693515369236
490.37261621989654,1037,59.05870076310835
491.3370319281118,1066,60.58169541551477
492.29208437702397,971,62.21750208671966
493.2658633445423,962,62.420814479638
494.2209157934545,981,63.96384853536555
495.1104254272453,962,65.44600555360505
496.0186615796422,896,65.65334393450196
496.96435076925127,915,63.90699748585608
497.9287664774665,952,63.906997485856074
498.83700262986343,971,63.90699748585608
499.7826918194726,915,62.76546368341553
500.8032870835062,952,60.52262290449228
501.81451908823675,1028,60.734108053007134
502.7508450185428,1018,61.87564185544768
503.71526072675806,943,63.24637892915504
504.6609499163672,971,64.6097831844742
505.5410962908549,952,66.35612963312008
506.4306059246457,886,66.78337235739251
507.35756859564873,896,64.79783217974327
508.321984303864,933,63.88937922918505
509.24894697486695,971,64.56362165342748
510.1478198679608,933,64.76693404634581
511.102872316873,905,62.434419713831474
512.1421940995127,962,59.96219749160925
513.1534261042433,1047,60.16953587250617
514.0991152938524,1018,62.5020502050205
515.0260779648554,952,63.665448897830956
515.9811304137677,933,63.665448897830956
516.9268196033768,962,64.57390184838917
517.8163292371676,952,66.35612963312008
518.6964756116553,896,67.00353314898186
519.6140750233552,886,65.46049909325431
520.5691274722674,924,64.31285241369275
521.4960901432704,962,64.31285241369275
522.4136895549703,933,63.910137481566046
523.3874685224887,924,62.11215768358625
524.3987005272193,981,61.25741578682754
525.3537529761314,1018,63.203164774681795
526.2432626099222,962,66.14879125222316
527.1234089844099,896,67.00353314898186
528.0410083961099,886,64.67026601889249
529.0335138822343,924,63.30686176357335
529.9698398125404,999,64.23434765154556
530.8499861870281,943,65.87932262266608
531.767585598728,886,65.66783747415123
532.7132747883371,924,63.28729036168922
533.6964170151585,952,63.067129570099866
534.6233796861616,990,62.85979118920295
535.5784321350737,933,62.85979118920295
536.5615743618952,962,62.02189769111527
537.5259900701104,990,63.564931746842824
538.4154997039011,971,65.24269316068671
539.3237358562981,896,65.44600555360505
540.2787883052102,915,63.500256565750796
541.2525672727286,962,63.05539558480734
542.1795299437316,981,61.89199689199689
543.1907619484621,933,60.424963924963926
544.2394469904049,1018,58.62698412698413
545.2506789951354,1056,60.64512471655328
546.1682784068354,1018,65.04622361765217
547.020335003414,924,68.48583714422223
547.8817548592956,858,70.42325211020862
548.724448196571,867,71.22345191040843
549.5484150152404,849,71.73939393939392
550.3911083525159,830,70.72946486137974
551.2712547270036,849,67.3979140592407
552.2263071759157,886,66.38798498122652
553.1064535504034,962,67.66458072590737
553.9397836283758,886,70.45673758865247
554.7824769656513,839,70.45673758865247
555.662623340139,849,68.70673758865247
556.5614962332328,886,66.99402281202018
557.4697323856298,905,67.48800986104885
558.3311522415113,915,67.961414116368
559.211298615999,867,67.51655313542454
560.138261287002,886,65.24033830166496
561.0933137359142,933,62.85979118920295
562.0764559627356,962,62.64403361344537
563.0127818930417,990,64.18706766917293
563.9022915268324,943,65.86482908301682
564.8105276792294,896,66.52544763971784
565.7187638316262,915,66.76464136872121
566.5989102061139,915,66.76464136872121
567.5071463585108,886,66.10402281202018
568.4434722888169,915,64.11848263437093
569.4078879970322,943,63.89378244501683
570.3254874087321,971,64.78378244501684
571.224360301826,924,65.62167594310452
572.151322972829,905,65.18575757575758
573.087648903135,933,65.41996810207337
573.9771585369258,943,66.09421052631578
574.8760314300197,896,66.53012889366272
575.7936308417196,905,64.98709483793516
576.7486832906318,924,65.22130536425095
577.6381929244226,962,65.9095975232198
578.5277025582133,896,66.54417862838915
579.4546652292163,896,65.00114457266159
580.4097176781286,933,63.87693404634581
581.3460436084346,962,63.66117647058823
582.2823695387407,943,63.457864077669896
583.2467852469559,943,62.248807473896306
584.2392907330803,971,61.62667155156622
585.2037064412956,999,63.61221172921546
586.0838528157833,971,65.94547885930484
586.9733624495741,886,66.78337235739251
587.9003251205771,896,66.30996810207336
588.7991980136709,933,67.0431488801054
589.6606178695525,905,67.9516018306636
590.5501275033433,867,67.49752019801055
591.4677269150433,896,65.64012889366272
592.4040528453493,924,65.64012889366272
593.2935624791401,943,65.64012889366272
594.21116189084,896,65.42864374514787
595.1568510804492,924,62.72221099660986
596.1680830851798,952,61.269149772120066
597.1512253120011,1018,61.916553287981856
598.068824723701,990,64.62298603651986
598.9583343574918,924,66.30074745036376
599.8665705098887,896,65.44600555360505
600.821622958801,915,64.32179502728926
601.757948889107,962,64.55117647058823
602.6568217822008,943,64.75851485148515
603.6025109718099,905,63.176292629262925
604.6137429765405,952,60.52262290449228
605.6343382405742,1018,59.91256959146867
606.6081172080925,1028,59.91256959146867
607.619349212823,981,58.89015235971757
608.696124032675,1018,57.08853292651919
609.7635355932239,1084,58.45927000022656
610.7092247828331,1075,61.03387180823345
611.6549139724422,952,63.65702970297029
612.5912399027483,952,63.04697638994668
613.5650188702666,943,63.69437990580847
614.4826182819666,981,66.0677132391418
615.325311619242,924,68.49699363616413
616.1960947344267,849,68.72169382551823
617.1043308868235,877,65.92953696277314
618.0593833357357,915,65.21179502728927
618.9582562288296,962,64.98709483793516
619.8758556405295,905,64.58437990580848
620.8496346080478,924,63.2755563763967
621.80468705696,981,63.729638009049765
622.7035599500539,962,65.67538699690402
623.5930695838446,905,65.27267206477731
624.5668485513629,896,62.26591530802056
625.6061703340026,981,60.32016632016631
626.579949301521,1047,61.802323338405806
627.4881854539178,981,63.91908009516256
628.4245113842239,915,64.52913340818617
629.3702005738331,943,64.08427242724272
630.297163244836,952,64.97427242724272
631.1960361379299,933,64.76693404634581
632.1510885868421,905,63.15379329301813
633.1529573322696,962,60.50012356824749
634.1735525963032,1009,61.35486546500619
635.0911520080032,1028,64.35999057806016
635.9619351231878,924,67.73140223831467
636.8327182383724,877,68.41969439728354
637.7222278721632,877,67.47257101850069
638.6304640245602,896,67.72222038736464
639.4918838804417,915,68.4554011653967
640.3533037363233,867,68.01054018445323
641.2802664073263,867,65.13600602296255
642.2634086341477,933,62.45707625707625
643.237187601666,990,62.45707625707625
644.1641502726691,981,63.47421911421911
645.1004762029751,933,63.08670097198399
646.0929816890996,943,60.75418663946965
647.1323034717393,999,61.19010500681659
648.0499028834392,1047,64.00690354607406
648.9206859986239,924,66.78427885953184
649.8289221510207,877,65.13930388841132
650.8214276371452,915,61.58974377110926
651.8513861604819,999,59.91198235726537
652.8345283873033,1037,57.71061879297173
653.9487562443675,990,56.39413189004414
655.0536208421287,1122,55.12270331861558
656.1023058840715,1113,58.11429995727104
657.0573583329837,1056,62.73600929733595
657.9375047074714,962,65.91458072590737
658.8363776005652,886,66.76932262266608
659.7539770122652,905,66.06653692404797
660.662213164662,924,67.0339282283958
661.5236330205436,915,66.59800986104887
662.4599589508497,867,63.99557312252964
663.4899174741864,943,60.55595959595959
664.5011494789169,1037,61.91936385127874
665.3812958534046,1018,66.50118203309692
666.2146259313771,886,71.56061355764473
667.0198662314402,839,73.96662106703145
667.8157432722004,811,73.69995440036479
668.6584366094759,801,71.34695562435499
669.5479462432667,849,67.15872033023734
670.5029986921788,896,65.67538699690402
671.4018715852727,962,65.91458072590737
672.2820179597604,905,66.33340425531915
673.2183438900664,886,64.23434765154556
674.2108493761909,943,61.107273671455765
675.2314446402245,999,58.990516914699015
676.2707664228643,1028,57.91100208990117
677.3194514648071,1047,58.65752895752895
678.3025936916284,1056,60.77428571428571
679.2389196219345,990,62.85137199434229
680.1846088115436,943,63.04697638994668
681.158387779062,952,61.83791978617309
682.1508932651864,981,61.42726901235784
683.1153089734016,999,60.48513774912567
684.1359042374353,971,58.74798745634754
685.2220423165903,1028,56.91277824593427
686.2800906178362,1094,58.257624441293146
687.2351430667484,1066,60.992346189330014
688.1808322563576,962,61.16111989350195
689.2295172983003,952,59.291371994342285
690.2782023402431,1056,58.68131868131867
691.2519813077614,1056,59.20622038511946
692.2725765717951,981,57.78768437567436
693.4055309474654,1028,55.35091775246706
694.5103955452266,1141,55.17276929541952
695.5403540685633,1113,59.09563430919363
696.4673167395663,1037,62.78985776128633
697.3849161512662,933,64.7316759431045
698.3212420815723,924,63.30686176357335
699.3137475676967,943,62.659458247711555
700.2594367573058,999,60.71764006589337
701.2893952806426,952,58.21958923165043
702.4223496563129,1037,54.87107438016528
703.5459407726802,1141,55.603835958209885
704.5384462588046,1132,59.97156195292744
705.4466824112016,999,63.747319528685026
706.3736450822045,915,62.83961937570185
707.4129668648443,933,58.920695734255055
708.5178314626054,1047,56.94126843372683
709.538426726639,1113,56.76945376191216
710.5871117685818,1028,57.24167189013618
711.6638865884338,1056,57.06352343308864
712.6938451117705,1084,59.78801322900701
713.6114445234705,1037,63.010018552875685
714.5290439351704,924,64.5330132052821
715.4840963840826,924,62.514872615712946
716.4953283888132,962,62.514872615712946
717.4129278005131,1018,63.14945372088229
718.3398904715161,924,64.31285241369275
719.2949429204283,933,61.76017728958905
720.334264703068,962,59.60260153201329
721.3642232264048,1047,60.237182637182634
722.2911858974078,1037,61.532400932400925
723.2649648649261,933,62.07683593664901
724.2668336103536,981,61.03953989935297
725.2406125778718,1009,62.751078360891434
726.1394854709657,981,65.27267206477731
727.0289951047565,905,64.8851539225422
728.0215005908809,896,60.14335064385368
729.1638182258544,999,57.0773219357197
730.193776749191,1150,54.72637853949328
731.3173678655583,1037,54.30618181818181
732.4877752784408,1132,52.83757983193276
733.6020031355051,660,55.38043697478991
734.5851453623264,518,58.070214752567686
735.596377367057,1122,59.538816738816735
736.6263358903938,990,58.09861446321623
737.6843841916397,1018,59.89659426119603
738.6113468626426,1037,61.62692729449936
739.5570360522518,1066,63.46213650491262
740.521451760467,933,63.24637892915504
741.4577776907731,952,64.58207460398569
742.3472873245638,971,63.9951539225422
743.3397928106883,943,61.70658249397077
744.3884778526311,896,56.87526452963845
745.5214322283015,999,56.142502951593855
746.5513907516381,1056,55.97372924742192
747.609439052884,1141,57.22349155269509
748.6674873541299,1037,58.95382458599842
749.613176543739,1066,61.62692729449936
750.540139214742,1066,61.138065530691
751.626277293897,952,57.497747400517326
752.7685949288705,933,55.518320099989104
753.789190192904,1094,55.67844004001908
754.8659650127561,1150,56.58403642215589
755.9521030919111,1028,55.72454825218969
757.01951465246,1084,58.72639278446901
757.946477323463,1094,62.10851804836767
758.8640767351629,1075,64.10954002077442
759.8284924433782,933,61.60521101644541
760.877177485321,924,60.15214979195561
761.8603197121424,971,59.01061598951507
762.880914976176,1056,57.44738413939797
764.0232326111494,990,54.33033344815373
765.1842767647289,1028,53.805431744352944
766.2329618066717,1150,53.950127585024944
767.3659161823421,1169,54.52432113341204
768.4895072987094,1056,53.709302818393724
769.5850086371674,1141,55.834188034188024
770.596240641898,1132,58.377045177045176
771.5793828687194,1103,60.27157831686134
772.5718883548438,1018,60.64474393530996
773.5643938409684,990,62.78609731876861
774.453903474759,999,64.65577247924324
775.362139627156,999,62.30482908301681
776.4857307435233,896,56.90861855670103
777.6561381564059,915,54.66577777777777
778.6673701611364,1132,54.51867033976125
779.8003245368068,1179,54.3830512921422
780.9800952089925,1018,52.25816607634789
782.1130495846628,1141,55.54644998495265
783.068102033575,1188,60.8440690325717
783.9669749266687,1141,64.55117647058823
784.9033008569749,962,62.512654867256636
785.9613491582207,905,60.60551201011378
786.944491385042,943,59.98337608778368
787.9089070932573,1066,59.817563325790196
788.9763186538063,990,58.892888001114876
790.0062771771429,971,59.51502392344497
790.942603107449,1075,62.798800374882845
791.8508392598459,1037,62.798800374882845
792.8807977831826,943,60.510228946311415
793.9294828251254,915,59.63812524109553
794.8751720147345,1037,62.94334767823286
795.7553183892222,1056,66.12191910680428
796.6541912823161,952,66.99402281202018
797.562427434713,886,68.00395189003436
798.4051207719884,905,69.75395189003436
799.2384508499608,915,72.0060606060606
800.0624176686301,849,70.75693779904304
800.9519273024209,839,69.48034205436221
801.8320736769086,830,67.93101903695407
802.7122200513963,896,64.86499032882011
803.7421785747331,886,61.0442409407576
804.8002268759789,886,57.05767879070161
805.8676384365278,1037,59.21525454827737
806.7946011075309,1066,61.88835725677831
807.7215637785339,1075,64.3000300030003
808.667252968143,933,63.067129570099866
809.6503951949644,933,63.28729036168922
810.5679946066643,952,63.714533085961655
811.4949572776674,990,62.78985776128633
812.524915801004,924,60.06536796536796
813.5736008429468,933,57.56103896103895
814.6222858848896,1037,59.291371994342285
815.5679750744988,1056,60.75840496137525
816.541754042017,1056,61.10515820812849
817.5717125653538,952,59.91926017907325
818.5735813107813,981,62.10420289593086
819.453727685269,1037,66.41935441108237
820.2964210225445,1009,68.94094811496825
821.1859306563351,886,65.99532163742688
822.1971626610657,849,61.1646431713502
823.2552109623116,896,59.62160911562265
824.2102634112238,1018,57.49672389982834
825.3432177868941,1066,66.33432877283144
826.0641887532298,962,82.86683651276952
826.5978945335042,1141,82.166324903167
827.7776652056899,726,74.02239543813661
828.7982604697236,537,55.96689304579212
829.8282189930602,650,58.79228987118895
830.8394509977908,537,60.34447444744474
831.7851401874,1028,62.286292629262924
832.721466117706,1037,61.0824278949634
833.798240937558,1018,68.03917620137298
834.5098486445906,952,87.75609927829606
834.9967381283498,943,86.83507879680127
836.1296925040201,1084,78.69243246133644
837.1315612494476,1207,56.858752627656614
838.1708830320873,1141,57.155439897605916
839.2851108891516,1009,56.789153350405364
840.3057061531852,1047,59.341828474509065
841.2233055648851,1122,60.46367721400486
842.2719906068279,1028,67.23771730914586
843.0304146103758,924,83.58465608465607
843.5547571313473,1056,92.99322751322751
844.2570015790768,764,106.92474393530995
844.753254322139,528,87.1956798959011
845.839392401294,1207,75.941486347514
847.0004365548737,1094,53.00545321359776
848.1521174491501,1169,52.54123994208226
849.2663453062144,632,55.27805031289925
850.2682140516418,528,57.155439897605916
851.3075358342816,1122,58.98363784345092
852.3187678390121,1009,59.758885098690925
853.2831835472274,1047,62.536260412148714
854.1914196996242,1018,62.17666445255275
855.221378222961,971,59.23880037488284
856.3449693393283,915,54.87107438016528
857.4779237149986,1037,55.603835958209885
858.470429201123,1132,56.377749001688144
859.547204020975,1141,57.796285011133236
860.5958890629178,999,57.98819875776397
861.5790312897392,1084,61.898496240601496
862.46854092353,1056,62.42339794440228
863.4891361875635,990,69.82080054180489
864.2101071538992,896,84.81027422601541
864.7438129341737,1028,82.57979760932263
865.8954938284502,726,74.61731564684067
866.9067258331808,537,55.71754447979262
867.9835006530327,1160,56.30127065318881
869.0977285100969,1018,54.62518779066526
870.2025931078581,1084,56.20221814341342
871.1950985939825,1122,58.791099849942185
872.1688775615008,1113,61.227866473149476
873.1426565290192,999,61.03953989935297
874.1445252744467,981,62.521696917592465
875.0527614268435,981,62.32609252198807
876.035903653665,1009,59.87167242086964
877.1782212886384,915,55.07686031578152
878.3392654422179,990,53.14779627637265
879.4254035213729,1150,64.89987352766391
880.1089214504964,1169,87.22962263160657
880.6145374528617,1094,86.32402624946977
881.756855087835,1198,76.8415300546448
882.7680870925656,1150,56.52921774233249
883.8074088752054,1018,57.4348141244693
884.8935469543604,1047,56.39387845195468
885.9609585149093,1094,57.113252031141336
886.9628272603368,1075,57.9427021709363
888.0021490429765,1009,57.00586006567314
889.1257401593439,1047,54.69613580522671
890.2586945350142,1132,54.69613580522671
891.298016317654,1141,56.858752627656614
892.2998850630814,1047,58.449103308916385
893.3392068457212,1009,57.61965316912142
894.4253449248762,1047,57.075218164873334
895.4553034482129,1094,59.85259347833112
896.3635396006098,1037,63.01455795064042
897.2905022716128,915,71.70163929035334
898.0021099786454,933,91.56337367482877
898.4796362031016,1198,97.02559078261551
899.2193336880433,745,105.74791383161732
899.7624027276208,547,89.91434137824574
900.5301899904719,981,78.69858891692365
901.794229996385,1066,73.28276741590945
902.4309316289931,641,84.70767113863089
902.9646374092677,537,87.14185917281891
904.0601387477257,1103,76.46795854460646
905.0245544559409,971,58.77205211185793
906.0357864606715,1018,59.758885098690925
907.0751082433112,1047,59.36387816387816
908.0582504701326,990,58.16001342957864
909.1350252899846,1084,56.56966274831887
910.2679796656549,1141,55.129460472718364
911.3260279669008,1066,56.15187770446946
912.3466232309345,1028,57.40164000974263
913.4046715321803,1066,56.44856497441876
914.5188993892446,1122,56.09547794243265
915.5582211718843,1047,57.53568021803315
916.5413633987057,990,59.18243066132974
917.5619586627392,1028,59.53551769331585
918.5825539267729,1028,59.34360394668512
919.5750594128973,999,61.99727367145577
920.4739323059912,905,64.8851539225422
921.363441939782,896,66.30996810207336
922.2904046107849,933,65.00114457266159
923.2454570596972,962,64.53755260304683
924.153693212094,915,65.68519928260841
925.0338395865817,886,63.64667767927681
926.0918878878276,1066,58.714059122575776
927.2622953007102,1179,54.404447970704915
928.3484333798652,1094,56.86179310344828
929.2847593101714,943,60.71496957403651
930.2398117590835,962,61.20383133784487
931.2978600603294,1066,58.257624441293146
932.3839981394844,1094,57.659305113562056
933.3671403663058,990,58.5344280240832
934.3783723710363,1018,58.69454796411318
935.4551471908883,1084,56.76548392470431
936.5412852700434,1094,57.330563289783676
937.5244274968647,990,58.5344280240832
938.5356595015953,1018,58.222329835889155
939.6405240993565,1113,57.122715936275256
940.6798458819962,1047,55.758731261945755
941.7659839611513,1094,55.45703634669152
942.8895750775185,1132,54.31548801870251
943.9944396752798,1113,55.86431173768413
944.9963084207072,1009,58.40716888054128
945.9794506475286,990,60.08325174306482
946.9906826522591,1018,59.8984126984127
948.0019146569897,1018,60.7040704070407
948.9476038465989,952,64.14368393361076
949.8090237024804,867,67.08931041115213
950.6891700769681,886,66.28365270252411
951.6723123037896,990,61.01584123010906
952.7865401608537,1122,57.195091842046544
953.8445884620996,1066,54.36043142050089
954.986906097073,641,53.77670524710469
956.1385869913495,509,52.382247101159535
957.2809046263229,1160,55.2169075227052
958.2640468531442,1150,58.58891794183852
959.2284625613595,990,61.61918275898857
960.2022415288778,971,62.21750208671966
961.15729397779,981,63.05539558480734
962.084256648793,962,69.9015494309612
962.8145908744318,933,88.51592851592852
963.3202068767971,735,92.98895142797582
964.087994139648,509,106.6812591202835
964.5748836234072,1264,84.49155722326452
965.7265645176836,1160,78.22055451323743
966.7377965224142,1018,55.71754447979262
967.8145713422662,1084,56.004583383239506
968.9475257179365,1141,54.1763854373945
970.0617535750008,1122,56.34033647158614
971.0261692832161,971,60.26320148536025
971.9531319542191,933,61.21627652068411
973.0111802554649,1066,56.660230624832394
974.2471304834689,716,52.73736561105829
975.3800848591393,528,50.01652892561983
976.6160350871432,1141,63.91921778605517
977.2808264976607,726,79.6413252240717
977.8800750930565,518,79.89027627302275
979.0972988024544,669,68.8771978021978
980.1459838443972,603,69.4069597069597
980.73586918049,1226,87.42780337941628
981.3163912572797,1056,85.4443748079877
982.4867986701623,594,89.68247004608294
983.0111411911338,584,94.78641269841269
983.5167571934991,1179,100.18262322472847
984.4062668272899,528,81.28300932511459
985.4455886099296,509,60.141246873007304
986.5317266890846,896,56.39387845195468
987.5991382496335,1047,58.510635208711435
988.5354641799396,1094,59.51502392344497
989.5654227032763,1075,58.1440354767184
990.7171035975528,943,53.34217501160212
991.9249640476476,1037,53.52032346864966
992.9455593116812,1160,55.572651628294885
993.9755178350179,1216,65.38488246378154
994.7339418385658,1028,86.86547526547525
995.220831322325,1037,83.26951566951566
996.4848713282381,1254,74.40734202045677
997.6271889632116,1273,49.76118817430292
998.8444126726095,1150,50.12078413389889
1000.0803629006135,716,50.12078413389888
1001.2226805355868,509,53.46779268090743
1002.2339125403174,660,57.24859132151915
1003.2357812857449,584,60.27885613866921
1004.2095602532632,613,62.98528888720722
1005.099069887054,537,66.24006336912515
1005.9604897429356,1018,66.43946590833352
1006.9249054511508,1009,62.05695029727196
1008.029770048912,981,59.18241613578128
1009.0129122757335,896,55.81040571664796
1010.1645931700099,867,55.2169075227052
1011.3069108049833,971,53.610892485111215
1012.3743223655322,1113,56.982902904244526
1013.3387380737474,990,59.8175633257902
1014.3218803005689,1160,60.85849899830482
1015.3331123052994,1150,61.6963924963925
1016.2600749763025,1075,63.60353535353536
1017.1589478693962,971,65.18575757575758
1018.0952737997023,990,62.85324324324324
1019.1345955823421,1018,62.17900081900082
1020.0615582533451,933,60.96994421522723
1021.0540637394695,905,60.300614015462244
1022.1308385593215,943,56.981266696114915
1023.2263398977797,1047,56.792940122318406
1024.2282086432072,933,57.290455650268726
1025.2768936851498,999,58.99666221628837
1026.2787624305774,1084,60.829963761205406
1027.1963618422774,1103,65.23106266230431
1028.0484184388558,1009,67.5184458398744
1028.9472913319498,1056,67.08252747252746
1029.8836172622557,1009,65.63061855670102
1030.7918534146527,924,63.91908009516256
1031.765632382171,858,60.211972657146035
1032.8985867578413,905,55.41716055205791
1034.059630911421,943,54.47502928882573
1035.0802261754545,915,54.62213672684226
1036.2038172918217,981,53.82709950599858
1037.4210410012197,1141,51.8836617927527
1038.55399537689,1169,53.32690503599594
1039.5933171595298,1028,55.63297791048987
1040.6607287200786,1132,55.2058918001193
1041.8217728736581,1226,54.53656160035432
1042.8985476935102,1141,56.74089596567939
1043.8536001424225,1047,60.05355105252802
1044.8273791099407,1075,58.167138009049765
1046.0258763007325,1169,53.65673076923076
1047.2431000101303,1084,51.219964146023464
1048.3479646078915,962,50.714282327841644
1049.5839148358955,981,62.02377283733215
1050.3048858022312,1207,83.47763347763347
1050.8105018045965,1226,84.80401201712677
1051.95281943957,1113,77.02636909929694
1052.9546881849974,716,55.88460664718965
1054.0408262641524,528,66.11666966613791
1054.7617972304881,726,88.87405284370801
1055.2299601956413,509,87.96845646157122
1056.3722778306146,1150,79.82452699654084
1057.3928730946482,1009,54.612723717852305
1058.5351907296217,1094,54.7574195585243
1059.668145105292,1198,53.41749953970519
1060.76364644375,1150,56.25215996125087
1061.7467886705715,1028,57.84251064251063
1062.7861104532112,1150,56.95195404463696
1063.9377913474877,1141,54.1172936230913
1065.080108982461,1103,54.47038065507741
1066.1007042464946,990,55.20622191179506
1067.2055688442558,1047,55.49802519048359
1068.3291599606232,1160,54.31548801870251
1069.4152980397782,1150,57.36230795493342
1070.3609872293873,1028,59.15863823016278
1071.3815824934209,1113,58.694424958647275
1072.4958103504853,1132,55.05410682847361
1073.6381279854586,1094,55.0541068284736
1074.6587232494921,952,55.67844004001908
1075.7354980693442,1028,55.97024331870761
1076.8590891857116,1122,53.88210976478973
1078.001406820685,1150,54.379625292740045
1079.0500918626276,1028,53.94547895127663
1080.2017727569041,1084,54.6936924863754
1081.2972740953624,1132,54.693692486375404
1082.345959137305,1150,58.476353679323964
1083.2916483269141,1056,60.56280056577086
1084.2747905537356,641,61.45398881677219
1085.2766592991632,518,61.45398881677219
1086.2223484887722,1103,59.847973779178204
1087.289760049321,1056,56.83773790912925
1088.4695307215068,952,52.91502950925701
1089.6305748750863,990,53.24961597542242
1090.6792599170292,1009,56.259851845471374
1091.6811286624566,952,57.290455650268726
1092.7766300009148,1075,56.955869184103314
1093.8440415614637,1188,58.35325236167341
1094.7803674917698,1169,58.510635208711435
1095.8665055709248,1056,56.46129310344828
1097.0650027617166,1009,52.05367405582923
1098.244773433902,1103,52.37672305764411
1099.3121849944512,1075,53.489223057644104
1100.4357761108183,943,54.33684210526315
1101.5593672271857,1094,54.33684210526315
1102.6267787877346,698,57.27470618293306
1103.5911944959498,509,59.62564957915947
1104.5836999820742,641,61.62667155156622
1105.5481156902895,547,62.46456504965389
1106.4750783612926,1075,61.73180347160929
1107.5050368846291,1132,65.83114869626498
1108.3102771846925,603,85.33231419743046
1108.7971666684516,528,82.21947589069902
1110.0237536371526,1075,76.9785968636028
1111.0443489011861,971,54.315466890128015
1112.1304869803412,999,54.96250433105858
1113.3102576525268,971,53.94008709930748
1114.387032472379,933,55.677237392085615
1115.3795379585033,1037,58.14303825788648
1116.40949648184,1301,59.34690299218601
1117.4207284865706,1235,61.216578152660624
1118.3289646389674,1028,63.594314701825745
1119.2465640506673,1094,60.63543456184324
1120.4356979821562,1188,54.09307687470742
1121.7278277659784,1084,48.602502018810874
1122.9544147346794,999,48.871604381015594
1124.124822147562,1037,50.90154023276186
1125.2671397825354,1018,53.839439964554714
1126.3064615651751,915,54.853134879808955
1127.4113261629363,924,54.43293815849748
1128.581733575819,1198,52.697891636565714
1129.7240512107924,735,54.19252699654083
1130.744646474826,566,56.34777023978407
1131.7839682574656,698,56.639573518472595
1132.907559373833,537,54.40909690177982
1134.0592402681095,1179,53.579646761984854
1135.1453783472646,1150,56.720823232573096
1136.1004307961766,1047,59.89343111249804
1137.074209763695,1113,59.73604826546001
1138.169711102153,1179,55.882871794871775
1139.3401185150358,632,52.85260697772172
1140.482436150009,518,54.74714011753788
1141.4749416361335,1028,55.459140117537885
1142.598532752501,1047,65.69120313648614
1143.3195037188366,1132,86.6171828171828
1143.8063932025957,1160,86.61718281718281
1144.929984318963,1094,79.02786647314947
1145.9224898050875,962,58.29380053908355
1146.9056320319087,981,60.64474393530996
1147.8981375180333,1103,60.64474393530996
1148.8906430041577,1179,62.55188679245283
1149.7895158972515,1150,65.36868533171028
1150.660299012436,999,68.4351332398317
1151.5217188683177,1132,69.65766071235916
1152.3737754648962,1216,68.71053733357633
1153.2820116172932,1132,65.27092380700628
1154.2932436220237,999,62.53626041214871
1155.257659330239,990,61.66415670693283
1156.203348519848,999,61.30456074733686
1157.2333070431848,999,59.30353877493012
1158.3007186037337,905,58.693485461906505
1159.274497571252,877,61.759514170040475
1160.1640072050427,867,65.27267206477731
1161.0628800981367,858,66.75482908301682
1161.9711162505334,915,67.48800986104885
1162.832536106415,1018,67.961414116368
1163.712682480903,971,68.42500608598276
1164.6021921146935,952,67.45761478163493
1165.5010650077875,1037,67.9516018306636
1166.362484863669,1075,67.9516018306636
1167.2519944974597,981,67.2773594064212
1168.1789571684628,896,65.41996810207337
1169.115283098769,905,65.18575757575758
1170.0141559918627,915,65.18575757575758
1170.9411186628656,867,63.97670097198399
1171.93362414899,886,61.504478749761766
1172.9448561537206,896,61.07723602548934
1173.89054534333,905,62.946911185963955
1174.7987814957266,867,63.90699748585608
1175.763197203942,896,62.536260412148714
1176.7744292086725,933,60.858498998304825
1177.757571435494,943,61.6963924963925
1178.6845341064968,905,62.26147186147186
1179.6676763333182,933,60.65545682387788
1180.735087893867,999,57.982354115376936
1181.793136195113,1018,58.78801182400494
1182.7388253847223,952,62.07178827544281
1183.647061537119,915,63.90699748585608
1184.6114772453343,971,61.17227573781921
1185.6976153244893,1018,56.95165718111818
1186.8212064408567,990,56.176409925878175
1187.823075186284,933,58.5004809000998
1188.7874908944993,990,60.11866271828162
1189.817449417836,1075,59.39928913909496
1190.8567712004758,1066,59.60260153201329
1191.811823649388,952,60.147036536261375
1192.8136923948155,915,61.246650435875274
1193.796834621637,971,60.843935503748575
1194.7706135891553,1094,63.60472293663782
1195.650759963643,613,65.28248435048171
1196.55899611604,518,64.52180058979795
1197.5702281207705,1009,62.14125347733595
1198.5533703475917,971,63.08837685611879
1199.4241534627765,1037,65.79480960465679
1200.313663096567,1047,67.24787082914659
1201.231262508267,962,66.53012889366272
1202.130135401361,1009,67.0136603028308
1203.0009185165457,990,67.94114619080301
1203.8810648910332,981,68.1753567171188
1204.770574524824,886,68.1753567171188
1205.6413576400087,915,67.70195246179966
1206.5402305331027,1018,65.95560601315377
1207.504646241318,990,62.23110732091314
1208.5439680239576,877,60.51956885937467
1209.5177469914759,896,62.26591530802056
1210.4072566252667,924,65.74607632009646
1211.2874029997545,905,66.78337235739251
1212.2143656707574,877,64.45010522730314
1213.2068711568818,886,62.66787744257222
1214.161923605794,896,63.576330393130426
1215.0514332395849,877,64.78538699690401
1215.9877591698908,905,63.44054080154514
1217.0083544339245,971,60.027758846657925
1218.0570394758672,1047,59.20622038511946
1219.0308184433857,981,60.148351648351635
1220.004597410904,896,60.32016632016631
1221.0439191935436,886,58.853133353133344
1222.0926042354865,933,57.38610038610038
1223.1412892774292,999,59.08403361344537
1224.0963417263415,962,60.16354843824321
1225.088847212466,896,60.86989764459242
1226.1000792171965,943,59.52505144923355
1227.12067448123,1028,60.52262290449228
1228.066363670839,1056,61.08770226957164
1229.0495058976605,981,60.394026861598924
1230.1075541989064,981,58.148166877370414
1231.1656025001523,1047,57.95625313073968
1232.1581079862767,1056,60.2021131149682
1233.1037971758858,1056,61.83791978617309
1234.0775761434043,962,61.46475416772446
1235.0888081481348,999,61.25741578682754
1236.043860597047,1018,61.25741578682754
1237.0176395645653,1028,61.630581405276175
1238.0101450506897,952,61.032262077545084
1238.9932872775112,990,62.06955811484113
1239.920249948514,1066,63.4943722943723
1240.847212619517,1066,64.51151515151516
1241.783538549823,999,64.51151515151516
1242.7105012208262,952,65.90349951124145
1243.5812843360109,981,66.79349951124145
1244.4801572291046,1018,67.46774193548387
1245.3790301221984,962,66.07575757575758
1246.3059927932015,981,65.8463761324586
1247.2142289455983,999,64.95637613245862
1248.1505548759044,990,63.15839633447881
1249.161786880635,933,60.38102102102102
1250.2011086632747,933,59.17196441724744
1251.1936141493993,943,60.96994421522723
1252.1205768204022,933,62.66787744257222
1253.0756292693145,877,63.05539558480734
1254.0494082368327,905,61.82249515190691
1255.0325504636542,905,62.901937238019705
1255.940786616051,933,64.3840942562592
1256.8490227684479,915,66.06185567010309
1257.7572589208448,943,65.837155480749
1258.6748583325448,1018,66.5399411793671
1259.5550047070324,1047,66.76932262266608
1260.4538776001264,999,65.71126833298905
1261.4182933083416,933,62.9504809000998
1262.420162053769,962,61.23894243856134
1263.3939410212874,981,62.751078360891434
1264.2928139143812,990,63.729638009049765
1265.2478663632933,915,63.92904054825813
1266.2122820715085,915,63.03904054825813
1267.1486080018146,915,64.82126833298904
1268.0287543763025,924,66.10402281202018
1268.9369905286992,886,65.89253766350532
1269.8826797183085,905,63.90699748585608
1270.8470954265238,971,64.85412086463892
1271.7178785417084,1009,65.95560601315377
1272.6167514348022,981,66.1589184060721
1273.5718038837144,905,64.55117647058823
1274.5081298140203,962,65.02458072590738
1275.3882761885081,971,67.05114619080302
1276.2590593036928,943,67.71176474750405
1277.1672954560897,886,65.92953696277314
1278.1223479050018,915,64.7577133946362
1279.0399473167017,952,63.6782713085234
1279.994999765614,971,61.98033808117841
1281.0343215482537,877,59.25584828526004
1282.0830065901966,905,59.89042939042939
1283.0099692611996,962,62.222943722943725
1283.9369319322025,943,64.3000300030003
1284.8826211218118,886,63.26273396570426
1285.85640008933,877,64.17118691626246
1286.7459097231208,915,66.49519953730479
1287.5979663196993,962,69.42926547137071
1288.450022916278,924,71.49677908298597
1289.264626475644,962,72.86146091278408
1290.0698667757074,1047,75.12387319929276
1290.8470172978614,1056,75.4093583636873
1291.6522575979245,933,73.78954036570954
1292.5136774538062,933,69.4146006066734
1293.4500033841123,952,67.5451332398317
1294.320786499297,981,66.57774193548387
1295.2196593923907,896,66.79349951124145
1296.1466220633938,858,64.97427242724272
1297.092311253003,858,64.3000300030003
1298.0192739240058,820,65.6920143627266
1298.8900570391907,811,67.2669037665606
1299.7702034136782,783,68.41455044612216
1300.650349788166,811,68.66419981498612
1301.5117696440475,867,69.94079555966698
1302.34509972202,943,70.43478260869566
1303.2065195779016,877,68.36590615583297
1304.1522087675107,905,64.51684955205938
1305.1447142536351,933,61.26207507014146
1306.1465829990627,952,61.689317794413896
1307.0735456700656,933,62.89837439818748
1308.0098716003718,877,63.27861471861472
1308.9930138271932,886,61.66547396528704
1309.9948825726206,886,61.88123154104462
1310.9218452436237,867,62.47955086877571
1311.8768976925357,839,63.665448897830956
1312.8225868821448,867,65.3070826264212
1313.6840067380265,952,68.63863342856024
1314.5079735566958,999,70.45786051255897
1315.3787566718804,1009,69.03638757555808
1316.2963560835803,933,67.48706455814995
1317.1765024580682,943,67.48706455814995
1318.0472855732528,990,67.71176474750405
1318.9555217256498,1009,65.92953696277314
1319.9105741745618,933,65.21179502728927
1320.8094470676558,962,64.98709483793516
1321.7270464793557,952,64.58437990580848
1322.700825446874,867,61.071222011071626
1323.7682370074228,830,59.42624703995111
1324.7607424935475,877,60.03630035297472
1325.7064316831566,924,62.24063471829979
1326.6614841320686,886,63.88560968942031
1327.5790835437685,877,65.46049909325431
1328.4592299182564,915,67.73671392701391
1329.320649774138,962,67.73671392701391
1330.238249185838,905,65.55177121015629
1331.2120281533562,924,62.67723704866561
1332.1951703801776,981,62.901937238019705
1333.1034065325744,1075,63.93923327531575
1334.0303692035775,999,63.747319528685026
1335.022874689702,952,62.26516251044552
1335.9966536572201,962,62.710023491388974
1336.904889809617,924,65.04329062147835
1337.7943994434079,886,66.30074745036376
1338.7119988551078,867,65.8558864694203
1339.638961526111,924,66.33941787858839
1340.5097446412956,981,68.01602698376891
1341.361801237874,990,68.92447993432712
1342.2513108716648,915,68.20673799884325
1343.1501837647586,933,66.75482908301682
1344.0584199171556,999,66.29123711340206
1344.9666560695523,981,66.76464136872121
1345.8468024440401,915,65.68519928260841
1346.8018548929524,896,64.40244480357728
1347.7662706011677,924,63.25479812401571
1348.6932332721706,933,65.78614912595495
1349.545289868749,877,68.52081252081251
1350.3973464653277,858,70.67838827838827
1351.2400398026032,896,71.47858807858806
1352.0640066212725,905,72.55778474399163
1352.8786101806388,915,71.79219334614217
1353.7493932958234,915,68.2573301510848
1354.7138090040387,886,63.66822283558367
1355.715677749466,962,62.49639926744674
1356.633277161166,971,63.118535189776836
1357.5696030914721,933,63.69437990580847
1358.5433820589906,858,63.04697638994668
1359.4890712485997,858,64.9043676942945
1360.350491104481,849,67.33364809131685
1361.221274219666,830,67.12630971041993
1362.176326668578,820,64.44737994453364
1363.1501056360964,877,61.630581405276175
1364.1426111222208,971,61.83791978617309
1365.08830031183,1009,62.4479730991967
1366.033989501439,924,62.639886845827434
1367.0171317282604,943,61.269149772120066
1368.028363732991,981,60.08325174306482
1369.0302324784184,952,61.10039460020768
1369.9665584087245,867,62.471131673915046
1370.9122475983338,877,63.44969132207338
1371.8673000472459,962,63.03086779266161
1372.8223524961581,981,64.13235294117646
1373.721225389252,999,66.1589184060721
1374.5920085044365,952,67.23836049218491
1375.5002446568335,952,66.3483604921849
1376.4365705871396,990,65.63061855670102
1377.3354434802334,1018,66.82739130434783
1378.196863336115,1009,67.26330967169477
1379.114462747815,943,64.79108744947254
1380.1256947525455,952,61.35147392290249
1381.1369267572761,962,61.57617411225659
1382.0451629096729,962,62.946911185963955
1382.990852099282,905,64.31764825967133
1383.9365412888912,877,63.65702970297029
1384.8728672191971,915,65.47625678696902
1385.743650334382,943,68.0610752688172
1386.5863436716575,905,69.18528579513298
1387.475853305448,867,68.23816241635015
1388.384089457845,924,66.75482908301682
1389.2829623509388,1018,66.99402281202018
1390.1631087254266,1018,67.45761478163493
1391.0526183592174,915,66.35612963312008
1391.9983075488265,952,64.78124022928608
1392.9439967384355,952,65.02043395828943
1393.8241431129234,943,66.35612963312008
1394.7136527467142,877,67.22823333833597
1395.621888899111,849,65.44600555360505
1396.5769413480232,896,62.37997684547108
1397.60689987136,915,59.60260153201329
1398.6462216539996,905,60.021425061425056
1399.5825475843058,886,62.39916161059018
1400.5001469960057,896,64.95183673469387
1401.4177464077056,952,64.74035158617902
1402.3634355973147,952,63.682297296501986
1403.32785130553,886,62.827555399743275
1404.282903754442,896,64.40244480357728
1405.1630501289299,915,66.63232266139124
1406.0338332441145,962,67.71176474750405
1406.9420693965114,1037,67.71176474750405
1407.822215770999,1047,68.74402281202018
1408.6555458489715,943,69.94079555966698
1409.5169657048532,924,70.43478260869566
1410.3783855607346,924,69.65217391304348
1411.2398054166163,952,70.70750988142292
1412.0637722352856,971,71.22345191040841
1412.906465572561,962,70.97380254154447
1413.7772486877457,886,70.17360274134467
1414.6293052843243,877,70.17360274134467
1415.4719986215996,915,70.42325211020862
1416.3334184774812,886,68.74664300502809
1417.2510178891812,839,65.3561668145519
1418.2341601160026,867,63.07995198079231
1419.189212564915,867,63.07995198079231
1420.1068119766148,867,64.31285241369275
1421.0337746476177,830,64.31285241369275
1421.98882709653,849,63.45811051693404
1422.943879545442,877,62.823529411764696
1423.8989319943544,858,63.45811051693404
1424.8258946653573,849,63.87693404634581
1425.7622205956634,867,64.51151515151516
1426.6891832666665,924,65.41996810207337
1427.5786929004573,990,66.0805866587744
1428.486929052854,962,64.65577247924323
1429.4794345389785,924,62.13417877535735
1430.481303284406,933,61.05473668924455
1431.4363557333184,962,63.38800381933392
1432.325865367109,962,65.44600555360505
1433.2341015195059,962,66.52544763971784
1434.1423376719029,933,66.29123711340206
1435.0412105649966,943,67.48800986104885
1435.9026304208783,933,68.68478260869566
1436.76405027676,896,68.91899313501145
1437.6535599105505,915,68.1858123569794
1438.5430695443413,999,67.93616298811544
1439.413852659526,1009,69.45195246179966
1440.2471827374984,962,71.24046920821114
1441.0711495561677,896,72.54545454545453
1441.895116374837,915,72.54545454545453
1442.7284464528095,915,73.10993657505284
1443.5336867528727,905,71.80495123780945
1444.4044698680573,867,67.22313305599127
1445.434428391394,867,60.64233401007594
1446.5299297298523,896,57.82553547081848
1447.5224352159767,896,60.427972209337696
1448.4306713683734,877,64.19218050962849
1449.3389075207704,839,65.40123711340206
1450.2752334510765,830,65.63061855670102
1451.1741063441702,830,67.08252747252746
1452.0261629407487,839,69.4558608058608
1452.8688562780242,811,70.67838827838827
1453.7209128746028,877,71.75758494379183
1454.5355164339692,1037,73.15366337516438
1455.3313934747293,1103,74.5183452049625
1456.1366337747925,999,73.96662106703147
1456.9699638527647,915,71.32141982864135
1457.8594734865555,915,67.84421052631578
1458.7957994168617,943,66.56761478163493
1459.6759457913495,905,66.33340425531915
1460.5748186844432,858,65.3162613981763
1461.5579609112647,849,62.1891874180865
1462.5785561752982,858,60.88036388867473
1463.5336086242105,820,62.55812530251862
1464.4418447766072,801,64.53755260304683
1465.3688074476104,811,64.95637613245862
1466.3051333779165,839,63.673621653427475
1467.2695490861317,896,64.3478640776699
1468.1684219792255,943,64.78378244501684
1469.0860213909255,886,65.40591836734694
1470.0223473212316,905,63.118535189776836
1471.024216066659,990,62.060480900099805
1471.9886317748742,1028,62.721099456800836
1472.8968679272712,962,63.69965910495917
1473.8519203761834,915,62.55812530251862
1474.872515640217,933,59.78074998906083
1475.9118374228567,943,60.86019207517363
1476.8200735752537,971,64.73638927247174
1477.6721301718321,905,69.4931460292285
1478.5054602498046,924,71.74525474525474
1479.329427068474,943,72.27272727272727
1480.1627571464462,1009,73.10993657505284
1480.9679974465096,971,74.57214906136171
1481.7451479686636,915,76.00072048993314
1482.5316617501207,962,76.8984509466437
1483.3088122722747,1028,76.8984509466437
1484.0859627944287,1047,76.89845094664372
1484.872476575886,915,75.7152353255386
1485.687080135252,858,74.81750486882804
1486.4923204353154,839,73.38893344025661
1487.3256505132877,830,72.30973677485304
1488.1777071098663,839,70.94505494505493
1489.0297637064448,811,69.9127968805388
1489.9005468216294,783,70.17360274134467
1490.7432401589049,792,70.97380254154447
1491.5672069775742,783,71.47858807858807
1492.4192635741529,783,70.22946527157052
1493.3087732079437,792,68.20673799884325
1494.2076461010374,820,67.21842105263157
1495.0971557348282,811,67.9516018306636
1495.9585755907096,839,68.1858123569794
1496.8480852245004,858,66.85011668214875
1497.7937744141097,858,64.17118691626246
1498.767553381628,877,64.17118691626246
1499.6570630154188,849,66.49519953730479
1500.5091196119972,830,68.20673799884325
1501.407992505091,858,66.0653846153846
1502.3911347319124,896,62.37063492063492
1503.402366736643,905,62.14125347733595
1504.31060288904,896,64.04839633447881
1505.2094757821337,867,65.41913340818618
1506.1551649717428,896,63.176292629262925
1507.1663969764734,952,60.7040704070407
1508.177628981204,981,60.293419633225454
1509.1420446894192,896,59.9338236736295
1510.172003212756,858,60.30698929207813
1511.1645086988804,905,61.36504358175517
1512.0821081105803,990,63.52261933933093
1513.0090707815834,1018,63.334292765534414
1514.0109395270108,915,60.78161764143072
1515.0502613096505,905,60.147036536261375
1516.0053137585628,952,60.72288125229301
1516.979092726081,1018,60.551066580478334
1518.027777768024,1018,58.02368321333838
1519.113915847179,971,56.72846491812009
1520.1532376298187,1037,57.4348141244693
1521.1644696345493,999,58.26426426426426
1522.203791417189,924,58.439202839202835
1523.2337499405257,933,59.8099399129102
1524.1794391301348,1009,61.50787314025519
1525.1344915790469,1047,62.43254846493052
1526.1176338058683,962,61.06181139122315
1527.1288658105989,981,60.858498998304825
1528.0932815188141,1056,62.536260412148714
1529.001517671211,1094,63.69965910495917
1529.9565701201232,1047,62.924411849719164
1530.9584388655508,1018,60.50012356824749
1531.9790341295843,1047,60.7074619491444
1532.9247233191934,1037,62.32060270247208
1533.8516859901965,952,63.067129570099866
1534.834828217018,962,61.514944993844075
1535.8554234810515,990,59.53551769331585
1536.876018745085,1018,60.98857891780565
1537.793618156785,971,62.54076349406144
1538.7393073463943,915,62.72221099660986
1539.7505393511249,962,61.46475416772446
1540.724318318643,1009,62.56623931623931
1541.6231912117369,1028,64.58437990580848
1542.5407906234368,952,65.40591836734694
1543.477116553743,933,64.95183673469387
1544.3947159654429,990,65.64012889366272
1545.2842255992337,1028,66.76433941997851
1546.1737352330244,1028,65.70628513030147
1547.1381509412397,924,65.47207460398569
1548.0370238343335,952,66.72119741100323
1548.879717171609,1018,69.98333333333332
1549.7130472495815,981,71.73333333333332
1550.5463773275537,905,72.27272727272727
1551.370344146223,924,73.10993657505284
1552.1755844462864,943,73.66166071298389
1552.9901880056527,924,73.38893344025661
1553.823518083625,896,73.10344827586206
1554.6381216429913,896,73.68113590263691
1555.4339986837515,971,73.95386317536419
1556.2579655024208,905,73.40213903743316
1557.0912955803933,849,72.0060606060606
1557.9339889176688,839,71.73333333333332
1558.767318995641,839,72.57054263565891
1559.5725592957044,830,73.67441860465115
1560.3777995957676,811,74.51162790697674
1561.1830398958307,820,74.51162790697674
1561.988280195894,839,75.1029900332226
1562.774793977351,820,75.39519249560288
1563.5706710181112,801,74.03051066580477
1564.4227276146898,830,70.17769681299093
1565.3496902856928,839,65.98946151887327
1566.304742734605,849,65.00114457266159
1567.1942523683958,839,65.67538699690402
1568.0931252614896,811,66.30996810207336
1569.0200879324925,811,63.60353535353536
1570.031319937223,811,61.31615217596526
1571.0331886826507,811,61.76101315690871
1571.9414248350477,792,64.46744590544671
1572.8309344688382,801,66.30074745036376
1573.7485338805384,858,65.64012889366272
1574.6848598108443,933,65.17653692404797
1575.5930959632412,962,66.59800986104887
1576.454515819123,896,69.23800986104885
1577.2878458970952,905,70.68991877687529
1578.1399024936738,933,70.68991877687529
1579.0013223495553,1018,70.68991877687529
1579.8346524275278,1009,72.0546006066734
1580.639892727591,915,73.67441860465115
1581.4451330276543,896,78.15441860465116
1582.1473774753838,924,79.68757967269595
1582.9058014789316,943,79.12309764309764
1583.729768297601,915,74.64309764309763
1584.5630983755734,867,70.29334582942829
1585.4713345279704,839,65.61694883193039
1586.491929792004,858,61.767892228156796
1587.4844352781283,867,59.89821706768218
1588.4769407642527,839,60.45283018867924
1589.4694462503774,811,60.26450361488273
1590.4713149958047,811,61.05473668924455
1591.426367444717,707,62.69971166036507
1592.343966856417,764,63.88560968942031
1593.289656046026,830,64.96505177553311
1594.197892198423,839,65.41913340818618
1595.0967650915168,915,66.52061855670104
1595.9956379846105,1028,67.71739130434783
1596.8570578404922,999,67.48800986104885
1597.7652939928892,999,66.17918633163708
1598.7203464418012,999,63.304652170146404
1599.7034886686226,1009,61.06181139122315
1600.7147206733532,962,60.08325174306482
1601.7165894187806,924,60.68157107079591
1602.6716418676929,952,61.844969763606365
1603.6266943166052,915,61.844969763606365
1604.6285630620325,905,61.05473668924455
1605.621068548157,905,60.65202175711785
1606.5948475156754,867,62.04940493468794
1607.5311734459815,915,62.839638009049764
1608.4862258948936,962,63.66117647058823
1609.4225518251997,990,65.02458072590738
1610.3026981996875,1018,66.56761478163493
1611.192207833478,1009,67.00353314898186
1612.109807245178,962,66.07604726100965
1613.0274066568782,962,66.31524099001302
1613.9075530313658,1009,68.25265595599942
1614.7502463686412,999,69.6741288930003
1615.6116662245229,981,69.6741288930003
1616.4918125990105,943,69.6741288930003
1617.334505936286,962,70.19007092198581
1618.1771992735614,943,70.93919413919411
1619.0292558701399,886,68.14703727644903
1619.9843083190522,896,64.3763207655456
1620.9861770644798,924,62.47955086877571
1621.9131397354827,924,62.89837439818748
1622.8494656657888,886,64.08427242724272
1623.7951548553979,849,63.868514851485145
1624.731480785704,867,63.868514851485145
1625.66780671601,886,64.51591836734693
1626.58540612771,849,67.15591836734694
1627.4187362056823,849,70.34764250527797
1628.2333397650486,858,72.55172413793103
1629.0666698430211,962,73.10344827586206
1629.8812734023873,1009,73.68113590263691
1630.6771504431474,933,74.5183452049625
1631.4823907432108,943,73.69995440036479
1632.3250840804862,952,69.30840671332881
1633.2894997887015,943,64.43381423343314
1634.2913685341289,943,60.478258677877584
1635.3026005388595,924,58.98363784345092
1636.3419223214992,839,57.92367588827766
1637.399970622745,820,57.048552977756515
1638.458018923991,839,56.87673830594184
1639.5067039659339,820,58.51254497714674
1640.480482933452,801,60.75840496137525
1641.4261721230612,811,63.70759494664771
1642.3344082754581,849,66.9024667415195
1643.1771016127336,971,70.30567602796539
1643.9917051721,1009,72.28505747126437
1644.8250352500722,1018,71.5194660734149
1645.6958183652569,1047,67.70560601315377
1646.660234073472,1066,64.04846315601091
1647.6433763002935,1066,62.229236072012185
1648.5890654899026,1056,61.45398881677219
1649.5909342353302,981,61.64959321237658
1650.5647132028485,952,61.23894243856134
1651.5291289110637,915,62.85208319188901
1652.4560915820668,849,64.1095400207744
1653.3736909937668,820,66.09508019842366
1654.2538373682544,839,68.25265595599942
1655.0965307055299,877,69.6741288930003
1655.9579505614115,971,68.97134319438219
1656.8661867138085,990,66.59800986104887
1657.8025126441144,952,66.59800986104887
1658.663932499996,1009,68.57739130434783
1659.4972625779685,981,71.21739130434783
1660.3305926559408,971,71.73333333333332
1661.1732859932163,933,72.57054263565891
1661.9785262932796,924,73.12226677358994
1662.7931298526457,886,73.66166071298389
1663.6170966713153,849,72.29697888318577
1664.4691532678937,867,71.47858807858807
1665.3118466051692,915,71.2058608058608
1666.1451766831415,943,70.45673758865247
1667.0253230576293,867,68.08340425531915
1667.9616489879354,839,64.62186579378067
1668.9354279554536,839,63.47421911421911
1669.8623906264568,849,63.68997668997669
1670.7893532974597,811,62.929292929292934
1671.8005853021903,820,60.5967785967786
1672.83990708483,830,59.758885098690925
1673.8043227930452,858,63.19849862526097
1674.6657426489269,849,66.67865963733686
1675.5458890234145,839,67.73671392701391
1676.4634884351144,886,64.67026601889249
1677.4559939212388,943,62.68472584124325
1678.420409629454,981,61.829983944484546
1679.3754620783664,933,61.275370823487485
1680.3960573424,933,59.440161613074224
1681.4541056436458,1018,59.23684922015589
1682.418521351861,1047,60.58169541551477
1683.3735738007733,971,62.21750208671966
1684.3473527682916,867,62.0180995475113
1685.32113173581,886,62.87284144427
1686.23873114751,924,63.910137481566046
1687.1656938185129,999,64.10954002077442
1688.1301095267281,971,62.276238475857376
1689.1319782721557,962,62.49639926744674
1690.0495776838557,1028,63.118535189776836
1690.9859036141618,1066,63.89378244501684
1691.950319322377,971,62.0604809000998
1692.9521880678044,962,62.060480900099805
1693.8885139981105,981,62.89837439818748
1694.8154766691134,981,63.87693404634581
1695.7705291180257,924,63.45811051693404
1696.725581566938,933,63.45811051693404
1697.652544237941,971,62.85979118920295
1698.6356864647623,1009,61.6963924963925
1699.646918469493,924,60.65909645909645
1700.6206974370111,943,62.33685787294034
1701.528933589408,971,63.0975416336241
1702.5027125569263,1009,62.33685787294034
1703.513944561657,943,60.854700854700845
1704.4877235291754,933,61.25741578682754
1705.4427759780874,962,61.630581405276175
1706.4352814642118,962,61.630581405276175
1707.4090604317303,933,62.93940493468794
1708.307933324824,990,65.27267206477731
1709.1974429586148,1018,67.21842105263157
1710.0869525924056,981,67.21842105263157
1710.9858254854994,915,68.20673799884325
1711.8378820820778,981,68.69026940801135
1712.7086651972625,1018,68.69026940801135
1713.6075380903565,981,67.0136603028308
1714.5251375020564,962,67.0136603028308
1715.395920617241,999,66.78427885953184
1716.304156769638,981,66.56411806794247
1717.231119440641,905,64.53755260304683
1718.1861718895532,896,64.76693404634581
1719.085044782647,896,65.21179502728927
1719.993280935044,905,66.06653692404797
1720.9108803467439,858,64.7577133946362
1721.865932795656,877,64.31285241369275
1722.792895466659,905,65.00114457266159
1723.6824051004498,924,66.30996810207336
1724.5812779935436,877,66.53012889366272
1725.4988774052435,915,65.40591836734694
1726.4352033355497,933,65.87932262266608
1727.3153497100373,962,66.56761478163493
1728.204859343828,905,66.78337235739251
1729.1318220148312,915,65.00114457266159
1730.0868744637432,924,65.24033830166496
1730.967020838231,962,67.66458072590737
1731.8003509162033,933,71.56061355764473
1732.6055912162667,896,74.57214906136171
1733.3827417384207,905,76.62092954916659
1734.1505290012717,924,77.83250073464589
1734.9183162641227,943,77.52613240418118
1735.7048300455797,886,73.9615624426921
1736.5943396793705,896,70.16278195488721
1737.4932125724642,933,66.53012889366272
1738.4108119841642,962,66.53012889366272
1739.300321617955,886,65.64012889366272
1740.236647548261,839,64.18706766917293
1741.2197897750825,811,62.04571428571428
1742.202932001904,783,61.028571428571425
1743.1860742287251,773,61.626890756302515
1744.1411266776374,773,64.25177554892925
1745.011909792822,792,67.9089184060721
1745.8452398707946,896,71.5194660734149
1746.659843430161,905,74.28666389696717
1747.4369939523149,924,75.7152353255386
1748.2235077337718,896,76.592082616179
1749.010021515229,943,74.59047619047618
1749.8527148525045,990,70.52190476190475
1750.7890407828106,990,63.830175438596484
1751.8564523433595,990,58.510635208711435
1752.9425904225145,962,58.09181167929967
1753.8976428714268,877,60.71496957403651
1754.833968801733,839,65.02458072590738
1755.7141151762205,820,67.81673758865247
1756.556808513496,783,71.0084617265835
1757.3714120728623,792,72.01839080459769
1758.2141054101378,792,71.75758494379184
1759.0661620067162,849,71.47858807858806
1759.8901288253855,943,71.47858807858807
1760.732822162661,1075,70.72946486137974
1761.6129685371488,1094,68.4773561453535
1762.5212046895456,962,67.22823333833597
1763.4107143233364,943,67.22823333833597
1764.2908606978242,886,66.78337235739251
1765.217823368827,849,64.83762336953825
1766.1916023363456,820,63.26273396570426
1767.1372915259547,849,63.93697638994668
1768.0361644190484,858,64.54702970297029
1768.9818536086575,830,63.549458247711556
1769.974359094782,849,62.24063471829979
1770.9294115436942,886,64.05986180229851
1771.8001946588788,915,67.38144587859958
1772.6522512554573,896,69.9127968805388
1773.504307852036,886,71.2177822177822
1774.3282746707052,933,71.74525474525474
1775.1616047486777,981,70.75693779904304
1776.0511143824683,952,67.42538699690402
1777.0061668313806,905,65.22130536425095
1777.9237662430805,952,66.20962231046263
1778.775822839659,999,69.82016997780543
1779.5904263990253,962,73.15366337516438
1780.3863034397855,877,75.41607566167306
1781.1634539619395,858,76.59929128277817
1781.9406044840937,858,73.26579788541922
1782.8582038957936,830,66.10477116986134
1783.9349787156455,839,57.32221236320614
1785.1147493878311,896,52.75210044747211
1786.2757935414106,962,52.43459766040411
1787.3712948798689,924,54.900398526204974
1788.4012534032056,858,57.270922349821426
1789.4218486672391,820,58.79228987118895
1790.4330806719697,801,58.445536624435704
1791.4817657139124,783,58.09244959244959
1792.5210874965521,783,56.72846491812009
1793.6072255757074,924,56.559691213948156
1794.665273876953,1084,58.89220554646249
1795.5922365479562,1188,61.838412443014214
1796.5285624782623,660,64.29575757575758
1797.4648884085684,509,62.6826168224299
1798.4667571539958,1103,59.73640992587818
1799.5528952331508,1037,56.790203029326456
1800.6390333123059,1028,56.790203029326456
1801.6409020577335,1018,57.79459174405999
1802.67086058107,1056,58.97712891584107
1803.6914558451037,1047,59.16545548963758
1804.6839613312281,1094,61.54319203880271
1805.601560742928,1066,62.888038234161584
1806.5566131918404,933,63.2755563763967
1807.5303921593586,943,63.96384853536555
1808.4199017931494,943,67.29539933750459
1809.2438686118187,1009,70.75693779904306
1810.0771986897912,1094,73.10993657505284
1810.8824389898543,1094,72.30973677485304
1811.7344955864328,1009,69.04760085252295
1812.698911294648,1037,64.17300837262727
1813.7007800400756,1028,60.11866271828162
1814.7307385634124,999,60.52931349209686
1815.6764277530215,924,61.715211521152106
1816.6221169426306,962,63.44554455445544
1817.5678061322396,981,62.25964652540019
1818.5696748776672,896,61.45398881677219
1819.5528171044887,830,63.52286526963487
1820.41423696037,839,66.7776397515528
1821.2756568162517,811,69.65217391304348
1822.1370766721334,858,70.70750988142292
1822.9610434908027,971,71.22345191040841
1823.8037368280782,1009,70.72946486137974
1824.6838832025658,1037,67.60525244013762
1825.629572392175,952,64.41038064526583
1826.6033513596933,952,63.482894757293614
1827.5209507713932,952,63.69437990580847
1828.4572767016994,1009,63.118535189776836
1829.4591454471267,990,61.47356021865632
1830.4516509332514,867,61.05473668924455
1831.4067033821634,867,61.630581405276175
1832.3804823496819,867,62.21750208671966
1833.3448980578971,830,61.81478715459296
1834.3186770254154,849,63.072243983478366
1835.2362764371153,886,62.87284144427
1836.2100554046335,952,62.11215768358625
1837.221287409364,981,60.65909645909645
1838.2044296361855,924,61.48063492063492
1839.1407555664916,943,62.64403361344537
1840.0958080154037,1009,62.26379329301813
1841.0976767608313,999,60.86641011544803
1842.099545506259,962,61.72115201220674
1843.0171449179588,981,63.77915374647787
1843.9253810703556,971,66.5399411793671
1844.8055274448434,981,69.01675008474744
1845.6294942635127,924,70.4686590005739
1846.4815508600911,981,70.4686590005739
1847.361697234579,1018,69.16367366333048
1848.2324803497636,990,67.2669037665606
1849.1594430207665,943,65.28136358891135
1850.1238587289818,962,65.03702590874661
1851.0040051034696,1009,64.6097831844742
1851.9496942930787,1009,63.64969688458207
1852.9609262978092,924,60.16953587250617
1854.000248080449,915,60.5967785967786
1854.927210751452,886,62.3947583947584
1855.854173422455,830,64.09269162210339
1856.8092258713673,858,63.25479812401571
1857.7736415795825,886,63.69965910495916
1858.6818777319793,877,65.48188688969009
1859.562024106467,933,68.4773561453535
1860.4047174437426,971,70.45673758865247
1861.2380475217149,886,72.0060606060606
1862.0620143403842,952,72.8244514106583
1862.8766178997505,1018,74.25302283922974
1863.6631316812077,1047,75.7152353255386
1864.4402822033617,933,78.54812657222296
1865.1706164290003,933,79.81955514365151
1865.9196771732452,962,80.78461538461538
1866.6687379174903,971,79.77037037037036
1867.427161921038,915,79.77037037037036
1868.176222665283,886,79.44074074074072
1868.9346466688307,849,78.49894179894179
1869.721160450288,839,76.35066593687283
1870.5357640096543,830,73.19768687085029
1871.397183865536,820,70.492519697598
1872.2773302400235,792,69.1581868640148
1873.1387500959052,783,69.1581868640148
1874.0001699517868,735,69.1581868640148
1874.8803163262744,754,68.66419981498612
1875.7604627007622,754,68.17021276595744
1876.6406090752498,764,68.41455044612216
1877.5113921904344,754,68.41455044612216
1878.3915385649223,764,68.41455044612216
1879.2716849394099,792,67.46742706733932
1880.1799210918068,820,66.5399411793671
1881.0975205035068,867,64.96505177553311
1882.0432096931158,886,63.482894757293614
1883.0169886606343,867,62.835491241431825
1883.9626778502434,867,61.83791978617309
1884.9551833363678,886,60.71764006589337
1885.9851418597045,886,59.72006861063464
1886.977647345829,886,62.053335740724016
1887.8671569796197,877,66.36848725587552
1888.7098503168952,886,69.95087719298243
1889.5525436541707,886,71.46666666666665
1890.385873732143,915,72.0060606060606
1891.2098405508123,924,71.4901185770751
1892.071260406694,952,71.76284584980236
1892.8952272253632,981,72.32732787940067
1893.7004675254266,952,73.66166071298389
1894.5150710847927,999,72.86146091278408
1895.3671276813714,1037,68.96542808104674
1896.3221801302834,999,63.831885761297514
1897.3521386536202,896,60.51030168499646
1898.3446441397446,849,59.72006861063464
1899.337149625869,849,60.84034833091436
1900.3109285933874,839,62.04940493468794
1901.2472545236935,830,65.63179487179485
1902.089947860969,867,69.09333333333333
1902.9232779389413,830,71.46666666666665
1903.7659712762168,811,69.09333333333333
1904.7022972065229,820,67.81673758865247
1905.5824435810105,858,66.10402281202018
1906.4906797334074,962,65.68519928260841
1907.4457321823197,1037,63.69965910495917
1908.410147890535,999,63.69965910495916
1909.3183840429317,999,63.90699748585608
1910.264073232541,981,63.13175023061608
1911.2659419779684,943,61.64959321237658
1912.2397209454866,849,62.521696917592465
1913.1479570978836,839,63.500256565750796
1914.1030095467959,849,62.924411849719164
1915.1048782922232,943,60.147036536261375
1916.144200074863,886,60.147036536261375
1917.0992525237752,915,61.125596184419706
1918.0543049726875,962,62.225210084033606
1919.0374471995087,971,63.76824413976116
1919.9269568332995,915,66.56040100250625
1920.769650170575,952,70.76926799758014
1921.5842537299413,1009,72.28505747126437
1922.4175838079138,981,72.02425161045849
1923.2696404044923,915,70.68991877687529
1924.131060260374,962,67.83843362836043
1925.076749449983,1009,63.609149399076216
1926.1160712326227,1047,60.93021963318992
1927.089850200141,962,60.32016632016631
1928.0636291676594,962,62.0180995475113
1929.0186816165715,990,64.20304226436892
1929.8988279910593,896,66.63232266139124
1930.769611106244,849,68.1753567171188
1931.6591207400347,820,67.47257101850069
1932.5673568924315,839,66.30074745036376
1933.4849563041316,858,66.06653692404797
1934.3838291972254,867,65.62167594310452
1935.3107918682283,952,65.62167594310452
1936.2283912799282,1047,73.03834260977118
1936.9025459497486,981,69.56427994926784
1938.0074105475098,981,75.15297696653629
1938.7377447731485,962,69.7590375725969
1939.561711591818,886,75.65734265734265
1940.3950416697903,877,72.27272727272727
1941.2283717477628,896,70.96774193548387
1942.0991548629474,915,68.32774193548387
1943.0354807932536,924,66.3483604921849
1943.9437169456503,905,65.63061855670102
1944.8425898387443,933,66.06653692404797
1945.7601892504442,924,64.98709483793516
1946.7152416993563,679,64.09709483793517
1947.6515676296624,1113,65.02458072590738
1948.5317140041502,735,65.87932262266608
1949.4493134158502,830,65.66783747415123
1950.3950026054592,839,63.682297296501986
1951.3594183136745,839,63.46213650491262
1952.2863809846774,877,63.88937922918505
1953.2133436556805,943,63.88937922918505
1954.1777593638958,915,63.88937922918505
1955.1047220348987,905,64.56362165342748
1956.0035949279925,924,65.40151515151516
1956.9305575989956,962,64.56362165342748
1957.8949733072109,943,65.5310129577753
1958.7563931630925,886,66.9229973175016
1959.6271762782771,924,102.39565955562117
1959.9829801317933,952,112.0398067128118
1960.5915919864924,971,112.54459224985538
1961.4436485830709,933,77.69406593406592
1962.379974513377,933,68.30505494505493
1963.2320311099554,971,71.53252747252746
1963.9810918542003,933,74.17252747252746
1964.8144219321728,905,74.69999999999999
1965.647752010145,933,72.0
1966.4810820881175,971,71.73333333333332
1967.323775425393,867,71.2058608058608
1968.1758320219715,877,69.92926506117993
1969.0559783964593,971,67.55593172784661
1969.9923043267654,858,64.42626139817628
1970.9754465535866,943,63.27861471861472
1971.9024092245897,858,63.714533085961655
1972.8200086362897,754,64.52019079458967
1973.7656978258988,839,63.88560968942031
1974.720750274811,839,64.57390184838917
1975.6102599086018,839,65.67538699690402
1976.5091328016956,849,66.53012889366272
1977.4267322133956,858,64.78378244501684
1978.3911479216108,886,63.47495891560507
1979.3462003705229,943,62.827555399743275
1980.2918895601322,990,61.86746909985116
1981.3031215648627,933,58.72629262926292
1982.42671268123,924,55.08597449908925
1983.5690303162035,952,54.04503882657463
1984.6364418767523,962,56.02281660435241
1985.647673881483,896,59.45579635362917
1986.602726330395,905,61.66013071895424
1987.5577787793072,924,64.13235294117646
1988.456651672401,971,65.91458072590737
1989.3367980468888,962,66.99402281202018
1990.2450341992856,952,65.08687995487732
1991.228176426107,1018,61.95980597478753
1992.2487716901408,1132,60.28204456094364
1993.231913916962,632,59.35736923626831
1994.2618724402987,518,59.0042822042822
1995.3011942229384,1075,57.56407992868169
1996.3592425241843,1018,58.88376218816978
1997.3236582323996,962,59.058700763108355
1998.3536167557363,962,58.729958939329975
1999.4303915755881,905,56.56600790513833
2000.5071663954402,886,58.29634093844166
2001.4528555850493,915,61.9724278949634
2002.3517284781433,990,64.97427242724272
2003.2786911491462,1028,64.56362165342748
2004.2431068573615,990,63.88937922918505
2005.1700695283644,1037,65.28136358891135
2006.0408526435492,1047,65.90349951124145
2006.977178573855,1066,63.92407221071323
2007.9977738378889,971,60.1995735184726
2009.0370956205286,1037,59.18243066132974
2010.02023784735,1084,58.829343629343626
2011.0595596299897,1084,58.16001342957864
2012.1363344498416,952,57.7797731091514
2013.1382031952692,905,60.33244823325509
2014.055802606969,933,62.69971166036507
2015.0108550558814,971,62.69971166036507
2016.0127238013088,933,61.05473668924455
2017.0052292874332,877,62.13417877535735
2017.9134654398301,943,63.747319528685026
2018.840428110833,1028,63.747319528685026
2019.8329335969577,1047,61.8776443682104
2020.825439083082,990,63.519278096800655
2021.6868589389635,1047,106.19186411233895
2022.0052097552677,1084,120.49253361933835
2022.5857318320575,1009,119.29576087169156
2023.4939679844542,924,79.4399733954107
2024.3647510996389,962,68.20575179653272
2025.2261709555205,1009,68.20575179653272
2026.1344071079175,999,67.48800986104885
2027.0332800010112,915,66.52061855670104
2027.932152894105,933,67.22340425531914
2028.8122992685928,999,66.12191910680428
2029.757988458202,999,64.41038064526583
2030.7317674257204,867,61.46475416772446
2031.7429994304507,905,61.67623931623931
2032.6793253607568,915,61.10039460020768
2033.6811941061844,877,60.05945892769306
2034.7486056667333,867,57.9427021709363
2035.787927449373,915,58.92126181909463
2036.7429798982853,905,60.92228379150137
2037.7073956065005,905,62.41690462592803
2038.6718113147158,886,62.416904625928034
2039.6268637636279,952,63.03904054825813
2040.563189693934,981,62.26379329301813
2041.5650584393616,1018,60.918947097659256
2042.585653703395,943,58.630375669087826
2043.634338745338,1009,59.01061598951507
2044.6174809721592,1075,59.37690253671561
2045.6193497175868,1047,59.37690253671561
2046.6680347595295,962,58.452227212040285
2047.6979932828663,971,59.430786860198616
2048.6530457317785,971,60.70221543162719
2049.6361879585997,962,60.527276856688616
2050.6755097412397,943,59.36387816387816
2051.6867417459703,1009,60.38102102102102
2052.623067676276,1028,61.87564185544768
2053.5874833844914,1056,62.835728155339794
2054.5518990927067,990,63.7257281553398
2055.4507719858007,1009,65.47207460398567
2056.340281619591,1056,64.69682734874569
2057.342150365019,1037,61.8650091669275
2058.3721088883553,962,60.32197511119995
2059.3271613372676,990,61.719358288770046
2060.263487267574,1047,65.2689184060721
2061.1342703827586,1018,68.60046920821114
2061.958237201428,943,71.24046920821114
2062.7915672794,971,70.99613152804642
2063.6717136538878,971,67.46126833298905
2064.636129362103,905,64.40244480357728
2065.5911818110153,896,61.45681832603591
2066.602413815746,1009,59.79038281979458
2067.651098857689,1037,58.09244959244959
2068.6904206403283,962,58.65752895752895
2069.67356286715,943,61.38201875344732
2070.59116227885,877,61.38201875344732
2071.6304840614894,830,68.07713629413448
2072.3701815464315,839,89.87305466148142
2072.828981252281,886,110.18536697379373
2073.3345972546467,971,111.62739229024942
2074.036841702376,962,92.03555555555556
2074.8701717803488,1018,77.60941176470588
2075.6660488211087,1056,73.40213903743314
2076.490015639778,1047,73.67486631016043
2077.3139824584473,990,71.26885880077369
2078.194128832935,924,69.96387346353029
2079.06491194812,1047,69.96387346353029
2079.8888787667893,1716,71.24046920821114
2080.7222088447616,707,72.27272727272727
2081.555538922734,839,73.12941176470588
2082.351415963494,801,74.86435152374202
2083.128566485648,830,76.29292295231346
2083.915080267105,830,76.29292295231345
2084.7109573078656,886,75.39519249560288
2085.5161976079285,877,74.5183452049625
2086.330801167295,830,73.66166071298389
2087.154767985964,839,71.30866193697409
2088.044277619755,839,67.0997949419002
2089.0274198465763,801,63.16992481203007
2090.0105620733975,783,60.83665768194069
2091.003067559522,792,61.032262077545084
2091.9768465270404,801,64.42273826802128
2092.819539864316,811,68.27179487179487
2093.6528699422884,820,72.86274509803921
2094.4487469830487,830,75.17819225251075
2095.2165342458993,896,77.54856262288112
2095.9749582494474,990,78.46793134598012
2096.7427455122984,990,77.25636016050082
2097.5479858123617,999,72.90660834683149
2098.4562219647587,981,69.58123211434577
2099.3363683392463,849,64.89496620824659
2100.3288738253705,839,61.7770025188022
2101.3869221266164,801,57.95625313073969
2102.4449704278622,773,59.38106731027085
2103.3719330988656,764,61.62692729449936
2104.3176222884745,773,62.686889249672625
2105.319491033902,811,61.45398881677219
2106.3026332607233,915,61.88123154104462
2107.2295959317266,886,61.6963924963925
2108.240827936457,999,60.25619022079199
2109.2988762377026,1066,57.58308751229105
2110.3569245389485,1066,58.54317381218317
2111.321340247164,933,59.60313576735644
2112.3232089925914,952,59.771909471528375
2113.3718940345343,1009,59.18498879008489
2114.3643995206585,990,61.706582493970764
2115.2539091544495,933,63.173615461003735
2116.2276881219677,1018,63.56113360323885
2117.201467089486,1066,61.81478715459296
2118.165882797701,1066,62.85208319188901
2119.0928454687046,971,62.091399431205254
2120.104077473435,1009,84.94537208822922
2120.562877179285,1056,99.57300434298011
2121.1153094781653,999,101.15522656520234
2122.0516354084716,896,78.5045663010967
2123.006687857384,981,62.07895424836601
2124.0179198621145,981,59.62160911562265
2125.0759681633604,971,57.25434568851267
2126.152742983212,933,59.497186467435924
2127.060979135609,1018,62.84453160017929
2127.9598520287027,1018,66.75482908301682
2128.8493616624937,943,66.75482908301682
2129.7575978148907,962,67.22823333833597
2130.6377441893783,1018,66.31978038777775
2131.564706860381,1066,63.20181669833336
2132.622755161627,1084,58.73482269942447
2133.7182565000853,915,57.12168194609679
2134.720125245513,905,57.63720889702197
2135.7500837688494,896,57.637208897021964
2136.8455851073077,915,55.776286989846305
2137.950449705069,886,56.32072199409439
2138.952318450496,933,57.48249355586595
2139.982276973833,1066,58.11764074587487
2141.049688534382,1103,57.22645249487354
2142.098373576325,1009,58.34673221515326
2143.072152543843,1037,59.38766788766788
2144.0833845485736,1103,59.05308142150247
2145.1507961091224,1113,57.41727475029757
2146.2088444103683,1009,58.37736105018969
2147.1732601185836,1037,59.2368492201559
2148.193855382617,1075,59.2368492201559
2149.251903683863,1056,59.64749999397114
2150.1975928734723,981,62.30116971874178
2151.096465766566,1018,64.97427242724272
2152.023428437569,1075,65.40151515151516
2152.950391108572,1066,67.15151515151516
2153.7837211865444,971,71.00432900432901
2154.5702349680014,1028,73.98029556650246
2155.3848385273677,1066,73.98029556650246
2156.21816860534,952,73.38893344025661
2157.0234089054034,905,72.30973677485304
2157.875465501982,933,69.4582516263382
2158.821154691591,933,66.41696069135955
2159.738754103291,839,63.482894757293614
2160.7125330708095,792,60.28395973774124
2161.8267609278737,820,55.7138478220072
2162.987805081453,839,53.912228388808835
2164.055216642002,811,56.501110095337594
2165.0289956095203,858,59.42624703995111
2166.021501095645,952,60.65202175711784
2167.023369841072,924,60.45641736151346
2168.0065120678937,981,61.88123154104462
2168.9334747388966,1122,62.65647879628462
2169.897890447112,1169,63.05148573109737
2170.862306155327,1075,62.213592233009706
2171.8267218635424,981,62.213592233009706
2172.7911375717576,999,60.718971398583044
2173.8304593543976,1009,58.555020364391396
2174.9072341742494,990,57.59493406449928
2175.91846617898,933,58.69454796411318
2176.901608405801,971,59.19206349206349
2177.950293447744,971,59.01061598951507
2178.9708887117777,971,58.630375669087826
2179.9727574572053,971,58.630375669087826
2181.021442499148,1047,57.77088749912163
2182.088854059697,1084,58.74944714727996
2183.0439065086093,1018,61.473936943198325
2183.9615059203093,990,63.88560968942031
2184.907195109918,1056,62.90705004126198
2185.9090638553457,1028,62.471131673915046
2186.8453897856516,1009,62.471131673915046
2187.791078975261,1056,64.08427242724272
2188.718041646264,1075,64.74489098394375
2189.626277798661,962,66.0805866587744
2190.515787432452,924,66.0805866587744
2191.4427501034547,952,63.303211345316605
2192.482071886094,1009,59.2327939224491
2193.5682099652495,943,57.4348141244693
2194.57944196998,952,56.605363984674334
2195.665580049135,933,55.99157088122605
2196.7891711655025,915,55.45703634669152
2197.828492948142,896,57.00586006567314
2198.8303616935696,933,58.8021903409025
2199.850956957603,1047,58.295789202922414
2200.918368518152,1094,58.676029523349655
2201.9015107449736,1018,59.42255639097744
2202.884652971795,1094,59.58836915297092
2203.9427012730407,1132,58.66369382829559
2204.9726597963772,1047,58.859298223899984
2205.946438763896,1009,59.5529736318727
2206.9670340279295,1028,58.708704857169145
2208.0438088477813,1075,57.24167189013618
2209.092493889724,990,58.18380315336836
2210.0662728572424,990,59.20622038511946
2211.086868121276,1066,58.871633918954046
2212.154279681825,1037,56.43486729574675
2213.259144279586,981,56.80115384294729
2214.2610130250137,1028,57.66064201291349
2215.281608289047,1084,58.295789202922414
2216.349019849596,1056,57.23582724774915
2217.407068150842,981,58.37736105018969
2218.371483859057,1028,59.98337608778368
2219.354626085879,1075,60.15214979195561
2220.4033111278213,1113,58.48571428571428
2221.4519961697642,1009,58.880721220527036
2222.4164118779795,1028,60.547156726768364
2223.3808275861948,1075,61.4383449777697
2224.3826963316224,1066,59.60313576735644
2225.4407446328682,971,58.82788851211644
2226.442613378296,990,58.643049467464316
2227.4538453830264,1056,59.51817237798546
2228.4650773877565,1056,60.49673202614379
2229.420129836669,971,62.514872615712946
2230.3377292483688,971,63.2755563763967
2231.311508215887,1009,61.57762314905171
2232.350829998527,1066,59.37803505693413
2233.3714252625605,1009,60.1995735184726
2234.307751192867,1018,62.1048451267145
2235.2534403824757,1018,62.286292629262924
2236.2646723872062,962,60.7040704070407
2237.275904391937,924,60.49673202614379
2238.230956840849,981,62.96895424836601
2239.129829733943,1047,64.76693404634581
2240.056792404946,1028,64.16861471861472
2241.039934631767,943,62.65647879628462
2242.0043503399825,952,61.23166461675345
2242.996855826107,1018,59.79146234115295
2244.054904127353,1018,58.12502683491162
2245.1035891692954,962,58.51254497714674
2246.077368136814,905,60.34775418756
2247.0417838450294,933,60.694507434313245
2248.071742368366,990,58.729958939329975
2249.1485171882177,971,58.33495200451721
2250.1316594150394,999,57.653612291598556
2251.1990709755883,1066,57.181394163374534
2252.3039355733495,1056,56.25671883869921
2253.333894096686,981,58.87987673343605
2254.2702200269923,971,60.92912521440823
2255.2627255131165,1037,60.58237196765498
2256.3114105550594,1084,58.29380053908355
2257.3600955970023,990,58.29380053908355
2258.3526010831265,1075,59.76083350611651
2259.3263800506447,1113,60.2857352099173
2260.3469753146787,1037,59.91256959146867
2261.3582073194093,943,60.11197213067703
2262.3226230276246,999,61.25350593311758
2263.28703873584,1056,61.81858529819694
2264.270180962661,1056,61.42357836338418
2265.253323189482,999,62.04571428571428
2266.1896491197886,981,62.04571428571428
2267.1727913466098,1028,61.85380053908355
2268.1652968327344,1018,60.45641736151345
2269.1671655781615,971,61.05473668924455
2270.122218027074,971,62.69971166036507
2271.0398174387738,990,63.88560968942031
2271.985506628383,990,64.52019079458967
2272.912469299386,943,64.74489098394375
2273.820705451783,990,63.37415391023639
2274.8319374565135,999,58.8863963344788
2276.002344869396,1009,54.37397449908926
2277.1446625043695,962,53.33303882657463
2278.2120740649184,924,53.753235547886106
2279.354391699892,952,53.8979313885581
2280.487346075562,933,54.404332526538184
2281.526667858202,915,58.25613580522671
2282.462993788508,1018,61.54441971383147
2283.41804623742,632,61.89750674581759
2284.4386415014537,547,58.951299849265865
2285.524779580609,1150,56.91277824593427
2286.582827881855,1075,58.46496282219006
2287.5285170714637,1150,60.394026861598924
2288.5116592982854,1141,60.394026861598924
2289.5697075995313,1047,57.819425053592035
2290.646482419383,943,57.439184733164794
2291.6483511648107,962,57.60795843733673
2292.697036206753,1028,57.290455650268726
2293.7925375452114,1094,56.57108207108206
2294.8318593278514,1066,57.27743127743127
2295.843091332582,952,56.970600852953794
2296.957319189646,990,55.52735760971055
2298.0809103060133,1066,54.32349287541102
2299.157685125865,1084,56.524856439704664
2300.1501906119897,1009,59.2633179781662
2301.123969579508,1056,59.932648177931185
2302.163291362148,1103,58.19549788515305
2303.2494294413027,1047,56.72846491812009
2304.2981144832456,1018,55.43480150680962
2305.41234234031,1122,54.9705882352941
2306.526570197374,1132,54.6360017691287
2307.593981757923,1084,55.42326404245909
2308.6613933184717,999,54.426065162907264
2309.8411639906576,981,53.05507671618069
2310.992844884934,1047,52.892147654395785
2312.069619704786,1094,55.53609697724419
2313.0902149688195,1056,56.74415636218587
2314.166989788672,1122,56.42665357511787
2315.2624911271296,1122,56.07356654313175
2316.3018129097695,1075,55.91344660310177
2317.3879509889243,1075,66.91731031929426
2318.071468918048,679,87.22962263160657
2318.577084920413,509,96.55608926841802
2319.298055886749,1160,107.59770208826811
2319.794308629811,1084,86.29855678912281
2320.889809968269,1028,88.6428040911166
2321.5546013787866,1084,89.41784037558683
2322.0414908625457,1103,88.96143011917658
2323.165081978913,1047,77.29071618037133
2324.251220058068,1094,55.99157088122605
2325.2624520627987,688,56.447981137636305
2326.3579534012565,509,56.13588294944227
2327.4628179990177,1226,54.30768500359726
2328.577045856082,1103,56.789138824856906
2329.541461564297,1160,58.83838730582909
2330.533967050422,1132,59.79146234115295
2331.5920153516677,1094,57.62751130696131
2332.6687901715195,1018,57.819425053592035
2333.651932398341,1103,57.98819875776397
2334.7006174402836,1113,67.15454545454546
2335.4215884066193,1122,91.3116883116883
2335.8710248531665,971,100.34552289815448
2336.582632560199,999,116.19709989258861
2337.041432266049,1066,90.43394199785175
2338.108843826598,1084,79.9815714019405
2339.2417982022685,990,54.0426272292301
2340.3747525779386,1056,53.40748003922118
2341.4796171757,1179,55.532365255015485
2342.4908491804304,1179,57.122715936275256
2343.53017096307,1075,57.4348141244693
2344.616309042225,1141,56.72846491812009
2345.664994084168,1141,57.262999452654626
2346.6762260888986,1113,57.262999452654626
2347.7623641680534,1018,55.557424539762636
2348.91404506233,1047,55.022890005228106
2349.95336684497,1094,55.51175176903646
2351.0114151462158,1056,55.945898110499876
2352.135006262583,1018,54.210851588568104
2353.2773238975565,1094,54.55143996455472
2354.316645680196,1160,54.40433252653819
2355.4496000558665,1047,54.549028367210184
2356.5825544315367,1066,53.10578512396694
2357.706145547904,1132,56.19075663965337
2358.670561256119,1150,60.787864077669894
2359.569434149213,1047,63.92904054825813
2360.5244865981253,1141,60.416982922201136
2361.685530751705,1141,56.42339317861139
2362.781032090163,1132,63.962216708023156
2363.4832765378924,971,84.87926739926739
2364.007619058864,905,92.9932275132275
2364.766043062412,962,101.98691172375382
2365.2997488426863,1169,90.88202926444099
2366.039446327628,1103,105.58858197099369
2366.526335811387,707,85.34070421208028
2367.6873799649666,528,75.25511048091693
2368.8671506371525,764,51.97818740399385
2369.9907417535196,537,52.260577673692424
2371.133059388493,1235,54.72637853949329
2372.1630179118297,1169,54.72637853949328
2373.286609028197,660,54.17056277056276
2374.4663797003827,528,61.45238095238094
2375.2154404446273,1132,84.72930402930402
2375.702329928387,1150,84.86492307692305
2376.8727373412694,1037,77.94270085470083
2377.883969346,1132,55.439690821256036
2378.960744165852,641,57.423119392684605
2380.0094292077947,547,56.716770186335395
2381.0581142497376,1245,59.291371994342285
2382.0038034393465,1179,71.17646516204414
2382.649868331258,1018,92.4069233830684
2383.14612107432,1084,102.6701732374656
2383.782822706928,1056,107.31365149833518
2384.344618265112,1056,84.81176470588234
2385.468209381479,952,74.13786407766989
2386.4326250896943,1150,58.688807473896304
2387.425130575819,641,58.99050238915055
2388.52999517358,566,56.82655135495891
2389.606769993432,1132,57.214069497194025
2390.58054896095,971,57.214069497194025
2391.6854135587114,999,55.32765645371577
2392.8839107495032,1113,52.297391636565706
2394.026228384477,1084,53.61387853949329
2395.0561869078133,981,54.87595837142605
2396.1704147648775,1113,55.317341482047354
