2022-12-15 17:13:46.429010, 1.86217
2022-12-15 17:13:46.429254, 1.84750
2022-12-15 17:13:46.430256, 1.82306
2022-12-15 17:13:46.463049, 1.82306
2022-12-15 17:13:46.463049, 1.77419
2022-12-15 17:13:46.464034, 1.77419
2022-12-15 17:13:46.496618, 1.73998
2022-12-15 17:13:46.496618, 1.71065
2022-12-15 17:13:46.530216, 1.69599
2022-12-15 17:13:46.530216, 1.68132
2022-12-15 17:13:46.531217, 1.66666
2022-12-15 17:13:46.563518, 1.66177
2022-12-15 17:13:46.564250, 1.61779
2022-12-15 17:13:46.564559, 1.60801
2022-12-15 17:13:46.597052, 1.59335
2022-12-15 17:13:46.597880, 1.56402
2022-12-15 17:13:46.630637, 1.56402
2022-12-15 17:13:46.631668, 1.56402
2022-12-15 17:13:46.631908, 1.53958
2022-12-15 17:13:46.664046, 1.51026
2022-12-15 17:13:46.664269, 1.50537
2022-12-15 17:13:46.664269, 1.50048
2022-12-15 17:13:46.697465, 1.49071
2022-12-15 17:13:46.697881, 1.47116
2022-12-15 17:13:46.731069, 1.46627
2022-12-15 17:13:46.731069, 1.46138
2022-12-15 17:13:46.732065, 1.46138
2022-12-15 17:13:46.763821, 1.46138
2022-12-15 17:13:46.764819, 1.42717
2022-12-15 17:13:46.764819, 1.41739
2022-12-15 17:13:46.798163, 1.41739
2022-12-15 17:13:46.798512, 1.39296
2022-12-15 17:13:46.830656, 1.38318
2022-12-15 17:13:46.831643, 1.37829
2022-12-15 17:13:46.831643, 1.37829
2022-12-15 17:13:46.865176, 1.36363
2022-12-15 17:13:46.865514, 1.36363
2022-12-15 17:13:46.866114, 1.35874
2022-12-15 17:13:46.898462, 1.33919
2022-12-15 17:13:46.898810, 1.32453
2022-12-15 17:13:46.931300, 1.31476
2022-12-15 17:13:46.932307, 1.30987
2022-12-15 17:13:46.933304, 1.30987
2022-12-15 17:13:46.965219, 1.30009
2022-12-15 17:13:46.965219, 1.28054
2022-12-15 17:13:46.966215, 1.27565
2022-12-15 17:13:46.999204, 1.27077
2022-12-15 17:13:47.000206, 1.27077
2022-12-15 17:13:47.033082, 1.28543
2022-12-15 17:13:47.033321, 1.30987
2022-12-15 17:13:47.033910, 1.36852
2022-12-15 17:13:47.066454, 1.43206
2022-12-15 17:13:47.066746, 1.50048
2022-12-15 17:13:47.067324, 1.57869
2022-12-15 17:13:47.099484, 1.65689
2022-12-15 17:13:47.099484, 1.72043
2022-12-15 17:13:47.132395, 1.80351
2022-12-15 17:13:47.133392, 1.82795
2022-12-15 17:13:47.133392, 1.88172
2022-12-15 17:13:47.166304, 1.91593
2022-12-15 17:13:47.166304, 1.93548
2022-12-15 17:13:47.167302, 1.95014
2022-12-15 17:13:47.200214, 1.96969
2022-12-15 17:13:47.200214, 1.97458
2022-12-15 17:13:47.233131, 1.97458
2022-12-15 17:13:47.234123, 1.97458
2022-12-15 17:13:47.234123, 1.99902
2022-12-15 17:13:47.267034, 1.98435
2022-12-15 17:13:47.267034, 1.97947
2022-12-15 17:13:47.268033, 1.95992
2022-12-15 17:13:47.299947, 1.96969
2022-12-15 17:13:47.300945, 1.94525
2022-12-15 17:13:47.334296, 1.94525
2022-12-15 17:13:47.334296, 1.92570
2022-12-15 17:13:47.335306, 1.95503
2022-12-15 17:13:47.367885, 1.93059
2022-12-15 17:13:47.368185, 1.93548
2022-12-15 17:13:47.368185, 1.93548
2022-12-15 17:13:47.401796, 1.95014
2022-12-15 17:13:47.401796, 1.95503
2022-12-15 17:13:47.435403, 1.94525
2022-12-15 17:13:47.435403, 1.94525
2022-12-15 17:13:47.436411, 1.95014
2022-12-15 17:13:47.468400, 1.95503
2022-12-15 17:13:47.468400, 1.92570
2022-12-15 17:13:47.469487, 1.91593
2022-12-15 17:13:47.502189, 1.90127
2022-12-15 17:13:47.502594, 1.89149
2022-12-15 17:13:47.536169, 1.86217
2022-12-15 17:13:47.536410, 1.83773
2022-12-15 17:13:47.536410, 1.81818
2022-12-15 17:13:47.569049, 1.80840
2022-12-15 17:13:47.569600, 1.77419
2022-12-15 17:13:47.570172, 1.75464
2022-12-15 17:13:47.602862, 1.73998
2022-12-15 17:13:47.602862, 1.74486
2022-12-15 17:13:47.636163, 1.69110
2022-12-15 17:13:47.636163, 1.67155
2022-12-15 17:13:47.636163, 1.66177
2022-12-15 17:13:47.669746, 1.65200
2022-12-15 17:13:47.669746, 1.64711
2022-12-15 17:13:47.670744, 1.60801
2022-12-15 17:13:47.703558, 1.59335
2022-12-15 17:13:47.703558, 1.58357
2022-12-15 17:13:47.737215, 1.56402
2022-12-15 17:13:47.737215, 1.55425
2022-12-15 17:13:47.738149, 1.55425
2022-12-15 17:13:47.770742, 1.56891
2022-12-15 17:13:47.771066, 1.52981
2022-12-15 17:13:47.772068, 1.51026
2022-12-15 17:13:47.803835, 1.50048
2022-12-15 17:13:47.804153, 1.50048
2022-12-15 17:13:47.837829, 1.48582
2022-12-15 17:13:47.838072, 1.47605
2022-12-15 17:13:47.839072, 1.46627
2022-12-15 17:13:47.871457, 1.48093
2022-12-15 17:13:47.871854, 1.45161
2022-12-15 17:13:47.872317, 1.43206
2022-12-15 17:13:47.904858, 1.42228
2022-12-15 17:13:47.905300, 1.42717
2022-12-15 17:13:47.938485, 1.42717
2022-12-15 17:13:47.938814, 1.40273
2022-12-15 17:13:47.939275, 1.38318
2022-12-15 17:13:47.971999, 1.38318
2022-12-15 17:13:47.973006, 1.37341
2022-12-15 17:13:47.973006, 1.35874
2022-12-15 17:13:48.004930, 1.34408
2022-12-15 17:13:48.004930, 1.34408
2022-12-15 17:13:48.037560, 1.33431
2022-12-15 17:13:48.038557, 1.31964
2022-12-15 17:13:48.039555, 1.31964
2022-12-15 17:13:48.071633, 1.32453
2022-12-15 17:13:48.072630, 1.32453
2022-12-15 17:13:48.072630, 1.28543
2022-12-15 17:13:48.105541, 1.29032
2022-12-15 17:13:48.105541, 1.30987
2022-12-15 17:13:48.138455, 1.35386
2022-12-15 17:13:48.139451, 1.39296
2022-12-15 17:13:48.139451, 1.46627
2022-12-15 17:13:48.172045, 1.56402
2022-12-15 17:13:48.173046, 1.61290
2022-12-15 17:13:48.173046, 1.67155
2022-12-15 17:13:48.206398, 1.73020
2022-12-15 17:13:48.206398, 1.78885
2022-12-15 17:13:48.238959, 1.84750
2022-12-15 17:13:48.239822, 1.89149
2022-12-15 17:13:48.240828, 1.89149
2022-12-15 17:13:48.272452, 1.91593
2022-12-15 17:13:48.273447, 1.93059
2022-12-15 17:13:48.273447, 1.92570
2022-12-15 17:13:48.306768, 1.92082
2022-12-15 17:13:48.307169, 1.92570
2022-12-15 17:13:48.339921, 1.92570
2022-12-15 17:13:48.340882, 1.91104
2022-12-15 17:13:48.341003, 1.89149
2022-12-15 17:13:48.373353, 1.90127
2022-12-15 17:13:48.374315, 1.87194
2022-12-15 17:13:48.374600, 1.85728
2022-12-15 17:13:48.407102, 1.83284
2022-12-15 17:13:48.407102, 1.82795
2022-12-15 17:13:48.441004, 1.83773
2022-12-15 17:13:48.441361, 1.83773
2022-12-15 17:13:48.441817, 1.83773
2022-12-15 17:13:48.474395, 1.84261
2022-12-15 17:13:48.474803, 1.86217
2022-12-15 17:13:48.475160, 1.87683
2022-12-15 17:13:48.507830, 1.86217
2022-12-15 17:13:48.507830, 1.87194
2022-12-15 17:13:48.541092, 1.88172
2022-12-15 17:13:48.541092, 1.89149
2022-12-15 17:13:48.542047, 1.85239
2022-12-15 17:13:48.575007, 1.86705
2022-12-15 17:13:48.575278, 1.83773
2022-12-15 17:13:48.575731, 1.81818
2022-12-15 17:13:48.609049, 1.79374
2022-12-15 17:13:48.609399, 1.76930
2022-12-15 17:13:48.642517, 1.75464
2022-12-15 17:13:48.642757, 1.74486
2022-12-15 17:13:48.643390, 1.70087
2022-12-15 17:13:48.676127, 1.71554
2022-12-15 17:13:48.676420, 1.67155
2022-12-15 17:13:48.677013, 1.65689
2022-12-15 17:13:48.709509, 1.63245
2022-12-15 17:13:48.709858, 1.63245
2022-12-15 17:13:48.743199, 1.60312
2022-12-15 17:13:48.743439, 1.58846
2022-12-15 17:13:48.744075, 1.56402
2022-12-15 17:13:48.776592, 1.54936
2022-12-15 17:13:48.776887, 1.54447
2022-12-15 17:13:48.777352, 1.54936
2022-12-15 17:13:48.810295, 1.50537
2022-12-15 17:13:48.810650, 1.49560
2022-12-15 17:13:48.843696, 1.48582
2022-12-15 17:13:48.844208, 1.48582
2022-12-15 17:13:48.844208, 1.46627
2022-12-15 17:13:48.875972, 1.46627
2022-12-15 17:13:48.877048, 1.46138
2022-12-15 17:13:48.877513, 1.44672
2022-12-15 17:13:48.910771, 1.42717
2022-12-15 17:13:48.911120, 1.42228
2022-12-15 17:13:48.944343, 1.41739
2022-12-15 17:13:48.944585, 1.41251
2022-12-15 17:13:48.945142, 1.39784
2022-12-15 17:13:48.977867, 1.39784
2022-12-15 17:13:48.978164, 1.37829
2022-12-15 17:13:48.978806, 1.37829
2022-12-15 17:13:49.011353, 1.36363
2022-12-15 17:13:49.011702, 1.35386
2022-12-15 17:13:49.045068, 1.34897
2022-12-15 17:13:49.045357, 1.35386
2022-12-15 17:13:49.045823, 1.36363
2022-12-15 17:13:49.078504, 1.31964
2022-12-15 17:13:49.078800, 1.31476
2022-12-15 17:13:49.079392, 1.31476
2022-12-15 17:13:49.112026, 1.30009
2022-12-15 17:13:49.112026, 1.29521
2022-12-15 17:13:49.145025, 1.28543
2022-12-15 17:13:49.145246, 1.29032
2022-12-15 17:13:49.145246, 1.30009
2022-12-15 17:13:49.179014, 1.32942
2022-12-15 17:13:49.179307, 1.38318
2022-12-15 17:13:49.179895, 1.46138
2022-12-15 17:13:49.212604, 1.52492
2022-12-15 17:13:49.212959, 1.59335
2022-12-15 17:13:49.246291, 1.67155
2022-12-15 17:13:49.246533, 1.74975
2022-12-15 17:13:49.247167, 1.81818
2022-12-15 17:13:49.279745, 1.85239
2022-12-15 17:13:49.280041, 1.90615
2022-12-15 17:13:49.280507, 1.95503
2022-12-15 17:13:49.313343, 1.97947
2022-12-15 17:13:49.313343, 2.01368
2022-12-15 17:13:49.346755, 2.00391
2022-12-15 17:13:49.347366, 2.02346
2022-12-15 17:13:49.348369, 2.03323
2022-12-15 17:13:49.379266, 2.02346
2022-12-15 17:13:49.380293, 2.02346
2022-12-15 17:13:49.380293, 2.02346
2022-12-15 17:13:49.413708, 2.01857
2022-12-15 17:13:49.414103, 1.99413
2022-12-15 17:13:49.446149, 1.97947
2022-12-15 17:13:49.447147, 1.97458
2022-12-15 17:13:49.447147, 1.96480
2022-12-15 17:13:49.480874, 1.94525
2022-12-15 17:13:49.480874, 1.94037
2022-12-15 17:13:49.481874, 1.95992
2022-12-15 17:13:49.514403, 1.95014
2022-12-15 17:13:49.514828, 1.94525
2022-12-15 17:13:49.547904, 1.95014
2022-12-15 17:13:49.548295, 1.95992
2022-12-15 17:13:49.548295, 1.98435
2022-12-15 17:13:49.581432, 1.95014
2022-12-15 17:13:49.581935, 1.95503
2022-12-15 17:13:49.581935, 1.94525
2022-12-15 17:13:49.614959, 1.94525
2022-12-15 17:13:49.615578, 1.93548
2022-12-15 17:13:49.648069, 1.90615
2022-12-15 17:13:49.649079, 1.88660
2022-12-15 17:13:49.649079, 1.88660
2022-12-15 17:13:49.681414, 1.84261
2022-12-15 17:13:49.681414, 1.81329
2022-12-15 17:13:49.682410, 1.79374
2022-12-15 17:13:49.715178, 1.77908
2022-12-15 17:13:49.716188, 1.76441
2022-12-15 17:13:49.749004, 1.72043
2022-12-15 17:13:49.749004, 1.70576
2022-12-15 17:13:49.750007, 1.68621
2022-12-15 17:13:49.781987, 1.66177
2022-12-15 17:13:49.781987, 1.64711
2022-12-15 17:13:49.782953, 1.64711
2022-12-15 17:13:49.815447, 1.61290
2022-12-15 17:13:49.816496, 1.59824
2022-12-15 17:13:49.849212, 1.57380
2022-12-15 17:13:49.849843, 1.56402
2022-12-15 17:13:49.850062, 1.55913
2022-12-15 17:13:49.882565, 1.54447
2022-12-15 17:13:49.882565, 1.52003
2022-12-15 17:13:49.882565, 1.51026
2022-12-15 17:13:49.915846, 1.50537
2022-12-15 17:13:49.916834, 1.49071
2022-12-15 17:13:49.949411, 1.47116
2022-12-15 17:13:49.949411, 1.46627
2022-12-15 17:13:49.950412, 1.47605
2022-12-15 17:13:49.983844, 1.47605
2022-12-15 17:13:49.984139, 1.43695
2022-12-15 17:13:49.984139, 1.42717
2022-12-15 17:13:50.016441, 1.42228
2022-12-15 17:13:50.017439, 1.40762
2022-12-15 17:13:50.050913, 1.40273
2022-12-15 17:13:50.051155, 1.41251
2022-12-15 17:13:50.051713, 1.38318
2022-12-15 17:13:50.084386, 1.37341
2022-12-15 17:13:50.084680, 1.35386
2022-12-15 17:13:50.085138, 1.34897
2022-12-15 17:13:50.118017, 1.35874
2022-12-15 17:13:50.118401, 1.35874
2022-12-15 17:13:50.151393, 1.31964
2022-12-15 17:13:50.151393, 1.31476
2022-12-15 17:13:50.152395, 1.31476
2022-12-15 17:13:50.184356, 1.30498
2022-12-15 17:13:50.184356, 1.29032
2022-12-15 17:13:50.185353, 1.28543
2022-12-15 17:13:50.218430, 1.29521
2022-12-15 17:13:50.218779, 1.28543
2022-12-15 17:13:50.252013, 1.26099
2022-12-15 17:13:50.252252, 1.25610
2022-12-15 17:13:50.252252, 1.26099
2022-12-15 17:13:50.285009, 1.27565
2022-12-15 17:13:50.285009, 1.30498
2022-12-15 17:13:50.286010, 1.35874
2022-12-15 17:13:50.318422, 1.43206
2022-12-15 17:13:50.319422, 1.51515
2022-12-15 17:13:50.352681, 1.58846
2022-12-15 17:13:50.352955, 1.66666
2022-12-15 17:13:50.353471, 1.73020
2022-12-15 17:13:50.385949, 1.80351
2022-12-15 17:13:50.386952, 1.85239
2022-12-15 17:13:50.386952, 1.90127
2022-12-15 17:13:50.419363, 1.94525
2022-12-15 17:13:50.419717, 1.96969
2022-12-15 17:13:50.453362, 1.98435
2022-12-15 17:13:50.453602, 1.98435
2022-12-15 17:13:50.454221, 1.99413
2022-12-15 17:13:50.486294, 2.00391
2022-12-15 17:13:50.487296, 1.99902
2022-12-15 17:13:50.487585, 1.98924
2022-12-15 17:13:50.520334, 1.97947
2022-12-15 17:13:50.520693, 1.97947
2022-12-15 17:13:50.553858, 1.95992
2022-12-15 17:13:50.553858, 1.93548
2022-12-15 17:13:50.554868, 1.92570
2022-12-15 17:13:50.586699, 1.92570
2022-12-15 17:13:50.587701, 1.91104
2022-12-15 17:13:50.587701, 1.90127
2022-12-15 17:13:50.620826, 1.90615
2022-12-15 17:13:50.620826, 1.92082
2022-12-15 17:13:50.653862, 1.93548
2022-12-15 17:13:50.653862, 1.92570
2022-12-15 17:13:50.653862, 1.93548
2022-12-15 17:13:50.687310, 1.94525
2022-12-15 17:13:50.687649, 1.95014
2022-12-15 17:13:50.688021, 1.93548
2022-12-15 17:13:50.721470, 1.93548
2022-12-15 17:13:50.721470, 1.93059
2022-12-15 17:13:50.754511, 1.92082
2022-12-15 17:13:50.754828, 1.89638
2022-12-15 17:13:50.755422, 1.87194
2022-12-15 17:13:50.788421, 1.86705
2022-12-15 17:13:50.788717, 1.84261
2022-12-15 17:13:50.788717, 1.80840
2022-12-15 17:13:50.821497, 1.79863
2022-12-15 17:13:50.821497, 1.76441
2022-12-15 17:13:50.855417, 1.74975
2022-12-15 17:13:50.855900, 1.71554
2022-12-15 17:13:50.856481, 1.70576
2022-12-15 17:13:50.889015, 1.68132
2022-12-15 17:13:50.889337, 1.67155
2022-12-15 17:13:50.889337, 1.64222
2022-12-15 17:13:50.922396, 1.62267
2022-12-15 17:13:50.923338, 1.61290
2022-12-15 17:13:50.955599, 1.60801
2022-12-15 17:13:50.955896, 1.57869
2022-12-15 17:13:50.955896, 1.56402
2022-12-15 17:13:50.989673, 1.55425
2022-12-15 17:13:50.990675, 1.54447
2022-12-15 17:13:50.990675, 1.52492
2022-12-15 17:13:51.023152, 1.51515
2022-12-15 17:13:51.024154, 1.52981
2022-12-15 17:13:51.056495, 1.50048
2022-12-15 17:13:51.056495, 1.48093
2022-12-15 17:13:51.057497, 1.47116
2022-12-15 17:13:51.089852, 1.46627
2022-12-15 17:13:51.090295, 1.46627
2022-12-15 17:13:51.090765, 1.44672
2022-12-15 17:13:51.123435, 1.45650
2022-12-15 17:13:51.123435, 1.42228
2022-12-15 17:13:51.156434, 1.42228
2022-12-15 17:13:51.157434, 1.41251
2022-12-15 17:13:51.157434, 1.39296
2022-12-15 17:13:51.189894, 1.39296
2022-12-15 17:13:51.190896, 1.39784
2022-12-15 17:13:51.190896, 1.38807
2022-12-15 17:13:51.223533, 1.35874
2022-12-15 17:13:51.224529, 1.35386
2022-12-15 17:13:51.256578, 1.34408
2022-12-15 17:13:51.257586, 1.33431
2022-12-15 17:13:51.258185, 1.31964
2022-12-15 17:13:51.291033, 1.31964
2022-12-15 17:13:51.291453, 1.31476
2022-12-15 17:13:51.291923, 1.31964
2022-12-15 17:13:51.324295, 1.31476
2022-12-15 17:13:51.324295, 1.33919
2022-12-15 17:13:51.358425, 1.39296
2022-12-15 17:13:51.358665, 1.46138
2022-12-15 17:13:51.359131, 1.54936
2022-12-15 17:13:51.391070, 1.59824
2022-12-15 17:13:51.392068, 1.68132
2022-12-15 17:13:51.392068, 1.75464
2022-12-15 17:13:51.425770, 1.80351
2022-12-15 17:13:51.429740, 1.86705
2022-12-15 17:13:51.458663, 1.91593
2022-12-15 17:13:51.461660, 1.95014
2022-12-15 17:13:51.462654, 1.96969
2022-12-15 17:13:51.491577, 1.97458
2022-12-15 17:13:51.495571, 1.99902
2022-12-15 17:13:51.497559, 1.99902
2022-12-15 17:13:51.525492, 2.00879
2022-12-15 17:13:51.526488, 1.97458
2022-12-15 17:13:51.559467, 1.96969
2022-12-15 17:13:51.559467, 1.95992
2022-12-15 17:13:51.560476, 1.93548
2022-12-15 17:13:51.592690, 1.91593
2022-12-15 17:13:51.593703, 1.90127
2022-12-15 17:13:51.593703, 1.89638
2022-12-15 17:13:51.626363, 1.87194
2022-12-15 17:13:51.627356, 1.86705
2022-12-15 17:13:51.660007, 1.87194
2022-12-15 17:13:51.660337, 1.88660
2022-12-15 17:13:51.660782, 1.87683
2022-12-15 17:13:51.693952, 1.90127
2022-12-15 17:13:51.694250, 1.89638
2022-12-15 17:13:51.694843, 1.91104
2022-12-15 17:13:51.727317, 1.90615
2022-12-15 17:13:51.727668, 1.90127
2022-12-15 17:13:51.760846, 1.93059
2022-12-15 17:13:51.761087, 1.91104
2022-12-15 17:13:51.761639, 1.90127
2022-12-15 17:13:51.794398, 1.87194
2022-12-15 17:13:51.794693, 1.87194
2022-12-15 17:13:51.795157, 1.84750
2022-12-15 17:13:51.828108, 1.82306
2022-12-15 17:13:51.828461, 1.79374
2022-12-15 17:13:51.861442, 1.77908
2022-12-15 17:13:51.862097, 1.75953
2022-12-15 17:13:51.862097, 1.73998
2022-12-15 17:13:51.894594, 1.73020
2022-12-15 17:13:51.894861, 1.69110
2022-12-15 17:13:51.895350, 1.68132
2022-12-15 17:13:51.928585, 1.66177
2022-12-15 17:13:51.928931, 1.64222
2022-12-15 17:13:51.962298, 1.61779
2022-12-15 17:13:51.962591, 1.60312
2022-12-15 17:13:51.963187, 1.58846
2022-12-15 17:13:51.995636, 1.56402
2022-12-15 17:13:51.995933, 1.56402
2022-12-15 17:13:51.996482, 1.56891
2022-12-15 17:13:52.029317, 1.53958
2022-12-15 17:13:52.029669, 1.52003
2022-12-15 17:13:52.062740, 1.51026
2022-12-15 17:13:52.062740, 1.50537
2022-12-15 17:13:52.063772, 1.49560
2022-12-15 17:13:52.096294, 1.47605
2022-12-15 17:13:52.096294, 1.48093
2022-12-15 17:13:52.097296, 1.46627
2022-12-15 17:13:52.129123, 1.46138
2022-12-15 17:13:52.130130, 1.44183
2022-12-15 17:13:52.163322, 1.43206
2022-12-15 17:13:52.163564, 1.43695
2022-12-15 17:13:52.164174, 1.43206
2022-12-15 17:13:52.196976, 1.44183
2022-12-15 17:13:52.197270, 1.40273
2022-12-15 17:13:52.197270, 1.39784
2022-12-15 17:13:52.230438, 1.39296
2022-12-15 17:13:52.230786, 1.37341
2022-12-15 17:13:52.263960, 1.36852
2022-12-15 17:13:52.264203, 1.36363
2022-12-15 17:13:52.264760, 1.36363
2022-12-15 17:13:52.297527, 1.35386
2022-12-15 17:13:52.297527, 1.33431
2022-12-15 17:13:52.298528, 1.33431
2022-12-15 17:13:52.331056, 1.34408
2022-12-15 17:13:52.331056, 1.35386
2022-12-15 17:13:52.364573, 1.39296
2022-12-15 17:13:52.364573, 1.47116
2022-12-15 17:13:52.365511, 1.54447
2022-12-15 17:13:52.397119, 1.59824
2022-12-15 17:13:52.398126, 1.68132
2022-12-15 17:13:52.398126, 1.76930
2022-12-15 17:13:52.431403, 1.85239
2022-12-15 17:13:52.431403, 1.91593
2022-12-15 17:13:52.465078, 1.98435
2022-12-15 17:13:52.465078, 2.03323
2022-12-15 17:13:52.466079, 2.05278
2022-12-15 17:13:52.498598, 2.07233
2022-12-15 17:13:52.499053, 2.07722
2022-12-15 17:13:52.499530, 2.09188
2022-12-15 17:13:52.532165, 2.10654
2022-12-15 17:13:52.532575, 2.10166
2022-12-15 17:13:52.565791, 2.11632
2022-12-15 17:13:52.566256, 2.08699
2022-12-15 17:13:52.566256, 2.11143
2022-12-15 17:13:52.599236, 2.07233
2022-12-15 17:13:52.599236, 2.05278
2022-12-15 17:13:52.600245, 2.03323
2022-12-15 17:13:52.632797, 2.03323
2022-12-15 17:13:52.633841, 2.01368
2022-12-15 17:13:52.665206, 1.99413
2022-12-15 17:13:52.666214, 2.00391
2022-12-15 17:13:52.666214, 1.99902
2022-12-15 17:13:52.699418, 2.00391
2022-12-15 17:13:52.699418, 1.99413
2022-12-15 17:13:52.699418, 1.99413
2022-12-15 17:13:52.733294, 2.00391
2022-12-15 17:13:52.733294, 2.00391
2022-12-15 17:13:52.766349, 1.98435
2022-12-15 17:13:52.766349, 1.97947
2022-12-15 17:13:52.767364, 1.99902
2022-12-15 17:13:52.800445, 1.95992
2022-12-15 17:13:52.800741, 1.93548
2022-12-15 17:13:52.801321, 1.91593
2022-12-15 17:13:52.833574, 1.90615
2022-12-15 17:13:52.833574, 1.88172
2022-12-15 17:13:52.867504, 1.84261
2022-12-15 17:13:52.867744, 1.82306
2022-12-15 17:13:52.868342, 1.79863
2022-12-15 17:13:52.900919, 1.77908
2022-12-15 17:13:52.901246, 1.73998
2022-12-15 17:13:52.901246, 1.73020
2022-12-15 17:13:52.935081, 1.72531
2022-12-15 17:13:52.935081, 1.69110
2022-12-15 17:13:52.966967, 1.66177
2022-12-15 17:13:52.967968, 1.63734
2022-12-15 17:13:52.968275, 1.62756
2022-12-15 17:13:53.001174, 1.61290
2022-12-15 17:13:53.001480, 1.58846
2022-12-15 17:13:53.001937, 1.58357
2022-12-15 17:13:53.035216, 1.56402
2022-12-15 17:13:53.035567, 1.55425
2022-12-15 17:13:53.068105, 1.53470
2022-12-15 17:13:53.068105, 1.51515
2022-12-15 17:13:53.069154, 1.50537
2022-12-15 17:13:53.102063, 1.50537
2022-12-15 17:13:53.102358, 1.50048
2022-12-15 17:13:53.102358, 1.47116
2022-12-15 17:13:53.135776, 1.46627
2022-12-15 17:13:53.136129, 1.46138
2022-12-15 17:13:53.169389, 1.44672
2022-12-15 17:13:53.169678, 1.45161
2022-12-15 17:13:53.170229, 1.42228
2022-12-15 17:13:53.202642, 1.41739
2022-12-15 17:13:53.202642, 1.40273
2022-12-15 17:13:53.203644, 1.38807
2022-12-15 17:13:53.235857, 1.38807
2022-12-15 17:13:53.235857, 1.37829
2022-12-15 17:13:53.269793, 1.36363
2022-12-15 17:13:53.270063, 1.34897
2022-12-15 17:13:53.270728, 1.33919
2022-12-15 17:13:53.303449, 1.34408
2022-12-15 17:13:53.303777, 1.35386
2022-12-15 17:13:53.304388, 1.30987
2022-12-15 17:13:53.336924, 1.30009
2022-12-15 17:13:53.337305, 1.29521
2022-12-15 17:13:53.370378, 1.29521
2022-12-15 17:13:53.370618, 1.27565
2022-12-15 17:13:53.370618, 1.28054
2022-12-15 17:13:53.403954, 1.30498
2022-12-15 17:13:53.404247, 1.34408
2022-12-15 17:13:53.404717, 1.39296
2022-12-15 17:13:53.437565, 1.47116
2022-12-15 17:13:53.437943, 1.56402
2022-12-15 17:13:53.470943, 1.63245
2022-12-15 17:13:53.471359, 1.69110
2022-12-15 17:13:53.472375, 1.75953
2022-12-15 17:13:53.504033, 1.82306
2022-12-15 17:13:53.504033, 1.87194
2022-12-15 17:13:53.505030, 1.90127
2022-12-15 17:13:53.537622, 1.92082
2022-12-15 17:13:53.537942, 1.94525
2022-12-15 17:13:53.571659, 1.98924
2022-12-15 17:13:53.571898, 1.95503
2022-12-15 17:13:53.572496, 1.96969
2022-12-15 17:13:53.605103, 1.96480
2022-12-15 17:13:53.605103, 1.99902
2022-12-15 17:13:53.606037, 1.95503
2022-12-15 17:13:53.638825, 1.94525
2022-12-15 17:13:53.639236, 1.94037
2022-12-15 17:13:53.672245, 1.93059
2022-12-15 17:13:53.672487, 1.90615
2022-12-15 17:13:53.672949, 1.89149
2022-12-15 17:13:53.705832, 1.88660
2022-12-15 17:13:53.706153, 1.89638
2022-12-15 17:13:53.706822, 1.87683
2022-12-15 17:13:53.739367, 1.88172
2022-12-15 17:13:53.739763, 1.90127
2022-12-15 17:13:53.772737, 1.90127
2022-12-15 17:13:53.772737, 1.89149
2022-12-15 17:13:53.773769, 1.89149
2022-12-15 17:13:53.805650, 1.89638
2022-12-15 17:13:53.805650, 1.90615
2022-12-15 17:13:53.806474, 1.89149
2022-12-15 17:13:53.839953, 1.87683
2022-12-15 17:13:53.840300, 1.86217
2022-12-15 17:13:53.872591, 1.86217
2022-12-15 17:13:53.872591, 1.82795
2022-12-15 17:13:53.873591, 1.79863
2022-12-15 17:13:53.905720, 1.77908
2022-12-15 17:13:53.906724, 1.78396
2022-12-15 17:13:53.906724, 1.73998
2022-12-15 17:13:53.940563, 1.71554
2022-12-15 17:13:53.940563, 1.69110
2022-12-15 17:13:53.974154, 1.68132
2022-12-15 17:13:53.974408, 1.66177
2022-12-15 17:13:53.974917, 1.64222
2022-12-15 17:13:54.007697, 1.61290
2022-12-15 17:13:54.008024, 1.60312
2022-12-15 17:13:54.008661, 1.58357
2022-12-15 17:13:54.041147, 1.56402
2022-12-15 17:13:54.041147, 1.54936
2022-12-15 17:13:54.073655, 1.54936
2022-12-15 17:13:54.074661, 1.54936
2022-12-15 17:13:54.074661, 1.50048
2022-12-15 17:13:54.106841, 1.49071
2022-12-15 17:13:54.107808, 1.48093
2022-12-15 17:13:54.107808, 1.47116
2022-12-15 17:13:54.141016, 1.45650
2022-12-15 17:13:54.142018, 1.44672
2022-12-15 17:13:54.174523, 1.44672
2022-12-15 17:13:54.174523, 1.46138
2022-12-15 17:13:54.175525, 1.41739
2022-12-15 17:13:54.207877, 1.41251
2022-12-15 17:13:54.208881, 1.40273
2022-12-15 17:13:54.208881, 1.40273
2022-12-15 17:13:54.242238, 1.38318
2022-12-15 17:13:54.242626, 1.37341
2022-12-15 17:13:54.275665, 1.38318
2022-12-15 17:13:54.275906, 1.36852
2022-12-15 17:13:54.275906, 1.36363
2022-12-15 17:13:54.309133, 1.33431
2022-12-15 17:13:54.309427, 1.32942
2022-12-15 17:13:54.309427, 1.32453
2022-12-15 17:13:54.342618, 1.30498
2022-12-15 17:13:54.343289, 1.30009
2022-12-15 17:13:54.376246, 1.33919
2022-12-15 17:13:54.376487, 1.33919
2022-12-15 17:13:54.376487, 1.36852
2022-12-15 17:13:54.409404, 1.42228
2022-12-15 17:13:54.409404, 1.48582
2022-12-15 17:13:54.410393, 1.56891
2022-12-15 17:13:54.442474, 1.63734
2022-12-15 17:13:54.443431, 1.67644
2022-12-15 17:13:54.476536, 1.73509
2022-12-15 17:13:54.476909, 1.78396
2022-12-15 17:13:54.477360, 1.82306
2022-12-15 17:13:54.510037, 1.87194
2022-12-15 17:13:54.510416, 1.87194
2022-12-15 17:13:54.510877, 1.89638
2022-12-15 17:13:54.543998, 1.92570
2022-12-15 17:13:54.544387, 1.89638
2022-12-15 17:13:54.577495, 1.93059
2022-12-15 17:13:54.577736, 1.91104
2022-12-15 17:13:54.577736, 1.91104
2022-12-15 17:13:54.611045, 1.88172
2022-12-15 17:13:54.612049, 1.87194
2022-12-15 17:13:54.612049, 1.86705
2022-12-15 17:13:54.644537, 1.84750
2022-12-15 17:13:54.644885, 1.82795
2022-12-15 17:13:54.678115, 1.81818
2022-12-15 17:13:54.678355, 1.82795
2022-12-15 17:13:54.678910, 1.82306
2022-12-15 17:13:54.711660, 1.81818
2022-12-15 17:13:54.711984, 1.81818
2022-12-15 17:13:54.712645, 1.83284
2022-12-15 17:13:54.745177, 1.83284
2022-12-15 17:13:54.745524, 1.82795
2022-12-15 17:13:54.778822, 1.86217
2022-12-15 17:13:54.779060, 1.83773
2022-12-15 17:13:54.779655, 1.84261
2022-12-15 17:13:54.812345, 1.81818
2022-12-15 17:13:54.812642, 1.81329
2022-12-15 17:13:54.813229, 1.80351
2022-12-15 17:13:54.845801, 1.79374
2022-12-15 17:13:54.846151, 1.75953
2022-12-15 17:13:54.879339, 1.73998
2022-12-15 17:13:54.879579, 1.73020
2022-12-15 17:13:54.879579, 1.71065
2022-12-15 17:13:54.913173, 1.67644
2022-12-15 17:13:54.913173, 1.66666
2022-12-15 17:13:54.914176, 1.64222
2022-12-15 17:13:54.946032, 1.62756
2022-12-15 17:13:54.946032, 1.60312
2022-12-15 17:13:54.979917, 1.61290
2022-12-15 17:13:54.980158, 1.57380
2022-12-15 17:13:54.980711, 1.56891
2022-12-15 17:13:55.013501, 1.53958
2022-12-15 17:13:55.013798, 1.52492
2022-12-15 17:13:55.014348, 1.52003
2022-12-15 17:13:55.047139, 1.51026
2022-12-15 17:13:55.047488, 1.48582
2022-12-15 17:13:55.080596, 1.47605
2022-12-15 17:13:55.080863, 1.46138
2022-12-15 17:13:55.081429, 1.45650
2022-12-15 17:13:55.114117, 1.44672
2022-12-15 17:13:55.114411, 1.45650
2022-12-15 17:13:55.114411, 1.42228
2022-12-15 17:13:55.147596, 1.42228
2022-12-15 17:13:55.147596, 1.40762
2022-12-15 17:13:55.181209, 1.39296
2022-12-15 17:13:55.181209, 1.40273
2022-12-15 17:13:55.182215, 1.38807
2022-12-15 17:13:55.214283, 1.37341
2022-12-15 17:13:55.214283, 1.36363
2022-12-15 17:13:55.214283, 1.35386
2022-12-15 17:13:55.247813, 1.35874
2022-12-15 17:13:55.248297, 1.36363
2022-12-15 17:13:55.281710, 1.32942
2022-12-15 17:13:55.281948, 1.32453
2022-12-15 17:13:55.282539, 1.31964
2022-12-15 17:13:55.315445, 1.30987
2022-12-15 17:13:55.315445, 1.29521
2022-12-15 17:13:55.316445, 1.30498
2022-12-15 17:13:55.349041, 1.34408
2022-12-15 17:13:55.349433, 1.34408
2022-12-15 17:13:55.382304, 1.38318
2022-12-15 17:13:55.382304, 1.44672
2022-12-15 17:13:55.383041, 1.52492
2022-12-15 17:13:55.415837, 1.59335
2022-12-15 17:13:55.416738, 1.65200
2022-12-15 17:13:55.416738, 1.72531
2022-12-15 17:13:55.449683, 1.79374
2022-12-15 17:13:55.450689, 1.85239
2022-12-15 17:13:55.482371, 1.89638
2022-12-15 17:13:55.482371, 1.95503
2022-12-15 17:13:55.483366, 1.96480
2022-12-15 17:13:55.516281, 1.98924
2022-12-15 17:13:55.516769, 2.01368
2022-12-15 17:13:55.517265, 1.99902
2022-12-15 17:13:55.549826, 2.04301
2022-12-15 17:13:55.549826, 2.02346
2022-12-15 17:13:55.583413, 2.03812
2022-12-15 17:13:55.583413, 2.00879
2022-12-15 17:13:55.584242, 2.03323
2022-12-15 17:13:55.617024, 2.00391
2022-12-15 17:13:55.617024, 1.98435
2022-12-15 17:13:55.618074, 1.96480
2022-12-15 17:13:55.650336, 1.96969
2022-12-15 17:13:55.650873, 1.95992
2022-12-15 17:13:55.683549, 1.94525
2022-12-15 17:13:55.683549, 1.94037
2022-12-15 17:13:55.684556, 1.94525
2022-12-15 17:13:55.716968, 1.95503
2022-12-15 17:13:55.717975, 1.94525
2022-12-15 17:13:55.717975, 1.96969
2022-12-15 17:13:55.750346, 1.94525
2022-12-15 17:13:55.751344, 1.95503
2022-12-15 17:13:55.784548, 1.93548
2022-12-15 17:13:55.784786, 1.92082
2022-12-15 17:13:55.785379, 1.91104
2022-12-15 17:13:55.818080, 1.90127
2022-12-15 17:13:55.818404, 1.87194
2022-12-15 17:13:55.818404, 1.84750
2022-12-15 17:13:55.851668, 1.83284
2022-12-15 17:13:55.852050, 1.81329
2022-12-15 17:13:55.885210, 1.78396
2022-12-15 17:13:55.885450, 1.76441
2022-12-15 17:13:55.886047, 1.73509
2022-12-15 17:13:55.918675, 1.72043
2022-12-15 17:13:55.919021, 1.70087
2022-12-15 17:13:55.919535, 1.67644
2022-12-15 17:13:55.952315, 1.65200
2022-12-15 17:13:55.952663, 1.64222
2022-12-15 17:13:55.985613, 1.61779
2022-12-15 17:13:55.985613, 1.59335
2022-12-15 17:13:55.986634, 1.57869
2022-12-15 17:13:56.018879, 1.57380
2022-12-15 17:13:56.018879, 1.57380
2022-12-15 17:13:56.019877, 1.53470
2022-12-15 17:13:56.052875, 1.52003
2022-12-15 17:13:56.053225, 1.51515
2022-12-15 17:13:56.086342, 1.50048
2022-12-15 17:13:56.086582, 1.48582
2022-12-15 17:13:56.087183, 1.48093
2022-12-15 17:13:56.119979, 1.48582
2022-12-15 17:13:56.120278, 1.47116
2022-12-15 17:13:56.120278, 1.44183
2022-12-15 17:13:56.153444, 1.43206
2022-12-15 17:13:56.153790, 1.42717
2022-12-15 17:13:56.187029, 1.42228
2022-12-15 17:13:56.187267, 1.40273
2022-12-15 17:13:56.187733, 1.41251
2022-12-15 17:13:56.220596, 1.38807
2022-12-15 17:13:56.220928, 1.38318
2022-12-15 17:13:56.221567, 1.36363
2022-12-15 17:13:56.253995, 1.35386
2022-12-15 17:13:56.253995, 1.35386
2022-12-15 17:13:56.286700, 1.34897
2022-12-15 17:13:56.287712, 1.32942
2022-12-15 17:13:56.287712, 1.34408
2022-12-15 17:13:56.320349, 1.30987
2022-12-15 17:13:56.321303, 1.30987
2022-12-15 17:13:56.321303, 1.29521
2022-12-15 17:13:56.354800, 1.28543
2022-12-15 17:13:56.355146, 1.28543
2022-12-15 17:13:56.388346, 1.30009
2022-12-15 17:13:56.388586, 1.33431
2022-12-15 17:13:56.389179, 1.35386
2022-12-15 17:13:56.421915, 1.39784
2022-12-15 17:13:56.422207, 1.47116
2022-12-15 17:13:56.422793, 1.52492
2022-12-15 17:13:56.455247, 1.59335
2022-12-15 17:13:56.455595, 1.67155
2022-12-15 17:13:56.488970, 1.73998
2022-12-15 17:13:56.489208, 1.81329
2022-12-15 17:13:56.489760, 1.84261
2022-12-15 17:13:56.522567, 1.87683
2022-12-15 17:13:56.522899, 1.92082
2022-12-15 17:13:56.522899, 1.93059
2022-12-15 17:13:56.556054, 1.94525
2022-12-15 17:13:56.556054, 1.97458
2022-12-15 17:13:56.589553, 1.97458
2022-12-15 17:13:56.589553, 1.99413
2022-12-15 17:13:56.590554, 1.96480
2022-12-15 17:13:56.623032, 1.96969
2022-12-15 17:13:56.623032, 1.96969
2022-12-15 17:13:56.624064, 1.97458
2022-12-15 17:13:56.655217, 1.93548
2022-12-15 17:13:56.656256, 1.92082
2022-12-15 17:13:56.690103, 1.92570
2022-12-15 17:13:56.690342, 1.90615
2022-12-15 17:13:56.690342, 1.89638
2022-12-15 17:13:56.723591, 1.89638
2022-12-15 17:13:56.723885, 1.90615
2022-12-15 17:13:56.723885, 1.93548
2022-12-15 17:13:56.757254, 1.90127
2022-12-15 17:13:56.757603, 1.91593
2022-12-15 17:13:56.789945, 1.91593
2022-12-15 17:13:56.790383, 1.91593
2022-12-15 17:13:56.790850, 1.92570
2022-12-15 17:13:56.824207, 1.89149
2022-12-15 17:13:56.824503, 1.89149
2022-12-15 17:13:56.824503, 1.87194
2022-12-15 17:13:56.857770, 1.85239
2022-12-15 17:13:56.858121, 1.83284
2022-12-15 17:13:56.891367, 1.81818
2022-12-15 17:13:56.891367, 1.80840
2022-12-15 17:13:56.892402, 1.76930
2022-12-15 17:13:56.924876, 1.74486
2022-12-15 17:13:56.925909, 1.73998
2022-12-15 17:13:56.925909, 1.71554
2022-12-15 17:13:56.957180, 1.67644
2022-12-15 17:13:56.958156, 1.66666
2022-12-15 17:13:56.991538, 1.64711
2022-12-15 17:13:56.991538, 1.63734
2022-12-15 17:13:56.992538, 1.60801
2022-12-15 17:13:57.025274, 1.58846
2022-12-15 17:13:57.026279, 1.57869
2022-12-15 17:13:57.026279, 1.56891
2022-12-15 17:13:57.058791, 1.54447
2022-12-15 17:13:57.059796, 1.55425
2022-12-15 17:13:57.092249, 1.51515
2022-12-15 17:13:57.092249, 1.51026
2022-12-15 17:13:57.093251, 1.49071
2022-12-15 17:13:57.125638, 1.47116
2022-12-15 17:13:57.126641, 1.46627
2022-12-15 17:13:57.126641, 1.46627
2022-12-15 17:13:57.158871, 1.45650
2022-12-15 17:13:57.158871, 1.43695
2022-12-15 17:13:57.192492, 1.42717
2022-12-15 17:13:57.192735, 1.42717
2022-12-15 17:13:57.193196, 1.41251
2022-12-15 17:13:57.226139, 1.40762
2022-12-15 17:13:57.226434, 1.39296
2022-12-15 17:13:57.226434, 1.38807
2022-12-15 17:13:57.259845, 1.37341
2022-12-15 17:13:57.259845, 1.35874
2022-12-15 17:13:57.292424, 1.35386
2022-12-15 17:13:57.293455, 1.34897
2022-12-15 17:13:57.293455, 1.34897
2022-12-15 17:13:57.326614, 1.34897
2022-12-15 17:13:57.326614, 1.31476
2022-12-15 17:13:57.326614, 1.31964
2022-12-15 17:13:57.360200, 1.32453
2022-12-15 17:13:57.360618, 1.33431
2022-12-15 17:13:57.393832, 1.36852
2022-12-15 17:13:57.394157, 1.42717
2022-12-15 17:13:57.394608, 1.48582
2022-12-15 17:13:57.427382, 1.54936
2022-12-15 17:13:57.427758, 1.60801
2022-12-15 17:13:57.427758, 1.68132
2022-12-15 17:13:57.460904, 1.74486
2022-12-15 17:13:57.461331, 1.78885
2022-12-15 17:13:57.494261, 1.83773
2022-12-15 17:13:57.494483, 1.90615
2022-12-15 17:13:57.494942, 1.90615
2022-12-15 17:13:57.527967, 1.90615
2022-12-15 17:13:57.528245, 1.94525
2022-12-15 17:13:57.528832, 1.93059
2022-12-15 17:13:57.560893, 1.93059
2022-12-15 17:13:57.561866, 1.92570
2022-12-15 17:13:57.595350, 1.91593
2022-12-15 17:13:57.595590, 1.90615
2022-12-15 17:13:57.596172, 1.89638
2022-12-15 17:13:57.628847, 1.87194
2022-12-15 17:13:57.628847, 1.85239
2022-12-15 17:13:57.629848, 1.86217
2022-12-15 17:13:57.662300, 1.83773
2022-12-15 17:13:57.663308, 1.82306
2022-12-15 17:13:57.695861, 1.81818
2022-12-15 17:13:57.696150, 1.82306
2022-12-15 17:13:57.696747, 1.82795
2022-12-15 17:13:57.729481, 1.81818
2022-12-15 17:13:57.729777, 1.82795
2022-12-15 17:13:57.729777, 1.82795
2022-12-15 17:13:57.763132, 1.83773
2022-12-15 17:13:57.763485, 1.83284
2022-12-15 17:13:57.796552, 1.82306
2022-12-15 17:13:57.796793, 1.81818
2022-12-15 17:13:57.797398, 1.84261
2022-12-15 17:13:57.830103, 1.79374
2022-12-15 17:13:57.830400, 1.77419
2022-12-15 17:13:57.830998, 1.77908
2022-12-15 17:13:57.863555, 1.74975
2022-12-15 17:13:57.863555, 1.72043
2022-12-15 17:13:57.897177, 1.69599
2022-12-15 17:13:57.897419, 1.67644
2022-12-15 17:13:57.897886, 1.66666
2022-12-15 17:13:57.930722, 1.64711
2022-12-15 17:13:57.931019, 1.61779
2022-12-15 17:13:57.931019, 1.59824
2022-12-15 17:13:57.964417, 1.59335
2022-12-15 17:13:57.964808, 1.57869
2022-12-15 17:13:57.997755, 1.56891
2022-12-15 17:13:57.997996, 1.53470
2022-12-15 17:13:57.998593, 1.52492
2022-12-15 17:13:58.031476, 1.50537
2022-12-15 17:13:58.031797, 1.48582
2022-12-15 17:13:58.031797, 1.47605
2022-12-15 17:13:58.064698, 1.47605
2022-12-15 17:13:58.064698, 1.48582
2022-12-15 17:13:58.097888, 1.43695
2022-12-15 17:13:58.098106, 1.43206
2022-12-15 17:13:58.098607, 1.42717
2022-12-15 17:13:58.131443, 1.41739
2022-12-15 17:13:58.131443, 1.40762
2022-12-15 17:13:58.132441, 1.39784
2022-12-15 17:13:58.165412, 1.40762
2022-12-15 17:13:58.165763, 1.38318
2022-12-15 17:13:58.199090, 1.36852
2022-12-15 17:13:58.199331, 1.36363
2022-12-15 17:13:58.199331, 1.35874
2022-12-15 17:13:58.232553, 1.35874
2022-12-15 17:13:58.232885, 1.35874
2022-12-15 17:13:58.232885, 1.32942
2022-12-15 17:13:58.266167, 1.32453
2022-12-15 17:13:58.266518, 1.31964
2022-12-15 17:13:58.299467, 1.30498
2022-12-15 17:13:58.299467, 1.30009
2022-12-15 17:13:58.300368, 1.30009
2022-12-15 17:13:58.333086, 1.32453
2022-12-15 17:13:58.333817, 1.30009
2022-12-15 17:13:58.333817, 1.32942
2022-12-15 17:13:58.366557, 1.37829
2022-12-15 17:13:58.367582, 1.44183
2022-12-15 17:13:58.398808, 1.50048
2022-12-15 17:13:58.399824, 1.57380
2022-12-15 17:13:58.399824, 1.67644
2022-12-15 17:13:58.433481, 1.72531
2022-12-15 17:13:58.433968, 1.77908
2022-12-15 17:13:58.433968, 1.83773
2022-12-15 17:13:58.467074, 1.89638
2022-12-15 17:13:58.467472, 1.96480
2022-12-15 17:13:58.500680, 1.96969
2022-12-15 17:13:58.500957, 1.97947
2022-12-15 17:13:58.500957, 1.99413
2022-12-15 17:13:58.534428, 2.01368
2022-12-15 17:13:58.534428, 2.00879
2022-12-15 17:13:58.535045, 2.00391
2022-12-15 17:13:58.567873, 2.00391
2022-12-15 17:13:58.568278, 2.00391
2022-12-15 17:13:58.601319, 1.98435
2022-12-15 17:13:58.601610, 1.96480
2022-12-15 17:13:58.602119, 1.95503
2022-12-15 17:13:58.634342, 1.95503
2022-12-15 17:13:58.634342, 1.93548
2022-12-15 17:13:58.635348, 1.91593
2022-12-15 17:13:58.668430, 1.91593
2022-12-15 17:13:58.669440, 1.92082
2022-12-15 17:13:58.701014, 1.91593
2022-12-15 17:13:58.702169, 1.90615
2022-12-15 17:13:58.702816, 1.91104
2022-12-15 17:13:58.735376, 1.91593
2022-12-15 17:13:58.735376, 1.91104
2022-12-15 17:13:58.736377, 1.90127
2022-12-15 17:13:58.768536, 1.90127
2022-12-15 17:13:58.768887, 1.91104
2022-12-15 17:13:58.802376, 1.88172
2022-12-15 17:13:58.802615, 1.85728
2022-12-15 17:13:58.803213, 1.86217
2022-12-15 17:13:58.835931, 1.82795
2022-12-15 17:13:58.836278, 1.80840
2022-12-15 17:13:58.836278, 1.77419
2022-12-15 17:13:58.869522, 1.75464
2022-12-15 17:13:58.869876, 1.73509
2022-12-15 17:13:58.902896, 1.72531
2022-12-15 17:13:58.902896, 1.68621
2022-12-15 17:13:58.903899, 1.66666
2022-12-15 17:13:58.935763, 1.65200
2022-12-15 17:13:58.936373, 1.64222
2022-12-15 17:13:58.936373, 1.61290
2022-12-15 17:13:58.969147, 1.60801
2022-12-15 17:13:58.970148, 1.57380
2022-12-15 17:13:59.003212, 1.56402
2022-12-15 17:13:59.003573, 1.53470
2022-12-15 17:13:59.004079, 1.52003
2022-12-15 17:13:59.037250, 1.51515
2022-12-15 17:13:59.037250, 1.52003
2022-12-15 17:13:59.038251, 1.50048
2022-12-15 17:13:59.070896, 1.47116
2022-12-15 17:13:59.071285, 1.46627
2022-12-15 17:13:59.103461, 1.45650
2022-12-15 17:13:59.104428, 1.43695
2022-12-15 17:13:59.104428, 1.42717
2022-12-15 17:13:59.137794, 1.42228
2022-12-15 17:13:59.138114, 1.43695
2022-12-15 17:13:59.138114, 1.39784
2022-12-15 17:13:59.171426, 1.38318
2022-12-15 17:13:59.171426, 1.37829
2022-12-15 17:13:59.204868, 1.37341
2022-12-15 17:13:59.205659, 1.35874
2022-12-15 17:13:59.205659, 1.35386
2022-12-15 17:13:59.237097, 1.34408
2022-12-15 17:13:59.238098, 1.33919
2022-12-15 17:13:59.238098, 1.31964
2022-12-15 17:13:59.271873, 1.30498
2022-12-15 17:13:59.272227, 1.29521
2022-12-15 17:13:59.305436, 1.30009
2022-12-15 17:13:59.305675, 1.29032
2022-12-15 17:13:59.306268, 1.29521
2022-12-15 17:13:59.338940, 1.27077
2022-12-15 17:13:59.339235, 1.27077
2022-12-15 17:13:59.339235, 1.26588
2022-12-15 17:13:59.372532, 1.26099
2022-12-15 17:13:59.372878, 1.28054
2022-12-15 17:13:59.406102, 1.33431
2022-12-15 17:13:59.406368, 1.39784
2022-12-15 17:13:59.407020, 1.45650
2022-12-15 17:13:59.439607, 1.51515
2022-12-15 17:13:59.439607, 1.59824
2022-12-15 17:13:59.440608, 1.67155
2022-12-15 17:13:59.473156, 1.73020
2022-12-15 17:13:59.473816, 1.79374
2022-12-15 17:13:59.505318, 1.85728
2022-12-15 17:13:59.506383, 1.91593
2022-12-15 17:13:59.506383, 1.92082
2022-12-15 17:13:59.540175, 1.95014
2022-12-15 17:13:59.540468, 1.96969
2022-12-15 17:13:59.540468, 2.00391
2022-12-15 17:13:59.573769, 1.96969
2022-12-15 17:13:59.574146, 1.96969
2022-12-15 17:13:59.607256, 1.97458
2022-12-15 17:13:59.607498, 1.96969
2022-12-15 17:13:59.607498, 1.95014
2022-12-15 17:13:59.640837, 1.93548
2022-12-15 17:13:59.641166, 1.93059
2022-12-15 17:13:59.641731, 1.91593
2022-12-15 17:13:59.674318, 1.89149
2022-12-15 17:13:59.674716, 1.88172
2022-12-15 17:13:59.707766, 1.87683
2022-12-15 17:13:59.708809, 1.88660
2022-12-15 17:13:59.708809, 1.86705
2022-12-15 17:13:59.740789, 1.86705
2022-12-15 17:13:59.740789, 1.87194
2022-12-15 17:13:59.741818, 1.88660
2022-12-15 17:13:59.774178, 1.87194
2022-12-15 17:13:59.774829, 1.87683
2022-12-15 17:13:59.808030, 1.90615
2022-12-15 17:13:59.808246, 1.88172
2022-12-15 17:13:59.808635, 1.86705
2022-12-15 17:13:59.842057, 1.85239
2022-12-15 17:13:59.842352, 1.84261
2022-12-15 17:13:59.842352, 1.83284
2022-12-15 17:13:59.875619, 1.80351
2022-12-15 17:13:59.875972, 1.77908
2022-12-15 17:13:59.909025, 1.76930
2022-12-15 17:13:59.909265, 1.74486
2022-12-15 17:13:59.910299, 1.71554
2022-12-15 17:13:59.942602, 1.71554
2022-12-15 17:13:59.942602, 1.67155
2022-12-15 17:13:59.943521, 1.66177
2022-12-15 17:13:59.976079, 1.63734
2022-12-15 17:13:59.976535, 1.61290
2022-12-15 17:14:00.009634, 1.60312
2022-12-15 17:14:00.009964, 1.60801
2022-12-15 17:14:00.009964, 1.59335
2022-12-15 17:14:00.043245, 1.54936
2022-12-15 17:14:00.043631, 1.53470
2022-12-15 17:14:00.043631, 1.52492
2022-12-15 17:14:00.076639, 1.51026
2022-12-15 17:14:00.077130, 1.49071
2022-12-15 17:14:00.109923, 1.48582
2022-12-15 17:14:00.109923, 1.47605
2022-12-15 17:14:00.110927, 1.46627
2022-12-15 17:14:00.143284, 1.46138
2022-12-15 17:14:00.143284, 1.43695
2022-12-15 17:14:00.144282, 1.43206
2022-12-15 17:14:00.177011, 1.42228
2022-12-15 17:14:00.177011, 1.40273
2022-12-15 17:14:00.209584, 1.39296
2022-12-15 17:14:00.210583, 1.39296
2022-12-15 17:14:00.210583, 1.38807
2022-12-15 17:14:00.244412, 1.38318
2022-12-15 17:14:00.244707, 1.35874
2022-12-15 17:14:00.244707, 1.35874
2022-12-15 17:14:00.277952, 1.34408
2022-12-15 17:14:00.278345, 1.32942
2022-12-15 17:14:00.311286, 1.32942
2022-12-15 17:14:00.311286, 1.32453
2022-12-15 17:14:00.312218, 1.31964
2022-12-15 17:14:00.344601, 1.32453
2022-12-15 17:14:00.344601, 1.29032
2022-12-15 17:14:00.345598, 1.29521
2022-12-15 17:14:00.378157, 1.30987
2022-12-15 17:14:00.378525, 1.32942
2022-12-15 17:14:00.411671, 1.38318
2022-12-15 17:14:00.411992, 1.44672
2022-12-15 17:14:00.412384, 1.51515
2022-12-15 17:14:00.445196, 1.57380
2022-12-15 17:14:00.445612, 1.63734
2022-12-15 17:14:00.446066, 1.70576
2022-12-15 17:14:00.478707, 1.77419
2022-12-15 17:14:00.478707, 1.82306
2022-12-15 17:14:00.512376, 1.84750
2022-12-15 17:14:00.512376, 1.88172
2022-12-15 17:14:00.513379, 1.91104
2022-12-15 17:14:00.545663, 1.91104
2022-12-15 17:14:00.545663, 1.91104
2022-12-15 17:14:00.546664, 1.91104
2022-12-15 17:14:00.579003, 1.91593
2022-12-15 17:14:00.580005, 1.89638
2022-12-15 17:14:00.613069, 1.90127
2022-12-15 17:14:00.613311, 1.86217
2022-12-15 17:14:00.613906, 1.85239
2022-12-15 17:14:00.646623, 1.82795
2022-12-15 17:14:00.646919, 1.82795
2022-12-15 17:14:00.646919, 1.79374
2022-12-15 17:14:00.680282, 1.79374
2022-12-15 17:14:00.680634, 1.78396
2022-12-15 17:14:00.713807, 1.77419
2022-12-15 17:14:00.714047, 1.78396
2022-12-15 17:14:00.714638, 1.79374
2022-12-15 17:14:00.747342, 1.79374
2022-12-15 17:14:00.747636, 1.80351
2022-12-15 17:14:00.747636, 1.80840
2022-12-15 17:14:00.780747, 1.81818
2022-12-15 17:14:00.781101, 1.83284
2022-12-15 17:14:00.814420, 1.80840
2022-12-15 17:14:00.814661, 1.79863
2022-12-15 17:14:00.815219, 1.81818
2022-12-15 17:14:00.847712, 1.77908
2022-12-15 17:14:00.848407, 1.75464
2022-12-15 17:14:00.848407, 1.74975
2022-12-15 17:14:00.880633, 1.73509
2022-12-15 17:14:00.880633, 1.71065
2022-12-15 17:14:00.914880, 1.67644
2022-12-15 17:14:00.915120, 1.65689
2022-12-15 17:14:00.915672, 1.65200
2022-12-15 17:14:00.948456, 1.65689
2022-12-15 17:14:00.948752, 1.60312
2022-12-15 17:14:00.948752, 1.58357
2022-12-15 17:14:00.982134, 1.58357
2022-12-15 17:14:00.982488, 1.56402
2022-12-15 17:14:01.015599, 1.53470
2022-12-15 17:14:01.015841, 1.52003
2022-12-15 17:14:01.016440, 1.51026
2022-12-15 17:14:01.049207, 1.50537
2022-12-15 17:14:01.049503, 1.47605
2022-12-15 17:14:01.049503, 1.46627
2022-12-15 17:14:01.082653, 1.46138
2022-12-15 17:14:01.083006, 1.45161
2022-12-15 17:14:01.116197, 1.43206
2022-12-15 17:14:01.116438, 1.42717
2022-12-15 17:14:01.116438, 1.42717
2022-12-15 17:14:01.149689, 1.42717
2022-12-15 17:14:01.150013, 1.39784
2022-12-15 17:14:01.150013, 1.38807
2022-12-15 17:14:01.183395, 1.38318
2022-12-15 17:14:01.183395, 1.38318
2022-12-15 17:14:01.216313, 1.36363
2022-12-15 17:14:01.216554, 1.35874
2022-12-15 17:14:01.217156, 1.35874
2022-12-15 17:14:01.249641, 1.36852
2022-12-15 17:14:01.249641, 1.33919
2022-12-15 17:14:01.250645, 1.32453
2022-12-15 17:14:01.283667, 1.32453
2022-12-15 17:14:01.284439, 1.31964
2022-12-15 17:14:01.317280, 1.31476
2022-12-15 17:14:01.317974, 1.33919
2022-12-15 17:14:01.318406, 1.32942
2022-12-15 17:14:01.350935, 1.37341
2022-12-15 17:14:01.351568, 1.42228
2022-12-15 17:14:01.351568, 1.48582
2022-12-15 17:14:01.384358, 1.56402
2022-12-15 17:14:01.385175, 1.65689
2022-12-15 17:14:01.417876, 1.72531
2022-12-15 17:14:01.418180, 1.78396
2022-12-15 17:14:01.418180, 1.85239
2022-12-15 17:14:01.451457, 1.91593
2022-12-15 17:14:01.451855, 1.95503
2022-12-15 17:14:01.451855, 1.97458
2022-12-15 17:14:01.485051, 2.00391
2022-12-15 17:14:01.485473, 2.03323
2022-12-15 17:14:01.518654, 2.02834
2022-12-15 17:14:01.518654, 2.02346
2022-12-15 17:14:01.519672, 2.02834
2022-12-15 17:14:01.551672, 2.03323
2022-12-15 17:14:01.551944, 2.02834
2022-12-15 17:14:01.552390, 1.99413
2022-12-15 17:14:01.584990, 1.97947
2022-12-15 17:14:01.585488, 1.96969
2022-12-15 17:14:01.617870, 1.95992
2022-12-15 17:14:01.618820, 1.92570
2022-12-15 17:14:01.618820, 1.92570
2022-12-15 17:14:01.652309, 1.91104
2022-12-15 17:14:01.652671, 1.91593
2022-12-15 17:14:01.652671, 1.89149
2022-12-15 17:14:01.686131, 1.90127
2022-12-15 17:14:01.686483, 1.90615
2022-12-15 17:14:01.719586, 1.91593
2022-12-15 17:14:01.719826, 1.90615
2022-12-15 17:14:01.720292, 1.93059
2022-12-15 17:14:01.752613, 1.91593
2022-12-15 17:14:01.752613, 1.91104
2022-12-15 17:14:01.753718, 1.89638
2022-12-15 17:14:01.786759, 1.88172
2022-12-15 17:14:01.786759, 1.87194
2022-12-15 17:14:01.819387, 1.86705
2022-12-15 17:14:01.819387, 1.83284
2022-12-15 17:14:01.820389, 1.80840
2022-12-15 17:14:01.853407, 1.80840
2022-12-15 17:14:01.853675, 1.77419
2022-12-15 17:14:01.853675, 1.75464
2022-12-15 17:14:01.887403, 1.71554
2022-12-15 17:14:01.887753, 1.70087
2022-12-15 17:14:01.921030, 1.68621
2022-12-15 17:14:01.921304, 1.66666
2022-12-15 17:14:01.921914, 1.63245
2022-12-15 17:14:01.954466, 1.61779
2022-12-15 17:14:01.954761, 1.60801
2022-12-15 17:14:01.954761, 1.57869
2022-12-15 17:14:01.988080, 1.56891
2022-12-15 17:14:01.988469, 1.54936
2022-12-15 17:14:02.021561, 1.53958
2022-12-15 17:14:02.021802, 1.52003
2022-12-15 17:14:02.022393, 1.50048
2022-12-15 17:14:02.054882, 1.48582
2022-12-15 17:14:02.055912, 1.48582
2022-12-15 17:14:02.055912, 1.48582
2022-12-15 17:14:02.088443, 1.45161
2022-12-15 17:14:02.088794, 1.44183
2022-12-15 17:14:02.122013, 1.44183
2022-12-15 17:14:02.122253, 1.43206
2022-12-15 17:14:02.122253, 1.41739
2022-12-15 17:14:02.155553, 1.42228
2022-12-15 17:14:02.155847, 1.40762
2022-12-15 17:14:02.156442, 1.39784
2022-12-15 17:14:02.189147, 1.38318
2022-12-15 17:14:02.189494, 1.37341
2022-12-15 17:14:02.222629, 1.37341
2022-12-15 17:14:02.222871, 1.35874
2022-12-15 17:14:02.223341, 1.34897
2022-12-15 17:14:02.256357, 1.34408
2022-12-15 17:14:02.256357, 1.34408
2022-12-15 17:14:02.257360, 1.34897
2022-12-15 17:14:02.289784, 1.30987
2022-12-15 17:14:02.290181, 1.30498
2022-12-15 17:14:02.323589, 1.30009
2022-12-15 17:14:02.323589, 1.29521
2022-12-15 17:14:02.324593, 1.28543
2022-12-15 17:14:02.356271, 1.30987
2022-12-15 17:14:02.356271, 1.36363
2022-12-15 17:14:02.357269, 1.42717
2022-12-15 17:14:02.390335, 1.47605
2022-12-15 17:14:02.390716, 1.55425
2022-12-15 17:14:02.423855, 1.63734
2022-12-15 17:14:02.424224, 1.72043
2022-12-15 17:14:02.424224, 1.77908
2022-12-15 17:14:02.457447, 1.84261
2022-12-15 17:14:02.457740, 1.90615
2022-12-15 17:14:02.457740, 1.98435
2022-12-15 17:14:02.490976, 2.00391
2022-12-15 17:14:02.491326, 1.99902
2022-12-15 17:14:02.524544, 2.01368
2022-12-15 17:14:02.524817, 2.04301
2022-12-15 17:14:02.525485, 2.01857
2022-12-15 17:14:02.557932, 2.02346
2022-12-15 17:14:02.557932, 2.01368
2022-12-15 17:14:02.558946, 2.02346
2022-12-15 17:14:02.590275, 1.99413
2022-12-15 17:14:02.591276, 1.98924
2022-12-15 17:14:02.625120, 1.96480
2022-12-15 17:14:02.625361, 1.96480
2022-12-15 17:14:02.625361, 1.93059
2022-12-15 17:14:02.658624, 1.91593
2022-12-15 17:14:02.658920, 1.91104
2022-12-15 17:14:02.659511, 1.93548
2022-12-15 17:14:02.692357, 1.90127
2022-12-15 17:14:02.692751, 1.89638
2022-12-15 17:14:02.725711, 1.90127
2022-12-15 17:14:02.725950, 1.91593
2022-12-15 17:14:02.726413, 1.90615
2022-12-15 17:14:02.759358, 1.91104
2022-12-15 17:14:02.759652, 1.90615
2022-12-15 17:14:02.759652, 1.90615
2022-12-15 17:14:02.792873, 1.88660
2022-12-15 17:14:02.793223, 1.87683
2022-12-15 17:14:02.826322, 1.85728
2022-12-15 17:14:02.826322, 1.84750
2022-12-15 17:14:02.827242, 1.82795
2022-12-15 17:14:02.859068, 1.79863
2022-12-15 17:14:02.859068, 1.77419
2022-12-15 17:14:02.860088, 1.75953
2022-12-15 17:14:02.893214, 1.73998
2022-12-15 17:14:02.893560, 1.70576
2022-12-15 17:14:02.926911, 1.68621
2022-12-15 17:14:02.927154, 1.67644
2022-12-15 17:14:02.928186, 1.65200
2022-12-15 17:14:02.960441, 1.64711
2022-12-15 17:14:02.960441, 1.60801
2022-12-15 17:14:02.961474, 1.59824
2022-12-15 17:14:02.994039, 1.57869
2022-12-15 17:14:02.994039, 1.56402
2022-12-15 17:14:03.027562, 1.54936
2022-12-15 17:14:03.027829, 1.55913
2022-12-15 17:14:03.028339, 1.52492
2022-12-15 17:14:03.061063, 1.50048
2022-12-15 17:14:03.061063, 1.49071
2022-12-15 17:14:03.062071, 1.48093
2022-12-15 17:14:03.094623, 1.47605
2022-12-15 17:14:03.094623, 1.45650
2022-12-15 17:14:03.128062, 1.45650
2022-12-15 17:14:03.128062, 1.46138
2022-12-15 17:14:03.129064, 1.44183
2022-12-15 17:14:03.160675, 1.42228
2022-12-15 17:14:03.161676, 1.42228
2022-12-15 17:14:03.161676, 1.41739
2022-12-15 17:14:03.194629, 1.40762
2022-12-15 17:14:03.194629, 1.39296
2022-12-15 17:14:03.227870, 1.38807
2022-12-15 17:14:03.228874, 1.39784
2022-12-15 17:14:03.228874, 1.39296
2022-12-15 17:14:03.261259, 1.37341
2022-12-15 17:14:03.262262, 1.35874
2022-12-15 17:14:03.262262, 1.35386
2022-12-15 17:14:03.294631, 1.34897
2022-12-15 17:14:03.295671, 1.33431
2022-12-15 17:14:03.328014, 1.32942
2022-12-15 17:14:03.329018, 1.32453
2022-12-15 17:14:03.329425, 1.32453
2022-12-15 17:14:03.362618, 1.32453
2022-12-15 17:14:03.362912, 1.35386
2022-12-15 17:14:03.363382, 1.36852
2022-12-15 17:14:03.396178, 1.42717
2022-12-15 17:14:03.396566, 1.48093
2022-12-15 17:14:03.429821, 1.54936
2022-12-15 17:14:03.430100, 1.62756
2022-12-15 17:14:03.430100, 1.71554
2022-12-15 17:14:03.463092, 1.76930
2022-12-15 17:14:03.463428, 1.82306
2022-12-15 17:14:03.464431, 1.87194
2022-12-15 17:14:03.496736, 1.92082
2022-12-15 17:14:03.497087, 1.94525
2022-12-15 17:14:03.530315, 1.95503
2022-12-15 17:14:03.530553, 1.96480
2022-12-15 17:14:03.531155, 1.97947
2022-12-15 17:14:03.563992, 1.96969
2022-12-15 17:14:03.564288, 1.95503
2022-12-15 17:14:03.564288, 1.94525
2022-12-15 17:14:03.597387, 1.94525
2022-12-15 17:14:03.597387, 1.92082
2022-12-15 17:14:03.630996, 1.89638
2022-12-15 17:14:03.631235, 1.87194
2022-12-15 17:14:03.631235, 1.86705
2022-12-15 17:14:03.664495, 1.85239
2022-12-15 17:14:03.664787, 1.82795
2022-12-15 17:14:03.665373, 1.83773
2022-12-15 17:14:03.698057, 1.83284
2022-12-15 17:14:03.698409, 1.83773
2022-12-15 17:14:03.731625, 1.84261
2022-12-15 17:14:03.731890, 1.84261
2022-12-15 17:14:03.731890, 1.85728
2022-12-15 17:14:03.765154, 1.86705
2022-12-15 17:14:03.765566, 1.85239
2022-12-15 17:14:03.766570, 1.85728
2022-12-15 17:14:03.798142, 1.87683
2022-12-15 17:14:03.798142, 1.84750
2022-12-15 17:14:03.831720, 1.82306
2022-12-15 17:14:03.832098, 1.82306
2022-12-15 17:14:03.832550, 1.79863
2022-12-15 17:14:03.865642, 1.78396
2022-12-15 17:14:03.866384, 1.77419
2022-12-15 17:14:03.866384, 1.73509
2022-12-15 17:14:03.899332, 1.71554
2022-12-15 17:14:03.899677, 1.70087
2022-12-15 17:14:03.932868, 1.66666
2022-12-15 17:14:03.933108, 1.64222
2022-12-15 17:14:03.933698, 1.63245
2022-12-15 17:14:03.966231, 1.63245
2022-12-15 17:14:03.966231, 1.58846
2022-12-15 17:14:03.967256, 1.57380
2022-12-15 17:14:03.999869, 1.56402
2022-12-15 17:14:04.000223, 1.54936
2022-12-15 17:14:04.033324, 1.52492
2022-12-15 17:14:04.033324, 1.51515
2022-12-15 17:14:04.034325, 1.52981
2022-12-15 17:14:04.066492, 1.49560
2022-12-15 17:14:04.067500, 1.48093
2022-12-15 17:14:04.067777, 1.46138
2022-12-15 17:14:04.100348, 1.45650
2022-12-15 17:14:04.100700, 1.45161
2022-12-15 17:14:04.133901, 1.44183
2022-12-15 17:14:04.134141, 1.43206
2022-12-15 17:14:04.134141, 1.42717
2022-12-15 17:14:04.167348, 1.42717
2022-12-15 17:14:04.167644, 1.43695
2022-12-15 17:14:04.167644, 1.39296
2022-12-15 17:14:04.201097, 1.38807
2022-12-15 17:14:04.201445, 1.38807
2022-12-15 17:14:04.234518, 1.37829
2022-12-15 17:14:04.234518, 1.36852
2022-12-15 17:14:04.235460, 1.35874
2022-12-15 17:14:04.267960, 1.36852
2022-12-15 17:14:04.267960, 1.35386
2022-12-15 17:14:04.268961, 1.33919
2022-12-15 17:14:04.301875, 1.34408
2022-12-15 17:14:04.302105, 1.36852
2022-12-15 17:14:04.335417, 1.39784
2022-12-15 17:14:04.335417, 1.44672
2022-12-15 17:14:04.336419, 1.53958
2022-12-15 17:14:04.368534, 1.59335
2022-12-15 17:14:04.369226, 1.67155
2022-12-15 17:14:04.369226, 1.73020
2022-12-15 17:14:04.401703, 1.80840
2022-12-15 17:14:04.401703, 1.88660
2022-12-15 17:14:04.435655, 1.92082
2022-12-15 17:14:04.436195, 1.94037
2022-12-15 17:14:04.436195, 1.96969
2022-12-15 17:14:04.468814, 2.02346
2022-12-15 17:14:04.469454, 2.00391
2022-12-15 17:14:04.469454, 1.98924
2022-12-15 17:14:04.502912, 1.99413
2022-12-15 17:14:04.502912, 1.98924
2022-12-15 17:14:04.536106, 1.98435
2022-12-15 17:14:04.536405, 1.95992
2022-12-15 17:14:04.536405, 1.94525
2022-12-15 17:14:04.569417, 1.93059
2022-12-15 17:14:04.569714, 1.91593
2022-12-15 17:14:04.570274, 1.88172
2022-12-15 17:14:04.603223, 1.86705
2022-12-15 17:14:04.603223, 1.86217
2022-12-15 17:14:04.636360, 1.86217
2022-12-15 17:14:04.637368, 1.87683
2022-12-15 17:14:04.637368, 1.84750
2022-12-15 17:14:04.670401, 1.85728
2022-12-15 17:14:04.670722, 1.87194
2022-12-15 17:14:04.670722, 1.86705
2022-12-15 17:14:04.703830, 1.86705
2022-12-15 17:14:04.704175, 1.87194
2022-12-15 17:14:04.737490, 1.88172
2022-12-15 17:14:04.737755, 1.86217
2022-12-15 17:14:04.738391, 1.85239
2022-12-15 17:14:04.771046, 1.86217
2022-12-15 17:14:04.771370, 1.82795
2022-12-15 17:14:04.772019, 1.80351
2022-12-15 17:14:04.804470, 1.79374
2022-12-15 17:14:04.804820, 1.75953
2022-12-15 17:14:04.838157, 1.74486
2022-12-15 17:14:04.838399, 1.71065
2022-12-15 17:14:04.838995, 1.70576
2022-12-15 17:14:04.871562, 1.67155
2022-12-15 17:14:04.871562, 1.65689
2022-12-15 17:14:04.872563, 1.63245
2022-12-15 17:14:04.905001, 1.61779
2022-12-15 17:14:04.906032, 1.59335
2022-12-15 17:14:04.938247, 1.58846
2022-12-15 17:14:04.938569, 1.56402
2022-12-15 17:14:04.939023, 1.54447
2022-12-15 17:14:04.972326, 1.53470
2022-12-15 17:14:04.972620, 1.52981
2022-12-15 17:14:04.972620, 1.51026
2022-12-15 17:14:05.005848, 1.50048
2022-12-15 17:14:05.006201, 1.48093
2022-12-15 17:14:05.039429, 1.47605
2022-12-15 17:14:05.039668, 1.46627
2022-12-15 17:14:05.040264, 1.44183
2022-12-15 17:14:05.073009, 1.43695
2022-12-15 17:14:05.073345, 1.44183
2022-12-15 17:14:05.073809, 1.43206
2022-12-15 17:14:05.106493, 1.41251
2022-12-15 17:14:05.106889, 1.40273
2022-12-15 17:14:05.139892, 1.40762
2022-12-15 17:14:05.140175, 1.40273
2022-12-15 17:14:05.140689, 1.38318
2022-12-15 17:14:05.173323, 1.37829
2022-12-15 17:14:05.174331, 1.37829
2022-12-15 17:14:05.174649, 1.37341
2022-12-15 17:14:05.206185, 1.34897
2022-12-15 17:14:05.207186, 1.34408
2022-12-15 17:14:05.239084, 1.33919
2022-12-15 17:14:05.240049, 1.33431
2022-12-15 17:14:05.240049, 1.31964
2022-12-15 17:14:05.273581, 1.32453
2022-12-15 17:14:05.273581, 1.34408
2022-12-15 17:14:05.273581, 1.32453
2022-12-15 17:14:05.306530, 1.33919
2022-12-15 17:14:05.307519, 1.38807
2022-12-15 17:14:05.340403, 1.45650
2022-12-15 17:14:05.340403, 1.53470
2022-12-15 17:14:05.341432, 1.60801
2022-12-15 17:14:05.373322, 1.69599
2022-12-15 17:14:05.374312, 1.76441
2022-12-15 17:14:05.374312, 1.84261
2022-12-15 17:14:05.407225, 1.89149
2022-12-15 17:14:05.408223, 1.95014
2022-12-15 17:14:05.441327, 1.99902
2022-12-15 17:14:05.441327, 2.00391
2022-12-15 17:14:05.442454, 2.01368
2022-12-15 17:14:05.474479, 2.01857
2022-12-15 17:14:05.475514, 2.03323
2022-12-15 17:14:05.475514, 2.03812
2022-12-15 17:14:05.508696, 2.02834
2022-12-15 17:14:05.509040, 2.01368
2022-12-15 17:14:05.542311, 2.01368
2022-12-15 17:14:05.542554, 2.00391
2022-12-15 17:14:05.543146, 1.98924
2022-12-15 17:14:05.575788, 1.95992
2022-12-15 17:14:05.576086, 1.95014
2022-12-15 17:14:05.576548, 1.94525
2022-12-15 17:14:05.609340, 1.93059
2022-12-15 17:14:05.609688, 1.92082
2022-12-15 17:14:05.642770, 1.91104
2022-12-15 17:14:05.643009, 1.92082
2022-12-15 17:14:05.643009, 1.92570
2022-12-15 17:14:05.675930, 1.91104
2022-12-15 17:14:05.675930, 1.91593
2022-12-15 17:14:05.675930, 1.93059
2022-12-15 17:14:05.709927, 1.92082
2022-12-15 17:14:05.709927, 1.90127
2022-12-15 17:14:05.742435, 1.89638
2022-12-15 17:14:05.743100, 1.89149
2022-12-15 17:14:05.743100, 1.87194
2022-12-15 17:14:05.777088, 1.85239
2022-12-15 17:14:05.777410, 1.83284
2022-12-15 17:14:05.778058, 1.81329
2022-12-15 17:14:05.810477, 1.79374
2022-12-15 17:14:05.810825, 1.75953
2022-12-15 17:14:05.844160, 1.74975
2022-12-15 17:14:05.844400, 1.72043
2022-12-15 17:14:05.844400, 1.70087
2022-12-15 17:14:05.877685, 1.67155
2022-12-15 17:14:05.878047, 1.65200
2022-12-15 17:14:05.878672, 1.64222
2022-12-15 17:14:05.911228, 1.64711
2022-12-15 17:14:05.911578, 1.59335
2022-12-15 17:14:05.944639, 1.58357
2022-12-15 17:14:05.944878, 1.56891
2022-12-15 17:14:05.944878, 1.55425
2022-12-15 17:14:05.978216, 1.52981
2022-12-15 17:14:05.978216, 1.52003
2022-12-15 17:14:05.979222, 1.51515
2022-12-15 17:14:06.010941, 1.53470
2022-12-15 17:14:06.011948, 1.48093
2022-12-15 17:14:06.044299, 1.47116
2022-12-15 17:14:06.045296, 1.46627
2022-12-15 17:14:06.045296, 1.46138
2022-12-15 17:14:06.078768, 1.44183
2022-12-15 17:14:06.079770, 1.42717
2022-12-15 17:14:06.079770, 1.43206
2022-12-15 17:14:06.112323, 1.44183
2022-12-15 17:14:06.113325, 1.43695
2022-12-15 17:14:06.145731, 1.39784
2022-12-15 17:14:06.145731, 1.39296
2022-12-15 17:14:06.146734, 1.39296
2022-12-15 17:14:06.179163, 1.37341
2022-12-15 17:14:06.179465, 1.36852
2022-12-15 17:14:06.180052, 1.36363
2022-12-15 17:14:06.212583, 1.37341
2022-12-15 17:14:06.212948, 1.37341
2022-12-15 17:14:06.245991, 1.33431
2022-12-15 17:14:06.246273, 1.32453
2022-12-15 17:14:06.246928, 1.32942
2022-12-15 17:14:06.279722, 1.31476
2022-12-15 17:14:06.279722, 1.31476
2022-12-15 17:14:06.280722, 1.30009
2022-12-15 17:14:06.312366, 1.30009
2022-12-15 17:14:06.313367, 1.29521
2022-12-15 17:14:06.345785, 1.29032
2022-12-15 17:14:06.346787, 1.31476
2022-12-15 17:14:06.346787, 1.35874
2022-12-15 17:14:06.379445, 1.41739
2022-12-15 17:14:06.380437, 1.48093
2022-12-15 17:14:06.380437, 1.57869
2022-12-15 17:14:06.413461, 1.63245
2022-12-15 17:14:06.414000, 1.71065
2022-12-15 17:14:06.446751, 1.76930
2022-12-15 17:14:06.446751, 1.82306
2022-12-15 17:14:06.447751, 1.88660
2022-12-15 17:14:06.480611, 1.94037
2022-12-15 17:14:06.480611, 1.93548
2022-12-15 17:14:06.481608, 1.95992
2022-12-15 17:14:06.514486, 1.96969
2022-12-15 17:14:06.514839, 1.97947
2022-12-15 17:14:06.548052, 1.96480
2022-12-15 17:14:06.548293, 1.96480
2022-12-15 17:14:06.548892, 1.95992
2022-12-15 17:14:06.581552, 1.95503
2022-12-15 17:14:06.581552, 1.92570
2022-12-15 17:14:06.582554, 1.91104
2022-12-15 17:14:06.614503, 1.89149
2022-12-15 17:14:06.614503, 1.88660
2022-12-15 17:14:06.648703, 1.86217
2022-12-15 17:14:06.648945, 1.85239
2022-12-15 17:14:06.649542, 1.85728
2022-12-15 17:14:06.682308, 1.86217
2022-12-15 17:14:06.682603, 1.86705
2022-12-15 17:14:06.683198, 1.86217
2022-12-15 17:14:06.715890, 1.87683
2022-12-15 17:14:06.716238, 1.91104
2022-12-15 17:14:06.749292, 1.87683
2022-12-15 17:14:06.749533, 1.87683
2022-12-15 17:14:06.749533, 1.89638
2022-12-15 17:14:06.782921, 1.88172
2022-12-15 17:14:06.783217, 1.85728
2022-12-15 17:14:06.783683, 1.84261
2022-12-15 17:14:06.815874, 1.83773
2022-12-15 17:14:06.815874, 1.82306
2022-12-15 17:14:06.850024, 1.79374
2022-12-15 17:14:06.850024, 1.77419
2022-12-15 17:14:06.851025, 1.74486
2022-12-15 17:14:06.882723, 1.73509
2022-12-15 17:14:06.882723, 1.70576
2022-12-15 17:14:06.883749, 1.67644
2022-12-15 17:14:06.916738, 1.66177
2022-12-15 17:14:06.917218, 1.64711
2022-12-15 17:14:06.950626, 1.62267
2022-12-15 17:14:06.950891, 1.60801
2022-12-15 17:14:06.951531, 1.58846
2022-12-15 17:14:06.984108, 1.57869
2022-12-15 17:14:06.984402, 1.55913
2022-12-15 17:14:06.984992, 1.53470
2022-12-15 17:14:07.017641, 1.52492
2022-12-15 17:14:07.017991, 1.52003
2022-12-15 17:14:07.051215, 1.50537
2022-12-15 17:14:07.051457, 1.49560
2022-12-15 17:14:07.051457, 1.50048
2022-12-15 17:14:07.084844, 1.47116
2022-12-15 17:14:07.085178, 1.46138
2022-12-15 17:14:07.085178, 1.44672
2022-12-15 17:14:07.118152, 1.43695
2022-12-15 17:14:07.118152, 1.43695
2022-12-15 17:14:07.150641, 1.42717
2022-12-15 17:14:07.151649, 1.40762
2022-12-15 17:14:07.151649, 1.41251
2022-12-15 17:14:07.185216, 1.40273
2022-12-15 17:14:07.185216, 1.39784
2022-12-15 17:14:07.186217, 1.38318
2022-12-15 17:14:07.218843, 1.37341
2022-12-15 17:14:07.218843, 1.36363
2022-12-15 17:14:07.252309, 1.36363
2022-12-15 17:14:07.252309, 1.34897
2022-12-15 17:14:07.253273, 1.34408
2022-12-15 17:14:07.285918, 1.34408
2022-12-15 17:14:07.286714, 1.33919
2022-12-15 17:14:07.286714, 1.34408
2022-12-15 17:14:07.319690, 1.37341
2022-12-15 17:14:07.319991, 1.41739
2022-12-15 17:14:07.352867, 1.49071
2022-12-15 17:14:07.353289, 1.55913
2022-12-15 17:14:07.353289, 1.61779
2022-12-15 17:14:07.386572, 1.70087
2022-12-15 17:14:07.387580, 1.77419
2022-12-15 17:14:07.387580, 1.82795
2022-12-15 17:14:07.419359, 1.88660
2022-12-15 17:14:07.419359, 1.92082
2022-12-15 17:14:07.453260, 1.95992
2022-12-15 17:14:07.453260, 1.96480
2022-12-15 17:14:07.454267, 1.97458
2022-12-15 17:14:07.487111, 1.98435
2022-12-15 17:14:07.487111, 1.99413
2022-12-15 17:14:07.488078, 1.97458
2022-12-15 17:14:07.520245, 1.96480
2022-12-15 17:14:07.520245, 1.95503
2022-12-15 17:14:07.553719, 1.95503
2022-12-15 17:14:07.553959, 1.92570
2022-12-15 17:14:07.554421, 1.90615
2022-12-15 17:14:07.587492, 1.88172
2022-12-15 17:14:07.587492, 1.88172
2022-12-15 17:14:07.588503, 1.85728
2022-12-15 17:14:07.621178, 1.84750
2022-12-15 17:14:07.621178, 1.84261
2022-12-15 17:14:07.654503, 1.85239
2022-12-15 17:14:07.655379, 1.87683
2022-12-15 17:14:07.655379, 1.85728
2022-12-15 17:14:07.687864, 1.85728
2022-12-15 17:14:07.687864, 1.90127
2022-12-15 17:14:07.687864, 1.86705
2022-12-15 17:14:07.721459, 1.85728
2022-12-15 17:14:07.721459, 1.85728
2022-12-15 17:14:07.755256, 1.85239
2022-12-15 17:14:07.755496, 1.86705
2022-12-15 17:14:07.755496, 1.81329
2022-12-15 17:14:07.788781, 1.79374
2022-12-15 17:14:07.789106, 1.77908
2022-12-15 17:14:07.789755, 1.76441
2022-12-15 17:14:07.822299, 1.73020
2022-12-15 17:14:07.822650, 1.73509
2022-12-15 17:14:07.855963, 1.69110
2022-12-15 17:14:07.856201, 1.66666
2022-12-15 17:14:07.856201, 1.64222
2022-12-15 17:14:07.889347, 1.62756
2022-12-15 17:14:07.889690, 1.61290
2022-12-15 17:14:07.889690, 1.59335
2022-12-15 17:14:07.922809, 1.56891
2022-12-15 17:14:07.923812, 1.54936
2022-12-15 17:14:07.955667, 1.54447
2022-12-15 17:14:07.956256, 1.52981
2022-12-15 17:14:07.956256, 1.51026
2022-12-15 17:14:07.989614, 1.51026
2022-12-15 17:14:07.989907, 1.48582
2022-12-15 17:14:07.990393, 1.47605
2022-12-15 17:14:08.023560, 1.45650
2022-12-15 17:14:08.023909, 1.44672
2022-12-15 17:14:08.057135, 1.43695
2022-12-15 17:14:08.057375, 1.43695
2022-12-15 17:14:08.057923, 1.43695
2022-12-15 17:14:08.090681, 1.40273
2022-12-15 17:14:08.091020, 1.39784
2022-12-15 17:14:08.091607, 1.39784
2022-12-15 17:14:08.124269, 1.37829
2022-12-15 17:14:08.124616, 1.37341
2022-12-15 17:14:08.157899, 1.37341
2022-12-15 17:14:08.158164, 1.37829
2022-12-15 17:14:08.159166, 1.35874
2022-12-15 17:14:08.191397, 1.34897
2022-12-15 17:14:08.191397, 1.34408
2022-12-15 17:14:08.192398, 1.34897
2022-12-15 17:14:08.225055, 1.33919
2022-12-15 17:14:08.225055, 1.33919
2022-12-15 17:14:08.257194, 1.34408
2022-12-15 17:14:08.258144, 1.33431
2022-12-15 17:14:08.258144, 1.30498
2022-12-15 17:14:08.291886, 1.28543
2022-12-15 17:14:08.292182, 1.28543
2022-12-15 17:14:08.292735, 1.30009
2022-12-15 17:14:08.325563, 1.30987
2022-12-15 17:14:08.325954, 1.34897
2022-12-15 17:14:08.359096, 1.42717
2022-12-15 17:14:08.359372, 1.51515
2022-12-15 17:14:08.359372, 1.57869
2022-12-15 17:14:08.392579, 1.63734
2022-12-15 17:14:08.392874, 1.72043
2022-12-15 17:14:08.393339, 1.79863
2022-12-15 17:14:08.426115, 1.85728
2022-12-15 17:14:08.426465, 1.90615
2022-12-15 17:14:08.459400, 1.94525
2022-12-15 17:14:08.459400, 1.98924
2022-12-15 17:14:08.460407, 1.99902
2022-12-15 17:14:08.492517, 2.00391
2022-12-15 17:14:08.492517, 2.00879
2022-12-15 17:14:08.493327, 2.02346
2022-12-15 17:14:08.526446, 2.01857
2022-12-15 17:14:08.526837, 2.00879
2022-12-15 17:14:08.560220, 2.00391
2022-12-15 17:14:08.560460, 2.00391
2022-12-15 17:14:08.561055, 1.99413
2022-12-15 17:14:08.593700, 1.96480
2022-12-15 17:14:08.594036, 1.96969
2022-12-15 17:14:08.594036, 1.94037
2022-12-15 17:14:08.627361, 1.93548
2022-12-15 17:14:08.627749, 1.91593
2022-12-15 17:14:08.660765, 1.91593
2022-12-15 17:14:08.661073, 1.92082
2022-12-15 17:14:08.661073, 1.95014
2022-12-15 17:14:08.693931, 1.92082
2022-12-15 17:14:08.694229, 1.92082
2022-12-15 17:14:08.694730, 1.95014
2022-12-15 17:14:08.727829, 1.93548
2022-12-15 17:14:08.728625, 1.91104
2022-12-15 17:14:08.760236, 1.91104
2022-12-15 17:14:08.761046, 1.90127
2022-12-15 17:14:08.761046, 1.89149
2022-12-15 17:14:08.794853, 1.87194
2022-12-15 17:14:08.795150, 1.84750
2022-12-15 17:14:08.795737, 1.83284
2022-12-15 17:14:08.828373, 1.81818
2022-12-15 17:14:08.828722, 1.79374
2022-12-15 17:14:08.862043, 1.78396
2022-12-15 17:14:08.862283, 1.73509
2022-12-15 17:14:08.862283, 1.72531
2022-12-15 17:14:08.895494, 1.71554
2022-12-15 17:14:08.895812, 1.67155
2022-12-15 17:14:08.896584, 1.65689
2022-12-15 17:14:08.928981, 1.64222
2022-12-15 17:14:08.929331, 1.62267
2022-12-15 17:14:08.962561, 1.60801
2022-12-15 17:14:08.962844, 1.58846
2022-12-15 17:14:08.963558, 1.57380
2022-12-15 17:14:08.995989, 1.55425
2022-12-15 17:14:08.995989, 1.53470
2022-12-15 17:14:08.997009, 1.52492
2022-12-15 17:14:09.029528, 1.52003
2022-12-15 17:14:09.030535, 1.50048
2022-12-15 17:14:09.061697, 1.48582
2022-12-15 17:14:09.062703, 1.48093
2022-12-15 17:14:09.062703, 1.50048
2022-12-15 17:14:09.095806, 1.45650
2022-12-15 17:14:09.096772, 1.44183
2022-12-15 17:14:09.096772, 1.43695
2022-12-15 17:14:09.130092, 1.43206
2022-12-15 17:14:09.131094, 1.42228
2022-12-15 17:14:09.163498, 1.41251
2022-12-15 17:14:09.163498, 1.40762
2022-12-15 17:14:09.164534, 1.40762
2022-12-15 17:14:09.196880, 1.42228
2022-12-15 17:14:09.196880, 1.37829
2022-12-15 17:14:09.197884, 1.37341
2022-12-15 17:14:09.230267, 1.37341
2022-12-15 17:14:09.231269, 1.36363
2022-12-15 17:14:09.263633, 1.34897
2022-12-15 17:14:09.264022, 1.34408
2022-12-15 17:14:09.264491, 1.35386
2022-12-15 17:14:09.297793, 1.34408
2022-12-15 17:14:09.298130, 1.32453
2022-12-15 17:14:09.298709, 1.31476
2022-12-15 17:14:09.331282, 1.31476
2022-12-15 17:14:09.331677, 1.31964
2022-12-15 17:14:09.364641, 1.32942
2022-12-15 17:14:09.365645, 1.35874
2022-12-15 17:14:09.365815, 1.42228
2022-12-15 17:14:09.398226, 1.50048
2022-12-15 17:14:09.398520, 1.57869
2022-12-15 17:14:09.399110, 1.62756
2022-12-15 17:14:09.431510, 1.70576
2022-12-15 17:14:09.431928, 1.77908
2022-12-15 17:14:09.464833, 1.82795
2022-12-15 17:14:09.465156, 1.87683
2022-12-15 17:14:09.465156, 1.92570
2022-12-15 17:14:09.498626, 1.97947
2022-12-15 17:14:09.499040, 1.96480
2022-12-15 17:14:09.499430, 1.96969
2022-12-15 17:14:09.531932, 1.97458
2022-12-15 17:14:09.532355, 1.97947
2022-12-15 17:14:09.565582, 1.96480
2022-12-15 17:14:09.565806, 1.95503
2022-12-15 17:14:09.566274, 1.95503
2022-12-15 17:14:09.599455, 1.94525
2022-12-15 17:14:09.599750, 1.92082
2022-12-15 17:14:09.600214, 1.90615
2022-12-15 17:14:09.633212, 1.89149
2022-12-15 17:14:09.633593, 1.88660
2022-12-15 17:14:09.666555, 1.89638
2022-12-15 17:14:09.666555, 1.86217
2022-12-15 17:14:09.667559, 1.88660
2022-12-15 17:14:09.700192, 1.87683
2022-12-15 17:14:09.701199, 1.87194
2022-12-15 17:14:09.701199, 1.90615
2022-12-15 17:14:09.733247, 1.88660
2022-12-15 17:14:09.733247, 1.89638
2022-12-15 17:14:09.767014, 1.89149
2022-12-15 17:14:09.767014, 1.88172
2022-12-15 17:14:09.768014, 1.87683
2022-12-15 17:14:09.800203, 1.87683
2022-12-15 17:14:09.800203, 1.85728
2022-12-15 17:14:09.801204, 1.86217
2022-12-15 17:14:09.834333, 1.81818
2022-12-15 17:14:09.834685, 1.80840
2022-12-15 17:14:09.867872, 1.78396
2022-12-15 17:14:09.868219, 1.75464
2022-12-15 17:14:09.868816, 1.73509
2022-12-15 17:14:09.901316, 1.72531
2022-12-15 17:14:09.901611, 1.69599
2022-12-15 17:14:09.902078, 1.67155
2022-12-15 17:14:09.934778, 1.67644
2022-12-15 17:14:09.935130, 1.63734
2022-12-15 17:14:09.968591, 1.62267
2022-12-15 17:14:09.968861, 1.59335
2022-12-15 17:14:09.969369, 1.57380
2022-12-15 17:14:10.002038, 1.56891
2022-12-15 17:14:10.002334, 1.56891
2022-12-15 17:14:10.002334, 1.53470
2022-12-15 17:14:10.035641, 1.52003
2022-12-15 17:14:10.036643, 1.51515
2022-12-15 17:14:10.068315, 1.50537
2022-12-15 17:14:10.068315, 1.48582
2022-12-15 17:14:10.069326, 1.47605
2022-12-15 17:14:10.102123, 1.47605
2022-12-15 17:14:10.102469, 1.46627
2022-12-15 17:14:10.102469, 1.47116
2022-12-15 17:14:10.136056, 1.43695
2022-12-15 17:14:10.136056, 1.43206
2022-12-15 17:14:10.169645, 1.43206
2022-12-15 17:14:10.169970, 1.41251
2022-12-15 17:14:10.169970, 1.40762
2022-12-15 17:14:10.203090, 1.39784
2022-12-15 17:14:10.203475, 1.40273
2022-12-15 17:14:10.204102, 1.39296
2022-12-15 17:14:10.236583, 1.39296
2022-12-15 17:14:10.237161, 1.37341
2022-12-15 17:14:10.270129, 1.36852
2022-12-15 17:14:10.270542, 1.35386
2022-12-15 17:14:10.271001, 1.34408
2022-12-15 17:14:10.303580, 1.34897
2022-12-15 17:14:10.304073, 1.36852
2022-12-15 17:14:10.304514, 1.38807
2022-12-15 17:14:10.336895, 1.42717
2022-12-15 17:14:10.337628, 1.48582
2022-12-15 17:14:10.370211, 1.56891
2022-12-15 17:14:10.370211, 1.63734
2022-12-15 17:14:10.371219, 1.70576
2022-12-15 17:14:10.403033, 1.78396
2022-12-15 17:14:10.404063, 1.86217
2022-12-15 17:14:10.404063, 1.91593
2022-12-15 17:14:10.437284, 1.93059
2022-12-15 17:14:10.437657, 1.96480
2022-12-15 17:14:10.471120, 1.98924
2022-12-15 17:14:10.471120, 2.00391
2022-12-15 17:14:10.472121, 1.98924
2022-12-15 17:14:10.504956, 2.01368
2022-12-15 17:14:10.505292, 1.99413
2022-12-15 17:14:10.505292, 1.98924
2022-12-15 17:14:10.538434, 1.96480
2022-12-15 17:14:10.538784, 1.95992
2022-12-15 17:14:10.571434, 1.94525
2022-12-15 17:14:10.571719, 1.94525
2022-12-15 17:14:10.571719, 1.89638
2022-12-15 17:14:10.605393, 1.89149
2022-12-15 17:14:10.605721, 1.88172
2022-12-15 17:14:10.606384, 1.87194
2022-12-15 17:14:10.639088, 1.87683
2022-12-15 17:14:10.639088, 1.86705
2022-12-15 17:14:10.672299, 1.88172
2022-12-15 17:14:10.673141, 1.88660
2022-12-15 17:14:10.673141, 1.87683
2022-12-15 17:14:10.705561, 1.90615
2022-12-15 17:14:10.705561, 1.88660
2022-12-15 17:14:10.705561, 1.88660
2022-12-15 17:14:10.738922, 1.87194
2022-12-15 17:14:10.739584, 1.85728
2022-12-15 17:14:10.772999, 1.85239
2022-12-15 17:14:10.772999, 1.84261
2022-12-15 17:14:10.774011, 1.80840
2022-12-15 17:14:10.806631, 1.78885
2022-12-15 17:14:10.806925, 1.79863
2022-12-15 17:14:10.807515, 1.75464
2022-12-15 17:14:10.840124, 1.73509
2022-12-15 17:14:10.840475, 1.69599
2022-12-15 17:14:10.873822, 1.67644
2022-12-15 17:14:10.874065, 1.66177
2022-12-15 17:14:10.874658, 1.63734
2022-12-15 17:14:10.907219, 1.62267
2022-12-15 17:14:10.907562, 1.60312
2022-12-15 17:14:10.908074, 1.59335
2022-12-15 17:14:10.940734, 1.56402
2022-12-15 17:14:10.941127, 1.55425
2022-12-15 17:14:10.974361, 1.54447
2022-12-15 17:14:10.974361, 1.55425
2022-12-15 17:14:10.975362, 1.50537
2022-12-15 17:14:11.007763, 1.49071
2022-12-15 17:14:11.007763, 1.48093
2022-12-15 17:14:11.008778, 1.48093
2022-12-15 17:14:11.041038, 1.46138
2022-12-15 17:14:11.041230, 1.44672
2022-12-15 17:14:11.074944, 1.44672
2022-12-15 17:14:11.075216, 1.44672
2022-12-15 17:14:11.075872, 1.44672
2022-12-15 17:14:11.108466, 1.41251
2022-12-15 17:14:11.108760, 1.40762
2022-12-15 17:14:11.109353, 1.40273
2022-12-15 17:14:11.141947, 1.39296
2022-12-15 17:14:11.142302, 1.38318
2022-12-15 17:14:11.175521, 1.37829
2022-12-15 17:14:11.175760, 1.37829
2022-12-15 17:14:11.175760, 1.36852
2022-12-15 17:14:11.209081, 1.37829
2022-12-15 17:14:11.209421, 1.34408
2022-12-15 17:14:11.209929, 1.34408
2022-12-15 17:14:11.242614, 1.33431
2022-12-15 17:14:11.242965, 1.31964
2022-12-15 17:14:11.276008, 1.30987
2022-12-15 17:14:11.276008, 1.31964
2022-12-15 17:14:11.277012, 1.33431
2022-12-15 17:14:11.308972, 1.31964
2022-12-15 17:14:11.309981, 1.34408
2022-12-15 17:14:11.309981, 1.39784
2022-12-15 17:14:11.342677, 1.46627
2022-12-15 17:14:11.342677, 1.53470
2022-12-15 17:14:11.376565, 1.61779
2022-12-15 17:14:11.376807, 1.73020
2022-12-15 17:14:11.376807, 1.77419
2022-12-15 17:14:11.410324, 1.83284
2022-12-15 17:14:11.410618, 1.88660
2022-12-15 17:14:11.411206, 1.94525
2022-12-15 17:14:11.443757, 1.97947
2022-12-15 17:14:11.444107, 1.99413
2022-12-15 17:14:11.477496, 2.00391
2022-12-15 17:14:11.477779, 2.04301
2022-12-15 17:14:11.477779, 2.02834
2022-12-15 17:14:11.511015, 2.02346
2022-12-15 17:14:11.511309, 2.01857
2022-12-15 17:14:11.511818, 2.02834
2022-12-15 17:14:11.544525, 2.01857
2022-12-15 17:14:11.544876, 1.99413
2022-12-15 17:14:11.578090, 1.98435
2022-12-15 17:14:11.578331, 1.97947
2022-12-15 17:14:11.578331, 1.96969
2022-12-15 17:14:11.611534, 1.95014
2022-12-15 17:14:11.611534, 1.94525
2022-12-15 17:14:11.612569, 1.93548
2022-12-15 17:14:11.644878, 1.94037
2022-12-15 17:14:11.645886, 1.93059
2022-12-15 17:14:11.677384, 1.92570
2022-12-15 17:14:11.678390, 1.93548
2022-12-15 17:14:11.678390, 1.94037
2022-12-15 17:14:11.711100, 1.92570
2022-12-15 17:14:11.711100, 1.92082
2022-12-15 17:14:11.712102, 1.91593
2022-12-15 17:14:11.745085, 1.92082
2022-12-15 17:14:11.745085, 1.89149
2022-12-15 17:14:11.779175, 1.87194
2022-12-15 17:14:11.779462, 1.88172
2022-12-15 17:14:11.780054, 1.84750
2022-12-15 17:14:11.812665, 1.80840
2022-12-15 17:14:11.812987, 1.78396
2022-12-15 17:14:11.812987, 1.76441
2022-12-15 17:14:11.846163, 1.75953
2022-12-15 17:14:11.846163, 1.71554
2022-12-15 17:14:11.879669, 1.69599
2022-12-15 17:14:11.879910, 1.67644
2022-12-15 17:14:11.880372, 1.66177
2022-12-15 17:14:11.913264, 1.63734
2022-12-15 17:14:11.913618, 1.61779
2022-12-15 17:14:11.914305, 1.61779
2022-12-15 17:14:11.946834, 1.58357
2022-12-15 17:14:11.947228, 1.55913
2022-12-15 17:14:11.980242, 1.53958
2022-12-15 17:14:11.981237, 1.52981
2022-12-15 17:14:11.981237, 1.52492
2022-12-15 17:14:12.013516, 1.51026
2022-12-15 17:14:12.013516, 1.49071
2022-12-15 17:14:12.014553, 1.48582
2022-12-15 17:14:12.046518, 1.47605
2022-12-15 17:14:12.047536, 1.46138
2022-12-15 17:14:12.079409, 1.44183
2022-12-15 17:14:12.080416, 1.43695
2022-12-15 17:14:12.080416, 1.43206
2022-12-15 17:14:12.114333, 1.42717
2022-12-15 17:14:12.114333, 1.41251
2022-12-15 17:14:12.115337, 1.42717
2022-12-15 17:14:12.147879, 1.39784
2022-12-15 17:14:12.148883, 1.38807
2022-12-15 17:14:12.181304, 1.37341
2022-12-15 17:14:12.181304, 1.36363
2022-12-15 17:14:12.182307, 1.36363
2022-12-15 17:14:12.214087, 1.35874
2022-12-15 17:14:12.215083, 1.34408
2022-12-15 17:14:12.215083, 1.33919
2022-12-15 17:14:12.248033, 1.33919
2022-12-15 17:14:12.248033, 1.33431
2022-12-15 17:14:12.281412, 1.32453
2022-12-15 17:14:12.281412, 1.30498
2022-12-15 17:14:12.282447, 1.30498
2022-12-15 17:14:12.314772, 1.29521
2022-12-15 17:14:12.315774, 1.28054
2022-12-15 17:14:12.315774, 1.28054
2022-12-15 17:14:12.348121, 1.29521
2022-12-15 17:14:12.349123, 1.30987
2022-12-15 17:14:12.382508, 1.32453
2022-12-15 17:14:12.382754, 1.37341
2022-12-15 17:14:12.383218, 1.44672
2022-12-15 17:14:12.416092, 1.53470
2022-12-15 17:14:12.416426, 1.60801
2022-12-15 17:14:12.417016, 1.70087
2022-12-15 17:14:12.449558, 1.74975
2022-12-15 17:14:12.449904, 1.82306
2022-12-15 17:14:12.482902, 1.86705
2022-12-15 17:14:12.483556, 1.91104
2022-12-15 17:14:12.483556, 1.94525
2022-12-15 17:14:12.515885, 1.99902
2022-12-15 17:14:12.516881, 1.97458
2022-12-15 17:14:12.516881, 1.97947
2022-12-15 17:14:12.549597, 1.98435
2022-12-15 17:14:12.550596, 1.99902
2022-12-15 17:14:12.583222, 1.98435
2022-12-15 17:14:12.583545, 1.97458
2022-12-15 17:14:12.584002, 1.96969
2022-12-15 17:14:12.617013, 1.96480
2022-12-15 17:14:12.617298, 1.94525
2022-12-15 17:14:12.617298, 1.92570
2022-12-15 17:14:12.650904, 1.91104
2022-12-15 17:14:12.651255, 1.91104
2022-12-15 17:14:12.684394, 1.91593
2022-12-15 17:14:12.684638, 1.89149
2022-12-15 17:14:12.685102, 1.89638
2022-12-15 17:14:12.717878, 1.91104
2022-12-15 17:14:12.718174, 1.92082
2022-12-15 17:14:12.718769, 1.90127
2022-12-15 17:14:12.751180, 1.91104
2022-12-15 17:14:12.751180, 1.94525
2022-12-15 17:14:12.784969, 1.91593
2022-12-15 17:14:12.785212, 1.90127
2022-12-15 17:14:12.785807, 1.89638
2022-12-15 17:14:12.818417, 1.88660
2022-12-15 17:14:12.819020, 1.87194
2022-12-15 17:14:12.819020, 1.84261
2022-12-15 17:14:12.851780, 1.82306
2022-12-15 17:14:12.851780, 1.80840
2022-12-15 17:14:12.885567, 1.79374
2022-12-15 17:14:12.885810, 1.74975
2022-12-15 17:14:12.885810, 1.74975
2022-12-15 17:14:12.919246, 1.71554
2022-12-15 17:14:12.919542, 1.70087
2022-12-15 17:14:12.919542, 1.67155
2022-12-15 17:14:12.952618, 1.65689
2022-12-15 17:14:12.952969, 1.63734
2022-12-15 17:14:12.986317, 1.62267
2022-12-15 17:14:12.986559, 1.59824
2022-12-15 17:14:12.986559, 1.57869
2022-12-15 17:14:13.019725, 1.57380
2022-12-15 17:14:13.020022, 1.56402
2022-12-15 17:14:13.020022, 1.53958
2022-12-15 17:14:13.053323, 1.54936
2022-12-15 17:14:13.053672, 1.51515
2022-12-15 17:14:13.086727, 1.50537
2022-12-15 17:14:13.086727, 1.48093
2022-12-15 17:14:13.087521, 1.47116
2022-12-15 17:14:13.120391, 1.46627
2022-12-15 17:14:13.121397, 1.46138
2022-12-15 17:14:13.121397, 1.44672
2022-12-15 17:14:13.153592, 1.43695
2022-12-15 17:14:13.153592, 1.43206
2022-12-15 17:14:13.186925, 1.43206
2022-12-15 17:14:13.186925, 1.43206
2022-12-15 17:14:13.187926, 1.40273
2022-12-15 17:14:13.220934, 1.39784
2022-12-15 17:14:13.221830, 1.39296
2022-12-15 17:14:13.221830, 1.37829
2022-12-15 17:14:13.254485, 1.36852
2022-12-15 17:14:13.254485, 1.36852
2022-12-15 17:14:13.288087, 1.36363
2022-12-15 17:14:13.288087, 1.34897
2022-12-15 17:14:13.289094, 1.33919
2022-12-15 17:14:13.321569, 1.33431
2022-12-15 17:14:13.321913, 1.33431
2022-12-15 17:14:13.322425, 1.31964
2022-12-15 17:14:13.355020, 1.31476
2022-12-15 17:14:13.356026, 1.31964
2022-12-15 17:14:13.388572, 1.30498
2022-12-15 17:14:13.388572, 1.30987
2022-12-15 17:14:13.389606, 1.32453
2022-12-15 17:14:13.421725, 1.36852
2022-12-15 17:14:13.422733, 1.42717
2022-12-15 17:14:13.422733, 1.49071
2022-12-15 17:14:13.455432, 1.56402
2022-12-15 17:14:13.456068, 1.65200
2022-12-15 17:14:13.488709, 1.71065
2022-12-15 17:14:13.488709, 1.76930
2022-12-15 17:14:13.489715, 1.81329
2022-12-15 17:14:13.522624, 1.85728
2022-12-15 17:14:13.522919, 1.90127
2022-12-15 17:14:13.523510, 1.92570
2022-12-15 17:14:13.555714, 1.92570
2022-12-15 17:14:13.556142, 1.93548
2022-12-15 17:14:13.589700, 1.94525
2022-12-15 17:14:13.589700, 1.94037
2022-12-15 17:14:13.590697, 1.92570
2022-12-15 17:14:13.623255, 1.91593
2022-12-15 17:14:13.623554, 1.91104
2022-12-15 17:14:13.624146, 1.89638
2022-12-15 17:14:13.656689, 1.86705
2022-12-15 17:14:13.656689, 1.84750
2022-12-15 17:14:13.690060, 1.84261
2022-12-15 17:14:13.690739, 1.86217
2022-12-15 17:14:13.691395, 1.81329
2022-12-15 17:14:13.723787, 1.81329
2022-12-15 17:14:13.724082, 1.82306
2022-12-15 17:14:13.724082, 1.82795
2022-12-15 17:14:13.757338, 1.82306
2022-12-15 17:14:13.757686, 1.83284
2022-12-15 17:14:13.790482, 1.83773
2022-12-15 17:14:13.790726, 1.84750
2022-12-15 17:14:13.791289, 1.83773
2022-12-15 17:14:13.824415, 1.83284
2022-12-15 17:14:13.824710, 1.85728
2022-12-15 17:14:13.824710, 1.82306
2022-12-15 17:14:13.857945, 1.79863
2022-12-15 17:14:13.858343, 1.78885
2022-12-15 17:14:13.891523, 1.76441
2022-12-15 17:14:13.891766, 1.75464
2022-12-15 17:14:13.892373, 1.72531
2022-12-15 17:14:13.924917, 1.72043
2022-12-15 17:14:13.924917, 1.69110
2022-12-15 17:14:13.925935, 1.66666
2022-12-15 17:14:13.957815, 1.63734
2022-12-15 17:14:13.958815, 1.61779
2022-12-15 17:14:13.991713, 1.60801
2022-12-15 17:14:13.992368, 1.61779
2022-12-15 17:14:13.992659, 1.56891
2022-12-15 17:14:14.025636, 1.54936
2022-12-15 17:14:14.025931, 1.53958
2022-12-15 17:14:14.026524, 1.52981
2022-12-15 17:14:14.059409, 1.51515
2022-12-15 17:14:14.059792, 1.49560
2022-12-15 17:14:14.092361, 1.51026
2022-12-15 17:14:14.092642, 1.47605
2022-12-15 17:14:14.093105, 1.46138
2022-12-15 17:14:14.126405, 1.44672
2022-12-15 17:14:14.126700, 1.43695
2022-12-15 17:14:14.127253, 1.43206
2022-12-15 17:14:14.159816, 1.42228
2022-12-15 17:14:14.159816, 1.40762
2022-12-15 17:14:14.193342, 1.40273
2022-12-15 17:14:14.193342, 1.40273
2022-12-15 17:14:14.194443, 1.39784
2022-12-15 17:14:14.226522, 1.40273
2022-12-15 17:14:14.226522, 1.37341
2022-12-15 17:14:14.227521, 1.37341
2022-12-15 17:14:14.260045, 1.36363
2022-12-15 17:14:14.260045, 1.35386
2022-12-15 17:14:14.293493, 1.35874
2022-12-15 17:14:14.293733, 1.34408
2022-12-15 17:14:14.294325, 1.33919
2022-12-15 17:14:14.327620, 1.32453
2022-12-15 17:14:14.327960, 1.30987
2022-12-15 17:14:14.328549, 1.31964
2022-12-15 17:14:14.361116, 1.32453
2022-12-15 17:14:14.361116, 1.29521
2022-12-15 17:14:14.394493, 1.29032
2022-12-15 17:14:14.394769, 1.28543
2022-12-15 17:14:14.395323, 1.29032
2022-12-15 17:14:14.428196, 1.28054
2022-12-15 17:14:14.428491, 1.28543
2022-12-15 17:14:14.428957, 1.33431
2022-12-15 17:14:14.461648, 1.37829
2022-12-15 17:14:14.461998, 1.40762
2022-12-15 17:14:14.495172, 1.47605
2022-12-15 17:14:14.495449, 1.56402
2022-12-15 17:14:14.495449, 1.64711
2022-12-15 17:14:14.528588, 1.73509
2022-12-15 17:14:14.528588, 1.77908
2022-12-15 17:14:14.529493, 1.84261
2022-12-15 17:14:14.561997, 1.90127
2022-12-15 17:14:14.561997, 1.95503
2022-12-15 17:14:14.595336, 1.95992
2022-12-15 17:14:14.595336, 1.98435
2022-12-15 17:14:14.595336, 2.00391
2022-12-15 17:14:14.628040, 1.99902
2022-12-15 17:14:14.629047, 1.99902
2022-12-15 17:14:14.629503, 2.00391
2022-12-15 17:14:14.662622, 2.01368
2022-12-15 17:14:14.662974, 2.00391
2022-12-15 17:14:14.696141, 1.98435
2022-12-15 17:14:14.696382, 1.97458
2022-12-15 17:14:14.696984, 1.96969
2022-12-15 17:14:14.729896, 1.95014
2022-12-15 17:14:14.730236, 1.93059
2022-12-15 17:14:14.730791, 1.92570
2022-12-15 17:14:14.763459, 1.92570
2022-12-15 17:14:14.763843, 1.91593
2022-12-15 17:14:14.796437, 1.91104
2022-12-15 17:14:14.796678, 1.91104
2022-12-15 17:14:14.797278, 1.92082
2022-12-15 17:14:14.830574, 1.93059
2022-12-15 17:14:14.830960, 1.91104
2022-12-15 17:14:14.831961, 1.91104
2022-12-15 17:14:14.863652, 1.92570
2022-12-15 17:14:14.863652, 1.91104
2022-12-15 17:14:14.897406, 1.89149
2022-12-15 17:14:14.897673, 1.88172
2022-12-15 17:14:14.898334, 1.87194
2022-12-15 17:14:14.931017, 1.84750
2022-12-15 17:14:14.931315, 1.82306
2022-12-15 17:14:14.931864, 1.79863
2022-12-15 17:14:14.964620, 1.78396
2022-12-15 17:14:14.965012, 1.75953
2022-12-15 17:14:14.997850, 1.73020
2022-12-15 17:14:14.998127, 1.70576
2022-12-15 17:14:14.998597, 1.69110
2022-12-15 17:14:15.031751, 1.67155
2022-12-15 17:14:15.032258, 1.64711
2022-12-15 17:14:15.032902, 1.64222
2022-12-15 17:14:15.065140, 1.61290
2022-12-15 17:14:15.065140, 1.59824
2022-12-15 17:14:15.098053, 1.56891
2022-12-15 17:14:15.098697, 1.54936
2022-12-15 17:14:15.099686, 1.54936
2022-12-15 17:14:15.131876, 1.53958
2022-12-15 17:14:15.131876, 1.53470
2022-12-15 17:14:15.132877, 1.49560
2022-12-15 17:14:15.165655, 1.48582
2022-12-15 17:14:15.166657, 1.48093
2022-12-15 17:14:15.198963, 1.46138
2022-12-15 17:14:15.198963, 1.45161
2022-12-15 17:14:15.199965, 1.44672
2022-12-15 17:14:15.232331, 1.44672
2022-12-15 17:14:15.232331, 1.44183
2022-12-15 17:14:15.233333, 1.41739
2022-12-15 17:14:15.265539, 1.41251
2022-12-15 17:14:15.266542, 1.40762
2022-12-15 17:14:15.299850, 1.38807
2022-12-15 17:14:15.300091, 1.38318
2022-12-15 17:14:15.300689, 1.38318
2022-12-15 17:14:15.333387, 1.39296
2022-12-15 17:14:15.333725, 1.35386
2022-12-15 17:14:15.334230, 1.34408
2022-12-15 17:14:15.367015, 1.33919
2022-12-15 17:14:15.367392, 1.33431
2022-12-15 17:14:15.400397, 1.32453
2022-12-15 17:14:15.400397, 1.31964
2022-12-15 17:14:15.401404, 1.32942
2022-12-15 17:14:15.433343, 1.30987
2022-12-15 17:14:15.433929, 1.30009
2022-12-15 17:14:15.433929, 1.28543
2022-12-15 17:14:15.466289, 1.28054
2022-12-15 17:14:15.467289, 1.28054
2022-12-15 17:14:15.500715, 1.27077
2022-12-15 17:14:15.501072, 1.26099
2022-12-15 17:14:15.501504, 1.26099
2022-12-15 17:14:15.534255, 1.26588
2022-12-15 17:14:15.534628, 1.26588
2022-12-15 17:14:15.535085, 1.28054
2022-12-15 17:14:15.567624, 1.33431
2022-12-15 17:14:15.568053, 1.42717
2022-12-15 17:14:15.601290, 1.47116
2022-12-15 17:14:15.601514, 1.53958
2022-12-15 17:14:15.601932, 1.61779
2022-12-15 17:14:15.634876, 1.70087
2022-12-15 17:14:15.635171, 1.76930
2022-12-15 17:14:15.635767, 1.81818
2022-12-15 17:14:15.668604, 1.89149
2022-12-15 17:14:15.668959, 1.91593
2022-12-15 17:14:15.702233, 1.94525
2022-12-15 17:14:15.702473, 1.95503
2022-12-15 17:14:15.702940, 1.96969
2022-12-15 17:14:15.735697, 1.98435
2022-12-15 17:14:15.735993, 1.98924
2022-12-15 17:14:15.735993, 1.96969
2022-12-15 17:14:15.769165, 1.98924
2022-12-15 17:14:15.769165, 1.96969
2022-12-15 17:14:15.801803, 1.95992
2022-12-15 17:14:15.802831, 1.93548
2022-12-15 17:14:15.802831, 1.92570
2022-12-15 17:14:15.836269, 1.91593
2022-12-15 17:14:15.836566, 1.90615
2022-12-15 17:14:15.836566, 1.88660
2022-12-15 17:14:15.869667, 1.88660
2022-12-15 17:14:15.870147, 1.88660
2022-12-15 17:14:15.903386, 1.90127
2022-12-15 17:14:15.903628, 1.88172
2022-12-15 17:14:15.903628, 1.88660
2022-12-15 17:14:15.937055, 1.91104
2022-12-15 17:14:15.937349, 1.91104
2022-12-15 17:14:15.937349, 1.89638
2022-12-15 17:14:15.970471, 1.89638
2022-12-15 17:14:15.970823, 1.90127
2022-12-15 17:14:16.004046, 1.89638
2022-12-15 17:14:16.004332, 1.89149
2022-12-15 17:14:16.004332, 1.85728
2022-12-15 17:14:16.037534, 1.84261
2022-12-15 17:14:16.037534, 1.84261
2022-12-15 17:14:16.038535, 1.79863
2022-12-15 17:14:16.071102, 1.77419
2022-12-15 17:14:16.071102, 1.75953
2022-12-15 17:14:16.104507, 1.74486
2022-12-15 17:14:16.105513, 1.71554
2022-12-15 17:14:16.105513, 1.69110
2022-12-15 17:14:16.137096, 1.68621
2022-12-15 17:14:16.138104, 1.66177
2022-12-15 17:14:16.138104, 1.63734
2022-12-15 17:14:16.171428, 1.61290
2022-12-15 17:14:16.172191, 1.59824
2022-12-15 17:14:16.205024, 1.59335
2022-12-15 17:14:16.205574, 1.56402
2022-12-15 17:14:16.205574, 1.54447
2022-12-15 17:14:16.238037, 1.53470
2022-12-15 17:14:16.238037, 1.52981
2022-12-15 17:14:16.239038, 1.51515
2022-12-15 17:14:16.272166, 1.49560
2022-12-15 17:14:16.272616, 1.49560
2022-12-15 17:14:16.305839, 1.50537
2022-12-15 17:14:16.305839, 1.49071
2022-12-15 17:14:16.306844, 1.46627
2022-12-15 17:14:16.338852, 1.44672
2022-12-15 17:14:16.338852, 1.44183
2022-12-15 17:14:16.339859, 1.43206
2022-12-15 17:14:16.372789, 1.41251
2022-12-15 17:14:16.372789, 1.40762
2022-12-15 17:14:16.405817, 1.41251
2022-12-15 17:14:16.406116, 1.40273
2022-12-15 17:14:16.406116, 1.38318
2022-12-15 17:14:16.439842, 1.37829
2022-12-15 17:14:16.439842, 1.37829
2022-12-15 17:14:16.440842, 1.36363
2022-12-15 17:14:16.472864, 1.35386
2022-12-15 17:14:16.473871, 1.35386
2022-12-15 17:14:16.506606, 1.35874
2022-12-15 17:14:16.506921, 1.36363
2022-12-15 17:14:16.507922, 1.32453
2022-12-15 17:14:16.540383, 1.31476
2022-12-15 17:14:16.540678, 1.31476
2022-12-15 17:14:16.541272, 1.30498
2022-12-15 17:14:16.573920, 1.29032
2022-12-15 17:14:16.574273, 1.29032
2022-12-15 17:14:16.607469, 1.30009
2022-12-15 17:14:16.607708, 1.32453
2022-12-15 17:14:16.608180, 1.37829
2022-12-15 17:14:16.641090, 1.40273
2022-12-15 17:14:16.641382, 1.47605
2022-12-15 17:14:16.641975, 1.54936
2022-12-15 17:14:16.674451, 1.61779
2022-12-15 17:14:16.674451, 1.70576
2022-12-15 17:14:16.708083, 1.74975
2022-12-15 17:14:16.708350, 1.81329
2022-12-15 17:14:16.709016, 1.84261
2022-12-15 17:14:16.741729, 1.90615
2022-12-15 17:14:16.742055, 1.91104
2022-12-15 17:14:16.742055, 1.96480
2022-12-15 17:14:16.775258, 1.93548
2022-12-15 17:14:16.775610, 1.96480
2022-12-15 17:14:16.808702, 1.93548
2022-12-15 17:14:16.808944, 1.93548
2022-12-15 17:14:16.809502, 1.92082
2022-12-15 17:14:16.842226, 1.90127
2022-12-15 17:14:16.842523, 1.89149
2022-12-15 17:14:16.843117, 1.87683
2022-12-15 17:14:16.875795, 1.85728
2022-12-15 17:14:16.876197, 1.83284
2022-12-15 17:14:16.909414, 1.82795
2022-12-15 17:14:16.909414, 1.82795
2022-12-15 17:14:16.910416, 1.82306
2022-12-15 17:14:16.942784, 1.82306
2022-12-15 17:14:16.943351, 1.82306
2022-12-15 17:14:16.943351, 1.83773
2022-12-15 17:14:16.976130, 1.84261
2022-12-15 17:14:16.976507, 1.84261
2022-12-15 17:14:17.010055, 1.84750
2022-12-15 17:14:17.010321, 1.86217
2022-12-15 17:14:17.010992, 1.85728
2022-12-15 17:14:17.043451, 1.84261
2022-12-15 17:14:17.043747, 1.83773
2022-12-15 17:14:17.044342, 1.83284
2022-12-15 17:14:17.077045, 1.81329
2022-12-15 17:14:17.077437, 1.81329
2022-12-15 17:14:17.110520, 1.76930
2022-12-15 17:14:17.110761, 1.75953
2022-12-15 17:14:17.111274, 1.74975
2022-12-15 17:14:17.144205, 1.71065
2022-12-15 17:14:17.144497, 1.70087
2022-12-15 17:14:17.145051, 1.67644
2022-12-15 17:14:17.177490, 1.65689
2022-12-15 17:14:17.177490, 1.63245
2022-12-15 17:14:17.210638, 1.62267
2022-12-15 17:14:17.210638, 1.60312
2022-12-15 17:14:17.211646, 1.58846
2022-12-15 17:14:17.243679, 1.56402
2022-12-15 17:14:17.244676, 1.55425
2022-12-15 17:14:17.245076, 1.54447
2022-12-15 17:14:17.278195, 1.53470
2022-12-15 17:14:17.278543, 1.51515
2022-12-15 17:14:17.311912, 1.50048
2022-12-15 17:14:17.312178, 1.49071
2022-12-15 17:14:17.313180, 1.48582
2022-12-15 17:14:17.345433, 1.46627
2022-12-15 17:14:17.345727, 1.45161
2022-12-15 17:14:17.345727, 1.45161
2022-12-15 17:14:17.378942, 1.44672
2022-12-15 17:14:17.379288, 1.42717
2022-12-15 17:14:17.412490, 1.42717
2022-12-15 17:14:17.412730, 1.42228
2022-12-15 17:14:17.413280, 1.41739
2022-12-15 17:14:17.445958, 1.40273
2022-12-15 17:14:17.446614, 1.39296
2022-12-15 17:14:17.446614, 1.39784
2022-12-15 17:14:17.479109, 1.40273
2022-12-15 17:14:17.479109, 1.40273
2022-12-15 17:14:17.512924, 1.37341
2022-12-15 17:14:17.513165, 1.36363
2022-12-15 17:14:17.513719, 1.36363
2022-12-15 17:14:17.546422, 1.35386
2022-12-15 17:14:17.546718, 1.34897
2022-12-15 17:14:17.546718, 1.35874
2022-12-15 17:14:17.580075, 1.33919
2022-12-15 17:14:17.580422, 1.32453
2022-12-15 17:14:17.612910, 1.31964
2022-12-15 17:14:17.612910, 1.32942
2022-12-15 17:14:17.613714, 1.35386
2022-12-15 17:14:17.647086, 1.39784
2022-12-15 17:14:17.647378, 1.47116
2022-12-15 17:14:17.647969, 1.52492
2022-12-15 17:14:17.680722, 1.61290
2022-12-15 17:14:17.681107, 1.68621
2022-12-15 17:14:17.714252, 1.74975
2022-12-15 17:14:17.714252, 1.81818
2022-12-15 17:14:17.715247, 1.90127
2022-12-15 17:14:17.746800, 1.93548
2022-12-15 17:14:17.747491, 1.99413
2022-12-15 17:14:17.747491, 1.99902
2022-12-15 17:14:17.781297, 2.03812
2022-12-15 17:14:17.781675, 2.03812
2022-12-15 17:14:17.814823, 2.04301
2022-12-15 17:14:17.815063, 2.04301
2022-12-15 17:14:17.815655, 2.05278
2022-12-15 17:14:17.848329, 2.04301
2022-12-15 17:14:17.848624, 2.02834
2022-12-15 17:14:17.849222, 2.02346
2022-12-15 17:14:17.881897, 2.01857
2022-12-15 17:14:17.882273, 2.03323
2022-12-15 17:14:17.915436, 1.97947
2022-12-15 17:14:17.915703, 1.98435
2022-12-15 17:14:17.916212, 1.96480
2022-12-15 17:14:17.948911, 1.95992
2022-12-15 17:14:17.949261, 1.94037
2022-12-15 17:14:17.949953, 1.94525
2022-12-15 17:14:17.982342, 1.94525
2022-12-15 17:14:17.982342, 1.95503
2022-12-15 17:14:18.015295, 1.94525
2022-12-15 17:14:18.015295, 1.94037
2022-12-15 17:14:18.016305, 1.94525
2022-12-15 17:14:18.049433, 1.94525
2022-12-15 17:14:18.049730, 1.92570
2022-12-15 17:14:18.050731, 1.93548
2022-12-15 17:14:18.082927, 1.91104
2022-12-15 17:14:18.082927, 1.90127
2022-12-15 17:14:18.116373, 1.86705
2022-12-15 17:14:18.116373, 1.87194
2022-12-15 17:14:18.117400, 1.82795
2022-12-15 17:14:18.149414, 1.80351
2022-12-15 17:14:18.150415, 1.78885
2022-12-15 17:14:18.150415, 1.74975
2022-12-15 17:14:18.183543, 1.72531
2022-12-15 17:14:18.184023, 1.71554
2022-12-15 17:14:18.217079, 1.71065
2022-12-15 17:14:18.217454, 1.66177
2022-12-15 17:14:18.217920, 1.64711
2022-12-15 17:14:18.250431, 1.63245
2022-12-15 17:14:18.250819, 1.61290
2022-12-15 17:14:18.250819, 1.58846
2022-12-15 17:14:18.283791, 1.58846
2022-12-15 17:14:18.284345, 1.56402
2022-12-15 17:14:18.316662, 1.53958
2022-12-15 17:14:18.317669, 1.52492
2022-12-15 17:14:18.317669, 1.51515
2022-12-15 17:14:18.350229, 1.51026
2022-12-15 17:14:18.351231, 1.49071
2022-12-15 17:14:18.351618, 1.47605
2022-12-15 17:14:18.383676, 1.47116
2022-12-15 17:14:18.384714, 1.46627
2022-12-15 17:14:18.417081, 1.47605
2022-12-15 17:14:18.418083, 1.44183
2022-12-15 17:14:18.418571, 1.42717
2022-12-15 17:14:18.451499, 1.42717
2022-12-15 17:14:18.451499, 1.41251
2022-12-15 17:14:18.452464, 1.39296
2022-12-15 17:14:18.485215, 1.38807
2022-12-15 17:14:18.485601, 1.39296
2022-12-15 17:14:18.518800, 1.38807
2022-12-15 17:14:18.519080, 1.36363
2022-12-15 17:14:18.519681, 1.35386
2022-12-15 17:14:18.551430, 1.35386
2022-12-15 17:14:18.552433, 1.34408
2022-12-15 17:14:18.552433, 1.32942
2022-12-15 17:14:18.585239, 1.32942
2022-12-15 17:14:18.585897, 1.31964
2022-12-15 17:14:18.619362, 1.31964
2022-12-15 17:14:18.619604, 1.30987
2022-12-15 17:14:18.620192, 1.30009
2022-12-15 17:14:18.653013, 1.29521
2022-12-15 17:14:18.653308, 1.28543
2022-12-15 17:14:18.653308, 1.27565
2022-12-15 17:14:18.686476, 1.27565
2022-12-15 17:14:18.686830, 1.29521
2022-12-15 17:14:18.720084, 1.32942
2022-12-15 17:14:18.720324, 1.37829
2022-12-15 17:14:18.720921, 1.45161
2022-12-15 17:14:18.753495, 1.51515
2022-12-15 17:14:18.753792, 1.59335
2022-12-15 17:14:18.754385, 1.65200
2022-12-15 17:14:18.786102, 1.72043
2022-12-15 17:14:18.787099, 1.77908
2022-12-15 17:14:18.820089, 1.84261
2022-12-15 17:14:18.820089, 1.88172
2022-12-15 17:14:18.821089, 1.90127
2022-12-15 17:14:18.853681, 1.92570
2022-12-15 17:14:18.854683, 1.97947
2022-12-15 17:14:18.854683, 1.94525
2022-12-15 17:14:18.887347, 1.94525
2022-12-15 17:14:18.887347, 1.95503
2022-12-15 17:14:18.920452, 1.95503
2022-12-15 17:14:18.920452, 1.95014
2022-12-15 17:14:18.921481, 1.93548
2022-12-15 17:14:18.954877, 1.95014
2022-12-15 17:14:18.955171, 1.91593
2022-12-15 17:14:18.955171, 1.90127
2022-12-15 17:14:18.988243, 1.88172
2022-12-15 17:14:18.989010, 1.90127
2022-12-15 17:14:19.021834, 1.87683
2022-12-15 17:14:19.021834, 1.86705
2022-12-15 17:14:19.022835, 1.85728
2022-12-15 17:14:19.055378, 1.86705
2022-12-15 17:14:19.055674, 1.90615
2022-12-15 17:14:19.055674, 1.87683
2022-12-15 17:14:19.088980, 1.87194
2022-12-15 17:14:19.089552, 1.88172
2022-12-15 17:14:19.122479, 1.88660
2022-12-15 17:14:19.123068, 1.88172
2022-12-15 17:14:19.123068, 1.86217
2022-12-15 17:14:19.155267, 1.85728
2022-12-15 17:14:19.156276, 1.85239
2022-12-15 17:14:19.156276, 1.86217
2022-12-15 17:14:19.189166, 1.80351
2022-12-15 17:14:19.189718, 1.78885
2022-12-15 17:14:19.223190, 1.78885
2022-12-15 17:14:19.223476, 1.75464
2022-12-15 17:14:19.224081, 1.72043
2022-12-15 17:14:19.256688, 1.70087
2022-12-15 17:14:19.256688, 1.68621
2022-12-15 17:14:19.257692, 1.67155
2022-12-15 17:14:19.289702, 1.64222
2022-12-15 17:14:19.289702, 1.61779
2022-12-15 17:14:19.323512, 1.60801
2022-12-15 17:14:19.323512, 1.59335
2022-12-15 17:14:19.324518, 1.56891
2022-12-15 17:14:19.356634, 1.55913
2022-12-15 17:14:19.356634, 1.55425
2022-12-15 17:14:19.357435, 1.55913
2022-12-15 17:14:19.390547, 1.51026
2022-12-15 17:14:19.390547, 1.50048
2022-12-15 17:14:19.423535, 1.49560
2022-12-15 17:14:19.423535, 1.48582
2022-12-15 17:14:19.424549, 1.47116
2022-12-15 17:14:19.457412, 1.46138
2022-12-15 17:14:19.457412, 1.46138
2022-12-15 17:14:19.457412, 1.47605
2022-12-15 17:14:19.491262, 1.43695
2022-12-15 17:14:19.491607, 1.42717
2022-12-15 17:14:19.524668, 1.42228
2022-12-15 17:14:19.524906, 1.41739
2022-12-15 17:14:19.525497, 1.40762
2022-12-15 17:14:19.558223, 1.40762
2022-12-15 17:14:19.558223, 1.38807
2022-12-15 17:14:19.559223, 1.38807
2022-12-15 17:14:19.591735, 1.37341
2022-12-15 17:14:19.592082, 1.36363
2022-12-15 17:14:19.625294, 1.35874
2022-12-15 17:14:19.625531, 1.35386
2022-12-15 17:14:19.626127, 1.33919
2022-12-15 17:14:19.658910, 1.33431
2022-12-15 17:14:19.659254, 1.33919
2022-12-15 17:14:19.659762, 1.34897
2022-12-15 17:14:19.692257, 1.31964
2022-12-15 17:14:19.692257, 1.30009
2022-12-15 17:14:19.725087, 1.30009
2022-12-15 17:14:19.726119, 1.30498
2022-12-15 17:14:19.726119, 1.31476
2022-12-15 17:14:19.758509, 1.35386
2022-12-15 17:14:19.759476, 1.41251
2022-12-15 17:14:19.759476, 1.49560
2022-12-15 17:14:19.792998, 1.52981
2022-12-15 17:14:19.793344, 1.58846
2022-12-15 17:14:19.826510, 1.65689
2022-12-15 17:14:19.826751, 1.72531
2022-12-15 17:14:19.827342, 1.77908
2022-12-15 17:14:19.859674, 1.81818
2022-12-15 17:14:19.859674, 1.85239
2022-12-15 17:14:19.859674, 1.89149
2022-12-15 17:14:19.893624, 1.90127
2022-12-15 17:14:19.893968, 1.90615
2022-12-15 17:14:19.927181, 1.93548
2022-12-15 17:14:19.927516, 1.92082
2022-12-15 17:14:19.928019, 1.93548
2022-12-15 17:14:19.960858, 1.89149
2022-12-15 17:14:19.960858, 1.88172
2022-12-15 17:14:19.961893, 1.88172
2022-12-15 17:14:19.993356, 1.86217
2022-12-15 17:14:19.993356, 1.83773
2022-12-15 17:14:20.027779, 1.82306
2022-12-15 17:14:20.027779, 1.84750
2022-12-15 17:14:20.028765, 1.81329
2022-12-15 17:14:20.061210, 1.80840
2022-12-15 17:14:20.061210, 1.80840
2022-12-15 17:14:20.062221, 1.81329
2022-12-15 17:14:20.094513, 1.82306
2022-12-15 17:14:20.094513, 1.83773
2022-12-15 17:14:20.127801, 1.82306
2022-12-15 17:14:20.127801, 1.83773
2022-12-15 17:14:20.128803, 1.85239
2022-12-15 17:14:20.161877, 1.83284
2022-12-15 17:14:20.162169, 1.83284
2022-12-15 17:14:20.162721, 1.85728
2022-12-15 17:14:20.195237, 1.81818
2022-12-15 17:14:20.195237, 1.79374
2022-12-15 17:14:20.228273, 1.79374
2022-12-15 17:14:20.228273, 1.75953
2022-12-15 17:14:20.229274, 1.74486
2022-12-15 17:14:20.261522, 1.73020
2022-12-15 17:14:20.262519, 1.70087
2022-12-15 17:14:20.262519, 1.68621
2022-12-15 17:14:20.296100, 1.67155
2022-12-15 17:14:20.296489, 1.64222
2022-12-15 17:14:20.329466, 1.62756
2022-12-15 17:14:20.329704, 1.63734
2022-12-15 17:14:20.329704, 1.60312
2022-12-15 17:14:20.363016, 1.57380
2022-12-15 17:14:20.363344, 1.56402
2022-12-15 17:14:20.363807, 1.55425
2022-12-15 17:14:20.396600, 1.55913
2022-12-15 17:14:20.396990, 1.52492
2022-12-15 17:14:20.430159, 1.51026
2022-12-15 17:14:20.430159, 1.50048
2022-12-15 17:14:20.431166, 1.49560
2022-12-15 17:14:20.463228, 1.48093
2022-12-15 17:14:20.463228, 1.47605
2022-12-15 17:14:20.464095, 1.46138
2022-12-15 17:14:20.497081, 1.46138
2022-12-15 17:14:20.497426, 1.45161
2022-12-15 17:14:20.530830, 1.43695
2022-12-15 17:14:20.531070, 1.43695
2022-12-15 17:14:20.531070, 1.45161
2022-12-15 17:14:20.564246, 1.42228
2022-12-15 17:14:20.564539, 1.41251
2022-12-15 17:14:20.564539, 1.40762
2022-12-15 17:14:20.597831, 1.40762
2022-12-15 17:14:20.598207, 1.39784
2022-12-15 17:14:20.631342, 1.38807
2022-12-15 17:14:20.631581, 1.40762
2022-12-15 17:14:20.632045, 1.37341
2022-12-15 17:14:20.664846, 1.36852
2022-12-15 17:14:20.665197, 1.35386
2022-12-15 17:14:20.665806, 1.34408
2022-12-15 17:14:20.698264, 1.34897
2022-12-15 17:14:20.698861, 1.34897
2022-12-15 17:14:20.730685, 1.38318
2022-12-15 17:14:20.731720, 1.39296
2022-12-15 17:14:20.731720, 1.45161
2022-12-15 17:14:20.765267, 1.51515
2022-12-15 17:14:20.765532, 1.57380
2022-12-15 17:14:20.765532, 1.66177
2022-12-15 17:14:20.799083, 1.73020
2022-12-15 17:14:20.799432, 1.79863
2022-12-15 17:14:20.832630, 1.84750
2022-12-15 17:14:20.832869, 1.90615
2022-12-15 17:14:20.833476, 1.95503
2022-12-15 17:14:20.866054, 1.99413
2022-12-15 17:14:20.866347, 1.99413
2022-12-15 17:14:20.866933, 2.02834
2022-12-15 17:14:20.899613, 2.02834
2022-12-15 17:14:20.899960, 2.05278
2022-12-15 17:14:20.933210, 2.02834
2022-12-15 17:14:20.933476, 2.05278
2022-12-15 17:14:20.934478, 2.02834
2022-12-15 17:14:20.966709, 2.05278
2022-12-15 17:14:20.966709, 2.00391
2022-12-15 17:14:20.967709, 2.01368
2022-12-15 17:14:21.000100, 1.97458
2022-12-15 17:14:21.000644, 1.97947
2022-12-15 17:14:21.032439, 1.94525
2022-12-15 17:14:21.033448, 1.94037
2022-12-15 17:14:21.033832, 1.93548
2022-12-15 17:14:21.067322, 1.96969
2022-12-15 17:14:21.067614, 1.93548
2022-12-15 17:14:21.068615, 1.93059
2022-12-15 17:14:21.100896, 1.95014
2022-12-15 17:14:21.101897, 1.94525
2022-12-15 17:14:21.133566, 1.94525
2022-12-15 17:14:21.133566, 1.92570
2022-12-15 17:14:21.134562, 1.92082
2022-12-15 17:14:21.167472, 1.93059
2022-12-15 17:14:21.167472, 1.90127
2022-12-15 17:14:21.168470, 1.87683
2022-12-15 17:14:21.201457, 1.86705
2022-12-15 17:14:21.201894, 1.85239
2022-12-15 17:14:21.235037, 1.82306
2022-12-15 17:14:21.235268, 1.79374
2022-12-15 17:14:21.235910, 1.77419
2022-12-15 17:14:21.268234, 1.76441
2022-12-15 17:14:21.268234, 1.74975
2022-12-15 17:14:21.269191, 1.70576
2022-12-15 17:14:21.301644, 1.68621
2022-12-15 17:14:21.301644, 1.67644
2022-12-15 17:14:21.334752, 1.66177
2022-12-15 17:14:21.335754, 1.62756
2022-12-15 17:14:21.335754, 1.61290
2022-12-15 17:14:21.368166, 1.59824
2022-12-15 17:14:21.369169, 1.58357
2022-12-15 17:14:21.369169, 1.55913
2022-12-15 17:14:21.401589, 1.54447
2022-12-15 17:14:21.402592, 1.54936
2022-12-15 17:14:21.435987, 1.53470
2022-12-15 17:14:21.436226, 1.52492
2022-12-15 17:14:21.436698, 1.50048
2022-12-15 17:14:21.469584, 1.49560
2022-12-15 17:14:21.469907, 1.48582
2022-12-15 17:14:21.470458, 1.46627
2022-12-15 17:14:21.502939, 1.46627
2022-12-15 17:14:21.503663, 1.48093
2022-12-15 17:14:21.536609, 1.45650
2022-12-15 17:14:21.536848, 1.45161
2022-12-15 17:14:21.537395, 1.42228
2022-12-15 17:14:21.570149, 1.41739
2022-12-15 17:14:21.570446, 1.41251
2022-12-15 17:14:21.571044, 1.39296
2022-12-15 17:14:21.603789, 1.38807
2022-12-15 17:14:21.604137, 1.38318
2022-12-15 17:14:21.636821, 1.37829
2022-12-15 17:14:21.637041, 1.35874
2022-12-15 17:14:21.637491, 1.35874
2022-12-15 17:14:21.670373, 1.36852
2022-12-15 17:14:21.670641, 1.34408
2022-12-15 17:14:21.671090, 1.32453
2022-12-15 17:14:21.704265, 1.31476
2022-12-15 17:14:21.704608, 1.30987
2022-12-15 17:14:21.737832, 1.31476
2022-12-15 17:14:21.738100, 1.30987
2022-12-15 17:14:21.739103, 1.34408
2022-12-15 17:14:21.771418, 1.37341
2022-12-15 17:14:21.771418, 1.43206
2022-12-15 17:14:21.772422, 1.49560
2022-12-15 17:14:21.804212, 1.56891
2022-12-15 17:14:21.805220, 1.64222
2022-12-15 17:14:21.838004, 1.72043
2022-12-15 17:14:21.838249, 1.77419
2022-12-15 17:14:21.838749, 1.82795
2022-12-15 17:14:21.871790, 1.90615
2022-12-15 17:14:21.872831, 1.92082
2022-12-15 17:14:21.872831, 1.94037
2022-12-15 17:14:21.904661, 1.95014
2022-12-15 17:14:21.905316, 1.96480
2022-12-15 17:14:21.939078, 1.98924
2022-12-15 17:14:21.939078, 1.97947
2022-12-15 17:14:21.940079, 1.96969
2022-12-15 17:14:21.972568, 1.96969
2022-12-15 17:14:21.972861, 2.00391
2022-12-15 17:14:21.972861, 1.95992
2022-12-15 17:14:22.005968, 1.96969
2022-12-15 17:14:22.006668, 1.93059
2022-12-15 17:14:22.039578, 1.95503
2022-12-15 17:14:22.040256, 1.90615
2022-12-15 17:14:22.040256, 1.89149
2022-12-15 17:14:22.073243, 1.88660
2022-12-15 17:14:22.073770, 1.89638
2022-12-15 17:14:22.073770, 1.88660
2022-12-15 17:14:22.106405, 1.87194
2022-12-15 17:14:22.107411, 1.89149
2022-12-15 17:14:22.139631, 1.88660
2022-12-15 17:14:22.139631, 1.89149
2022-12-15 17:14:22.140632, 1.87683
2022-12-15 17:14:22.173722, 1.87683
2022-12-15 17:14:22.174147, 1.87194
2022-12-15 17:14:22.174147, 1.89149
2022-12-15 17:14:22.207066, 1.83773
2022-12-15 17:14:22.207066, 1.82306
2022-12-15 17:14:22.240852, 1.80840
2022-12-15 17:14:22.240852, 1.79374
2022-12-15 17:14:22.241879, 1.75953
2022-12-15 17:14:22.274255, 1.74486
2022-12-15 17:14:22.274602, 1.73509
2022-12-15 17:14:22.274602, 1.71065
2022-12-15 17:14:22.307307, 1.67644
2022-12-15 17:14:22.307307, 1.66177
2022-12-15 17:14:22.341333, 1.65689
2022-12-15 17:14:22.341333, 1.63734
2022-12-15 17:14:22.342340, 1.60312
2022-12-15 17:14:22.374139, 1.58846
2022-12-15 17:14:22.375147, 1.57380
2022-12-15 17:14:22.375147, 1.56402
2022-12-15 17:14:22.407893, 1.53470
2022-12-15 17:14:22.408529, 1.52492
2022-12-15 17:14:22.441877, 1.52492
2022-12-15 17:14:22.442119, 1.53958
2022-12-15 17:14:22.442119, 1.50537
2022-12-15 17:14:22.475486, 1.47605
2022-12-15 17:14:22.475816, 1.47116
2022-12-15 17:14:22.476374, 1.46138
2022-12-15 17:14:22.509103, 1.44672
2022-12-15 17:14:22.509449, 1.44183
2022-12-15 17:14:22.542512, 1.42717
2022-12-15 17:14:22.542751, 1.42228
2022-12-15 17:14:22.542751, 1.40762
2022-12-15 17:14:22.576039, 1.39784
2022-12-15 17:14:22.576373, 1.38807
2022-12-15 17:14:22.576373, 1.39296
2022-12-15 17:14:22.609576, 1.37341
2022-12-15 17:14:22.609576, 1.38807
2022-12-15 17:14:22.643079, 1.35386
2022-12-15 17:14:22.643079, 1.34897
2022-12-15 17:14:22.644087, 1.33431
2022-12-15 17:14:22.676358, 1.31964
2022-12-15 17:14:22.676704, 1.31476
2022-12-15 17:14:22.677154, 1.31476
2022-12-15 17:14:22.710327, 1.30987
2022-12-15 17:14:22.710672, 1.28054
2022-12-15 17:14:22.743898, 1.27077
2022-12-15 17:14:22.744138, 1.26588
2022-12-15 17:14:22.744735, 1.26099
2022-12-15 17:14:22.777494, 1.27077
2022-12-15 17:14:22.777828, 1.24144
2022-12-15 17:14:22.778419, 1.26099
2022-12-15 17:14:22.810997, 1.29032
2022-12-15 17:14:22.811344, 1.31964
2022-12-15 17:14:22.844379, 1.37341
2022-12-15 17:14:22.844617, 1.44183
2022-12-15 17:14:22.844617, 1.50537
2022-12-15 17:14:22.877928, 1.54447
2022-12-15 17:14:22.878252, 1.59824
2022-12-15 17:14:22.878807, 1.64711
2022-12-15 17:14:22.911334, 1.68621
2022-12-15 17:14:22.912058, 1.71554
2022-12-15 17:14:22.943950, 1.75953
2022-12-15 17:14:22.944956, 1.75464
2022-12-15 17:14:22.944956, 1.76441
2022-12-15 17:14:22.978496, 1.75464
2022-12-15 17:14:22.978816, 1.75953
2022-12-15 17:14:22.979471, 1.75953
2022-12-15 17:14:23.012037, 1.75464
2022-12-15 17:14:23.012382, 1.73509
2022-12-15 17:14:23.045579, 1.73020
2022-12-15 17:14:23.045818, 1.71554
2022-12-15 17:14:23.046409, 1.71065
2022-12-15 17:14:23.079145, 1.70576
2022-12-15 17:14:23.079476, 1.67644
2022-12-15 17:14:23.080125, 1.67644
2022-12-15 17:14:23.112728, 1.68132
2022-12-15 17:14:23.113114, 1.67644
2022-12-15 17:14:23.146319, 1.67155
2022-12-15 17:14:23.146558, 1.67644
2022-12-15 17:14:23.146558, 1.70087
2022-12-15 17:14:23.179644, 1.68621
2022-12-15 17:14:23.179644, 1.69110
2022-12-15 17:14:23.180588, 1.71554
2022-12-15 17:14:23.212100, 1.70087
2022-12-15 17:14:23.213107, 1.69110
2022-12-15 17:14:23.246662, 1.70087
2022-12-15 17:14:23.246901, 1.66666
2022-12-15 17:14:23.247491, 1.66666
2022-12-15 17:14:23.280416, 1.64711
2022-12-15 17:14:23.280734, 1.62756
2022-12-15 17:14:23.281378, 1.60801
2022-12-15 17:14:23.313904, 1.60312
2022-12-15 17:14:23.314254, 1.58846
2022-12-15 17:14:23.347395, 1.56402
2022-12-15 17:14:23.347634, 1.53958
2022-12-15 17:14:23.347634, 1.53470
2022-12-15 17:14:23.380929, 1.52003
2022-12-15 17:14:23.381259, 1.50048
2022-12-15 17:14:23.381775, 1.48093
2022-12-15 17:14:23.414543, 1.47605
2022-12-15 17:14:23.414918, 1.45650
2022-12-15 17:14:23.447775, 1.44672
2022-12-15 17:14:23.447775, 1.45650
2022-12-15 17:14:23.448777, 1.42717
2022-12-15 17:14:23.481440, 1.41251
2022-12-15 17:14:23.481440, 1.39784
2022-12-15 17:14:23.482448, 1.40762
2022-12-15 17:14:23.514748, 1.38318
2022-12-15 17:14:23.514748, 1.37341
2022-12-15 17:14:23.547520, 1.35386
2022-12-15 17:14:23.548515, 1.34897
2022-12-15 17:14:23.548515, 1.34897
2022-12-15 17:14:23.582117, 1.34408
2022-12-15 17:14:23.582409, 1.31964
2022-12-15 17:14:23.582997, 1.31476
2022-12-15 17:14:23.615580, 1.31476
2022-12-15 17:14:23.615930, 1.32453
2022-12-15 17:14:23.649160, 1.29032
2022-12-15 17:14:23.649160, 1.28054
2022-12-15 17:14:23.650012, 1.28054
2022-12-15 17:14:23.682743, 1.28543
2022-12-15 17:14:23.683076, 1.25610
2022-12-15 17:14:23.683671, 1.25122
2022-12-15 17:14:23.716457, 1.25122
2022-12-15 17:14:23.716840, 1.24633
2022-12-15 17:14:23.749968, 1.23167
2022-12-15 17:14:23.750207, 1.22678
2022-12-15 17:14:23.750797, 1.24633
2022-12-15 17:14:23.783404, 1.26588
2022-12-15 17:14:23.784140, 1.29032
2022-12-15 17:14:23.784140, 1.33431
2022-12-15 17:14:23.816953, 1.39296
2022-12-15 17:14:23.817962, 1.44672
2022-12-15 17:14:23.849067, 1.48582
2022-12-15 17:14:23.850083, 1.54447
2022-12-15 17:14:23.850542, 1.57869
2022-12-15 17:14:23.883962, 1.62756
2022-12-15 17:14:23.884258, 1.65689
2022-12-15 17:14:23.884845, 1.67644
2022-12-15 17:14:23.916911, 1.70576
2022-12-15 17:14:23.916911, 1.73509
2022-12-15 17:14:23.951076, 1.73998
2022-12-15 17:14:23.951313, 1.74486
2022-12-15 17:14:23.951860, 1.74975
2022-12-15 17:14:23.984563, 1.78396
2022-12-15 17:14:23.984885, 1.75953
2022-12-15 17:14:23.984885, 1.78885
2022-12-15 17:14:24.018066, 1.76441
2022-12-15 17:14:24.018452, 1.76930
2022-12-15 17:14:24.051590, 1.75953
2022-12-15 17:14:24.051872, 1.74486
2022-12-15 17:14:24.052520, 1.76930
2022-12-15 17:14:24.085021, 1.74975
2022-12-15 17:14:24.085021, 1.76930
2022-12-15 17:14:24.085986, 1.74486
2022-12-15 17:14:24.118069, 1.75953
2022-12-15 17:14:24.118069, 1.75953
2022-12-15 17:14:24.150862, 1.76441
2022-12-15 17:14:24.151857, 1.76441
2022-12-15 17:14:24.151857, 1.76441
2022-12-15 17:14:24.185473, 1.76930
2022-12-15 17:14:24.185473, 1.76441
2022-12-15 17:14:24.186478, 1.75464
2022-12-15 17:14:24.219188, 1.76930
2022-12-15 17:14:24.219188, 1.74486
2022-12-15 17:14:24.252646, 1.74486
2022-12-15 17:14:24.252646, 1.71554
2022-12-15 17:14:24.253652, 1.70087
2022-12-15 17:14:24.285975, 1.70087
2022-12-15 17:14:24.287012, 1.68132
2022-12-15 17:14:24.287012, 1.65689
2022-12-15 17:14:24.319387, 1.65200
2022-12-15 17:14:24.319882, 1.63734
2022-12-15 17:14:24.352699, 1.62267
2022-12-15 17:14:24.353069, 1.59335
2022-12-15 17:14:24.353533, 1.57869
2022-12-15 17:14:24.386442, 1.56891
2022-12-15 17:14:24.386776, 1.55425
2022-12-15 17:14:24.386776, 1.53470
2022-12-15 17:14:24.420427, 1.52981
2022-12-15 17:14:24.421430, 1.51026
2022-12-15 17:14:24.453824, 1.50537
2022-12-15 17:14:24.454092, 1.48093
2022-12-15 17:14:24.454745, 1.46627
2022-12-15 17:14:24.487090, 1.46627
2022-12-15 17:14:24.487510, 1.47605
2022-12-15 17:14:24.487967, 1.43695
2022-12-15 17:14:24.520370, 1.42717
2022-12-15 17:14:24.520370, 1.42228
2022-12-15 17:14:24.554081, 1.41739
2022-12-15 17:14:24.554371, 1.40762
2022-12-15 17:14:24.554839, 1.38807
2022-12-15 17:14:24.587721, 1.37829
2022-12-15 17:14:24.588091, 1.37829
2022-12-15 17:14:24.588546, 1.35874
2022-12-15 17:14:24.621179, 1.34897
2022-12-15 17:14:24.621602, 1.34897
2022-12-15 17:14:24.654553, 1.34897
2022-12-15 17:14:24.654875, 1.32453
2022-12-15 17:14:24.654875, 1.30987
2022-12-15 17:14:24.688224, 1.30498
2022-12-15 17:14:24.688496, 1.30009
2022-12-15 17:14:24.688970, 1.30987
2022-12-15 17:14:24.721998, 1.27077
2022-12-15 17:14:24.721998, 1.26588
2022-12-15 17:14:24.755648, 1.26099
2022-12-15 17:14:24.755916, 1.26588
2022-12-15 17:14:24.756919, 1.23655
2022-12-15 17:14:24.789295, 1.23167
2022-12-15 17:14:24.789295, 1.24144
2022-12-15 17:14:24.790304, 1.26099
2022-12-15 17:14:24.822427, 1.31476
2022-12-15 17:14:24.822427, 1.33431
2022-12-15 17:14:24.855987, 1.39296
2022-12-15 17:14:24.855987, 1.43695
2022-12-15 17:14:24.856988, 1.48093
2022-12-15 17:14:24.889793, 1.52492
2022-12-15 17:14:24.890208, 1.57869
2022-12-15 17:14:24.890208, 1.61779
2022-12-15 17:14:24.923231, 1.64711
2022-12-15 17:14:24.923231, 1.67644
2022-12-15 17:14:24.956499, 1.71065
2022-12-15 17:14:24.956499, 1.73509
2022-12-15 17:14:24.957501, 1.74975
2022-12-15 17:14:24.989924, 1.76441
2022-12-15 17:14:24.989924, 1.78396
2022-12-15 17:14:24.990926, 1.79863
2022-12-15 17:14:25.023238, 1.79374
2022-12-15 17:14:25.023238, 1.80351
2022-12-15 17:14:25.056571, 1.80840
2022-12-15 17:14:25.057556, 1.81818
2022-12-15 17:14:25.057556, 1.80351
2022-12-15 17:14:25.089884, 1.82795
2022-12-15 17:14:25.090884, 1.80351
2022-12-15 17:14:25.090884, 1.83284
2022-12-15 17:14:25.124430, 1.80351
2022-12-15 17:14:25.125241, 1.80840
2022-12-15 17:14:25.157486, 1.81818
2022-12-15 17:14:25.157486, 1.82795
2022-12-15 17:14:25.157486, 1.82306
2022-12-15 17:14:25.191273, 1.82795
2022-12-15 17:14:25.191273, 1.83773
2022-12-15 17:14:25.192281, 1.84261
2022-12-15 17:14:25.224492, 1.82795
2022-12-15 17:14:25.225144, 1.82795
2022-12-15 17:14:25.258308, 1.82795
2022-12-15 17:14:25.258547, 1.84261
2022-12-15 17:14:25.259146, 1.80840
2022-12-15 17:14:25.291810, 1.81329
2022-12-15 17:14:25.292147, 1.78885
2022-12-15 17:14:25.292785, 1.78396
2022-12-15 17:14:25.325634, 1.76441
2022-12-15 17:14:25.326048, 1.74486
2022-12-15 17:14:25.358807, 1.73020
2022-12-15 17:14:25.358807, 1.72531
2022-12-15 17:14:25.359808, 1.70087
2022-12-15 17:14:25.392614, 1.68132
2022-12-15 17:14:25.393523, 1.67155
2022-12-15 17:14:25.393854, 1.68621
2022-12-15 17:14:25.426157, 1.64222
2022-12-15 17:14:25.426505, 1.61779
2022-12-15 17:14:25.459704, 1.61779
2022-12-15 17:14:25.459941, 1.60312
2022-12-15 17:14:25.459941, 1.58357
2022-12-15 17:14:25.493221, 1.56891
2022-12-15 17:14:25.493515, 1.56402
2022-12-15 17:14:25.493515, 1.57869
2022-12-15 17:14:25.526823, 1.53958
2022-12-15 17:14:25.527171, 1.52492
2022-12-15 17:14:25.560341, 1.51515
2022-12-15 17:14:25.560580, 1.51026
2022-12-15 17:14:25.561047, 1.49560
2022-12-15 17:14:25.593958, 1.48582
2022-12-15 17:14:25.594294, 1.49071
2022-12-15 17:14:25.594883, 1.47116
2022-12-15 17:14:25.627514, 1.46138
2022-12-15 17:14:25.627895, 1.44183
2022-12-15 17:14:25.660865, 1.43695
2022-12-15 17:14:25.660865, 1.43695
2022-12-15 17:14:25.661907, 1.42717
2022-12-15 17:14:25.694294, 1.39784
2022-12-15 17:14:25.695303, 1.38807
2022-12-15 17:14:25.695670, 1.38807
2022-12-15 17:14:25.728015, 1.37341
2022-12-15 17:14:25.728391, 1.35874
2022-12-15 17:14:25.761595, 1.35386
2022-12-15 17:14:25.761834, 1.34897
2022-12-15 17:14:25.762425, 1.34408
2022-12-15 17:14:25.795152, 1.33431
2022-12-15 17:14:25.795473, 1.34408
2022-12-15 17:14:25.796092, 1.36852
2022-12-15 17:14:25.828694, 1.40762
2022-12-15 17:14:25.829074, 1.44183
2022-12-15 17:14:25.862208, 1.51515
2022-12-15 17:14:25.862448, 1.52981
2022-12-15 17:14:25.862910, 1.58357
2022-12-15 17:14:25.895850, 1.61290
2022-12-15 17:14:25.896144, 1.64711
2022-12-15 17:14:25.896695, 1.69110
2022-12-15 17:14:25.929314, 1.73509
2022-12-15 17:14:25.929691, 1.73509
2022-12-15 17:14:25.961702, 1.75464
2022-12-15 17:14:25.962698, 1.77419
2022-12-15 17:14:25.962698, 1.79374
2022-12-15 17:14:25.996058, 1.81818
2022-12-15 17:14:25.996058, 1.79374
2022-12-15 17:14:25.996058, 1.79863
2022-12-15 17:14:26.029890, 1.80351
2022-12-15 17:14:26.030237, 1.79374
2022-12-15 17:14:26.063049, 1.78396
2022-12-15 17:14:26.063049, 1.78885
2022-12-15 17:14:26.064066, 1.78396
2022-12-15 17:14:26.097076, 1.77419
2022-12-15 17:14:26.097368, 1.76441
2022-12-15 17:14:26.097956, 1.77419
2022-12-15 17:14:26.130613, 1.78396
2022-12-15 17:14:26.130958, 1.79374
2022-12-15 17:14:26.164165, 1.77908
2022-12-15 17:14:26.164401, 1.81329
2022-12-15 17:14:26.164948, 1.79863
2022-12-15 17:14:26.197540, 1.80840
2022-12-15 17:14:26.197540, 1.79374
2022-12-15 17:14:26.198540, 1.80840
2022-12-15 17:14:26.230983, 1.80351
2022-12-15 17:14:26.232014, 1.79374
2022-12-15 17:14:26.263225, 1.77908
2022-12-15 17:14:26.264234, 1.76930
2022-12-15 17:14:26.264234, 1.78885
2022-12-15 17:14:26.297131, 1.74975
2022-12-15 17:14:26.298128, 1.73020
2022-12-15 17:14:26.298128, 1.71554
2022-12-15 17:14:26.331667, 1.71065
2022-12-15 17:14:26.332014, 1.70087
2022-12-15 17:14:26.365166, 1.67155
2022-12-15 17:14:26.365404, 1.66177
2022-12-15 17:14:26.365974, 1.65200
2022-12-15 17:14:26.398767, 1.64222
2022-12-15 17:14:26.399061, 1.61779
2022-12-15 17:14:26.399613, 1.63245
2022-12-15 17:14:26.432287, 1.59335
2022-12-15 17:14:26.432637, 1.58357
2022-12-15 17:14:26.465915, 1.56402
2022-12-15 17:14:26.466182, 1.55425
2022-12-15 17:14:26.466837, 1.55425
2022-12-15 17:14:26.499389, 1.54447
2022-12-15 17:14:26.499389, 1.51026
2022-12-15 17:14:26.500391, 1.50048
2022-12-15 17:14:26.532920, 1.49560
2022-12-15 17:14:26.532920, 1.48582
2022-12-15 17:14:26.565414, 1.46627
2022-12-15 17:14:26.566422, 1.46138
2022-12-15 17:14:26.566422, 1.45650
2022-12-15 17:14:26.599340, 1.45650
2022-12-15 17:14:26.599340, 1.45650
2022-12-15 17:14:26.600341, 1.41739
2022-12-15 17:14:26.633122, 1.41251
2022-12-15 17:14:26.633584, 1.40762
2022-12-15 17:14:26.667022, 1.38807
2022-12-15 17:14:26.667301, 1.37829
2022-12-15 17:14:26.667301, 1.38807
2022-12-15 17:14:26.700518, 1.37341
2022-12-15 17:14:26.700856, 1.35874
2022-12-15 17:14:26.701444, 1.34408
2022-12-15 17:14:26.734145, 1.34408
2022-12-15 17:14:26.734489, 1.35386
2022-12-15 17:14:26.767644, 1.34408
2022-12-15 17:14:26.767881, 1.33919
2022-12-15 17:14:26.768471, 1.36363
2022-12-15 17:14:26.801296, 1.40762
2022-12-15 17:14:26.801629, 1.44183
2022-12-15 17:14:26.802221, 1.49560
2022-12-15 17:14:26.834654, 1.55425
2022-12-15 17:14:26.835002, 1.63245
2022-12-15 17:14:26.868360, 1.64711
2022-12-15 17:14:26.868600, 1.68132
2022-12-15 17:14:26.869228, 1.72043
2022-12-15 17:14:26.901756, 1.76930
2022-12-15 17:14:26.902048, 1.81818
2022-12-15 17:14:26.902048, 1.83284
2022-12-15 17:14:26.935249, 1.83284
2022-12-15 17:14:26.935916, 1.87683
2022-12-15 17:14:26.968425, 1.86705
2022-12-15 17:14:26.968425, 1.89149
2022-12-15 17:14:26.969435, 1.87683
2022-12-15 17:14:27.001333, 1.89149
2022-12-15 17:14:27.002340, 1.89149
2022-12-15 17:14:27.002340, 1.88172
2022-12-15 17:14:27.035844, 1.87683
2022-12-15 17:14:27.036187, 1.88172
2022-12-15 17:14:27.069506, 1.87683
2022-12-15 17:14:27.069771, 1.86217
2022-12-15 17:14:27.070772, 1.86217
2022-12-15 17:14:27.103015, 1.86705
2022-12-15 17:14:27.103015, 1.87194
2022-12-15 17:14:27.104052, 1.86217
2022-12-15 17:14:27.136465, 1.86705
2022-12-15 17:14:27.136873, 1.87194
2022-12-15 17:14:27.169970, 1.87683
2022-12-15 17:14:27.169970, 1.86217
2022-12-15 17:14:27.170932, 1.86705
