HR_time,RR-interval,heart_rate
1.5339595341735524,905,67.23711352657004
2.4015268116979387,867,67.54827119480166
3.2942409668317274,892,66.38552411877826
4.2498223159890225,955,63.467457708945204
5.243123981560421,993,63.467457708945204
6.135838136694209,892,65.92974563464179
6.990831975413895,855,69.89566316436945
7.820678936524177,829,70.88404634581103
8.675672775243862,855,70.21571105169339
9.55581349157295,880,69.16785993179879
10.423380769097335,867,68.1794767503572
11.316094924231125,892,66.11371311399358
12.284249712193121,968,64.85055012014803
13.202110744936311,917,65.17059800747197
14.082251461265399,880,67.56568628151676
14.949818738789785,867,68.8288492753623
15.817386016314172,867,69.8463149470041
16.659806416229156,842,71.2649441554768
17.477079938534736,817,72.31279527537139
18.30692689964502,829,70.66412404817405
19.21221449358351,905,68.59612231469626
20.104928648717298,892,67.88728185123814
20.959922487436984,855,68.5184874067937
21.84006320376607,880,68.5184874067937
22.73277735889986,892,66.62186022078416
23.66321183044775,930,66.95118485846531
24.530779107972137,867,68.28869841743105
25.373199507887122,842,70.53445598096474
26.215619907802104,842,70.87346663740122
27.07061374652179,855,71.23317672333519
27.90046070763207,829,72.34602980169339
28.705160791132954,804,72.69516017921754
29.547581191047936,842,70.99793653431783
30.440295346181724,892,69.88508345595963
31.28271574609671,842,69.53595307843548
32.13770958481639,855,70.52433625987707
32.99270342353608,855,69.83619522591644
33.860270701060465,867,70.91581377795265
34.67754422336605,817,71.99543232998884
35.494817745671625,817,72.68357336394948
36.33723814558661,842,72.31279527537139
37.167085106696895,829,72.31279527537139
37.98435862900247,817,73.82015182595183
38.776485273698654,792,75.7956088552613
39.54346504078543,766,76.97970662201068
40.32301824667691,779,76.58520314978847
41.127718330177785,804,75.36288911290322
41.93241841367867,804,74.95565972222221
42.724545058374844,792,74.95565972222221
43.52924514187573,804,74.57329481837607
44.3465186641813,817,72.71680789027148
45.20151250290099,855,71.60395481191327
46.043932902815975,842,71.23317672333519
46.87377986392626,829,70.89416606689869
47.741347141450646,867,69.8767003952569
48.621487857779734,880,69.16785993179879
49.47648169649942,855,70.58648914027148
50.293755218804996,817,71.96366489784724
51.12360217991528,829,72.67250536130535
51.953449141025565,829,73.05487026515151
52.75814922452644,804,74.20251672979796
53.550275869222624,792,74.20251672979796
54.3801228303329,829,73.08966365143976
55.22254323024789,842,71.58230710085932
56.06496363016287,842,73.1371829561868
56.844516836054346,779,75.90695061787835
57.598923164336426,754,77.01980369623655
58.4036232478373,804,76.61257430555554
59.195749892533485,792,76.17797375910746
59.96272965962026,766,76.97970662201068
60.74228286551173,779,74.78420903746962
61.60985014303612,867,71.11152836326043
62.50256429816991,892,67.24563839419282
63.420425330913105,917,68.29348951408741
64.25027229202338,829,69.63100307305315
65.09269269193837,842,69.93363587366198
65.99798028587686,905,67.32816822419434
66.92841475742475,930,66.31070255255256
67.80855547375384,880,67.27123274578926
68.67612275127823,867,68.49952463768115
69.55626346760731,880,64.48951287297527
70.62500576600692,1068,61.571446463142216
71.61830743157832,993,61.251398575818264
72.5110215867121,892,64.94136245320021
73.40373574184589,892,67.85942886303326
74.27130301937028,867,68.84781204447485
75.12629685808996,855,70.18532560344059
75.96871725800494,842,71.60395481191327
76.78599078031053,817,72.68357336394948
77.60326430261611,817,73.04328344988345
78.43311126372639,829,72.31279527537139
79.27553166364137,842,71.23317672333518
80.13052550236107,855,71.23317672333519
80.96037246347134,829,71.96366489784724
81.77764598577693,817,73.04328344988345
82.59491950808251,817,73.04328344988345
83.42476646919279,829,72.67250536130535
84.25461343030307,829,73.05487026515151
85.05931351380396,804,74.60974612047897
85.83886671969543,779,75.36288911290322
86.64356680319631,804,74.98052420905707
87.46084032550189,817,75.4011053830391
88.22782009258867,766,76.62341941992433
88.99479985967544,766,77.40028779599271
89.78692650437162,792,76.57247723132969
90.5790531490678,792,76.57247723132969
91.34603291615457,766,76.97970662201068
92.12558612204606,779,76.58520314978847
92.93028620554693,804,74.60974612047897
93.76013316665721,829,72.69516017921754
94.6025535665722,842,73.08966365143976
95.39468021126838,792,73.84280664386401
96.19938029476926,804,74.95565972222221
97.00408037827013,804,73.80801325757575
97.83392733938042,829,74.20251672979796
98.6260539840766,792,75.0042495927012
99.40560718996808,779,76.9797066220107
100.17258695705485,766,78.2421177331218
100.92699328533693,754,76.68724187779432
101.75684024644721,829,72.4007707347447
102.6747012791904,917,70.36149124756521
103.49197480149599,817,72.3369482768747
104.25895456858277,766,75.7956088552613
105.05108121327893,792,76.17797375910746
105.85578129677982,804,75.35016319444443
106.64790794147599,792,76.61257430555554
107.40231426975807,754,77.00707777777777
108.19444091445425,792,74.81158019323671
109.06200819197863,867,73.15466560990338
109.86670827547951,804,73.15466560990336
110.65883492017569,792,73.15466560990338
111.52640219770008,867,72.04181253154516
112.36882259761506,842,70.18532560344059
113.22381643633474,855,72.78805257866266
114.00336964222623,779,73.90090565702087
114.80806972572711,804,73.23257036290322
115.68821044205619,880,71.67769450757575
116.51805740316648,829,72.07219797979798
117.31018404786266,792,74.20251672979796
118.11488413136354,804,71.59704908033032
119.04531860291142,930,70.0896925297499
119.88773900282641,842,69.33654953732565
120.7175859639367,829,72.31279527537139
121.53485948624228,817,73.82015182595183
122.32698613093845,792,71.50913771221167
123.24484716368164,917,70.77864953769962
124.08726756359663,842,71.60646010236263
124.8542473306834,766,75.06512068074926
125.64637397537959,792,72.81936311721557
126.57680844692747,930,70.13506562444796
127.43180228564717,855,69.3581972483796
128.24907580795275,817,71.25482443438912
129.10406964667243,855,69.95528358471593
130.0093572406109,905,68.87566503267972
130.8643510793306,855,71.1393813514653
131.64390428522208,779,75.12321969390611
132.41088405230886,766,76.20283824594232
133.22815757461444,817,72.95073874571514
134.12087172974822,892,70.97528171640565
134.9507186908585,829,71.75215009247403
135.74284533555468,792,74.59702020202019
136.53497198025087,792,73.54916908212559
137.40253925777526,867,72.77230070605722
138.21981278008084,817,71.99543232998884
139.03708630238643,817,74.59815930521091
139.8166395082779,779,75.37502768127928
140.60876615297408,792,72.99586827956989
141.51405374691257,905,70.73215196078431
142.36904758563225,855,69.95528358471593
143.18632110793783,817,70.91581377795264
144.05388838546222,867,69.92743059651104
144.946602540596,892,69.55665250793297
145.77644950170628,829,70.97528171640565
146.59372302401187,817,69.50137697215065
147.54930437316915,955,69.14166688621668
148.39172477308415,842,69.52403179006284
149.19642485658503,804,73.44830317164178
150.0011249400859,804,73.09917279411764
150.85611877880558,855,72.71680789027148
151.67339230111116,817,72.71680789027148
152.47809238461204,804,73.06593826779563
153.32051278452704,842,68.72924264948989
154.31381445009842,993,65.370632007598
155.24424892164632,930,65.73034209353196
156.0740958827566,829,70.06703771183771
156.8913694050622,817,71.62465424141075
157.75893668258658,867,70.91581377795264
158.61393052130626,855,70.54503568937454
159.44377748241655,829,70.21571105169339
160.32391819874564,880,67.48161212121212
161.29207298670764,968,66.10443636363635
162.1722137030367,880,66.772771657754
163.0272075417564,855,67.90469693795325
163.9450685744996,917,66.1107443063743
164.90064992365689,955,63.92751567892333
165.8436578340095,943,65.19067867276887
166.71122511153388,867,66.98463130434781
167.59136582786294,880,69.8767003952569
168.42121278897324,829,72.900008544461
169.18819255606002,766,76.25264133134624
169.9551723231468,766,75.54380086788812
170.81016616186648,855,71.2573297248385
171.72802719460967,917,65.8389333015896
172.69618198257166,968,62.33017300747197
173.70205708694775,1005,60.93340623543123
174.68278531371445,980,62.065331515630476
175.60064634645764,917,65.57409180974813
176.45564018517734,855,67.90469693795325
177.3357809015064,880,68.83853529411763
178.2159216178355,880,69.18766567164178
179.0583420177505,842,69.51699030932294
179.9259092952749,867,68.58315195315856
180.84377032801808,917,65.23508115331163
181.82449855478475,980,63.97191815946609
182.74235958752797,917,65.92322218727227
183.58477998744294,842,69.27129298711918
184.4272003873579,842,70.53445598096474
185.2947676648823,867,70.18532560344059
186.149761503602,855,69.49718456947996
187.0173287811264,867,68.23402157563442
187.93518981386958,917,66.33739438962488
188.86562428541745,930,65.07423139577932
189.78348531816067,917,65.37686419638817
190.68877291209915,905,65.37686419638817
191.61920738364705,930,64.79580921921922
192.56221529399963,943,64.49317641861037
193.48007632674282,917,64.20657497716894
194.42308423709542,943,63.92751567892333
195.3786655862527,955,62.79559039872408
196.3468203742147,968,63.99043584473347
197.2395345293485,892,65.46434058898848
198.13224868448228,892,67.21005633802815
199.02496283961608,892,66.59626586918772
199.94282387235927,917,66.91631375651167
200.82296458868836,880,68.98431548998946
201.64023811099395,817,71.2953296037296
202.4700850721042,829,71.62465424141075
203.3376523496286,867,69.24549483970135
204.2429399435671,905,68.53665437624323
205.0979337822868,855,68.53665437624323
205.96550105981117,867,68.84781204447485
206.85821521494495,892,67.24563839419282
207.77607624768814,917,66.91631375651167
208.65621696401723,880,67.23636164383561
209.53635768034633,880,67.85015211267606
210.4290718354801,892,66.91631375651167
211.3469328682233,917,66.59626586918772
212.2396470233571,892,67.93377942815346
213.08206742327206,842,70.2447935418936
213.91191438438236,829,70.56484142921754
214.79205510071145,880,69.54737575757575
215.67219581704052,880,69.54737575757575
216.5020427781508,829,71.2953296037296
217.3193163004564,817,72.67250536130535
218.14916326156668,829,72.67250536130535
218.97901022267695,829,71.9420171867933
219.82143062259195,842,72.69516017921754
220.62613070609282,804,72.33545009328357
221.4685511060078,842,71.98631971575942
222.3235449447275,855,70.87346663740122
223.16596534464247,842,71.23317672333519
223.99581230575276,829,71.23317672333518
224.85080614447244,855,70.54503568937454
225.71837342199683,867,70.18532560344059
226.5607938219118,842,70.53445598096474
227.4032142218268,842,70.20513134328357
228.2833549381559,880,68.55646011608623
229.18864253209438,905,67.53899444444444
230.06878324842347,880,68.20732973856208
230.92377708714315,855,69.16785993179879
231.79134436466754,867,68.84781204447485
232.6840585198013,892,68.50880138803836
233.5516257973257,867,69.92743059651106
234.36889931963128,817,71.26494415547678
235.21131971954628,842,70.30441396224008
236.11660731348476,905,67.62262175992184
237.03446834622795,917,66.2851082009561
237.92718250136176,892,65.98247540034728
238.84504353410495,917,65.40142042317834
239.78805144445752,943,63.92751567892333
240.7436327936148,955,64.86135403508771
241.6237735099439,880,68.1242012145749
242.4410470322495,817,72.44297606837605
243.23317367694568,792,74.57329481837607
244.03787376044656,804,74.57329481837607
244.85514728275214,817,73.4256483537296
245.6849942438624,829,70.66412404817405
246.59028183780092,905,66.85040656565656
247.5584366257629,968,63.67927817650186
248.5140179749202,955,62.51653110047847
249.46959932407748,955,61.9935529646902
250.4629009896489,993,61.45690046806402
251.4436292164156,980,62.619647544087414
252.34891681035407,905,65.53771395392047
253.21648408787846,867,68.19764371980675
254.08405136540284,867,69.49718456947996
254.93904520412252,855,70.91581377795265
255.7563187264281,817,73.1113113624937
256.5484453711243,792,73.46044174001786
257.3908657710393,842,71.71248789386401
258.27100648736837,880,69.85600096575942
259.12600032608805,855,71.36335751633985
259.9181269707842,792,73.49367626633986
260.7228270542851,804,73.49367626633986
261.5778208930048,855,70.96885404411763
262.4579616093339,880,68.5184874067937
263.35067576446767,892,68.5184874067937
264.20566960318735,855,68.5184874067937
265.08581031951644,880,68.83853529411763
265.96595103584553,880,69.18766567164178
266.80837143576053,842,69.51699030932294
267.6759387132849,867,69.196942421999
268.56865286841867,892,67.24563839419282
269.48651390116186,917,67.24563839419282
270.3540811786863,867,68.2340215756344
271.20907501740595,855,69.1678599317988
272.08921573373505,880,68.83853529411763
272.96935645006414,880,67.85015211267606
273.8620706051979,892,68.86761778431784
274.7044910051129,842,69.196942421999
275.5720582826373,867,68.88578475376738
276.4773458765758,905,66.93448072596121
277.395206909319,917,67.2734913823977
278.25020074803865,855,68.92216260959503
279.09262114795365,842,70.87346663740122
279.9350415478686,842,70.20513134328357
280.8151822641977,880,70.20513134328357
281.6576026641127,842,69.18766567164178
282.5377433804418,880,68.86761778431784
283.43045753557556,892,67.21894655712049
284.33574512951407,905,67.88728185123814
285.19073896823375,855,68.87566503267972
286.0457328069534,855,69.83619522591644
286.9133000844778,867,68.84781204447485
287.8060142396116,892,68.84781204447485
288.6610080783313,855,70.6488061567937
289.46570816183214,804,71.98631971575942
290.30812856174714,842,71.64730905932294
291.17569583927155,867,68.88578475376738
292.08098343321,905,68.19764371980675
292.9485507107344,867,68.88578475376738
293.79097111064937,842,69.8463149470041
294.6585383881738,867,69.51699030932295
295.5386791045029,880,69.16785993179879
296.39367294322255,855,70.58648914027148
297.21094646552814,817,72.33444298642533
298.0282199878337,817,72.33444298642533
298.8832138265534,855,70.91581377795264
299.75078110407776,867,70.54503568937454
300.5806280651881,829,69.55665250793297
301.47334222032185,892,68.29348951408741
302.39120325306504,917,65.40142042317834
303.33421116341765,943,65.09026275494672
304.2394987573561,905,67.77205495726496
305.0567722796617,817,69.95528358471593
305.9117661183814,855,70.58648914027148
306.79190683471046,880,67.90469693795325
307.70976786745365,917,67.23636164383561
308.58990858378274,880,66.91631375651167
309.4826227389166,892,67.21894655712049
310.38791033285503,905,65.9906546652286
311.31834480440295,930,65.37686419638817
312.23620583714614,917,65.07423139577932
313.15406686988933,917,65.67131773211567
314.0593544638278,905,65.67131773211567
314.977215496571,917,66.60515608828005
315.8573562129001,880,68.98431548998946
316.67462973520566,817,71.66610769230769
317.49190325751124,817,72.33444298642533
318.3468970962309,855,69.95528358471593
319.25218469016943,905,68.20732973856208
320.1323254064985,880,67.21894655712049
321.0250395616323,892,67.21894655712049
321.9303271555708,905,65.70405322378716
322.87333506592336,943,66.02410111111111
323.75347578225245,880,65.72146831050227
324.67133681499564,917,66.00806975194371
325.60177128654357,930,65.07423139577932
326.51963231928676,917,67.02553542358551
327.36205271920176,842,69.27129298711918
328.2044731191167,842,71.58230710085934
329.034320080227,829,71.23317672333518
329.8893139189467,855,71.23317672333518
330.73173431886164,842,70.18532560344059
331.59930159638606,867,68.58315195315856
332.51716262912925,917,64.97694450936487
333.5104642947006,993,63.132726538350376
334.45347220505323,943,62.00080125815113
335.42162699301525,968,62.2589379020979
336.40235521978195,980,62.54553934353934
337.3327896913298,930,64.29125509257904
338.2255038464636,892,65.68802186461977
339.1433648792068,917,66.2851082009561
340.0486524731453,905,66.93448072596121
340.91621975066965,867,68.88578475376738
341.75864015058465,842,70.53445598096474
342.60106055049965,842,70.20513134328357
343.48120126682875,880,67.95937377974988
344.4116357383766,930,65.42701477477476
345.3546436487292,943,65.10696688745082
346.247357803863,892,67.71243453691847
347.07720476497326,829,70.2447935418936
347.91962516488826,842,70.89416606689869
348.7871924424127,867,69.51699030932295
349.66733315874177,880,69.51699030932294
350.5097535586567,842,70.56484142921754
351.33960051976703,829,71.23317672333518
352.1945943584867,855,70.88404634581103
353.0495881972064,855,70.88404634581104
353.87943515831665,829,72.34602980169339
354.68413524181756,804,73.4256483537296
355.50140876412314,817,73.06593826779563
356.3438291640381,842,71.95308518943742
357.1862495639531,842,71.95308518943742
358.00352308625867,817,72.68357336394948
358.82079660856425,817,72.68357336394948
359.66321700847925,842,70.93561951779563
360.54335772480835,880,70.56484142921754
361.3732046859186,829,72.47942737047897
362.1527578918101,779,76.2666607038123
362.90716422009217,754,78.67671827956988
363.66157054837424,754,80.92719649122806
364.3782565602422,716,82.82081315789472
365.08236913330546,704,82.38621261144664
365.8493489003923,766,78.580858544461
366.67919586150254,829,73.56834383857864
367.5341897002222,855,71.59288680926915
368.3640366613325,829,71.96366489784724
369.18131018363806,817,71.96366489784724
370.0363040223578,855,70.58648914027148
370.91644473868683,880,69.16785993179879
371.78401201621125,867,67.8683190821256
372.68929961014976,905,67.23711352657004
373.5945872040882,905,66.90778888888889
374.4747279204173,880,67.8683190821256
375.3422951979417,867,69.8767003952569
376.172142159052,829,69.55665250793297
377.06485631418576,892,68.29348951408741
377.98271734692895,917,66.59626586918772
378.8754315020627,892,66.59626586918772
379.76814565719656,892,66.30181233346022
380.6985801287444,930,65.68802186461977
381.6164411614876,917,65.37686419638817
382.5217287554261,905,66.60515608828005
383.4018694717552,880,67.21894655712049
384.294583626889,892,67.85015211267606
385.1747243432181,880,68.86761778431784
386.01714474313303,842,70.56484142921754
386.84699170424335,829,71.58230710085932
387.68941210415835,842,70.89416606689869
388.5569793816827,867,69.8463149470041
389.42454665920707,867,69.49718456947996
390.2795404979268,855,68.53665437624323
391.18482809186526,905,67.2734913823977
392.10268912460845,917,65.09026275494672
393.04569703496105,943,66.05079294818343
393.91326431248547,867,69.50945352657004
394.70539095718163,792,72.77230070605722
395.5226644794872,817,73.46044174001786
396.36508487940216,842,71.26494415547678
397.2326521569266,867,70.53445598096474
398.0750725568416,842,69.196942421999
398.96778671197535,892,67.35272445098451
399.91079462232796,943,64.00465365113759
400.89152284909466,980,63.09640964656964
401.8219573206425,930,63.38301108801108
402.7523917921904,930,64.48532432432432
403.6828262637383,930,63.38301108801108
404.663554490505,980,63.09640964656964
405.6065624008576,943,63.09640964656964
406.5369968724055,930,63.63306214319582
407.4925782215628,955,63.35400284495021
408.44815957072007,955,63.95108918128655
409.3534471646586,905,64.51674992097361
410.28388163620644,930,65.08241066066066
411.21431610775437,930,64.19872288288288
412.157324018107,943,64.49317641861037
413.07518505085017,917,64.20657497716894
414.0181929612027,943,63.65570467413864
414.98634774916474,968,63.07464969696969
415.92935565951734,943,64.58954303030302
416.80949637584644,880,65.42701477477476
417.7399308473943,930,64.87614447174447
418.7080856353563,968,63.647852579852575
419.6385201069042,930,64.55609658442052
420.53123426203797,892,65.39356832889226
421.4616687335859,930,64.82790758920521
422.4172500827432,955,63.63306214319582
423.3602579930958,943,64.86135403508771
424.2403987094249,880,66.33525877934272
425.13311286455865,892,67.21894655712049
426.0384004584971,905,66.58774100156495
426.9436880524356,905,66.58774100156495
427.8364022075694,892,67.54827119480166
428.7039694850938,867,67.85942886303326
429.5966836402276,892,66.95118485846533
430.5271181117755,930,66.95118485846531
431.39468538929987,867,67.9395680399069
432.24967922801955,855,68.84781204447485
433.1423933831533,892,67.88728185123814
434.04768097709183,905,66.89889866979655
434.9403951322256,892,67.21894655712049
435.8205358485547,880,66.91631375651167
436.7383968812979,917,66.30252328767122
437.6562579140411,917,66.97085858178886
438.51125175276076,855,68.2340215756344
439.3788190302852,867,68.84781204447485
440.27153318541895,892,67.85942886303326
441.1642473405527,892,67.85942886303326
442.03181461807714,867,66.95118485846533
442.962249089625,930,66.33739438962488
443.8801101223682,917,66.00806975194371
444.7602508386973,880,67.56568628151676
445.6278181162217,867,68.1794767503572
446.5205322713555,892,67.54827119480166
447.42581986529393,905,67.88728185123814
448.28081370401367,855,69.95528358471593
449.09808722631925,817,71.96366489784724
449.9279341874295,829,73.04328344988345
450.7452077097351,817,73.82015182595183
451.53733435443127,792,74.96779829059828
452.32946099912743,792,74.59702020202019
453.15930796023775,829,72.40152261747913
454.0268752377621,867,69.8767003952569
454.9070159540912,880,68.49952463768115
455.7871566704203,880,67.23636164383561
456.7050177031635,917,65.72146831050227
457.6480256135161,943,65.40142042317834
458.54073976864987,892,66.33525877934272
459.42088048497897,880,67.21894655712049
460.3261680789174,905,66.02410111111111
461.26917598927,943,66.02410111111111
462.1493167055991,880,66.65530666666666
463.0294574219282,880,67.85015211267606
463.922171577062,892,67.21894655712049
464.8274591710005,905,68.23641222876229
465.6698795709155,842,69.57392578772802
466.51229997083044,842,70.87346663740122
467.3672938095501,855,69.53595307843548
468.26000796468395,892,68.84781204447485
469.1275752422083,867,68.50880138803836
469.9951425197327,867,68.19764371980676
470.9004301136712,905,67.54827119480166
471.79314426880495,892,66.58774100156495
472.69843186274346,905,65.70405322378716
473.64143977309607,943,64.23014847953216
474.59702112225335,955,64.86135403508771
475.47716183858245,880,65.14795547652915
476.4075963101303,930,65.14795547652915
477.36317765928766,955,64.51674992097361
478.2684652532261,905,65.11383625730994
479.1737528471646,905,65.39289555555555
480.1167607575172,943,63.69349598290598
481.0974889842839,980,63.390863182297146
482.0153500170271,917,63.97191815946609
482.9332110497703,917,65.07423139577932
483.8636455213182,930,64.21411712036476
484.81922687047546,955,64.51674992097361
485.72451446441397,905,64.81120345670111
486.64237549715716,917,65.09026275494672
487.58538340750977,943,63.390863182297146
488.56611163427647,980,62.530748906882586
489.52169298343375,955,63.11180388405153
490.43955401617694,917,63.92751567892333
491.38256192652955,943,64.20657497716894
492.3255698368821,943,64.50920777777777
493.2308574308206,905,66.02410111111111
494.1109981471497,880,67.21894655712049
495.0037123022835,892,66.62186022078416
495.9341467738314,930,66.95118485846531
496.80171405135576,867,67.60055738347042
497.6692813288802,867,69.15817391304347
498.53684860640453,867,68.19764371980676
499.44213620034304,905,67.8683190821256
500.32227691667214,880,67.53899444444444
501.2024176330012,880,67.53899444444444
502.1077052269397,905,66.31070255255256
503.0381396984876,930,66.9790378466702
503.8931335372073,855,68.27857869634339
504.74812737592697,855,69.83619522591644
505.6156946534513,867,68.53665437624323
506.52098224738984,905,68.88578475376738
507.36340264730484,842,69.22479541020387
508.2183964860245,855,69.53595307843548
509.1111106411583,892,67.00359407346036
510.0541185515109,943,66.01521089201877
510.94683270664467,892,65.40142042317834
511.86469373938786,917,66.59626586918772
512.7574078945216,892,65.98247540034728
513.6752689272648,917,65.40142042317834
514.6182768376175,943,65.09026275494672
515.5235644315559,905,64.79580921921922
516.4539989031039,930,65.08241066066066
517.3844333746517,930,65.39356832889226
518.2771475297855,892,62.61184845607828
519.3458898281851,1068,62.32524701463683
520.2888977385377,943,64.39324874811463
521.1061712608433,817,70.92808273504272
521.8982979055395,792,74.96779829059828
522.6904245502357,792,72.89979655712048
523.5831387053694,892,70.05492644757433
524.4758528605032,892,67.85942886303326
525.3434201380276,867,68.17947675035721
526.2235608543567,880,67.27123274578926
527.1539953259046,930,65.14795547652915
528.1095766750619,955,64.82790758920521
529.0022908301956,892,66.38552411877826
529.86985810772,867,67.24563839419282
530.7877191404632,917,65.77173364993781
531.7433004896205,955,64.50857065609227
532.6611615223637,917,65.44240901225666
533.5413022386928,880,67.23636164383561
534.4214429550219,880,68.1702
535.301583671351,880,67.53899444444444
536.2068712652895,905,68.20732973856208
537.0618651040091,855,69.58450549613784
537.8917120651195,829,71.23317672333518
538.7341324650345,842,70.56484142921754
539.6142731813635,880,69.85600096575942
540.4692670200832,855,70.21571105169339
541.2991139811935,829,70.88404634581103
542.1541078199132,855,71.23317672333518
542.9965282198282,842,72.38082318798165
543.7886548645243,792,75.06512068074926
544.5556346316112,766,76.97970662201068
545.3351878375025,779,76.58520314978847
546.1398879210035,804,77.01980369623655
546.8942942492855,754,77.44038487021857
547.6612740163723,766,77.83488834244079
548.4534006610685,792,75.06512068074925
549.2958210609835,842,71.39244000654006
550.1885352161173,892,68.86761778431784
551.0686759324464,880,68.86761778431784
551.9110963323614,842,69.18766567164178
552.7912370486904,880,68.2538273154774
553.7090980814336,917,66.30252328767122
554.6269591141768,917,65.07423139577932
555.5573935857248,930,65.68802186461977
556.4501077408585,892,66.95118485846531
557.3176750183828,867,68.50880138803836
558.1852422959073,867,69.15817391304347
559.0528095734317,867,68.8288492753623
559.9329502897607,880,69.51699030932294
560.7753706896757,842,69.85600096575942
561.6303645283954,855,69.85600096575942
562.5105052447245,880,68.20732973856208
563.415792838663,905,66.60515608828005
564.3336538714062,917,65.9739505327245
565.2389414653446,905,65.67131773211567
566.1568024980878,917,64.53939245191643
567.1249572860498,968,63.10483437110834
568.0931120740119,968,61.97290909090909
569.0612668619739,968,64.03867272727273
569.9414075783029,880,68.62925858585858
570.7335342229991,792,73.21984444444443
571.5256608676953,792,74.96779829059828
572.3429343900009,817,72.44297606837605
573.2230751063299,880,68.68986195426194
574.1535095778778,930,66.00806975194371
575.071370610621,917,66.33739438962488
575.9389378881455,867,67.56568628151676
576.8190786044745,880,67.8683190821256
577.724366198413,905,66.90778888888889
578.6296537923515,905,67.23711352657004
579.4972210698759,867,69.61627292827944
580.3144945921815,817,71.62465424141075
581.1443415532917,829,72.67250536130535
581.974188514402,829,72.30172727272726
582.8040354755124,829,72.67250536130535
583.6213089978179,817,74.22738121663282
584.4008622037094,779,74.59815930521091
585.2181357260149,817,73.17953009673822
586.0857030035394,867,70.247478483835
586.9658437198684,880,68.8288492753623
587.8334109973928,867,69.8767003952569
588.6632579585031,829,70.54503568937454
589.5182517972228,855,70.88404634581103
590.3732456359425,855,70.17520588235293
591.2282394746621,855,70.17520588235293
592.0832333133818,855,71.25482443438912
592.9005068356875,817,71.60395481191327
593.7429272356025,842,70.61557163047169
594.6356413907362,892,67.93377942815346
595.5535024234794,917,66.59626586918772
596.4462165786132,892,68.66426760266552
597.2634901009187,817,71.72842470882989
598.0681901844197,804,73.79642644230769
598.8854637067252,817,72.377797233835
599.7530309842496,867,70.91581377795264
600.6080248229692,855,70.54503568937454
601.4378717840796,829,72.34602980169339
602.2425718675804,804,73.05487026515151
603.0724188286907,829,73.05487026515151
603.902265789801,829,71.9420171867933
604.7446861897159,842,71.9420171867933
605.5745331508263,829,73.08966365143976
606.3666597955224,792,73.44937373737372
607.1965067566327,829,72.74053327391562
608.0515005953524,855,70.21571105169339
608.9316413116815,880,68.83853529411763
609.8117820280106,880,68.83853529411763
610.6667758667303,855,71.36335751633985
611.4589025114265,792,74.71599030322511
612.2258822785133,766,77.40028779599271
612.9928620456,766,77.00578432377048
613.7975621291009,804,74.32148683100289
614.6525559678206,855,71.98631971575942
615.4949763677356,842,71.60395481191327
616.3122498900411,817,71.60395481191327
617.1672437287608,855,70.58648914027148
618.04738444509,880,67.90469693795325
618.9652454778332,917,66.60515608828005
619.8705330717715,905,66.93448072596121
620.738100349296,867,69.61627292827944
621.5553738716015,817,71.99543232998884
622.3726473939072,817,72.68357336394948
623.2150677938221,842,70.93561951779563
624.0952085101512,880,69.18766567164178
624.9753492264803,880,69.54737575757575
625.8051961875906,829,71.2953296037296
626.6224697098961,817,73.04328344988345
627.4397432322017,817,71.66610769230769
628.3198839485308,880,69.5981059588299
629.2125981036646,892,67.5301042253521
630.1053122587984,892,68.90727998292786
630.9351592199087,829,70.97528171640565
631.7524327422143,817,72.31279527537139
632.5948531421293,842,71.60395481191327
633.449846980849,855,69.53595307843548
634.3425611359827,892,69.53595307843548
635.1849815358977,842,71.79966939722107
635.9645347417892,779,74.64453950676723
636.7566613864853,792,75.37502768127929
637.573934908791,817,72.77230070605722
638.4415021863153,867,70.57680312151615
639.3090694638397,867,69.8463149470041
640.1514898637547,842,71.2649441554768
640.9687633860603,817,72.31279527537139
641.7986103471706,829,71.96366489784724
642.6536041858902,855,71.59288680926915
643.4834511470006,829,71.96366489784724
644.3007246693061,817,74.22738121663282
645.0802778751976,779,74.59815930521091
645.8975513975032,817,73.5185407531747
646.7525452362229,855,71.25482443438912
647.6075390749426,855,71.25482443438912
648.4248125972481,817,72.33444298642533
649.2420861195537,817,71.99543232998884
650.1096533970781,867,69.61627292827944
651.0149409910166,905,65.80255544576195
651.9830957789786,968,64.53939245191643
652.9009568117218,917,63.94230611558008
653.8313912832697,930,64.77977786005182
654.7618257548176,930,64.48532432432432
655.6922602263654,930,65.71361621621621
656.5724009426946,880,66.62186022078416
657.4651150978283,892,66.33525877934272
658.408123008181,943,63.24936495218222
659.4265715513617,1018,62.05451950617283
660.3695794617144,943,63.898737477187325
661.2371467392387,867,67.65296659846545
662.0921405779584,855,69.49718456947996
662.9597078554827,867,68.23402157563442
663.8775688882259,917,66.63184792535237
664.7954299209691,917,65.98247540034728
665.688144076103,892,67.93377942815346
666.530564476018,842,68.5475698969939
667.4232786311517,892,66.8018541479542
668.3914334191137,968,62.69849464915192
669.4098819622945,1018,60.17811753647586
670.4157570666706,1005,61.31004281667511
671.3336180994138,917,64.3959366438356
672.213758815743,880,66.60515608828005
673.1190464096813,905,66.31070255255256
674.0494808812293,930,65.37686419638817
674.9673419139725,917,66.67640504606136
675.8223357526922,855,69.6526507841071
676.6396092749977,817,71.96366489784724
677.469456236108,829,71.96366489784724
678.3244500748277,855,69.281872695529
679.2423111075709,917,66.97085858178886
680.1601721403141,917,66.97085858178886
681.0151659790338,855,68.2340215756344
681.8827332565581,867,68.84781204447485
682.775447411692,892,66.95118485846533
683.7058818832398,930,65.39356832889226
684.6363163547877,930,66.04294085389736
685.5038836323121,867,68.28869841743105
686.3463040322271,842,70.18532560344059
687.2012978709467,855,69.85600096575942
688.0814385872759,880,68.20732973856208
688.9867261812144,905,67.53899444444444
689.8668668975434,880,68.9161702020202
690.6967138586538,829,70.56484142921754
691.5391342585688,842,71.23317672333518
692.3941280972884,855,70.18532560344059
693.2616953748128,867,69.1678599317988
694.1418360911418,880,69.51699030932294
694.9842564910568,842,71.31798442164178
695.7889565745577,804,72.69516017921754
696.618803535668,829,73.4256483537296
697.4360770579736,817,73.82015182595183
698.2282037026698,792,75.7956088552613
698.9951834697565,766,78.28422111080238
699.737016359234,741,79.99596499027507
700.4788492487113,741,81.82586202795122
701.1955352605793,716,81.37652925958963
701.9499415888613,754,79.27028190789473
702.7546416723623,804,73.45654652777777
703.6599292663008,905,69.3492653071205
704.5526434214345,892,68.23641222876229
705.3950638213495,842,71.39244000654006
706.1871904660456,792,73.84280664386401
706.9918905495465,804,74.20251672979796
707.8217375106568,829,73.05487026515151
708.6515844717671,829,72.67250536130535
709.4688579940727,817,71.2953296037296
710.3489987104018,880,68.40326051282051
711.2920066207544,943,65.42701477477476
712.2224410923022,930,64.79580921921922
713.1277286862407,905,65.08241066066066
714.0581631577886,930,64.24493891618891
715.0263179457506,968,62.035719471744464
716.0321930501267,1005,61.19824772727272
717.0003478380887,968,60.42358636363635
718.0062229424649,1005,59.036402061310774
719.0875386796691,1081,58.261740697674405
720.0934137840452,1005,60.16832734151002
721.0112748167885,917,62.88104331050227
721.954282727141,943,63.92751567892333
722.9098640762983,955,63.34646070175438
723.8528719866509,943,64.86135403508771
724.73301270298,880,66.65530666666666
725.6131534193091,880,67.53899444444444
726.5184410132476,905,66.60515608828005
727.4363020459908,917,65.67131773211567
728.354163078734,917,66.97085858178886
729.2091569174537,855,70.03501568795325
730.0138570009545,804,73.09917279411764
730.8185570844554,804,73.44830317164178
731.6609774843704,842,70.99793653431783
732.5536916395042,892,68.86761778431784
733.4338323558333,880,68.5184874067937
734.2888261945529,855,68.83853529411763
735.1689669108821,880,68.83853529411763
736.0491076272111,880,66.10443636363635
737.0172624151731,968,63.51569459148446
738.0105640807445,993,60.92695281933256
739.0038657463159,993,60.152291455696194
740.0097408506921,1005,60.152291455696194
741.0030425162635,993,62.10982767229254
741.908330110202,905,63.43535933895921
742.8513380205545,943,64.23014847953216
743.8069193697119,955,63.06740140350877
744.7625007188691,955,63.35400284495021
745.692935190417,930,65.47728011421032
746.5605024679414,867,67.27123274578926
747.4406431842705,880,67.56568628151676
748.3585042170137,917,65.72146831050227
749.3015121273662,943,64.49317641861037
750.2319465989142,930,65.10696688745082
751.1246607540479,892,67.2901955149018
751.9796545927676,855,69.18682270091134
752.8346484314873,855,69.18682270091134
753.7273625866211,892,67.2901955149018
754.657797058169,930,65.68802186461977
755.5756580909122,917,66.00806975194371
756.4557988072413,880,67.56568628151676
757.3233660847657,867,68.49952463768115
758.2035068010947,880,67.56568628151676
759.1213678338379,917,66.00806975194371
760.0518023053859,930,65.07423139577932
760.9696633381291,917,67.02553542358551
761.812083738044,842,70.77864953769961
762.6042103827401,792,74.23731011608623
763.3963370274364,792,74.96779829059828
764.2136105497419,817,73.11131136249371
765.0686043884616,855,70.91581377795264
765.936171665986,867,68.84781204447485
766.8288858211198,892,68.84781204447485
767.6838796598395,855,69.89566316436945
768.5137266209498,829,71.59288680926915
769.34357358206,829,71.25387615283266
770.2111408595845,867,69.55665250793297
771.1038550147182,892,67.85942886303326
771.996569169852,892,68.19843951946974
772.8515630085717,855,70.6488061567937
773.6562630920725,804,73.49367626633986
774.4483897367687,792,74.57329481837607
775.2656632590744,817,73.11131136249371
776.120657097794,855,70.91581377795264
776.9882243753184,867,69.83619522591644
777.8432182140381,855,71.29817868179879
778.6479182975389,804,72.34602980169339
779.4777652586492,829,73.05487026515151
780.3076122197596,829,70.60450362782757
781.2003263748933,892,68.59612231469626
782.1056139688318,905,65.9906546652286
783.0360484403797,930,66.31070255255256
783.9161891567088,880,68.31908386568387
784.7460361178191,829,72.07219797979798
785.5381627625153,792,73.82015182595183
786.3554362848208,817,73.11131136249371
787.2104301235405,855,70.26644125294754
788.1031442786743,892,68.19843951946976
788.995858433808,892,68.19843951946974
789.8508522725277,855,69.18682270091134
790.7058461112475,855,70.17520588235293
791.5608399499672,855,69.18682270091134
792.4535541051009,892,67.58464905062931
793.3714151378441,917,66.59626586918772
794.2641292929779,892,67.58464905062931
795.1191231316976,855,70.26644125294754
795.9363966540031,817,71.60395481191327
796.7788170539181,842,70.93561951779563
797.6589577702473,880,68.2538273154774
798.5768188029905,917,65.72146831050227
799.519826713343,943,64.78762995433789
800.4376877460862,917,67.09864406807803
801.2675347071965,829,70.74385615141136
802.0722347906974,804,73.80801325757575
802.8769348741982,804,73.09917279411764
803.7319287129179,855,70.64880615679368
804.6246428680518,892,67.58464905062931
805.5425039007949,917,66.59626586918772
806.4352180559288,892,68.29348951408741
807.265065017039,829,70.60450362782757
808.0949119781493,829,71.59288680926915
808.949905816869,855,70.21571105169339
809.830046533198,880,68.5184874067937
810.7227606883318,892,67.85015211267606
811.602901404661,880,68.5184874067937
812.4578952433807,855,70.96885404411763
813.2625953268815,804,73.90090565702086
814.042148532773,779,74.98052420905707
814.8594220550785,817,74.22738121663282
815.6892690161889,829,71.96366489784724
816.5442628549085,855,70.54503568937454
817.4118301324329,867,69.49718456947996
818.2793974099573,867,70.20602503293807
819.1092443710676,829,70.89416606689869
819.9516647709826,842,70.56484142921754
820.8318054873116,880,68.55646011608623
821.7370930812501,905,67.53899444444444
822.6172337975793,880,68.55646011608623
823.4596541974943,842,70.93561951779563
824.2769277197998,817,72.68357336394948
825.0942012421054,817,73.04328344988345
825.9240482032156,829,71.2953296037296
826.8041889195448,880,69.54737575757575
827.6843296358738,880,69.54737575757575
828.5141765969842,829,72.07219797979798
829.3063032416803,792,74.20251672979796
830.1110033251812,804,73.84280664386401
830.9534237250962,842,71.64730905932294
831.8209910026205,867,68.88578475376738
832.726278596559,905,68.88578475376738
833.568698996474,842,70.30441396224008
834.3859725187796,817,72.68357336394948
835.2032460410852,817,73.04328344988345
836.0330930021955,829,71.96366489784724
836.8880868409152,855,70.21571105169339
837.7682275572442,880,69.85600096575942
838.6106479571592,842,70.20513134328357
839.4530683570742,842,71.22259701492537
840.2954887569892,842,71.22259701492537
841.1379091569041,842,70.20513134328357
842.0180498732333,880,69.51699030932294
842.8856171507576,867,70.247478483835
843.7028906730633,817,72.77230070605722
844.4950173177594,792,74.96779829059828
845.2871439624556,792,75.74466666666666
846.0792706071518,792,74.96779829059828
846.8965441294573,817,74.1909299145299
847.713817651763,817,73.79642644230769
848.5185177352638,804,74.98052420905707
849.2980709411553,779,75.75739258512544
850.0901975858515,792,76.55912544802867
850.869750791743,779,77.86363993682036
851.6115836812203,741,79.57538381629305
852.3534165706977,741,81.34472530683809
853.0826760213704,729,82.29068902970458
853.7993620332384,716,83.23665275257108
854.5160480451063,716,81.88789243600803
855.283027812193,766,77.72282828308843
856.125448212108,842,72.22025057120308
857.0181623672419,892,69.53595307843548
857.8731562059615,855,70.26644125294754
858.6904297282671,817,72.33444298642533
859.5077032505727,817,73.41406153846154
860.3249767728782,817,71.66610769230769
861.2051174892074,880,69.28694829059829
862.1104050831459,905,66.31070255255256
863.0408395546938,930,66.31070255255256
863.9209802710228,880,67.27123274578926
864.7885475485473,867,68.1794767503572
865.681261703681,892,67.85942886303326
866.5739758588148,892,66.59626586918772
867.491836891558,917,66.91631375651167
868.3719776078871,880,68.2538273154774
869.2143980078021,842,70.20513134328357
870.0568184077171,842,70.53445598096474
870.9243856852414,867,68.88578475376738
871.8296732791799,905,66.93448072596121
872.7475343119231,917,66.2851082009561
873.640248467057,892,67.93377942815346
874.482668866972,842,69.53595307843548
875.3376627056916,855,69.53595307843548
876.2303768608253,892,67.88728185123814
877.1356644547639,905,65.42499392554154
878.0912458039212,955,65.42499392554154
878.9839599590549,892,67.43337523867285
879.8138069201652,829,70.60450362782757
880.6436538812756,829,71.25387615283266
881.5112211587999,867,69.24549483970135
882.4165087527384,905,66.35342574879226
883.359516663091,943,64.79580921921922
884.2899511346388,930,63.912121441441435
885.2329590449915,943,65.75633941245593
886.1005263225159,867,69.50945352657004
886.892652967212,792,74.37697964678861
887.6596327342988,766,76.97970662201068
888.4391859401903,779,75.47235007143026
889.2816063401052,842,71.18587892838062
890.1994673728484,917,65.66508554332549
891.1927690384199,993,62.85366724010476
892.1483503875771,955,63.78750559626915
893.0284911039063,880,67.7534231259968
893.8583380650165,829,70.9245515151515
894.6881850261268,829,71.25387615283266
895.5557523036512,867,69.55665250793297
896.448466458785,892,66.95118485846533
897.3789009303329,930,66.30181233346022
898.2716150854667,892,67.63932589242594
899.1140354853817,842,70.61557163047169
899.9313090076872,817,71.95308518943742
900.7737294076022,842,71.26494415547678
901.6412966851266,867,68.00209697598962
902.5843045954792,943,66.66458341702386
903.477018750613,892,66.33525877934272
904.3571594669421,880,66.91631375651167
905.2750204996853,917,64.3959366438356
906.2808956040614,1005,61.31004281667511
907.2993441472422,1018,61.31004281667511
908.2172051799854,917,62.63557448334178
909.160213090338,943,63.390863182297146
910.1409413171046,980,62.2589379020979
911.1090961050667,968,63.77383123543123
911.9892368213957,880,66.43376100131752
912.8568040989201,867,68.8288492753623
913.7243713764445,867,68.8288492753623
914.6045120927736,880,69.51699030932294
915.4469324926886,842,70.56484142921754
916.2767794537989,829,70.89416606689869
917.1443467313233,867,69.8767003952569
918.0244874476523,880,68.49952463768115
918.9046281639814,880,69.54737575757575
919.7344751250916,829,70.9245515151515
920.564322086202,829,71.9420171867933
921.406742486117,842,70.24479354189359
922.2994566412508,892,67.63932589242594
923.2298911127987,930,66.30181233346022
924.1226052679324,892,67.99903597835991
924.9524522290427,829,70.60450362782757
925.782299190153,829,71.59288680926915
926.6372930288727,855,69.89566316436944
927.5300071840064,892,68.5184874067937
928.4101479003356,880,69.2273278702518
929.2399948614458,829,70.56484142921754
930.0824152613608,842,71.23317672333518
930.9374091000805,855,69.85600096575942
931.8175498164096,880,68.5184874067937
932.7102639715433,892,67.21894655712049
933.6155515654818,905,68.23641222876229
934.4579719653968,842,71.08128233830845
935.250098610093,792,74.23731011608623
936.0422252547892,792,74.59702020202019
936.8720722158995,829,71.44099242424241
937.777359809838,905,68.28496464646464
938.6826474037765,905,67.57612418300653
939.5376412424962,855,69.58450549613784
940.3674882036064,829,71.23317672333518
941.2099086035214,842,70.24479354189359
942.1026227586552,892,68.23641222876229
943.0079103525937,905,66.58774100156495
943.9131979465321,905,67.23711352657004
944.7807652240566,867,68.88578475376738
945.6231856239716,842,70.18532560344059
946.4781794626913,855,69.22479541020388
947.3834670566297,905,66.14156610219845
948.3516218445917,968,63.67927817650186
949.307203193749,955,63.99043584473347
950.1999173488828,892,67.43337523867285
951.0297643099931,829,71.35764662025181
951.8344643934939,804,72.69516017921754
952.6768847934089,842,71.64730905932294
953.5444520709334,867,69.8463149470041
954.4120193484578,867,69.8463149470041
955.2544397483728,842,70.18532560344059
956.1094335870924,855,69.53595307843548
957.0021477422262,892,67.2901955149018
957.9325822137741,930,65.39356832889226
958.863016685322,930,65.39356832889226
959.7557308404557,892,68.369814066938
960.5730043627614,817,72.12292818105212
961.3651310074575,792,74.96779829059828
962.1572576521537,792,74.23731011608622
962.9996780520687,842,71.39244000654006
963.8923922072025,892,69.53595307843548
964.7473860459222,855,70.26644125294754
965.5646595682277,817,71.96366489784724
966.3945065293381,829,72.31279527537139
967.2369269292531,842,70.56484142921754
968.1170676455821,880,69.18766567164178
968.9972083619111,880,69.54737575757575
969.8270553230215,829,70.9245515151515
970.6569022841318,829,71.59288680926915
971.5118961228515,855,69.58450549613784
972.41718371679,905,66.9790378466702
973.3476181883378,930,66.31070255255256
974.2277589046669,880,67.27123274578926
975.0953261821913,867,68.8288492753623
975.9628934597157,867,68.50880138803836
976.8556076148494,892,67.54827119480166
977.7608952087879,905,67.21894655712049
978.6410359251171,880,68.55646011608623
979.4834563250321,842,71.31798442164178
980.2881564085329,804,73.06593826779563
981.1054299308385,817,73.4256483537296
981.9352768919488,829,70.97528171640565
982.8279910470826,892,68.90727998292786
983.7207052022163,892,67.85942886303326
984.5882724797407,867,69.196942421999
985.4306928796557,842,70.18532560344059
986.2856867183754,855,70.18532560344059
987.1532539958998,867,68.84781204447485
988.0459681510335,892,67.85942886303326
988.9386823061674,892,68.54756989699389
989.7811027060824,842,69.53595307843548
990.6360965448021,855,70.18532560344059
991.5036638223264,867,68.84781204447485
992.3963779774602,892,68.50880138803836
993.2639452549846,867,69.55665250793297
994.0937922160949,829,72.40152261747912
994.8859188607911,792,73.44937373737372
995.7157658219013,829,73.08966365143976
996.5581862218163,842,71.23317672333518
997.413180060536,855,71.23317672333519
998.2430270216463,829,72.74053327391562
999.0351536663425,792,73.82015182595183
999.852427188648,817,73.11131136249371
1000.7074210273678,855,71.25482443438912
1001.5624148660875,855,70.88404634581104
1002.3922618271977,829,72.74053327391562
1003.1843884718938,792,75.0042495927012
1003.9639416777853,779,75.75739258512544
1004.7686417612863,804,74.60974612047897
1005.5984887223965,829,72.0070191452569
1006.4660559999209,867,71.25387615283266
1007.2959029610312,829,71.62465424141075
1008.1131764833368,817,72.31279527537139
1008.9555968832517,842,70.93561951779563
1009.8357375995809,880,68.55646011608623
1010.7410251935194,905,67.21894655712049
1011.6337393486531,892,68.59612231469626
1012.4635863097634,829,71.35764662025181
1013.2682863932642,804,73.05487026515151
1014.0981333543746,829,72.34602980169339
1014.9531271930942,855,71.96366489784724
1015.7704007153999,817,73.1113113624937
1016.562527360096,792,74.96779829059828
1017.3546540047922,792,75.35016319444443
1018.1593540882931,804,74.20251672979796
1018.9892010494034,829,73.05487026515151
1019.8190480105136,829,73.05487026515151
1020.6237480940146,804,73.4256483537296
1021.4410216163201,817,73.4256483537296
1022.2708685774304,829,71.96366489784724
1023.1258624161501,855,71.96366489784724
1023.9431359384556,817,73.1113113624937
1024.7352625831518,792,74.1909299145299
1025.5525361054574,817,73.46044174001786
1026.3949565053724,842,71.60395481191327
1027.249950344092,855,71.23317672333519
1028.0797973052024,829,72.34602980169339
1028.8844973887033,804,73.4256483537296
1029.701770911009,817,73.06593826779563
1030.544191310924,842,70.93561951779563
1031.4243320272528,880,69.85600096575942
1032.2793258659726,855,70.96885404411763
1033.0840259494735,804,73.09917279411764
1033.8887260329743,804,75.78347028688523
1034.655705800061,766,76.58520314978847
1035.4352590059525,779,77.80751718667372
1036.2022387730394,766,78.2421177331218
1036.9566451013213,754,79.54663222191348
1037.698477990799,741,78.71882165725046
1038.490604635495,792,76.30876408149288
1039.3204515966054,829,73.44937373737372
1040.1502985577156,829,72.30172727272726
1040.9801455188258,829,72.67250536130535
1041.7974190411314,817,72.31279527537139
1042.6398394410464,842,72.68357336394948
1043.457112963352,817,72.31279527537139
1044.2869599244623,829,73.04328344988345
1045.104233446768,817,73.82015182595183
1045.896360091464,792,74.96779829059828
1046.6884867361603,792,74.96779829059828
1047.505760258466,817,74.1909299145299
1048.3230337807713,817,73.04328344988345
1049.1528807418817,829,73.4256483537296
1049.9575808253826,804,74.20251672979796
1050.7497074700786,792,74.57329481837607
1051.5669809923843,817,72.77230070605722
1052.4345482699086,867,69.92743059651104
1053.3272624250424,892,68.50880138803836
1054.194829702567,867,69.55665250793297
1055.0246766636772,829,71.62465424141075
1055.8419501859828,817,72.67250536130535
1056.671797147093,829,71.96366489784724
1057.5267909858126,855,71.23317672333518
1058.3692113857276,842,71.60395481191327
1059.1864849080332,817,73.86767113069885
1059.9660381139247,779,75.37502768127928
1060.758164758621,792,75.37502768127929
1061.5754382809264,817,73.11131136249371
1062.4304321196462,855,70.91581377795264
1063.2979993971705,867,70.18532560344059
1064.1404197970855,842,71.64730905932294
1064.9451198805864,804,73.06593826779563
1065.762393402892,817,73.4256483537296
1066.5922403640022,829,71.96366489784724
1067.447234202722,855,70.54503568937454
1068.3148014802464,867,70.54503568937454
1069.1446484413566,829,72.40152261747912
1069.9367750860529,792,75.0042495927012
1070.7163282919444,779,75.37502768127929
1071.5336018142498,817,73.86767113069885
1072.3760222141648,842,71.26494415547678
1073.2435894916891,867,69.8463149470041
1074.1111567692137,867,70.20602503293807
1074.941003730324,829,72.40152261747912
1075.73313037502,792,75.8594313131313
1076.487536703302,754,77.83488834244079
1077.254516470389,766,77.44038487021857
1078.0592165538899,804,74.32148683100289
1078.9142103926094,855,71.63718933823527
1079.7692042313292,855,71.25482443438912
1080.5864777536349,817,71.60395481191327
1081.4288981535497,842,71.26494415547678
1082.2964654310742,867,68.88578475376738
1083.2017530250125,905,67.8683190821256
1084.0818937413417,880,68.55646011608623
1084.9243141412567,842,70.93561951779563
1085.7415876635623,817,73.06593826779563
1086.5462877470632,804,72.377797233835
1087.4138550245875,867,70.30979550035721
1088.3065691797212,892,67.54827119480166
1089.2118567736597,905,66.89889866979655
1090.1045709287937,892,68.23641222876229
1090.9469913287087,842,70.99793653431784
1091.7516914122095,804,73.06593826779563
1092.568964934515,817,72.377797233835
1093.4365322120395,867,69.61627292827944
1094.341819805978,905,66.6400271902337
1095.272254277526,930,66.64002719023371
1096.1398215550503,867,68.64840850336502
1096.9696685161605,829,71.25387615283266
1097.7995154772707,829,72.30172727272726
1098.6293624383811,829,70.60450362782757
1099.5220765935148,892,67.71243453691847
1100.4650845038675,943,64.82036544600939
1101.40809241422,943,65.14041333333333
1102.288233130549,880,67.67277233830845
1103.130653530464,842,69.85600096575942
1103.9856473691839,855,70.18532560344059
1104.8532146467082,867,68.53665437624323
1105.7585022406467,905,67.23711352657004
1106.6637898345853,905,67.23711352657004
1107.5313571121096,867,68.88578475376738
1108.3737775120246,842,69.8463149470041
1109.241344789549,867,68.88578475376738
1110.1466323834875,905,66.35342574879226
1111.08964029384,943,65.39289555555555
1111.9949278877784,905,67.0415667827529
1112.8373482876934,842,69.22479541020387
1113.6923421264132,855,70.52433625987707
1114.5473359651328,855,68.87566503267973
1115.4526235590713,905,67.88728185123813
1116.345337714205,892,67.88728185123814
1117.2003315529248,855,69.53595307843548
1118.0427519528398,842,70.87346663740122
1118.8851723527548,842,70.87346663740122
1119.7401661914744,855,70.52433625987707
1120.5951600301942,855,70.52433625987707
1121.4375804301092,842,71.23317672333519
1122.2674273912194,829,70.89416606689869
1123.1349946687437,867,68.94286203909252
1124.052855701487,917,65.77173364993781
1125.0084370506443,955,64.81120345670111
1125.9137246445828,905,65.7450418128655
1126.793865360912,880,66.60515608828005
1127.711726393655,917,64.90575651563049
1128.6924546204218,980,63.67746462373859
1129.6228890919697,930,64.29125509257904
1130.5156032471034,892,65.9906546652286
1131.420890841042,905,65.42499392554154
1132.3764721901991,955,65.11383625730994
1133.2817597841376,905,65.42499392554154
1134.1744739392716,892,66.2851082009561
1135.0923349720147,917,65.68802186461977
1136.0227694435625,930,65.37686419638817
1136.928057037501,905,66.9790378466702
1137.7830508762208,855,68.87566503267972
1138.6380447149404,855,70.17520588235293
1139.4930385536602,855,69.18682270091134
1140.385752708794,892,68.5184874067937
1141.265893425123,880,69.2273278702518
1142.0957403862333,829,71.67769450757575
1142.9004404697341,804,73.4256483537296
1143.7177139920398,817,72.71680789027148
1144.5727078307593,855,70.91581377795264
1145.440275108284,867,71.29817868179879
1146.2449751917848,804,72.377797233835
1147.0622487140902,817,73.4256483537296
1147.8920956752006,829,72.31279527537139
1148.7345160751156,842,71.23317672333518
1149.5895099138352,855,71.23317672333519
1150.4193568749456,829,71.96366489784724
1151.236630397251,817,72.67250536130535
1152.0664773583615,829,71.96366489784724
1152.921471197081,855,70.54503568937454
1153.7890384746054,867,70.54503568937454
1154.6188854357158,829,72.40152261747912
1155.4110120804119,792,74.20251672979796
1156.2157121639127,804,74.95565972222221
1157.0204122474136,804,72.76016213768115
1157.8879795249381,867,70.62984338768115
1158.768120241267,880,68.8288492753623
1159.6356875187914,867,69.8767003952569
1160.4655344799019,829,71.25387615283266
1161.295381441012,829,71.9420171867933
1162.137801840927,842,70.89416606689869
1163.0053691184514,867,70.18532560344059
1163.8603629571712,855,70.91581377795265
1164.6776364794766,817,72.71680789027148
1165.4823365629777,804,72.71680789027148
1166.3373304016973,855,70.96885404411763
1167.2174711180264,880,69.16785993179879
1168.0850383955508,867,69.51699030932294
1168.9274587954658,842,71.64730905932294
1169.7321588789666,804,74.250036034545
1170.5117120848581,779,75.75739258512544
1171.3038387295544,792,74.64453950676723
1172.1462591294692,842,71.39244000654006
1173.0389732846031,892,69.196942421999
1173.9065405621275,867,69.196942421999
1174.7489609620425,842,70.89416606689869
1175.5788079231527,829,71.9420171867933
1176.408654884263,829,71.25387615283266
1177.2762221617875,867,69.24549483970135
1178.181509755726,905,68.19764371980675
1179.0490770332503,867,69.24549483970135
1179.8789239943605,829,71.25387615283266
1180.7087709554708,829,72.30172727272726
1181.5386179165812,829,71.25387615283266
1182.4061851941055,867,69.24549483970135
1183.311472788044,905,67.8683190821256
1184.191613504373,880,68.55646011608623
1185.034033904288,842,70.20513134328357
1185.876454304203,842,71.22259701492537
1186.718874704118,842,70.53445598096474
1187.5864419816423,867,69.51699030932295
1188.4665826979715,880,69.51699030932294
1189.3090030978865,842,70.56484142921754
1190.1388500589967,829,71.23317672333518
1190.9938438977165,855,70.54503568937454
1191.8614111752408,867,68.23402157563442
1192.779272207984,917,67.89501091919792
1193.6468394855085,867,68.94286203909252
1194.4766864466187,829,71.25387615283266
