67.23711352657004
67.54827119480166
66.38552411877826
63.467457708945204
63.467457708945204
65.92974563464179
69.89566316436945
70.88404634581103
70.21571105169339
69.16785993179879
68.1794767503572
66.11371311399358
64.85055012014803
65.17059800747197
67.56568628151676
68.8288492753623
69.8463149470041
71.2649441554768
72.31279527537139
70.66412404817405
68.59612231469626
67.88728185123814
68.5184874067937
68.5184874067937
66.62186022078416
66.95118485846531
68.28869841743105
70.53445598096474
70.87346663740122
71.23317672333519
72.34602980169339
72.69516017921754
70.99793653431783
69.88508345595963
69.53595307843548
70.52433625987707
69.83619522591644
70.91581377795265
71.99543232998884
72.68357336394948
72.31279527537139
72.31279527537139
73.82015182595183
75.7956088552613
76.97970662201068
76.58520314978847
75.36288911290322
74.95565972222221
74.95565972222221
74.57329481837607
72.71680789027148
71.60395481191327
71.23317672333519
70.89416606689869
69.8767003952569
69.16785993179879
70.58648914027148
71.96366489784724
72.67250536130535
73.05487026515151
74.20251672979796
74.20251672979796
73.08966365143976
71.58230710085932
73.1371829561868
75.90695061787835
77.01980369623655
76.61257430555554
76.17797375910746
76.97970662201068
74.78420903746962
71.11152836326043
67.24563839419282
68.29348951408741
69.63100307305315
69.93363587366198
67.32816822419434
66.31070255255256
67.27123274578926
68.49952463768115
64.48951287297527
61.571446463142216
61.251398575818264
64.94136245320021
67.85942886303326
68.84781204447485
70.18532560344059
71.60395481191327
72.68357336394948
73.04328344988345
72.31279527537139
71.23317672333518
71.23317672333519
71.96366489784724
73.04328344988345
73.04328344988345
72.67250536130535
73.05487026515151
74.60974612047897
75.36288911290322
74.98052420905707
75.4011053830391
76.62341941992433
77.40028779599271
76.57247723132969
76.57247723132969
76.97970662201068
76.58520314978847
74.60974612047897
72.69516017921754
73.08966365143976
73.84280664386401
74.95565972222221
73.80801325757575
74.20251672979796
75.0042495927012
76.9797066220107
78.2421177331218
76.68724187779432
72.4007707347447
70.36149124756521
72.3369482768747
75.7956088552613
76.17797375910746
75.35016319444443
76.61257430555554
77.00707777777777
74.81158019323671
73.15466560990338
73.15466560990336
73.15466560990338
72.04181253154516
70.18532560344059
72.78805257866266
73.90090565702087
73.23257036290322
71.67769450757575
72.07219797979798
74.20251672979796
71.59704908033032
70.0896925297499
69.33654953732565
72.31279527537139
73.82015182595183
71.50913771221167
70.77864953769962
71.60646010236263
75.06512068074926
72.81936311721557
70.13506562444796
69.3581972483796
71.25482443438912
69.95528358471593
68.87566503267972
71.1393813514653
75.12321969390611
76.20283824594232
72.95073874571514
70.97528171640565
71.75215009247403
74.59702020202019
73.54916908212559
72.77230070605722
71.99543232998884
74.59815930521091
75.37502768127928
72.99586827956989
70.73215196078431
69.95528358471593
70.91581377795264
69.92743059651104
69.55665250793297
70.97528171640565
69.50137697215065
69.14166688621668
69.52403179006284
73.44830317164178
73.09917279411764
72.71680789027148
72.71680789027148
73.06593826779563
68.72924264948989
65.370632007598
65.73034209353196
70.06703771183771
71.62465424141075
70.91581377795264
70.54503568937454
70.21571105169339
67.48161212121212
66.10443636363635
66.772771657754
67.90469693795325
66.1107443063743
63.92751567892333
65.19067867276887
66.98463130434781
69.8767003952569
72.900008544461
76.25264133134624
75.54380086788812
71.2573297248385
65.8389333015896
62.33017300747197
60.93340623543123
62.065331515630476
65.57409180974813
67.90469693795325
68.83853529411763
69.18766567164178
69.51699030932294
68.58315195315856
65.23508115331163
63.97191815946609
65.92322218727227
69.27129298711918
70.53445598096474
70.18532560344059
69.49718456947996
68.23402157563442
66.33739438962488
65.07423139577932
65.37686419638817
65.37686419638817
64.79580921921922
64.49317641861037
64.20657497716894
63.92751567892333
62.79559039872408
63.99043584473347
65.46434058898848
67.21005633802815
66.59626586918772
66.91631375651167
68.98431548998946
71.2953296037296
71.62465424141075
69.24549483970135
68.53665437624323
68.53665437624323
68.84781204447485
67.24563839419282
66.91631375651167
67.23636164383561
67.85015211267606
66.91631375651167
66.59626586918772
67.93377942815346
70.2447935418936
70.56484142921754
69.54737575757575
69.54737575757575
71.2953296037296
72.67250536130535
72.67250536130535
71.9420171867933
72.69516017921754
72.33545009328357
71.98631971575942
70.87346663740122
71.23317672333519
71.23317672333518
70.54503568937454
70.18532560344059
70.53445598096474
70.20513134328357
68.55646011608623
67.53899444444444
68.20732973856208
69.16785993179879
68.84781204447485
68.50880138803836
69.92743059651106
71.26494415547678
70.30441396224008
67.62262175992184
66.2851082009561
65.98247540034728
65.40142042317834
63.92751567892333
64.86135403508771
68.1242012145749
72.44297606837605
74.57329481837607
74.57329481837607
73.4256483537296
70.66412404817405
66.85040656565656
63.67927817650186
62.51653110047847
61.9935529646902
61.45690046806402
62.619647544087414
65.53771395392047
68.19764371980675
69.49718456947996
70.91581377795265
73.1113113624937
73.46044174001786
71.71248789386401
69.85600096575942
71.36335751633985
73.49367626633986
73.49367626633986
70.96885404411763
68.5184874067937
68.5184874067937
68.5184874067937
68.83853529411763
69.18766567164178
69.51699030932294
69.196942421999
67.24563839419282
67.24563839419282
68.2340215756344
69.1678599317988
68.83853529411763
67.85015211267606
68.86761778431784
69.196942421999
68.88578475376738
66.93448072596121
67.2734913823977
68.92216260959503
70.87346663740122
70.20513134328357
70.20513134328357
69.18766567164178
68.86761778431784
67.21894655712049
67.88728185123814
68.87566503267972
69.83619522591644
68.84781204447485
68.84781204447485
70.6488061567937
71.98631971575942
71.64730905932294
68.88578475376738
68.19764371980675
68.88578475376738
69.8463149470041
69.51699030932295
69.16785993179879
70.58648914027148
72.33444298642533
72.33444298642533
70.91581377795264
70.54503568937454
69.55665250793297
68.29348951408741
65.40142042317834
65.09026275494672
67.77205495726496
69.95528358471593
70.58648914027148
67.90469693795325
67.23636164383561
66.91631375651167
67.21894655712049
65.9906546652286
65.37686419638817
65.07423139577932
65.67131773211567
65.67131773211567
66.60515608828005
68.98431548998946
71.66610769230769
72.33444298642533
69.95528358471593
68.20732973856208
67.21894655712049
67.21894655712049
65.70405322378716
66.02410111111111
65.72146831050227
66.00806975194371
65.07423139577932
67.02553542358551
69.27129298711918
71.58230710085934
71.23317672333518
71.23317672333518
70.18532560344059
68.58315195315856
64.97694450936487
63.132726538350376
62.00080125815113
62.2589379020979
62.54553934353934
64.29125509257904
65.68802186461977
66.2851082009561
66.93448072596121
68.88578475376738
70.53445598096474
70.20513134328357
67.95937377974988
65.42701477477476
65.10696688745082
67.71243453691847
70.2447935418936
70.89416606689869
69.51699030932295
69.51699030932294
70.56484142921754
71.23317672333518
70.88404634581103
70.88404634581104
72.34602980169339
73.4256483537296
73.06593826779563
71.95308518943742
71.95308518943742
72.68357336394948
72.68357336394948
70.93561951779563
70.56484142921754
72.47942737047897
76.2666607038123
78.67671827956988
80.92719649122806
82.82081315789472
82.38621261144664
78.580858544461
73.56834383857864
71.59288680926915
71.96366489784724
71.96366489784724
70.58648914027148
69.16785993179879
67.8683190821256
67.23711352657004
66.90778888888889
67.8683190821256
69.8767003952569
69.55665250793297
68.29348951408741
66.59626586918772
66.59626586918772
66.30181233346022
65.68802186461977
65.37686419638817
66.60515608828005
67.21894655712049
67.85015211267606
68.86761778431784
70.56484142921754
71.58230710085932
70.89416606689869
69.8463149470041
69.49718456947996
68.53665437624323
67.2734913823977
65.09026275494672
66.05079294818343
69.50945352657004
72.77230070605722
73.46044174001786
71.26494415547678
70.53445598096474
69.196942421999
67.35272445098451
64.00465365113759
63.09640964656964
63.38301108801108
64.48532432432432
63.38301108801108
63.09640964656964
63.09640964656964
63.63306214319582
63.35400284495021
63.95108918128655
64.51674992097361
65.08241066066066
64.19872288288288
64.49317641861037
64.20657497716894
63.65570467413864
63.07464969696969
64.58954303030302
65.42701477477476
64.87614447174447
63.647852579852575
64.55609658442052
65.39356832889226
64.82790758920521
63.63306214319582
64.86135403508771
66.33525877934272
67.21894655712049
66.58774100156495
66.58774100156495
67.54827119480166
67.85942886303326
66.95118485846533
66.95118485846531
67.9395680399069
68.84781204447485
67.88728185123814
66.89889866979655
67.21894655712049
66.91631375651167
66.30252328767122
66.97085858178886
68.2340215756344
68.84781204447485
67.85942886303326
67.85942886303326
66.95118485846533
66.33739438962488
66.00806975194371
67.56568628151676
68.1794767503572
67.54827119480166
67.88728185123814
69.95528358471593
71.96366489784724
73.04328344988345
73.82015182595183
74.96779829059828
74.59702020202019
72.40152261747913
69.8767003952569
68.49952463768115
67.23636164383561
65.72146831050227
65.40142042317834
66.33525877934272
67.21894655712049
66.02410111111111
66.02410111111111
66.65530666666666
67.85015211267606
67.21894655712049
68.23641222876229
69.57392578772802
70.87346663740122
69.53595307843548
68.84781204447485
68.50880138803836
68.19764371980676
67.54827119480166
66.58774100156495
65.70405322378716
64.23014847953216
64.86135403508771
65.14795547652915
65.14795547652915
64.51674992097361
65.11383625730994
65.39289555555555
63.69349598290598
63.390863182297146
63.97191815946609
65.07423139577932
64.21411712036476
64.51674992097361
64.81120345670111
65.09026275494672
63.390863182297146
62.530748906882586
63.11180388405153
63.92751567892333
64.20657497716894
64.50920777777777
66.02410111111111
67.21894655712049
66.62186022078416
66.95118485846531
67.60055738347042
69.15817391304347
68.19764371980676
67.8683190821256
67.53899444444444
67.53899444444444
66.31070255255256
66.9790378466702
68.27857869634339
69.83619522591644
68.53665437624323
68.88578475376738
69.22479541020387
69.53595307843548
67.00359407346036
66.01521089201877
65.40142042317834
66.59626586918772
65.98247540034728
65.40142042317834
65.09026275494672
64.79580921921922
65.08241066066066
65.39356832889226
62.61184845607828
62.32524701463683
64.39324874811463
70.92808273504272
74.96779829059828
72.89979655712048
70.05492644757433
67.85942886303326
68.17947675035721
67.27123274578926
65.14795547652915
64.82790758920521
66.38552411877826
67.24563839419282
65.77173364993781
64.50857065609227
65.44240901225666
67.23636164383561
68.1702
67.53899444444444
68.20732973856208
69.58450549613784
71.23317672333518
70.56484142921754
69.85600096575942
70.21571105169339
70.88404634581103
71.23317672333518
72.38082318798165
75.06512068074926
76.97970662201068
76.58520314978847
77.01980369623655
77.44038487021857
77.83488834244079
75.06512068074925
71.39244000654006
68.86761778431784
68.86761778431784
69.18766567164178
68.2538273154774
66.30252328767122
65.07423139577932
65.68802186461977
66.95118485846531
68.50880138803836
69.15817391304347
68.8288492753623
69.51699030932294
69.85600096575942
69.85600096575942
68.20732973856208
66.60515608828005
65.9739505327245
65.67131773211567
64.53939245191643
63.10483437110834
61.97290909090909
64.03867272727273
68.62925858585858
73.21984444444443
74.96779829059828
72.44297606837605
68.68986195426194
66.00806975194371
66.33739438962488
67.56568628151676
67.8683190821256
66.90778888888889
67.23711352657004
69.61627292827944
71.62465424141075
72.67250536130535
72.30172727272726
72.67250536130535
74.22738121663282
74.59815930521091
73.17953009673822
70.247478483835
68.8288492753623
69.8767003952569
70.54503568937454
70.88404634581103
70.17520588235293
70.17520588235293
71.25482443438912
71.60395481191327
70.61557163047169
67.93377942815346
66.59626586918772
68.66426760266552
71.72842470882989
73.79642644230769
72.377797233835
70.91581377795264
70.54503568937454
72.34602980169339
73.05487026515151
73.05487026515151
71.9420171867933
71.9420171867933
73.08966365143976
73.44937373737372
72.74053327391562
70.21571105169339
68.83853529411763
68.83853529411763
71.36335751633985
74.71599030322511
77.40028779599271
77.00578432377048
74.32148683100289
71.98631971575942
71.60395481191327
71.60395481191327
70.58648914027148
67.90469693795325
66.60515608828005
66.93448072596121
69.61627292827944
71.99543232998884
72.68357336394948
70.93561951779563
69.18766567164178
69.54737575757575
71.2953296037296
73.04328344988345
71.66610769230769
69.5981059588299
67.5301042253521
68.90727998292786
70.97528171640565
72.31279527537139
71.60395481191327
69.53595307843548
69.53595307843548
71.79966939722107
74.64453950676723
75.37502768127929
72.77230070605722
70.57680312151615
69.8463149470041
71.2649441554768
72.31279527537139
71.96366489784724
71.59288680926915
71.96366489784724
74.22738121663282
74.59815930521091
73.5185407531747
71.25482443438912
71.25482443438912
72.33444298642533
71.99543232998884
69.61627292827944
65.80255544576195
64.53939245191643
63.94230611558008
64.77977786005182
64.48532432432432
65.71361621621621
66.62186022078416
66.33525877934272
63.24936495218222
62.05451950617283
63.898737477187325
67.65296659846545
69.49718456947996
68.23402157563442
66.63184792535237
65.98247540034728
67.93377942815346
68.5475698969939
66.8018541479542
62.69849464915192
60.17811753647586
61.31004281667511
64.3959366438356
66.60515608828005
66.31070255255256
65.37686419638817
66.67640504606136
69.6526507841071
71.96366489784724
71.96366489784724
69.281872695529
66.97085858178886
66.97085858178886
68.2340215756344
68.84781204447485
66.95118485846533
65.39356832889226
66.04294085389736
68.28869841743105
70.18532560344059
69.85600096575942
68.20732973856208
67.53899444444444
68.9161702020202
70.56484142921754
71.23317672333518
70.18532560344059
69.1678599317988
69.51699030932294
71.31798442164178
72.69516017921754
73.4256483537296
73.82015182595183
75.7956088552613
78.28422111080238
79.99596499027507
81.82586202795122
81.37652925958963
79.27028190789473
73.45654652777777
69.3492653071205
68.23641222876229
71.39244000654006
73.84280664386401
74.20251672979796
73.05487026515151
72.67250536130535
71.2953296037296
68.40326051282051
65.42701477477476
64.79580921921922
65.08241066066066
64.24493891618891
62.035719471744464
61.19824772727272
60.42358636363635
59.036402061310774
58.261740697674405
60.16832734151002
62.88104331050227
63.92751567892333
63.34646070175438
64.86135403508771
66.65530666666666
67.53899444444444
66.60515608828005
65.67131773211567
66.97085858178886
70.03501568795325
73.09917279411764
73.44830317164178
70.99793653431783
68.86761778431784
68.5184874067937
68.83853529411763
68.83853529411763
66.10443636363635
63.51569459148446
60.92695281933256
60.152291455696194
60.152291455696194
62.10982767229254
63.43535933895921
64.23014847953216
63.06740140350877
63.35400284495021
65.47728011421032
67.27123274578926
67.56568628151676
65.72146831050227
64.49317641861037
65.10696688745082
67.2901955149018
69.18682270091134
69.18682270091134
67.2901955149018
65.68802186461977
66.00806975194371
67.56568628151676
68.49952463768115
67.56568628151676
66.00806975194371
65.07423139577932
67.02553542358551
70.77864953769961
74.23731011608623
74.96779829059828
73.11131136249371
70.91581377795264
68.84781204447485
68.84781204447485
69.89566316436945
71.59288680926915
71.25387615283266
69.55665250793297
67.85942886303326
68.19843951946974
70.6488061567937
73.49367626633986
74.57329481837607
73.11131136249371
70.91581377795264
69.83619522591644
71.29817868179879
72.34602980169339
73.05487026515151
70.60450362782757
68.59612231469626
65.9906546652286
66.31070255255256
68.31908386568387
72.07219797979798
73.82015182595183
73.11131136249371
70.26644125294754
68.19843951946976
68.19843951946974
69.18682270091134
70.17520588235293
69.18682270091134
67.58464905062931
66.59626586918772
67.58464905062931
70.26644125294754
71.60395481191327
70.93561951779563
68.2538273154774
65.72146831050227
64.78762995433789
67.09864406807803
70.74385615141136
73.80801325757575
73.09917279411764
70.64880615679368
67.58464905062931
66.59626586918772
68.29348951408741
70.60450362782757
71.59288680926915
70.21571105169339
68.5184874067937
67.85015211267606
68.5184874067937
70.96885404411763
73.90090565702086
74.98052420905707
74.22738121663282
71.96366489784724
70.54503568937454
69.49718456947996
70.20602503293807
70.89416606689869
70.56484142921754
68.55646011608623
67.53899444444444
68.55646011608623
70.93561951779563
72.68357336394948
73.04328344988345
71.2953296037296
69.54737575757575
69.54737575757575
72.07219797979798
74.20251672979796
73.84280664386401
71.64730905932294
68.88578475376738
68.88578475376738
70.30441396224008
72.68357336394948
73.04328344988345
71.96366489784724
70.21571105169339
69.85600096575942
70.20513134328357
71.22259701492537
71.22259701492537
70.20513134328357
69.51699030932294
70.247478483835
72.77230070605722
74.96779829059828
75.74466666666666
74.96779829059828
74.1909299145299
73.79642644230769
74.98052420905707
75.75739258512544
76.55912544802867
77.86363993682036
79.57538381629305
81.34472530683809
82.29068902970458
83.23665275257108
81.88789243600803
77.72282828308843
72.22025057120308
69.53595307843548
70.26644125294754
72.33444298642533
73.41406153846154
71.66610769230769
69.28694829059829
66.31070255255256
66.31070255255256
67.27123274578926
68.1794767503572
67.85942886303326
66.59626586918772
66.91631375651167
68.2538273154774
70.20513134328357
70.53445598096474
68.88578475376738
66.93448072596121
66.2851082009561
67.93377942815346
69.53595307843548
69.53595307843548
67.88728185123814
65.42499392554154
65.42499392554154
67.43337523867285
70.60450362782757
71.25387615283266
69.24549483970135
66.35342574879226
64.79580921921922
63.912121441441435
65.75633941245593
69.50945352657004
74.37697964678861
76.97970662201068
75.47235007143026
71.18587892838062
65.66508554332549
62.85366724010476
63.78750559626915
67.7534231259968
70.9245515151515
71.25387615283266
69.55665250793297
66.95118485846533
66.30181233346022
67.63932589242594
70.61557163047169
71.95308518943742
71.26494415547678
68.00209697598962
66.66458341702386
66.33525877934272
66.91631375651167
64.3959366438356
61.31004281667511
61.31004281667511
62.63557448334178
63.390863182297146
62.2589379020979
63.77383123543123
66.43376100131752
68.8288492753623
68.8288492753623
69.51699030932294
70.56484142921754
70.89416606689869
69.8767003952569
68.49952463768115
69.54737575757575
70.9245515151515
71.9420171867933
70.24479354189359
67.63932589242594
66.30181233346022
67.99903597835991
70.60450362782757
71.59288680926915
69.89566316436944
68.5184874067937
69.2273278702518
70.56484142921754
71.23317672333518
69.85600096575942
68.5184874067937
67.21894655712049
68.23641222876229
71.08128233830845
74.23731011608623
74.59702020202019
71.44099242424241
68.28496464646464
67.57612418300653
69.58450549613784
71.23317672333518
70.24479354189359
68.23641222876229
66.58774100156495
67.23711352657004
68.88578475376738
70.18532560344059
69.22479541020388
66.14156610219845
63.67927817650186
63.99043584473347
67.43337523867285
71.35764662025181
72.69516017921754
71.64730905932294
69.8463149470041
69.8463149470041
70.18532560344059
69.53595307843548
67.2901955149018
65.39356832889226
65.39356832889226
68.369814066938
72.12292818105212
74.96779829059828
74.23731011608622
71.39244000654006
69.53595307843548
70.26644125294754
71.96366489784724
72.31279527537139
70.56484142921754
69.18766567164178
69.54737575757575
70.9245515151515
71.59288680926915
69.58450549613784
66.9790378466702
66.31070255255256
67.27123274578926
68.8288492753623
68.50880138803836
67.54827119480166
67.21894655712049
68.55646011608623
71.31798442164178
73.06593826779563
73.4256483537296
70.97528171640565
68.90727998292786
67.85942886303326
69.196942421999
70.18532560344059
70.18532560344059
68.84781204447485
67.85942886303326
68.54756989699389
69.53595307843548
70.18532560344059
68.84781204447485
68.50880138803836
69.55665250793297
72.40152261747912
73.44937373737372
73.08966365143976
71.23317672333518
71.23317672333519
72.74053327391562
73.82015182595183
73.11131136249371
71.25482443438912
70.88404634581104
72.74053327391562
75.0042495927012
75.75739258512544
74.60974612047897
72.0070191452569
71.25387615283266
71.62465424141075
72.31279527537139
70.93561951779563
68.55646011608623
67.21894655712049
68.59612231469626
71.35764662025181
73.05487026515151
72.34602980169339
71.96366489784724
73.1113113624937
74.96779829059828
75.35016319444443
74.20251672979796
73.05487026515151
73.05487026515151
73.4256483537296
73.4256483537296
71.96366489784724
71.96366489784724
73.1113113624937
74.1909299145299
73.46044174001786
71.60395481191327
71.23317672333519
72.34602980169339
73.4256483537296
73.06593826779563
70.93561951779563
69.85600096575942
70.96885404411763
73.09917279411764
75.78347028688523
76.58520314978847
77.80751718667372
78.2421177331218
79.54663222191348
78.71882165725046
76.30876408149288
73.44937373737372
72.30172727272726
72.67250536130535
72.31279527537139
72.68357336394948
72.31279527537139
73.04328344988345
73.82015182595183
74.96779829059828
74.96779829059828
74.1909299145299
73.04328344988345
73.4256483537296
74.20251672979796
74.57329481837607
72.77230070605722
69.92743059651104
68.50880138803836
69.55665250793297
71.62465424141075
72.67250536130535
71.96366489784724
71.23317672333518
71.60395481191327
73.86767113069885
75.37502768127928
75.37502768127929
73.11131136249371
70.91581377795264
70.18532560344059
71.64730905932294
73.06593826779563
73.4256483537296
71.96366489784724
70.54503568937454
70.54503568937454
72.40152261747912
75.0042495927012
75.37502768127929
73.86767113069885
71.26494415547678
69.8463149470041
70.20602503293807
72.40152261747912
75.8594313131313
77.83488834244079
77.44038487021857
74.32148683100289
71.63718933823527
71.25482443438912
71.60395481191327
71.26494415547678
68.88578475376738
67.8683190821256
68.55646011608623
70.93561951779563
73.06593826779563
72.377797233835
70.30979550035721
67.54827119480166
66.89889866979655
68.23641222876229
70.99793653431784
73.06593826779563
72.377797233835
69.61627292827944
66.6400271902337
66.64002719023371
68.64840850336502
71.25387615283266
72.30172727272726
70.60450362782757
67.71243453691847
64.82036544600939
65.14041333333333
67.67277233830845
69.85600096575942
70.18532560344059
68.53665437624323
67.23711352657004
67.23711352657004
68.88578475376738
69.8463149470041
68.88578475376738
66.35342574879226
65.39289555555555
67.0415667827529
69.22479541020387
70.52433625987707
68.87566503267973
67.88728185123813
67.88728185123814
69.53595307843548
70.87346663740122
70.87346663740122
70.52433625987707
70.52433625987707
71.23317672333519
70.89416606689869
68.94286203909252
65.77173364993781
64.81120345670111
65.7450418128655
66.60515608828005
64.90575651563049
63.67746462373859
64.29125509257904
65.9906546652286
65.42499392554154
65.11383625730994
65.42499392554154
66.2851082009561
65.68802186461977
65.37686419638817
66.9790378466702
68.87566503267972
70.17520588235293
69.18682270091134
68.5184874067937
69.2273278702518
71.67769450757575
73.4256483537296
72.71680789027148
70.91581377795264
71.29817868179879
72.377797233835
73.4256483537296
72.31279527537139
71.23317672333518
71.23317672333519
71.96366489784724
72.67250536130535
71.96366489784724
70.54503568937454
70.54503568937454
72.40152261747912
74.20251672979796
74.95565972222221
72.76016213768115
70.62984338768115
68.8288492753623
69.8767003952569
71.25387615283266
71.9420171867933
70.89416606689869
70.18532560344059
70.91581377795265
72.71680789027148
72.71680789027148
70.96885404411763
69.16785993179879
69.51699030932294
71.64730905932294
74.250036034545
75.75739258512544
74.64453950676723
71.39244000654006
69.196942421999
69.196942421999
70.89416606689869
71.9420171867933
71.25387615283266
69.24549483970135
68.19764371980675
69.24549483970135
71.25387615283266
72.30172727272726
71.25387615283266
69.24549483970135
67.8683190821256
68.55646011608623
70.20513134328357
71.22259701492537
70.53445598096474
69.51699030932295
69.51699030932294
70.56484142921754
71.23317672333518
70.54503568937454
68.23402157563442
67.89501091919792
68.94286203909252
71.25387615283266
