1.86705
1.86705
1.83773
1.81329
1.79863
1.77908
1.75953
1.72531
1.67155
1.64711
1.60801
1.57380
1.54447
1.52492
1.49560
1.49560
1.44183
1.42228
1.40273
1.37829
1.36852
1.36363
1.33431
1.31964
1.30498
1.29521
1.28054
1.27077
1.26099
1.26588
1.26099
1.26588
1.22678
1.22189
1.22189
1.20723
1.19745
1.19257
1.19257
1.18768
1.23655
1.30009
1.38318
1.54447
1.75464
1.98924
2.19941
2.34604
2.45356
2.51710
2.53176
2.48778
2.43401
2.37536
2.32160
2.26783
2.19452
2.16031
2.16520
2.10166
2.07233
2.05278
2.03323
1.98435
1.95014
1.92570
1.90127
1.87683
1.85728
1.85239
1.84750
1.82795
1.81818
1.79374
1.77908
1.74975
1.71554
1.68621
1.66177
1.62756
1.59335
1.56402
1.54936
1.52981
1.47605
1.45161
1.42717
1.40762
1.38318
1.36852
1.35874
1.35386
1.31964
1.30498
1.29521
1.28543
1.26099
1.25122
1.25122
1.24633
1.23655
1.21700
1.21212
1.20723
1.19745
1.19257
1.19745
1.20234
1.19257
1.16813
1.16324
1.16813
1.17790
1.23655
1.35386
1.53470
1.74486
1.97458
2.19452
2.32649
2.41935
2.50244
2.47800
2.45356
2.38514
2.31182
2.24340
2.17497
2.11143
2.05278
2.00879
1.98435
1.95992
1.94037
1.88660
1.86217
1.84261
1.81818
1.83773
1.82306
1.82795
1.82306
1.82306
1.82306
1.81329
1.79374
1.77908
1.78396
1.75953
1.68132
1.65689
1.62756
1.59335
1.55425
1.52492
1.50537
1.48582
1.45161
1.44672
1.41739
1.43206
1.37829
1.36363
1.34897
1.33919
1.31476
1.30987
1.30009
1.30009
1.27565
1.26099
1.25610
1.25610
1.23655
1.23167
1.23167
1.23167
1.22189
1.23655
1.20234
1.20234
1.19745
1.22189
1.29521
1.43206
1.61290
1.82795
2.05767
2.29227
2.41446
2.48778
2.53176
2.53665
2.53176
2.43401
2.35092
2.28250
2.21407
2.13587
2.08699
2.05278
2.01857
1.97458
1.94525
1.92082
1.90127
1.86705
1.85239
1.84750
1.84750
1.83773
1.84261
1.85239
1.87194
1.81329
1.79374
1.77419
1.75464
1.71065
1.67644
1.64711
1.61779
1.60312
1.54936
1.51026
1.48582
1.45161
1.42717
1.40762
1.39296
1.36852
1.37829
1.33431
1.32453
1.30987
1.29032
1.28054
1.28054
1.26588
1.25122
1.26099
1.23167
1.22678
1.20723
1.21212
1.20234
1.20234
1.19745
1.21700
1.18279
1.17790
1.16324
1.17790
1.23655
1.35874
1.51026
1.73509
1.98924
2.22385
2.39980
2.53665
2.62952
2.64907
2.60997
2.57575
2.51710
2.43890
2.34115
2.27272
2.22873
2.18963
2.15053
2.12121
2.09677
2.07722
2.03323
2.00391
1.97458
1.95014
1.92082
1.90127
1.89638
1.91104
1.87683
1.85239
1.83773
1.82795
1.79374
1.76441
1.73998
1.71554
1.67644
1.64222
1.64222
1.57869
1.54447
1.50537
1.48093
1.45161
1.42717
1.40273
1.38807
1.36363
1.34408
1.31964
1.30987
1.30009
1.31476
1.27077
1.25610
1.25122
1.24144
1.22189
1.20723
1.20723
1.20723
1.20723
1.17790
1.17302
1.16813
1.16324
1.15835
1.15835
1.15835
1.15347
1.14858
1.14858
1.15347
1.16813
1.16324
1.24144
1.38318
1.58357
1.82795
2.10654
2.31182
2.47800
2.59530
2.65884
2.66862
2.62463
2.55620
2.47800
2.42424
2.31671
2.23362
2.20918
2.13098
2.09188
2.07722
2.04301
2.00391
1.96969
1.94037
1.92570
1.92570
1.94037
1.89638
1.89638
1.89638
1.89149
1.86705
1.88172
1.84261
1.80840
1.76441
1.73509
1.71065
1.67644
1.63245
1.59824
1.57380
1.54447
1.50537
1.48093
1.47116
1.44672
1.41251
1.38807
1.37341
1.36363
1.33919
1.32942
1.31964
1.30498
1.29032
1.28054
1.28543
1.29521
1.24633
1.24144
1.23655
1.22678
1.22189
1.21700
1.22678
1.24144
1.19745
1.19257
1.18768
1.19257
1.18768
1.20234
1.17790
1.18279
1.17302
1.16813
1.18279
1.25610
1.37341
1.56891
1.77908
2.03323
2.26295
2.43401
2.56598
2.64418
2.65395
2.63440
2.55620
2.48289
2.40469
2.29227
2.21407
2.15053
2.08211
2.01857
1.97458
1.94525
1.91593
1.88660
1.89638
1.87194
1.88172
1.88660
1.89638
1.91593
1.92570
1.92082
1.91593
1.94037
1.88660
1.84750
1.82306
1.78885
1.75953
1.71554
1.67155
1.65200
1.62756
1.59824
1.56891
1.55913
1.54936
1.49071
1.47116
1.45650
1.44672
1.43206
1.41251
1.39784
1.39784
1.37341
1.36363
1.37341
1.34897
1.33431
1.31964
1.31476
1.31476
1.30498
1.29032
1.28054
1.28054
1.28543
1.27077
1.29032
1.25610
1.26588
1.29521
1.38807
1.54936
1.75464
1.99902
2.19452
2.38514
2.53176
2.59530
2.61974
2.61485
2.56598
2.47311
2.41446
2.30694
2.23362
2.14565
2.08699
2.03812
2.00879
1.96480
1.92570
1.91593
1.93059
1.88660
1.87194
1.88172
1.89638
1.89638
1.89638
1.92082
1.90127
1.88172
1.85728
1.83284
1.80840
1.76930
1.73020
1.69599
1.66666
1.63245
1.59335
1.58846
1.55425
1.52003
1.50048
1.45650
1.44183
1.42228
1.39784
1.38807
1.36852
1.36363
1.36363
1.32942
1.31964
1.30987
1.29521
1.28543
1.28054
1.27077
1.25122
1.24144
1.24144
1.23167
1.23655
1.20234
1.21212
1.26588
1.35874
1.52003
1.73998
1.97458
2.17497
2.36070
2.45845
2.53176
2.53176
2.49755
2.44379
2.38514
2.30205
2.24828
2.16520
2.12121
2.06744
2.02834
2.04301
1.99413
1.97458
1.92082
1.89638
1.87683
1.85239
1.84261
1.82306
1.81818
1.80840
1.78885
1.77908
1.76441
1.74486
1.71065
1.68621
1.66666
1.64711
1.57380
1.53958
1.51026
1.47605
1.43206
1.40762
1.38807
1.37341
1.33919
1.30987
1.29032
1.27565
1.25122
1.23167
1.22189
1.21212
1.21700
1.16813
1.16324
1.15835
1.13880
1.12903
1.11925
1.11436
1.09481
1.07526
1.06549
1.08504
1.12903
1.17790
1.31964
1.50048
1.69599
1.88660
2.05278
2.17986
2.23851
2.26783
2.24340
2.21896
2.16520
2.10166
2.05767
2.01857
1.98435
1.95503
1.93548
1.92570
1.90127
1.87194
1.83773
1.80840
1.76930
1.73020
1.71065
1.70576
1.70087
1.65689
1.64711
1.63734
1.61779
1.58846
1.56402
1.54447
1.52003
1.49071
1.48582
1.45161
1.39784
1.35874
1.33431
1.30987
1.29032
1.27565
1.22678
1.21212
1.19745
1.17302
1.14858
1.14858
1.13880
1.11925
1.11436
1.08993
1.07526
1.06060
1.05083
1.04594
1.04105
1.02639
1.02150
1.01661
1.03616
1.02639
0.98240
0.99217
1.03128
1.10948
1.22678
1.39296
1.58357
1.75953
1.88172
1.98435
2.04789
2.06744
2.05278
2.02834
1.99902
1.96480
1.93059
1.90127
1.90127
1.88660
1.86705
1.85239
1.84261
1.81818
1.77419
1.74486
1.72531
1.69110
1.66177
1.67644
1.63734
1.62756
1.60312
1.60312
1.59335
1.60312
1.54447
1.52003
1.50048
1.48582
1.45161
1.42717
1.40273
1.38807
1.35874
1.32453
1.31476
1.29032
1.26099
1.24144
1.21700
1.21212
1.19257
1.18279
1.17302
1.15835
1.14369
1.12903
1.11925
1.11925
1.10459
1.13391
1.08993
1.08993
1.08015
1.07038
1.06549
1.07038
1.05571
1.05083
1.03616
1.05083
1.08993
1.17302
1.29032
1.45161
1.61779
1.73998
1.85728
1.94037
1.98435
1.97947
1.97458
1.94525
1.91593
1.87194
1.83284
1.81818
1.79863
1.80840
1.76441
1.75464
1.74486
1.71065
1.69110
1.67155
1.66666
1.64711
1.64222
1.64222
1.64711
1.63245
1.66177
1.62267
1.61779
1.59824
1.57380
1.55913
1.54447
1.52003
1.48582
1.46627
1.45161
1.42717
1.40273
1.39784
1.36852
1.34897
1.32453
1.31476
1.30009
1.29521
1.30498
1.26099
1.25610
1.24144
1.22678
1.22189
1.21212
1.20723
1.19257
1.18768
1.18279
1.17790
1.16324
1.15835
1.16324
1.18279
1.13391
1.13391
1.15835
1.19745
1.27077
1.39296
1.54447
1.70087
1.82795
1.94037
2.01368
2.05767
2.09188
2.03812
2.01368
1.98924
1.97947
1.91104
1.90127
1.88660
1.87194
1.85239
1.84750
1.83284
1.80351
1.77908
1.76930
1.74975
1.73509
1.72043
1.71554
1.72043
1.71554
1.70576
1.69110
1.68621
1.66177
1.64711
1.61779
1.60312
1.57869
1.54447
1.52492
1.51515
1.49560
1.47605
1.43206
1.42228
1.40762
1.37829
1.36852
1.35874
1.34897
1.32942
1.31964
1.33919
1.29521
1.27565
1.26588
1.26099
1.25122
1.23655
1.23167
1.23167
1.22189
1.20723
1.19745
1.20234
1.20723
1.20234
1.17790
1.16813
1.16813
1.17790
1.21212
1.30987
1.40273
1.54447
1.70576
1.86705
2.00879
2.10166
2.17497
2.17497
2.17986
2.16520
2.12121
2.09188
2.09188
2.05278
2.06256
2.03323
2.04789
2.02834
2.01368
1.99413
1.98435
1.98435
1.92082
1.89638
1.89149
1.87683
1.85239
1.84261
1.83773
1.82795
1.80351
1.78885
1.77419
1.75953
1.73020
1.70087
1.68132
1.66177
1.62756
1.60312
1.58846
1.56402
1.53470
1.51515
1.52492
1.47605
1.45161
1.43206
1.41739
1.41251
1.38807
1.37829
1.36852
1.38318
1.34897
1.32453
1.31476
1.31476
1.30009
1.29032
1.28054
1.27565
1.26588
1.26099
1.28054
1.24633
1.24144
1.23167
1.22678
1.22678
1.21700
1.20234
1.20723
1.21700
1.23167
1.27077
1.31964
1.45161
1.59824
1.75464
1.91593
2.05767
2.16031
2.21896
2.25806
2.24340
2.22385
2.17986
2.13587
2.10654
2.10654
2.04301
2.02834
2.00879
2.00391
2.00391
1.96480
1.94525
1.93548
1.94037
1.90615
1.90615
1.91104
1.90127
1.89638
1.89149
1.88660
1.86705
1.84750
1.83284
1.81329
1.78885
1.78885
1.73509
1.71554
1.67644
1.64711
1.61779
1.60312
1.58357
1.55425
1.53958
1.54447
1.49560
1.47605
1.46627
1.45650
1.44183
1.44672
1.40762
1.40273
1.38807
1.36852
1.35874
1.36363
1.38318
1.32942
1.32453
1.31964
1.31476
1.30498
1.31476
1.32453
1.28543
1.27077
1.26588
1.27077
1.29521
1.34897
1.46138
1.62756
1.80840
1.93548
2.08699
2.20918
2.29716
2.33137
2.35092
2.32160
2.29227
2.23362
2.18475
2.14076
2.11143
2.06256
2.02834
2.00391
2.00879
1.95992
1.93548
1.92082
1.92082
1.90127
1.89638
1.91104
1.90615
1.90127
1.88660
1.88660
1.90615
1.86217
1.83284
1.80840
1.79863
1.78885
1.72043
1.69110
1.67155
1.63734
1.60312
1.57869
1.56402
1.53958
1.51515
1.50048
1.49071
1.48093
1.43695
1.42228
1.41251
1.40273
1.37829
1.36852
1.36363
1.35874
1.33919
1.36363
1.31964
1.31476
1.30009
1.29032
1.28543
1.29032
1.27565
1.27077
1.27565
1.26099
1.26588
1.30987
1.40762
1.54936
1.72043
1.91104
2.11143
2.27761
2.39002
2.45845
2.49755
2.50244
2.46823
2.41446
2.36559
2.32649
2.28250
2.22385
2.19941
2.20430
2.18475
2.13587
2.11632
2.13098
2.06744
2.03323
2.01368
2.00391
1.99902
2.00879
1.96969
1.96480
1.95503
1.93059
1.91104
1.89149
1.86217
1.82306
1.78885
1.76441
1.73998
1.69599
1.66666
1.66666
1.64711
1.60801
1.55913
1.53470
1.51515
1.48582
1.46627
1.45161
1.44183
1.41739
1.40273
1.38807
1.38807
1.36852
1.35874
1.35386
1.37829
1.32453
1.31964
1.31476
1.30987
1.30009
1.29032
1.28543
1.28543
1.28054
1.30987
1.37829
1.51515
1.69110
1.88660
2.08699
2.27272
2.40469
2.47800
2.51221
2.53176
2.47800
2.41935
2.37047
2.30694
2.25806
2.20430
2.17008
2.15542
2.14076
2.10654
2.08211
2.06256
2.03323
1.99413
1.96969
1.95503
1.94037
1.91104
1.90615
1.90127
1.89638
1.89149
1.84261
1.82306
1.80351
1.75953
1.73020
1.70576
1.68621
1.64711
1.60801
1.58357
1.56402
1.52981
1.50048
1.48093
1.46627
1.44672
1.42717
1.41251
1.43206
1.41251
1.38318
1.34897
1.34408
1.32453
1.31476
1.30987
1.30987
1.30009
1.29032
1.29521
1.30009
1.30987
1.26588
1.26099
1.26099
1.25610
1.26588
1.31476
1.42228
1.58846
1.76930
1.97458
2.16031
2.31182
2.37536
2.41446
2.42424
2.39491
2.32649
2.26295
2.19941
2.13587
2.07722
2.02346
2.02346
1.96480
1.93059
1.90127
1.88172
1.87194
1.83773
1.82795
1.82795
1.83773
1.82795
1.82795
1.85239
1.82795
1.80351
1.78396
1.76441
1.74486
1.71065
1.69110
1.65689
1.62267
1.58846
1.55425
1.52981
1.51026
1.48582
1.46627
1.45650
1.44672
1.41739
1.39296
1.38318
1.37829
1.36363
1.34897
1.33919
1.32942
1.32942
1.31476
1.32942
1.30009
1.32942
1.28543
1.28054
1.27565
1.26588
1.25610
1.26099
1.28054
1.35874
1.45161
1.59335
1.79374
2.00391
2.16520
2.30694
2.41446
2.43890
2.41446
2.37047
2.31182
2.24828
2.16520
2.09188
2.03323
1.99413
1.95014
1.95014
1.90127
1.87194
1.84750
1.82306
1.82306
1.81818
1.81818
1.81818
1.82306
1.83284
1.82306
1.80840
1.80351
1.79374
1.78396
1.75464
1.69110
1.66666
1.63245
1.59335
1.56402
1.53958
1.51026
1.47605
1.46138
1.45161
1.46138
1.40273
1.38318
1.37829
1.36363
1.34408
1.33919
1.33919
1.33431
1.32942
1.32942
1.30498
1.30009
1.28543
1.27565
1.26588
1.26588
1.25610
1.28054
1.34897
1.45650
1.61779
1.82795
2.04789
2.24828
2.38514
2.47800
2.50733
2.53665
2.46334
2.40957
2.36070
2.27761
2.21896
2.17008
2.14076
2.13098
2.10654
2.11632
2.05767
2.03323
1.99413
1.94525
1.92570
1.89149
1.86705
1.84261
1.82795
1.82795
1.81818
1.81329
1.76930
1.75464
1.73020
1.69599
1.66666
1.64222
1.61290
1.56891
1.54447
1.52492
1.52492
1.45650
1.43206
1.41251
1.39784
1.36852
1.35386
1.33919
1.32942
1.30987
1.30498
1.32942
1.29032
1.27077
1.26588
1.26099
1.26099
1.25122
1.24144
1.24144
1.24144
1.22189
1.23655
1.20723
1.22678
1.28054
1.39296
1.57380
1.79863
2.02834
2.22873
2.38025
2.48778
2.51710
2.50244
2.45845
2.40957
2.33626
2.26783
2.22385
2.18963
2.15542
2.16520
2.13587
2.11143
2.08211
2.03812
1.99902
1.95992
1.92082
1.87194
1.85239
1.86705
1.81818
1.79374
1.77908
1.76930
1.75953
1.72531
1.73509
1.71065
1.65200
1.61290
1.58357
1.55425
1.52981
1.49560
1.47605
1.45650
1.45650
1.39296
1.36852
1.35386
1.33919
1.31476
1.30009
1.30009
1.30987
1.28543
1.25122
1.24633
1.23655
1.22189
1.20723
1.20723
1.20723
1.21700
1.18279
1.18279
1.18279
1.17790
1.16813
1.15835
1.16324
1.15835
1.13880
1.15347
1.21212
1.31964
1.48582
1.70087
1.94037
2.15053
2.28738
2.39491
2.44379
2.44379
2.39002
2.33626
2.25317
2.17986
2.11632
2.04301
2.00391
1.97458
1.93548
1.93548
1.90127
1.87194
1.84261
1.82306
1.81818
1.82306
1.80351
1.79374
1.79374
1.79374
1.77419
1.75953
1.73998
1.72531
1.69599
1.66666
1.62267
1.59335
1.57380
1.52492
1.49560
1.47605
1.44183
1.41251
1.38807
1.37341
1.35386
1.32942
1.31964
1.31476
1.30009
1.30987
1.27077
1.26588
1.25122
1.23655
1.22678
1.22678
1.21700
1.20723
1.20723
1.21700
1.19745
1.18279
1.17790
1.17790
1.17302
1.15347
1.16324
1.20234
1.21212
1.30498
1.46138
1.67155
1.90615
2.12609
2.26295
2.38025
2.44379
2.43401
2.39491
2.33626
2.29716
2.17497
2.09188
2.03812
1.98924
1.93059
1.89638
1.87194
1.85239
1.82306
1.80840
1.78396
1.78396
1.77419
1.77419
1.77908
1.79374
1.79374
1.80351
1.76930
1.75953
1.73509
1.70087
1.67155
1.64222
1.61290
1.56891
1.53470
1.51026
1.47605
1.44183
1.42228
1.40273
1.38318
1.35874
1.35386
1.35874
1.35874
1.30498
1.29032
1.28543
1.27077
1.25610
1.28054
1.24144
1.23655
1.22189
1.22189
1.21700
1.21212
1.20723
1.20234
1.20723
1.19745
1.17302
1.18279
1.22678
1.33431
1.48582
1.69599
1.93059
2.14565
2.30694
2.42424
2.48778
2.50733
2.45845
2.39491
2.32160
2.25317
2.20918
2.10654
2.06744
2.03323
1.99413
1.96480
1.97458
1.92082
1.88660
1.85239
1.83773
1.85728
1.80840
1.79374
1.79374
1.79863
1.78885
1.77419
1.78885
1.73998
1.71065
1.67644
1.64711
1.61779
1.58357
1.53958
1.51026
1.48582
1.45161
1.42228
1.39784
1.38807
1.37829
1.33431
1.31964
1.30987
1.30009
1.27565
1.27565
1.29521
1.28543
1.23167
1.22678
1.22189
1.21212
1.19745
1.19257
1.18768
1.18768
1.18279
1.18768
1.20234
1.17302
1.16324
1.15835
1.15835
1.19257
1.26099
1.41739
1.59335
1.84261
2.07722
2.27761
2.43890
2.54643
2.59530
2.55620
2.50733
2.44868
2.37047
2.28738
2.22873
2.17986
2.15053
2.10654
2.09188
2.11632
2.05278
2.01368
1.98435
1.95503
1.93059
1.89149
1.87194
1.86217
1.84750
1.82306
1.81329
1.80840
1.80840
1.74975
1.72531
1.70576
1.67644
1.63734
1.60801
1.57380
1.54936
1.50537
1.48093
1.45650
1.43206
1.40273
1.38807
1.36852
1.36363
1.32942
1.30987
1.30009
1.29521
1.27565
1.26099
1.25610
1.25122
1.24144
1.25610
1.21700
1.21700
1.21212
1.20234
1.20234
1.19745
1.18768
1.17790
1.18279
1.19257
1.20234
1.18768
1.26099
1.40762
1.60312
1.85728
2.07233
2.28250
2.44379
2.52688
2.57086
2.56598
2.51221
2.42424
2.35092
2.28738
2.22873
2.15542
2.11632
2.09188
2.08699
2.04301
2.01857
1.98924
1.96480
1.92082
1.90615
1.87194
1.86217
1.83773
1.82795
1.81818
1.81329
1.78885
1.76930
1.76441
1.72043
1.68132
1.65200
1.62267
1.59824
1.55425
1.52492
1.50048
1.49071
1.47605
1.41251
1.39296
1.37829
1.35386
1.32942
1.31964
1.30498
1.29032
1.28054
1.27077
1.27565
1.28543
1.22678
1.22189
1.21700
1.20723
1.19257
1.18768
1.19745
1.21212
1.17302
1.17302
1.16813
1.16324
1.14858
1.14858
1.13880
1.13391
1.14369
1.19257
1.33431
1.47116
1.67644
1.91104
2.13587
2.32160
2.43401
2.50244
2.51221
2.51710
2.42424
2.33137
2.24828
2.17497
2.09677
2.02834
1.98435
1.95503
1.91593
1.88660
1.88172
1.84750
1.82306
1.80840
1.80840
1.81329
1.80840
1.80840
1.81818
1.81329
1.79374
1.77419
1.75464
1.73509
1.70087
1.66177
1.63245
1.60801
1.59824
1.56402
1.50048
1.47605
1.45161
1.42228
1.40762
1.38807
1.36852
1.34897
1.35386
1.33431
1.31964
1.30009
1.29521
1.28543
1.28054
1.26588
1.25610
1.26099
1.25610
1.25122
1.27077
1.23167
1.23167
1.21212
1.20723
1.20234
1.19745
1.19257
1.21700
1.29521
1.46138
1.61290
1.83284
2.05767
2.26295
2.39491
2.47800
2.54643
2.50733
2.44379
2.36070
2.29227
2.19452
2.10654
2.03812
1.97458
1.93548
1.89149
1.85239
1.82795
1.83773
1.78885
1.77419
1.77419
1.78885
1.79863
1.79863
1.81818
1.81329
1.80351
1.77908
1.75953
1.73998
1.71554
1.67155
1.64222
1.61290
1.57869
1.53958
1.52003
1.48582
1.48582
1.44183
1.39784
1.38318
1.37341
1.34897
1.33919
1.32942
1.32453
1.30987
1.28543
1.28054
1.27565
1.26099
1.25122
1.25122
1.25122
1.24144
1.24144
1.22678
1.22189
1.20723
1.20234
1.21700
1.27077
1.37829
1.55425
1.80351
2.03323
2.25317
2.42913
2.56109
2.66373
2.63929
2.60019
2.53665
2.46823
2.39002
2.33626
2.24828
2.21407
2.17497
2.14076
2.12609
2.10654
2.07722
2.02834
1.99902
1.98924
1.95014
1.92082
1.90127
1.90127
1.89149
1.87194
1.88172
1.83773
1.82306
1.77908
1.75464
1.72043
1.69599
1.65689
1.61779
1.59824
1.59335
1.51515
1.49071
1.46627
1.44672
1.41739
1.39296
1.37829
1.37341
1.35386
1.34897
1.31964
1.31476
1.30009
1.28543
1.27565
1.27565
1.26588
1.25610
1.25610
1.25610
1.26588
1.22678
1.21700
1.20723
1.21212
1.22678
1.30009
1.44183
1.65200
1.85728
2.10166
2.32160
2.47800
2.56598
2.60997
2.60508
2.56109
2.47800
2.40957
2.35092
2.30205
2.23851
2.20918
2.19941
2.18475
2.16520
2.12609
2.09188
2.07233
2.00391
1.95992
1.93059
1.90615
1.87194
1.85728
1.86217
1.84261
1.80351
1.78396
1.76441
1.73998
1.70087
1.67644
1.66177
1.63734
1.61290
1.53958
1.51515
1.49071
1.45650
1.42717
1.41251
1.39784
1.37341
1.35386
1.35386
1.32453
1.30498
1.28543
1.27565
1.27077
1.26099
1.25122
1.24144
1.24633
1.23655
1.23167
1.24633
1.21212
1.20234
1.18768
1.18279
1.18279
1.21212
1.28054
1.43206
1.65689
1.86217
2.06256
2.24828
2.38514
2.46823
2.47311
2.45356
2.40957
2.35092
2.27761
2.19452
2.14076
2.09677
2.04789
2.04301
1.99902
1.97947
1.94037
1.90615
1.88172
1.87194
1.87194
1.82306
1.81818
1.82306
1.81329
1.79863
1.79863
1.77419
1.74975
1.71554
1.69110
1.66666
1.63245
1.59824
1.58846
1.53958
1.50537
1.47116
1.44672
1.43206
1.40762
1.38318
1.36852
1.35874
1.34408
1.31964
1.30987
1.30498
1.29521
1.27565
1.27077
1.27565
1.27565
1.27077
1.24633
1.24144
1.23167
1.21700
1.21700
1.21212
1.22678
1.28054
1.36363
1.53470
1.74975
1.96480
2.17008
2.33137
2.44379
2.48289
2.46823
2.45845
2.38514
2.29227
2.21407
2.15542
2.10166
2.04789
2.01857
1.99902
1.97947
1.94525
1.90615
1.88172
1.86705
1.87194
1.81818
1.81329
1.81329
1.80840
1.78885
1.79863
1.77419
1.74486
1.71554
1.68621
1.66177
1.62756
1.59335
1.55913
1.53470
1.52003
1.50537
1.44183
1.42228
1.40273
1.37341
1.36363
1.35874
1.37341
1.31476
1.30009
1.29521
1.28543
1.27077
1.26588
1.26099
1.25610
1.24144
1.24144
1.24144
1.22678
1.20723
1.20234
1.20723
1.25122
1.32942
1.49560
1.72531
1.94525
2.16520
2.34604
2.47800
2.55620
2.58064
2.51710
2.46334
2.40469
2.33137
2.27761
2.22873
2.20918
2.18475
2.15053
2.14076
2.11632
2.07722
2.03323
1.98435
1.96969
1.90615
1.86217
1.84750
1.83284
1.81818
1.79374
1.79374
1.76930
1.74486
1.70576
1.67644
1.65200
1.62267
1.58357
1.54936
1.54936
1.49071
1.44672
1.42228
1.39784
1.37829
1.34408
1.32453
1.30987
1.30498
1.30009
1.26099
1.25122
1.24144
1.22189
1.21212
1.20723
1.20723
1.21700
1.18279
1.18279
1.18279
1.16813
1.15835
1.15347
1.15835
1.16813
1.14858
1.20723
1.32942
1.51515
1.74975
2.03323
2.23851
2.40957
2.51221
2.56109
2.56598
2.51710
2.44379
2.38025
2.32649
2.28250
2.21407
2.18963
2.17497
2.16031
2.15053
2.10654
2.07233
2.02834
1.96480
1.92082
1.89149
1.86705
1.83284
1.80351
1.79374
1.78396
1.75464
1.73509
1.72043
1.73509
1.65689
1.62756
1.59824
1.56891
1.52981
1.50048
1.47605
1.45161
1.41739
1.41739
1.36363
1.34408
1.31476
1.29032
1.28054
1.27077
1.25122
1.24144
1.22189
1.21700
1.20234
1.18768
1.18279
1.18279
1.17790
1.16324
1.16813
1.19745
1.16324
1.15347
1.14369
1.14369
1.12903
1.11925
1.13391
1.19257
1.28054
1.44672
1.67155
1.93059
2.16031
2.33137
2.45356
2.51221
2.51710
2.46334
2.39980
2.32160
2.24340
2.17008
2.08699
2.06744
2.01368
1.96969
1.97458
1.92082
1.89638
1.85728
1.83284
1.82306
1.83284
1.78885
1.78396
1.78396
1.78885
1.76930
1.76441
1.75953
1.72043
1.68621
1.65200
1.62267
1.59824
1.55425
1.52003
1.49071
1.46627
1.43695
1.43695
1.38318
1.36852
1.34408
1.31964
1.30987
1.30009
1.28543
1.27077
1.25122
1.25122
1.23655
1.22189
1.21700
1.21212
1.21212
1.20723
1.22189
1.19745
1.18768
1.17790
1.16324
1.16813
1.16813
1.19257
1.26588
1.35874
1.55425
1.77908
2.02346
2.24340
2.41446
2.51221
2.53665
2.53176
2.48778
2.39491
2.30694
2.22385
2.15542
2.07722
2.03323
1.97947
1.95014
1.91104
1.88172
1.87683
1.83773
1.81329
1.79863
1.79374
1.80840
1.79863
1.79863
1.79863
1.78885
1.76441
1.73998
1.71554
1.68621
1.65200
1.60801
1.58357
1.54936
1.51515
1.48582
1.43695
1.41739
1.38807
1.35386
1.33431
1.32453
1.30987
1.28543
1.28543
1.29521
1.25122
1.22678
1.21212
1.20234
1.19745
1.17790
1.17302
1.17302
1.17302
1.16813
1.15347
1.14858
1.14858
1.13391
1.12903
1.14369
1.20234
1.30987
1.50048
1.75464
2.02346
2.27761
2.44379
2.57575
2.64907
2.64418
2.60019
2.53665
2.46823
2.38025
2.30205
2.24340
2.20430
2.16520
2.13587
2.12121
2.10654
2.06744
2.02346
1.98435
1.95503
1.92570
1.88660
1.86705
1.85728
1.83773
1.81818
1.80351
1.80351
1.78885
1.72531
1.70087
1.67644
1.64711
1.59824
1.56891
1.54447
1.52492
1.50048
1.44183
1.41739
1.39296
1.35874
1.33919
1.32453
1.30498
1.28054
1.27077
1.28543
1.25122
1.22678
1.21212
1.20723
1.19745
1.19257
1.18279
1.21212
1.20234
1.16813
1.15835
1.15835
1.14858
1.13391
1.14369
1.19257
1.30498
1.46627
1.69110
1.95503
2.20918
2.40469
2.53665
2.60508
2.65884
2.59042
2.51710
2.43890
2.36070
2.28738
2.20918
2.16520
2.13587
2.10166
2.06744
2.04301
2.01857
1.97947
1.93059
1.91593
1.87194
1.84750
1.81818
1.80351
1.79863
1.78885
1.75953
1.75464
1.75464
1.70576
1.66666
1.63734
1.60801
1.57869
1.53470
1.50537
1.48582
1.47116
1.41739
1.38807
1.36363
1.34897
1.31964
1.30009
1.28543
1.27077
1.25610
1.24144
1.23655
1.22189
1.20234
1.18279
1.18279
1.17790
1.16813
1.15347
1.15835
1.16324
1.17790
1.12903
1.12414
1.12414
1.11436
1.11925
1.15835
1.28054
1.47605
1.67644
1.93059
2.17497
2.36070
2.47311
2.55620
2.54643
2.50733
2.45356
2.33137
2.24340
2.16031
2.06744
1.99902
1.95503
1.91593
1.89638
1.82795
1.80840
1.78885
1.76930
1.77908
1.79374
1.77419
1.76930
1.77419
1.77908
1.77908
1.75464
1.73509
1.71554
1.69110
1.65689
1.62267
1.58846
1.56402
1.52492
1.51026
1.45650
1.43206
1.40273
1.37341
1.35874
1.34408
1.32942
1.30987
1.30498
1.31476
1.27565
1.26099
1.25610
1.25610
1.25122
1.23167
1.23167
1.23655
1.22678
1.23167
1.21700
1.19257
1.18279
1.17302
1.20234
1.28543
1.43695
1.64222
1.88660
2.14076
2.37047
2.47311
2.56109
2.59042
2.56598
2.48289
2.40469
2.31182
2.22873
2.13587
2.08211
2.00391
1.96480
1.91104
1.88172
1.86217
1.83284
1.80351
1.78885
1.78396
1.79374
1.78396
1.79374
1.82306
1.79374
1.77908
1.75464
1.73998
1.71554
1.68621
1.65200
1.60312
1.56891
1.52981
1.48582
1.45650
1.43695
1.41251
1.36852
1.34897
1.33431
1.30987
1.28543
1.27565
1.27077
1.25610
1.23655
1.26099
1.21700
1.21212
1.19745
1.18768
1.19257
1.18768
1.17302
1.18279
1.15835
1.15347
1.13880
1.15835
1.21700
1.34897
1.54447
1.81329
2.09677
2.35092
2.51710
2.63929
2.69794
2.71749
2.62952
2.55620
2.46823
2.39491
2.30694
2.25806
2.19452
2.20430
2.14076
2.11143
2.08699
2.06256
2.01857
1.97458
1.94525
1.91593
1.88172
1.85728
1.84261
1.85728
1.83773
1.79374
1.77419
1.75953
1.73020
1.69110
1.66177
1.63734
1.60312
1.56402
1.55913
1.52981
1.46138
1.42228
1.39296
1.37341
1.35874
1.35874
1.30009
1.29032
1.27565
1.25610
1.23655
1.23167
1.22189
1.20723
1.23167
1.19257
1.19257
1.17790
1.17302
1.16324
1.16324
1.14858
1.15835
1.12903
1.15835
1.22678
1.37829
1.60801
1.88660
2.14076
2.35581
2.53176
2.63929
2.65884
2.62952
2.57086
2.53665
2.39980
2.30694
2.23851
2.20430
2.15053
2.08699
2.06256
2.04301
2.00879
1.96969
1.93548
1.94037
1.87194
1.83773
1.81818
1.80840
1.79863
1.77908
1.76930
1.78885
1.75953
1.70087
1.67644
1.65200
1.61779
1.57380
1.54447
1.52003
1.49560
1.48093
1.41739
1.39296
1.36852
1.33919
1.31964
1.30498
1.29521
1.29521
1.24633
1.23167
1.22189
1.20723
1.19745
1.19257
1.19257
1.19745
1.17302
1.16813
1.16813
1.14858
1.14369
1.13880
1.13880
1.13880
1.21212
1.33919
1.50048
1.73509
1.98924
2.22873
2.41935
2.52688
2.56598
2.55620
2.52199
2.42913
2.32649
2.22385
2.14076
2.06256
1.97947
1.93059
1.89149
1.85239
1.80840
1.78885
1.78885
1.78396
1.74486
1.73998
1.75464
1.76441
1.76441
1.76441
1.75953
1.75464
1.73020
1.72531
1.66666
1.63734
1.58846
1.55425
1.52492
1.50048
1.46627
1.42228
1.39784
1.37341
1.34897
1.32942
1.31476
1.33431
1.28054
1.26099
1.25122
1.24633
1.22189
1.21700
1.21700
1.21700
1.21212
1.18279
1.18279
1.17790
1.16324
1.15347
1.14369
1.14858
1.16324
1.23655
1.39296
1.62267
1.89638
2.10654
2.32649
2.49266
2.58064
2.60019
2.57575
2.52199
2.43401
2.32649
2.23362
2.15053
2.07233
1.99902
1.97458
1.92570
1.89149
1.84750
1.82306
1.80351
1.79374
1.77908
1.80840
1.78396
1.79374
1.78396
1.78396
1.78885
1.77908
1.74975
1.73998
1.72043
1.66177
1.61779
1.57869
1.54447
1.51026
1.47605
1.44672
1.42717
1.40762
1.38807
1.34408
1.32453
1.31964
1.29521
1.28054
1.27077
1.27077
1.25122
1.24144
1.23655
1.24633
1.25610
1.20234
1.19745
1.18768
1.17790
1.17790
1.22189
1.31964
1.49071
1.71065
1.96969
2.21896
2.41446
2.53176
2.60019
2.62463
2.56598
2.47311
2.39002
2.30205
2.23851
2.13587
2.07233
2.03323
2.01368
1.98435
1.93059
1.90127
1.88172
1.87683
1.81818
1.80351
1.79863
1.78885
1.79863
1.78396
1.77908
1.75464
1.73509
1.71554
1.68621
1.65200
1.61779
1.60312
1.53958
1.49560
1.46138
1.42717
1.39784
1.36852
1.34408
1.33431
1.30987
1.29521
1.24633
1.23655
1.22678
1.20723
1.19257
1.18768
1.17302
1.15835
1.13880
1.11925
1.11436
1.09481
1.08504
1.11436
1.16324
1.29521
1.48093
1.70576
1.94525
2.14076
2.27272
2.36559
2.38025
2.36070
2.29716
2.23851
2.17008
2.10654
2.04301
2.00391
1.97458
1.95992
1.92570
1.93548
1.86705
1.83284
1.77908
1.73998
1.70087
1.67644
1.64222
1.62267
1.61290
1.61290
1.58846
1.55425
1.52981
1.51026
1.47605
1.43695
1.41251
1.38318
1.35874
1.30009
1.26588
1.23655
1.19745
1.16813
1.14858
1.13880
1.09481
1.07038
1.05083
1.03616
1.02150
1.01661
0.98729
0.97262
0.96285
0.94330
0.92864
0.92375
0.90909
0.90909
0.87487
0.89442
0.95307
1.06060
1.23167
1.42717
1.63734
1.81818
1.92082
1.99413
2.02834
2.00391
1.97458
1.94525
1.92082
1.85728
1.85239
1.81818
1.80840
1.78396
1.76930
1.73998
1.71554
1.65689
1.61290
1.57380
1.54447
1.50048
1.47116
1.47116
1.45161
1.43206
1.41251
1.39296
1.37341
1.34408
1.31964
1.31476
1.27077
1.23655
1.20723
1.17790
1.15347
1.12414
1.09481
1.07526
1.05571
1.04594
1.00684
0.98729
0.97262
0.95307
0.92864
0.92864
0.91397
0.90420
0.88954
0.87487
0.86999
0.86510
0.83577
0.83088
0.82111
0.82111
0.83088
0.91397
0.97262
1.11436
1.26588
1.43206
1.56402
1.67155
1.72043
1.74486
1.76930
1.73020
1.69599
1.67644
1.68132
1.66177
1.64711
1.65200
1.63734
1.63245
1.60312
1.57380
1.53958
1.50537
1.46627
1.43695
1.43206
1.40762
1.39296
1.37829
1.36852
1.36363
1.34408
1.33431
1.30498
1.29032
1.27077
1.23655
1.21212
1.20234
1.18279
1.14858
1.13391
1.13391
1.09970
1.07038
1.08015
1.04594
1.02639
1.01173
0.99706
0.99217
0.98240
0.96774
0.96285
0.96285
0.94819
0.93841
0.92375
0.92375
0.91397
0.89931
0.89442
0.88954
0.89442
0.91397
0.96774
1.07038
1.19257
1.31964
1.43695
1.51515
1.57380
1.58357
1.58357
1.56891
1.54936
1.52003
1.53470
1.50048
1.49560
1.49071
1.49071
1.49071
1.50537
1.47116
1.45161
1.43695
1.42228
1.43695
1.39784
1.39296
1.39784
1.39784
1.42717
1.38807
1.38807
1.37341
1.34897
1.33431
1.32942
1.30498
1.28543
1.27565
1.30009
1.25122
1.22678
1.25122
1.21212
1.20234
1.18279
1.19745
1.16813
1.15835
1.14369
1.14369
1.13391
1.12903
1.11925
1.11925
1.10948
1.10948
1.12414
1.09481
1.08993
1.08993
1.08015
1.07038
1.07526
1.10459
1.15835
1.22678
1.33431
1.44183
1.52981
1.58357
1.61290
1.65689
1.60801
1.57869
1.55913
1.57869
1.52492
1.51515
1.51026
1.52492
1.52003
1.51515
1.52003
1.51026
1.49560
1.50048
1.46627
1.46138
1.46138
1.49071
1.45650
1.46138
1.46138
1.46627
1.44672
1.44183
1.45650
1.41739
1.40273
1.40762
1.38318
1.36363
1.38807
1.34897
1.33431
1.34408
1.30987
1.30498
1.30498
1.29521
1.27565
1.27565
1.28543
1.25610
1.25610
1.25610
1.26099
1.24633
1.23655
1.25122
1.23655
1.22189
1.24633
1.21212
1.21212
1.20234
1.22189
1.24144
1.30009
1.38318
1.47116
1.56402
1.64711
1.70087
1.69599
1.70087
1.70087
1.66666
1.65200
1.62756
1.62756
1.61779
1.62267
1.61779
1.63245
1.62756
1.61779
1.61290
1.59824
1.59335
1.56402
1.56891
1.56402
1.56402
1.54936
1.54936
1.59335
1.55425
1.53958
1.53958
1.53470
1.52492
1.50537
1.49071
1.48582
1.48582
1.45650
1.44672
1.44183
1.43695
1.41739
1.40273
1.42228
1.39784
1.37829
1.36852
1.37341
1.35386
1.34408
1.33919
1.33919
1.33431
1.32453
1.31964
1.31476
1.32453
1.30009
1.28543
1.28543
1.29032
1.27077
1.27077
1.30987
1.34897
1.41739
1.50537
1.60312
1.68621
1.73998
1.78885
1.75953
1.75953
1.73020
1.70087
1.69110
1.72531
1.68621
1.68132
1.69110
1.70576
1.71065
1.69599
1.69110
1.68132
1.67644
1.65200
1.64222
1.64222
1.64222
1.63245
1.63734
1.63734
1.64222
1.64711
1.61779
1.61779
1.61779
1.59335
1.57869
1.59335
1.57380
1.55425
1.53958
1.53470
1.52981
1.51515
1.50537
1.51515
1.49560
1.48093
1.47116
1.47605
1.47116
1.45650
1.44672
1.45650
1.44672
1.43695
1.42717
1.42228
1.43206
1.42228
1.41251
1.40762
1.44672
1.40273
1.39296
1.39296
1.38807
1.38807
1.39784
1.43206
1.50048
1.58846
1.66666
1.75464
1.81818
1.85728
1.87194
1.84750
1.83773
1.80840
1.77419
1.75953
1.75464
1.75464
1.74486
1.75953
1.75464
1.76930
1.74975
1.75464
1.73509
1.74975
1.71065
1.70087
1.70576
1.71554
1.69599
1.69599
1.73020
1.70576
1.69599
1.68132
1.68621
1.67155
1.65200
1.63245
1.66177
1.62267
1.60801
1.62756
1.58357
1.57869
1.57380
1.55425
1.54447
1.54447
1.53470
1.53470
1.51515
1.51515
1.50537
1.49071
1.49071
1.52492
1.48093
1.47116
1.47116
1.47116
1.49560
1.45161
1.44183
1.44672
1.44183
1.44672
1.43206
1.45161
1.49560
1.57869
1.63734
1.73509
1.80840
1.85728
1.88172
1.90127
1.88172
1.88172
1.81818
1.79863
1.79374
1.75953
1.75464
1.75464
1.75953
1.74975
1.74486
1.74486
1.74486
1.73020
1.71554
1.72043
1.73020
1.72531
1.72531
1.73020
1.73509
1.72531
1.73998
1.71554
1.71065
1.72043
1.67644
1.66666
1.66177
1.67155
1.64711
1.62267
1.60801
1.59824
1.58357
1.57380
1.56891
1.56402
1.55913
1.53470
1.53958
1.52981
1.51515
1.51026
1.50537
1.50537
1.48582
1.48582
1.48582
1.48093
1.47605
1.45650
1.45161
1.44672
1.43695
1.43206
1.43695
1.46627
1.51026
1.59335
1.68621
1.78885
1.85239
1.91104
1.94525
1.97947
1.94037
1.91593
1.89638
1.88172
1.85728
1.84261
1.84261
1.86705
1.84750
1.85239
1.85239
1.86217
1.84750
1.83284
1.85239
1.81818
1.80840
1.81818
1.80351
1.80840
1.83284
1.79374
1.78885
1.79374
1.77419
1.75464
1.73998
1.73509
1.71554
1.69110
1.68132
1.68621
1.65689
1.63245
1.62267
1.61779
1.60312
1.57869
1.56891
1.56891
1.57380
1.57380
1.52981
1.52492
1.52003
1.50048
1.49560
1.49071
1.49071
1.50537
1.46138
1.46138
1.45650
1.44672
1.43695
1.46627
1.42717
1.41739
1.41739
1.44183
1.49560
1.57380
1.67155
1.77419
1.87194
1.93548
1.98435
2.01368
2.01857
1.99902
1.96969
1.95503
1.94037
1.93059
1.92082
1.94037
1.93059
1.93548
1.92570
1.93059
1.92570
1.91593
1.92570
1.88172
1.88660
1.87683
1.85728
1.87194
1.85728
1.85728
1.83773
1.83284
1.82306
1.81329
1.80840
1.77419
1.75953
1.74975
1.71554
1.70087
1.69110
1.69599
1.65200
1.63734
1.61779
1.61290
1.60312
1.61779
1.57380
1.56891
1.54936
1.53470
1.52492
1.52492
1.52981
1.49071
1.48582
1.48582
1.47116
1.46138
1.45650
1.45161
1.44183
1.42717
1.42717
1.43695
1.41251
1.40273
1.40273
1.43206
1.47116
1.53958
1.64711
1.76930
1.86217
1.94037
2.00391
2.04789
2.05767
2.03812
2.02834
2.00879
1.98924
1.95503
1.94037
1.93059
1.92570
1.90615
1.90127
1.93548
1.89638
1.87683
1.86705
1.86705
1.86217
1.85239
1.84750
1.85239
1.85728
1.84261
1.83284
1.82306
1.83284
1.79863
1.77419
1.76930
1.75464
1.72531
1.72043
1.69110
1.67644
1.65200
1.63734
1.65689
1.61290
1.58846
1.57380
1.56402
1.55913
1.53958
1.52492
1.52003
1.54447
1.49560
1.48093
1.48093
1.47605
1.46138
1.45650
1.47605
1.44672
1.43695
1.42228
1.41739
1.41739
1.41251
1.41739
1.44672
1.52003
1.61779
1.73509
1.82306
1.93059
2.00879
2.05278
2.07722
2.08699
2.07722
2.04301
2.01368
1.98924
1.96480
1.92570
1.90615
1.89638
1.90127
1.85239
1.83284
1.84750
1.82306
1.80840
1.80351
1.80840
1.84261
1.81818
1.81329
1.81329
1.81329
1.79863
1.78885
1.77419
1.76441
1.73509
1.71554
1.69110
1.67644
1.65200
1.63245
1.63245
1.60312
1.58357
1.55913
1.54936
1.53958
1.52492
1.51026
1.51515
1.52492
1.47605
1.45650
1.45161
1.45161
1.44183
1.42717
1.41739
1.41739
1.42717
1.38807
1.38318
1.37829
1.37829
1.38807
1.43695
1.54447
1.64711
1.75464
1.88660
2.00391
2.09677
2.14076
2.17008
2.17497
2.16520
2.15542
2.08699
2.06744
2.03323
1.99902
1.97458
1.96480
1.96480
1.93548
1.91593
1.90127
1.90127
1.87683
1.85728
1.85728
1.86705
1.85728
1.83773
1.83773
1.84750
1.81818
1.79374
1.78885
1.76930
1.74486
1.71554
1.71065
1.68132
1.65200
1.62267
1.60312
1.58846
1.56402
1.54447
1.53470
1.54936
1.51515
1.47605
1.46627
1.45650
1.44183
1.42228
1.41739
1.41251
1.40273
1.39296
1.39784
1.37829
1.37341
1.35386
1.34897
1.34897
1.34897
1.34408
1.36363
1.42228
1.52981
1.65200
1.80351
1.95992
2.09677
2.19452
2.27272
2.28738
2.29716
2.29227
2.22873
2.19452
2.17008
2.13587
2.09188
2.08211
2.06744
2.04789
2.02834
2.01368
2.00391
1.97947
1.94525
1.93059
1.92082
1.93059
1.89149
1.88172
1.88660
1.86705
1.84261
1.82795
1.81818
1.80351
1.76930
1.74486
1.72531
1.70087
1.66177
1.64222
1.65689
1.59824
1.57380
1.55425
1.54447
1.52492
1.50537
1.51515
1.48093
1.47116
1.45161
1.44183
1.43695
1.43206
1.41739
1.42228
1.42717
1.41251
1.39296
1.38807
1.38318
1.37341
1.35874
1.35386
1.36852
1.41739
1.47116
1.58357
1.71554
1.86217
1.96969
2.06256
2.13098
2.16520
2.16031
2.12121
2.10654
2.05278
2.00879
1.95014
1.92082
1.88660
1.85728
1.82795
1.79863
1.78396
1.75953
1.75464
1.72531
1.73020
1.72043
1.72043
1.71554
1.72531
1.71554
1.70576
1.70087
1.69599
1.70576
1.65200
1.63245
1.61779
1.59824
1.56891
1.55913
1.52981
1.51026
1.48582
1.47116
1.45650
1.45161
1.44183
1.40762
1.39784
1.39296
1.37341
1.36363
1.35874
1.35874
1.34408
1.36363
1.32453
1.31964
1.30498
1.29521
1.29032
1.29521
1.30009
1.30009
1.35386
1.45650
1.56891
1.71065
1.86705
2.00879
2.08211
2.13587
2.17008
2.17986
2.14565
2.11632
2.06744
2.03323
1.98435
1.94525
1.91104
1.88660
1.86217
1.84750
1.81329
1.79863
1.78396
1.77419
1.75464
1.76441
1.75953
1.77908
1.74975
1.75464
1.73998
1.73509
1.71065
1.70087
1.68132
1.65200
1.63734
1.64222
1.62756
1.55425
1.53470
1.51515
1.50048
1.47116
1.45161
1.43695
1.43206
1.43695
1.38807
1.38318
1.37341
1.35386
1.33431
1.33919
1.33919
1.35386
1.30498
1.30009
1.29521
1.28054
1.26588
1.26588
1.28054
1.31476
1.41739
1.51026
1.67155
1.83284
1.98435
2.12121
2.24828
2.27272
2.27272
2.26783
2.24828
2.19941
2.15053
2.11143
2.08211
2.05767
2.01857
2.00879
2.00391
1.97947
1.94525
1.93548
1.90615
1.88660
1.85728
1.84261
1.85728
1.83284
1.81329
1.80840
1.81329
1.78885
1.75953
1.74486
1.72531
1.70087
1.67155
1.68132
1.62267
1.60312
1.56891
1.54936
1.52492
1.51026
1.48093
1.46627
1.47605
1.43695
1.41251
1.39296
1.38318
1.37829
1.35386
1.34408
1.36852
1.33431
1.31964
1.30987
1.30498
1.30009
1.29032
1.28054
1.30009
1.27565
1.28054
1.30498
1.37829
1.50537
1.66177
1.83284
1.99902
2.15053
2.25317
2.30694
2.34604
2.33137
2.29716
2.24340
2.19941
2.15542
2.11632
2.07233
2.03812
2.02346
2.00391
1.97458
1.94525
1.93059
1.91104
1.87683
1.86217
1.87194
1.84750
1.82795
1.82306
1.82306
1.81818
1.78396
1.76930
1.74975
1.73998
1.70087
1.67644
1.67644
1.64711
1.59824
1.57380
1.55425
1.53958
1.50537
1.49071
1.47605
1.47116
1.45650
1.42228
1.41251
1.40273
1.38807
1.36363
1.35874
1.35874
1.34897
1.35874
1.35386
1.32453
1.31476
1.30009
1.29521
1.29032
1.28543
1.28543
1.30987
1.30987
1.38318
1.49071
1.64711
1.82795
1.99902
2.13098
2.22873
2.29227
2.31671
2.28738
2.25806
2.20918
2.16031
2.09188
2.03812
1.99413
1.98435
1.91593
1.87683
1.85239
1.83284
1.79863
1.81818
1.77908
1.77908
1.76930
1.76930
1.78396
1.81329
1.77908
1.76930
1.75953
1.75464
1.73509
1.71065
1.67155
1.65689
1.62267
1.58846
1.57380
1.55913
1.54447
1.50048
1.48093
1.47116
1.45161
1.42717
1.41739
1.41251
1.40762
1.41251
1.36852
1.36363
1.35386
1.33431
1.32942
1.33431
1.35874
1.30498
1.30009
1.30009
1.29521
1.28054
1.27565
1.28054
1.30009
1.37341
1.44183
1.58846
1.76930
1.93059
2.09188
2.24828
2.30694
2.33137
2.33137
2.30694
2.26783
2.23362
2.13587
2.07722
2.02346
1.96480
1.94525
1.89638
1.85728
1.82306
1.79374
1.78396
1.78396
1.78396
1.77908
1.78885
1.80840
1.80840
1.81329
1.81818
1.80840
1.78885
1.75953
1.73998
1.72531
1.69599
1.67155
1.62756
1.60801
1.58357
1.54936
1.52492
1.52003
1.49560
1.47116
1.45650
1.45161
1.46627
1.41251
1.40273
1.39784
1.38807
1.36852
1.36852
1.36852
1.38807
1.33919
1.32942
1.32453
1.32453
1.31964
1.35874
1.45161
1.58357
1.73509
1.92082
2.10654
2.26783
2.36559
2.41446
2.43401
2.42424
2.37536
2.32160
2.26295
2.20918
2.14565
2.10654
2.07722
2.03323
1.99902
1.98435
1.97458
1.93059
1.90127
1.88172
1.87683
1.90127
1.87194
1.86705
1.86217
1.86705
1.84750
1.81818
1.79863
1.78396
1.75464
1.72043
1.69110
1.69599
1.62756
1.59335
1.56402
1.53470
1.52003
1.50048
1.46627
1.45650
1.44183
1.41251
1.39784
1.39296
1.40762
1.37829
1.34897
1.33919
1.33431
1.30498
1.30009
1.29521
1.29521
1.32453
1.37829
1.50537
1.67644
1.84750
2.02346
2.17497
2.30205
2.31182
2.31671
2.30205
2.27272
2.20918
2.16031
2.12121
2.08699
2.05278
2.02346
2.00391
2.02346
1.95503
1.92082
1.88660
1.85728
1.81818
1.77908
1.75464
1.73998
1.72043
1.69599
1.68621
1.69110
1.67155
1.62267
1.59824
1.58357
1.55425
1.52003
1.49560
1.48582
1.46138
1.40762
1.38318
1.36363
1.33919
1.30498
1.29032
1.27565
1.27077
1.24633
1.21212
1.20234
1.18768
1.16813
1.15835
1.14858
1.13880
1.13391
1.11925
1.10948
1.10459
1.08504
1.08504
1.08993
1.13391
1.21700
1.31476
1.45161
1.60801
1.73998
1.83773
1.91104
1.97947
1.93548
1.91104
1.88172
1.85728
1.81818
1.80840
1.78885
1.75464
1.72531
1.70576
1.69110
1.67644
1.64711
1.61290
1.59335
1.61290
1.56402
1.54936
1.54447
1.54447
1.55913
1.51515
1.50537
1.49560
1.47605
1.45161
1.42717
1.41739
1.40273
1.36852
1.34897
1.33431
1.31476
1.28543
1.27565
1.27077
1.27565
1.22678
1.21700
1.20234
1.20234
1.20723
1.17302
1.16813
1.16324
1.15347
1.15347
1.13880
1.13391
1.11925
1.11925
1.10459
1.10459
1.09481
1.10459
1.14369
1.20234
1.29032
1.40762
1.52981
1.64222
1.70576
1.74975
1.76930
1.79863
1.73998
1.71065
1.68621
1.66177
1.63245
1.62267
1.59824
1.59824
1.58357
1.55913
1.54936
1.53958
1.52981
1.51515
1.51026
1.51026
1.51515
1.53470
1.50537
1.51515
1.52981
1.49071
1.48582
1.48093
1.46138
1.44183
1.42717
1.41739
1.40273
1.37829
1.39784
1.35874
1.34408
1.32942
1.34408
1.31476
1.30987
1.31964
1.28543
1.28543
1.27565
1.26099
1.25122
1.25610
1.27077
1.25122
1.26099
1.22189
1.25610
1.23167
1.22189
1.24144
1.30009
1.37829
1.47116
1.57869
1.67644
1.73509
1.77908
1.78396
1.78396
1.75953
1.73020
1.73998
1.69110
1.67644
1.64711
1.63734
1.63734
1.62267
1.60312
1.58846
1.57869
1.56402
1.55425
1.53470
1.53470
1.54936
1.55913
1.58846
1.59824
1.60312
1.59824
1.62267
1.59335
1.59335
1.57869
1.57380
1.56402
1.56402
1.55913
1.54447
1.53470
1.53470
1.52003
1.51515
1.54447
1.51026
1.48582
1.47116
1.46138
1.45161
1.45650
1.44183
1.42228
1.41739
1.39784
1.38318
1.37829
1.40273
1.35874
1.33919
1.34408
1.37829
1.42717
1.52492
1.59824
1.69599
1.77419
1.82795
1.86217
1.87683
1.86217
1.84261
1.81329
1.79374
1.77908
1.76441
1.79374
1.76441
1.80351
1.75464
1.75464
1.74975
1.73020
1.70576
1.68621
1.67644
1.67644
1.65200
1.64222
1.64222
1.64222
1.62756
1.62267
1.61290
1.60312
1.58357
1.58357
1.55425
1.54447
1.52492
1.53958
1.49560
1.49071
1.47116
1.45650
1.45650
1.44183
1.42717
1.41251
1.40762
1.40762
1.39296
1.38318
1.37341
1.37829
1.37341
1.35386
1.34897
1.34897
1.33919
1.35386
1.33431
1.33919
1.32942
1.32453
1.31476
1.31964
1.30987
1.30987
1.31476
1.35386
1.41739
1.49071
1.59824
1.70576
1.78885
1.84261
1.87683
1.88660
1.88172
1.85239
1.83284
1.81818
1.79863
1.78885
1.77419
1.79374
1.78396
1.80840
1.77419
1.76930
1.75953
1.76930
1.73020
1.72531
1.73020
1.71065
1.71065
1.70576
1.71065
1.72531
1.68621
1.67644
1.67155
1.68132
1.63734
1.62756
1.61779
1.59824
1.58357
1.57869
1.56891
1.55425
1.52981
1.52981
1.53958
1.51515
1.49560
1.48093
1.48093
1.46627
1.46138
1.45650
1.45161
1.44183
1.42717
1.42717
1.45161
1.41739
1.40762
1.40762
1.41251
1.39784
1.38807
1.38318
1.38807
1.38807
1.40273
1.36363
1.37341
1.39784
1.44183
1.51515
1.61779
1.73020
1.82306
1.89149
1.94037
1.96969
1.98435
1.94525
1.93059
1.91593
1.88172
1.86705
1.85239
1.86217
1.83284
1.83284
1.82795
1.82795
1.81329
1.79863
1.79374
1.79863
1.79374
1.78396
1.78396
1.81818
1.78396
1.77908
1.77908
1.76930
1.75953
1.73020
1.72531
1.71065
1.69110
1.67155
1.65200
1.63734
1.62756
1.60312
1.61290
1.59824
1.59335
1.57869
1.57380
1.56891
1.55913
1.53958
1.53470
1.52981
1.52003
1.50537
1.49071
1.48093
1.48093
1.45650
1.45161
1.46627
1.45650
1.42228
1.41251
1.41251
1.40762
1.40273
1.39296
1.38807
1.38318
1.36852
1.36852
1.37341
1.39784
1.44183
1.52492
1.64222
1.74486
1.84261
1.91593
1.97947
2.00879
2.01368
1.99413
1.97947
1.95992
1.92570
1.90615
1.87683
1.90127
1.85239
1.85728
1.82795
1.82306
1.81818
1.80351
1.80351
1.80840
1.81329
1.80840
1.81329
1.82306
1.82306
1.81329
1.80351
1.79374
1.79863
1.75953
1.73998
1.73020
1.72043
1.69110
1.67155
1.65689
1.64711
1.62756
1.63734
1.59824
1.59335
1.56891
1.55913
1.55425
1.54936
1.55913
1.51026
1.50537
1.50048
1.48582
1.46627
1.46627
1.46627
1.45650
1.43206
1.42717
1.42717
1.41251
1.40273
1.39784
1.42228
1.45650
1.46138
1.54447
1.65200
1.75953
1.85728
1.95014
2.00879
2.07233
2.03812
2.02834
2.01857
2.01368
1.94525
1.92082
1.91104
1.89638
1.87683
1.90127
1.86217
1.85728
1.83284
1.82306
1.81329
1.79863
1.80840
1.80351
1.78396
1.77908
1.76441
1.76441
1.75953
1.75953
1.73020
1.72043
1.73998
1.69110
1.66177
1.65200
1.62756
1.61290
1.58357
1.56891
1.55913
1.54936
1.53470
1.52981
1.51515
1.51026
1.48093
1.46627
1.46138
1.45161
1.44183
1.43206
1.42228
1.41739
1.40762
1.39296
1.39296
1.39296
1.38318
1.40273
1.35874
1.35874
1.35386
1.35386
1.38318
1.45650
1.54936
1.67155
1.75464
1.86705
1.94525
1.98924
2.01368
2.04301
1.99902
1.96480
1.93548
1.91593
1.90127
1.86705
1.85728
1.84750
1.84261
1.86217
1.81818
1.81818
1.80351
1.77908
1.76930
1.75953
1.75464
1.73998
1.73509
1.74975
1.76930
1.71554
1.70087
1.69110
1.67644
1.65200
1.63245
1.61779
1.60801
1.58357
1.55913
1.54447
1.53958
1.52003
1.52981
1.48582
1.47605
1.46138
1.44672
1.43206
1.43695
1.42717
1.41739
1.39784
1.39296
1.37829
1.36852
1.36852
1.35386
1.34897
1.33431
1.32942
1.33431
1.33431
1.30987
1.30987
1.30987
1.30987
1.32942
1.29032
1.28543
1.29032
1.29032
1.31964
1.40273
1.47605
1.56891
1.67155
1.75953
1.83284
1.87683
1.86217
1.85728
1.84261
1.80840
1.79374
1.75953
1.74486
1.72531
1.71554
1.72043
1.72531
1.71065
1.70576
1.70087
1.71065
1.68621
1.67644
1.70576
1.68132
1.67155
1.68621
1.66666
1.67155
1.65689
1.67644
1.63245
1.62756
1.61290
1.58846
1.57869
1.57380
1.55425
1.56402
1.52492
1.52003
1.51515
1.49071
1.48093
1.48093
1.47605
1.45650
1.44672
1.44183
1.44672
1.43206
1.42717
1.42228
1.41251
1.40273
1.42717
1.39296
1.38318
1.37829
1.38807
1.37341
1.37341
1.35874
1.36852
1.35874
1.35874
1.34897
1.37829
1.34408
1.33919
1.33919
1.33431
1.35874
1.39784
1.48093
1.53470
1.62267
1.70576
1.74486
1.76930
1.77908
1.77419
1.77908
1.71554
1.68621
1.66666
1.66177
1.62756
1.65200
1.62756
1.62267
1.61779
1.61779
1.61779
1.61290
1.60312
1.59824
1.62267
1.61290
1.60312
1.60312
1.61290
1.61779
1.60312
1.59824
1.62756
1.58846
1.56891
1.55913
1.55913
1.56402
1.53470
1.52492
1.52492
1.52003
1.50537
1.50048
1.50048
1.49560
1.48582
1.47605
1.47605
1.48093
1.50048
1.46138
1.46138
1.46627
1.44672
1.44183
1.44183
1.44183
1.43206
1.43206
1.43206
1.43206
1.42717
1.42228
1.43206
1.43695
1.42228
1.41251
1.40762
1.42717
1.45161
1.49560
1.56402
1.64222
1.70087
1.73998
1.75953
1.76930
1.74975
1.73020
1.69110
1.67155
1.65200
1.62267
1.61779
1.60801
1.61290
1.59824
1.63734
1.60312
1.60801
1.59824
1.62267
1.59824
1.60312
1.63245
1.60312
1.60801
1.61779
1.60312
1.59824
1.60801
1.60801
1.58357
1.57380
1.57869
1.56891
1.54936
1.56891
1.54447
1.53958
1.52981
1.52003
1.54447
1.52492
1.50537
1.50048
1.50048
1.50537
1.49560
1.48582
1.48582
1.51515
1.49560
1.47605
1.47605
1.47605
1.47116
1.46138
1.46138
1.46627
1.45650
1.45650
1.45650
1.45650
1.44672
1.43695
1.44183
1.46138
1.50048
1.56402
1.62267
1.69110
1.74486
1.77419
1.79863
1.79374
1.80351
1.74975
1.72531
1.72531
1.69599
1.67155
1.66177
1.66666
1.67155
1.66666
1.67155
1.67644
1.68132
1.68621
1.65689
1.65689
1.66666
1.64711
1.65200
1.66666
1.66666
1.65689
1.68132
1.65200
1.65200
1.65689
1.62267
1.62267
1.61779
1.61290
1.59335
1.58846
1.58846
1.61290
1.57380
1.56891
1.56402
1.56891
1.54936
1.54936
1.56891
1.54447
1.53470
1.54936
1.53470
1.52981
1.52492
1.53958
1.52003
1.51515
1.51026
1.50537
1.50537
1.51026
1.49560
1.49071
1.49560
1.48582
1.47605
1.48093
1.48582
1.50537
1.53958
1.59335
1.67155
1.74975
1.79374
1.83284
1.86217
1.86217
1.85239
1.81329
1.79374
1.77419
1.74975
1.73998
1.73509
1.73998
1.75464
1.73509
1.74975
1.74486
1.73998
1.72531
1.72043
1.72043
1.71554
1.70087
1.70576
1.74486
1.71065
1.70576
1.72043
1.71065
1.69599
1.68132
1.70576
1.67644
1.66666
1.65200
1.64222
1.67644
1.64711
1.61779
1.64711
1.60801
1.60312
1.61290
1.58357
1.58357
1.59335
1.56891
1.56891
1.56891
1.56402
1.54936
1.54447
1.57869
1.54447
1.52981
1.52981
1.52492
1.52492
1.51026
1.51026
1.51026
1.51026
1.49560
1.49071
1.50537
1.49071
1.48093
1.47605
1.49560
1.48093
1.47116
1.46627
1.48093
1.47116
1.46138
1.47116
1.45650
1.46138
1.45650
1.46138
1.45650
1.48582
1.52492
1.57869
1.65689
1.74486
1.81329
1.83773
1.87194
1.87194
1.85728
1.82795
1.80351
1.80351
1.76441
1.73998
1.72531
1.72531
1.72531
1.75464
1.71554
1.72531
1.73020
1.71554
1.71554
1.72043
1.72531
1.71554
1.72043
1.72531
1.73020
1.72043
1.72043
1.72043
1.72043
1.70576
1.69599
1.69110
1.68621
1.66666
1.66666
1.65689
1.65689
1.64222
1.62756
1.62756
1.62756
1.61290
1.60801
1.64222
1.60801
1.59824
1.59335
1.58846
1.58846
1.58357
1.59335
1.56891
1.56891
1.56402
1.57869
1.54936
1.54936
1.54936
1.55425
1.53470
1.53958
1.53470
1.52492
1.55913
1.52492
1.52492
1.51026
1.51515
1.54936
1.51026
1.50048
1.50048
1.50048
1.50537
1.51026
1.56891
1.61779
1.69110
1.74975
1.81329
1.86217
1.93059
1.88660
1.88172
1.87194
1.84750
1.81329
1.79374
1.78396
1.76930
1.74975
1.73998
1.73998
1.75464
1.73509
1.73020
1.76441
1.73998
1.73509
1.73509
1.74486
1.75953
1.75464
1.75953
1.75953
1.76441
1.76930
1.73998
1.73509
1.74486
1.72043
1.70576
1.69599
1.70576
1.68621
1.66666
1.66177
1.66177
1.66177
1.66177
1.63734
1.64222
1.63734
1.62267
1.61779
1.62267
1.62756
1.60312
1.59824
1.59824
1.60801
1.57869
1.57380
1.57869
1.58357
1.55913
1.55913
1.56402
1.57869
1.54447
1.54447
1.54936
1.53958
1.53470
1.52981
1.55425
1.58846
1.63245
1.70576
1.78885
1.86217
1.90615
1.94037
1.95503
1.96969
1.94037
1.91104
1.89638
1.87194
1.85239
1.82795
1.81818
1.85239
1.81329
1.80351
1.80840
1.81329
1.83773
1.79863
1.79374
1.84261
1.80840
1.80351
1.80840
1.82795
1.82306
1.80840
1.81329
1.81329
1.81329
1.78885
1.77908
1.77419
1.76441
1.73998
1.73509
1.72531
1.72531
1.71065
1.69599
1.72531
1.68621
1.66666
1.66666
1.65689
1.65200
1.63734
1.63734
1.62756
1.62267
1.60801
1.59824
1.61290
1.59335
1.57869
1.57380
1.56402
1.57380
1.58846
1.54936
1.54447
1.54447
1.53470
1.52492
1.52981
1.56402
1.58357
1.64222
1.72043
1.82795
1.89149
1.97458
1.99413
2.02834
2.02346
2.00879
1.98924
1.97947
1.95014
1.92570
1.91104
1.91104
1.90615
1.89149
1.93059
1.90127
1.90615
1.88660
1.89638
1.87683
1.87683
1.86705
1.86217
1.86705
1.86705
1.85728
1.85239
1.85728
1.84750
1.82795
1.83284
1.81329
1.80351
1.77908
1.76441
1.77908
1.76930
1.71554
1.71065
1.69599
1.69110
1.66666
1.65689
1.67644
1.64711
1.62756
1.61290
1.60801
1.60312
1.58357
1.57380
1.58846
1.56891
1.55425
1.54447
1.53958
1.53958
1.52981
1.53470
1.51026
1.51026
1.50048
1.48582
1.50048
1.54936
1.55425
1.61290
1.69599
1.79863
1.90127
1.93548
1.98435
2.01368
2.02346
1.99902
1.98435
1.96480
1.95014
1.92082
1.93548
1.90127
1.91104
1.89149
1.90127
1.89149
1.89149
1.86705
1.86217
1.85239
1.85239
1.84750
1.82795
1.82306
1.82795
1.84261
1.80351
1.79863
1.79374
1.77419
1.75953
1.74486
1.73509
1.72531
1.69599
1.68132
1.67644
1.64711
1.63245
1.61779
1.61290
1.60312
1.60801
1.56891
1.56891
1.54936
1.53470
1.53470
1.52492
1.51026
1.49560
1.49071
1.49560
1.48093
1.47605
1.49560
1.46627
1.45650
1.44183
1.43206
1.43695
1.43695
1.44183
1.45161
1.46627
1.52003
1.58846
1.68132
1.77908
1.88660
1.89149
1.92082
1.93548
1.93059
1.91593
1.88172
1.86217
1.85239
1.82795
1.81818
1.81329
1.81818
1.80840
1.80351
1.80351
1.80351
1.78396
1.76441
1.75953
1.76930
1.75464
1.74975
1.76930
1.75464
1.73998
1.73020
1.72043
1.72531
1.70087
1.67644
1.66666
1.66666
1.64711
1.62756
1.61779
1.63734
1.59335
1.57380
1.56891
1.58357
1.54936
1.52981
1.52492
1.51515
1.52003
1.49560
1.49071
1.48582
1.48582
1.46627
1.46627
1.46138
1.46138
1.44672
1.44183
1.44183
1.44183
1.44672
1.41739
1.42228
1.43695
1.45650
1.51515
1.62756
1.68132
1.74975
1.81329
1.89149
1.92082
1.88172
1.86217
1.87683
1.82306
1.79374
1.76930
1.75953
1.76930
1.74486
1.73998
1.73509
1.73998
1.72531
1.71554
1.71065
1.71554
1.70576
1.69599
1.70576
1.70576
1.70576
1.69599
1.70576
1.69110
1.68621
1.66666
1.69110
1.65689
1.63734
1.61290
1.62267
1.59824
1.58846
1.56891
1.55913
1.55425
1.54447
1.53470
1.53470
1.52492
1.52003
1.50048
1.50048
1.52492
1.49560
1.48093
1.47116
1.47605
1.48093
1.45650
1.45161
1.44672
1.44672
1.44183
1.46138
1.43206
1.44672
1.46627
1.52003
1.58846
1.67644
1.74975
1.83284
1.86705
1.88660
1.88172
1.86705
1.84261
1.85239
1.80351
1.78885
1.75953
1.75953
1.74975
1.73998
1.73509
1.76441
1.75953
1.72043
1.71554
1.71065
1.71065
1.69110
1.69110
1.69599
1.70576
1.69110
1.68621
1.68621
1.68132
1.66666
1.66666
1.65200
1.64222
1.61779
1.63734
1.59824
1.58846
1.56891
1.56402
1.55425
1.54936
1.53958
1.52492
1.52003
1.52003
1.53470
1.49071
1.49071
1.49071
1.47605
1.47116
1.50537
1.47116
1.46138
1.44672
1.46627
1.44672
1.43695
1.42717
1.43695
1.44672
1.47116
1.52003
1.60312
1.69110
1.76930
1.83284
1.88172
1.90615
1.90615
1.88660
1.86217
1.86705
1.82306
1.83284
1.78885
1.78885
1.78396
1.77908
1.77908
1.78885
1.78396
1.78885
1.75464
1.74486
1.74975
1.72531
1.72043
1.74975
1.72531
1.71065
1.71065
1.70576
1.71065
1.68132
1.67155
1.66666
1.65689
1.63734
1.62267
1.62756
1.60801
1.58357
1.57380
1.58357
1.55913
1.54447
1.53470
1.53470
1.52492
1.51026
1.50048
1.49560
1.50048
1.49560
1.47116
1.47116
1.47116
1.46138
1.45650
1.45650
1.46138
1.43695
1.42717
1.42717
1.43695
1.42717
1.44672
1.49560
1.58846
1.70087
1.74486
1.81329
1.87683
1.89638
1.89638
1.87683
1.87683
1.83773
1.80351
1.78885
1.77908
1.77908
1.76441
1.75953
1.76930
1.77419
1.75464
1.74486
1.73998
1.73020
1.71554
1.73509
1.71065
1.71065
1.70087
1.71554
1.70087
1.70087
1.68132
1.67155
1.69599
1.66177
1.64222
1.63734
1.61290
1.60801
1.59824
1.57380
1.56402
1.56402
1.56402
1.53470
1.52492
1.52492
1.51515
1.52492
1.49560
1.49071
1.48093
1.46627
1.46627
1.48093
1.46138
1.44672
1.44183
1.44672
1.44672
1.46627
1.42228
1.42228
1.41739
1.41739
1.40762
1.42717
1.46138
1.51515
1.61290
1.68621
1.76930
1.81818
1.86217
1.88172
1.92082
1.85239
1.82795
1.80840
1.79374
1.76930
1.75464
1.75953
1.74975
1.76930
1.73998
1.74486
1.73998
1.72043
1.71065
1.70576
1.71065
1.69599
1.69110
1.72043
1.70087
1.69599
1.68621
1.68132
1.69599
1.67155
1.65200
1.64711
1.67644
1.65689
1.63734
1.59824
1.59824
1.59335
1.56891
1.56402
1.56402
1.57869
1.53470
1.52981
1.53958
1.52492
1.50537
1.50048
1.50048
1.49560
1.49560
1.48093
1.48093
1.47605
1.47116
1.46627
1.46138
1.46627
1.46627
1.44672
1.44183
1.44672
1.45161
1.47116
1.52492
1.59824
1.67155
1.78885
1.82306
1.87683
1.89149
1.89638
1.88172
1.87683
1.83284
1.83773
1.78396
1.77419
1.75464
1.77419
1.73998
1.74975
1.73509
1.72531
1.73020
1.72043
1.71554
1.71065
1.71065
1.71554
1.75953
1.72043
1.72043
1.72043
1.72531
1.70087
1.69599
1.69110
1.69110
1.66177
1.65200
1.64711
1.63734
1.61779
1.60801
1.60312
1.59824
1.57869
1.57380
1.60801
1.56891
1.55425
1.53958
1.54447
1.57869
1.52492
1.52003
1.52003
1.52981
1.50537
1.50048
1.49071
1.50048
1.52003
1.47605
1.47605
1.47605
1.47116
1.48093
1.53958
1.56402
1.63734
1.72043
1.81329
1.91104
1.93059
1.94525
1.95992
1.95503
1.95992
1.89149
1.90615
1.85239
1.86705
1.81329
1.83773
1.80840
1.81329
1.79863
1.79374
1.82795
1.78396
1.76441
1.76930
1.76930
1.77908
1.76441
1.76930
1.77419
1.77419
1.75464
1.74486
1.73998
1.73998
1.71065
1.69599
1.68621
1.67644
1.66177
1.64222
1.63734
1.62756
1.61290
1.62756
1.58846
1.58846
1.57380
1.55913
1.55425
1.55425
1.53958
1.53470
1.53470
1.53958
1.51026
1.50048
1.50048
1.49560
1.48582
1.47605
1.50048
1.47116
1.46627
1.46627
1.50537
1.56891
1.65200
1.73509
1.82795
1.91593
1.96969
1.99413
2.00391
2.00879
2.01368
1.95503
1.94525
1.92082
1.90615
1.88660
1.87683
1.88172
1.88172
1.87194
1.86217
1.85728
1.84750
1.85728
1.81818
1.81818
1.81818
1.80840
1.80351
1.80351
1.81329
1.78396
1.77419
1.76441
1.75953
1.73509
1.71554
1.70576
1.69599
1.68621
1.65200
1.63734
1.63245
1.62756
1.58846
1.57869
1.56891
1.55913
1.56402
1.52981
1.52981
1.51515
1.50048
1.50048
1.50048
1.49071
1.47116
1.46138
1.46138
1.45161
1.43206
1.42717
1.43695
1.43206
1.43695
1.45650
1.52003
1.59824
1.69110
1.81818
1.87194
1.94037
1.96480
1.97947
1.97947
1.97458
1.93548
1.92082
1.89638
1.90615
1.85728
1.85239
1.84750
1.85239
1.83284
1.82795
1.81818
1.81329
1.79374
1.77419
1.77419
1.78885
1.75953
1.75464
1.74975
1.74975
1.76930
1.75464
1.71065
1.70576
1.68621
1.66177
1.64711
1.64222
1.63245
1.63245
1.58357
1.57380
1.56402
1.54447
1.54936
1.52492
1.51026
1.49071
1.48582
1.48582
1.49071
1.45161
1.44672
1.44672
1.43695
1.42717
1.42717
1.43206
1.41739
1.40273
1.39296
1.39296
1.38807
1.38318
1.38807
1.42228
1.48093
1.54447
1.64711
1.74975
1.84261
1.91593
1.92082
1.94037
1.94525
1.92082
1.89638
1.91104
1.86217
1.85239
1.81818
1.81329
1.81818
1.80351
1.79863
1.80351
1.79374
1.77419
1.79374
1.74975
1.74975
1.77419
1.73998
1.73998
1.73509
1.72531
1.71065
1.70576
1.70576
1.68621
1.66666
1.65689
1.64711
1.63245
1.60801
1.59824
1.58846
1.57380
1.55913
1.54447
1.53958
1.53470
1.51515
1.51026
1.51026
1.49071
1.47605
1.46138
1.46138
1.46138
1.45161
1.47605
1.43695
1.43695
1.42228
1.41251
1.41739
1.42717
1.39784
1.39784
1.41739
1.46627
1.52981
1.60312
1.70087
1.79863
1.86217
1.90615
1.96480
1.95014
1.94037
1.91104
1.92082
1.87683
1.84261
1.82306
1.81329
1.81329
1.82795
1.78396
1.78396
1.77908
1.76441
1.76441
1.73998
1.74975
1.74486
1.75464
1.73998
1.74486
1.74486
1.73020
1.72531
1.72043
1.70576
1.68132
1.67155
1.66177
1.65200
1.62267
1.61290
1.60312
1.59824
1.60801
1.55913
1.55425
1.54936
1.52981
1.52492
1.52003
1.51026
1.49560
1.48582
1.48582
1.49071
1.46627
1.46138
1.45650
1.45650
1.46627
1.43695
1.43206
1.43206
1.43206
1.44672
1.50537
1.58846
1.66666
1.75464
1.84261
1.94037
1.96480
1.97458
1.98435
1.97947
1.95503
1.92570
1.90615
1.89149
1.87194
1.84750
1.84261
1.84261
1.82795
1.81329
1.80351
1.79863
1.78885
1.76930
1.80351
1.77419
1.76930
1.75464
1.75464
1.78885
1.75464
1.73020
1.72043
1.71554
1.71065
1.67644
1.66177
1.65200
1.67155
1.60801
1.59335
1.57869
1.57380
1.56402
1.53958
1.52492
1.52003
1.50048
1.49071
1.48582
1.49560
1.47605
1.46138
1.45650
1.45161
1.43695
1.43206
1.42228
1.41739
1.40762
1.41251
1.44183
1.50537
1.58846
1.70087
1.77419
1.87683
1.94525
1.98924
2.02834
2.01368
2.03323
1.96969
1.97947
1.94037
1.95503
1.90127
1.91104
1.89149
1.92082
1.86705
1.86217
1.85239
1.87194
1.81329
1.79863
1.79374
1.79374
1.77908
1.76441
1.76441
1.77419
1.73509
1.72043
1.73998
1.70087
1.67644
1.65200
1.68132
1.63245
1.59824
1.58357
1.57380
1.56402
1.55425
1.52003
1.51026
1.50048
1.48093
1.47116
1.45650
1.45650
1.45161
1.42228
1.42228
1.41251
1.40762
1.39784
1.39296
1.40273
1.38318
1.36363
1.35874
1.35874
1.36363
1.39296
1.46627
1.55913
1.66177
1.76441
1.84750
1.92570
1.96480
1.97458
1.97458
1.96480
1.95503
1.92082
1.91104
1.89149
1.89638
1.86705
1.88660
1.86705
1.87683
1.84261
1.83284
1.81329
1.80351
1.77419
1.76441
1.75953
1.75464
1.73509
1.73020
1.72531
1.72043
1.70576
1.68132
1.67155
1.66666
1.65689
1.62267
1.61290
1.60312
1.57869
1.56402
1.54936
1.54447
1.52492
1.50048
1.49071
1.48093
1.46138
1.44672
1.44672
1.45161
1.42717
1.41251
1.40762
1.40762
1.40273
1.40273
1.38318
1.38318
1.37341
1.35874
1.35386
1.35874
1.36852
1.42228
1.44672
1.53470
1.63245
1.72043
1.80351
1.88172
1.93059
1.95503
1.94037
1.93059
1.92082
1.88172
1.85728
1.84750
1.83284
1.80840
1.79863
1.79863
1.78396
1.76441
1.74486
1.74486
1.73509
1.71554
1.73509
1.71554
1.72043
1.71065
1.70576
1.70576
1.70576
1.69110
1.66666
1.65689
1.65200
1.62756
1.60801
1.59335
1.60312
1.56402
1.54936
1.53470
1.53470
1.52003
1.52981
1.49071
1.48582
1.47605
1.46138
1.45650
1.47605
1.44183
1.42717
1.41739
1.41739
1.41251
1.41739
1.39296
1.38807
1.39296
1.40762
1.45650
1.53470
1.63245
1.71554
1.81329
1.89638
1.95014
1.97458
1.97458
2.00879
1.96480
1.93548
1.91593
1.89149
1.88172
1.85239
1.84261
1.82795
1.81818
1.79863
1.77908
1.76930
1.77419
1.74486
1.73509
1.73509
1.73998
1.73020
1.72531
1.72531
1.73509
1.70576
1.68621
1.68132
1.67644
1.65200
1.62267
1.61290
1.61290
1.57869
1.55425
1.53958
1.53470
1.52492
1.50048
1.48582
1.48093
1.47116
1.45650
1.45161
1.44672
1.43695
1.42228
1.41251
1.41739
1.42717
1.42228
1.38318
1.38318
1.38318
1.39784
1.44672
1.53470
1.64222
1.76441
1.84750
1.94525
2.02346
2.04789
2.06744
2.07233
2.06744
2.03323
2.01368
1.99413
1.98924
1.96480
1.95503
1.95014
1.95992
1.93059
1.91104
1.90127
1.88172
1.86217
1.84750
1.83284
1.83284
1.81818
1.84261
1.79863
1.79863
1.78396
1.76441
1.76930
1.73509
1.71554
1.69110
1.68132
1.65689
1.63734
1.60801
1.59824
1.58846
1.60312
1.54447
1.52981
1.52003
1.51515
1.49071
1.48582
1.48582
1.48582
1.45161
1.44672
1.44183
1.43695
1.42228
1.41251
1.41251
1.41251
1.42717
1.40273
1.44183
1.51026
1.59824
1.72043
1.82795
1.94037
2.01368
2.07233
2.10654
2.15053
2.10654
2.11632
2.06744
2.06256
2.02834
2.00879
1.99413
1.99902
1.97458
1.95992
1.97947
1.93059
1.90615
1.87683
1.86217
1.88172
1.84750
1.82795
1.82795
1.81818
1.80351
1.78885
1.80351
1.76441
1.74486
1.72043
1.70576
1.68621
1.66666
1.63734
1.61779
1.60312
1.59335
1.57869
1.54936
1.53470
1.52492
1.50048
1.49071
1.48582
1.48093
1.47605
1.44672
1.44183
1.43695
1.41739
1.40762
1.40762
1.41251
1.40762
1.37341
1.37341
1.38807
1.40762
1.48093
1.56402
1.68132
1.78885
1.89149
1.98435
2.05767
2.06256
2.06744
2.06256
2.04789
2.01368
1.97458
1.95014
1.93059
1.90615
1.87194
1.86217
1.84750
1.82795
1.79863
1.78396
1.78396
1.77419
1.75953
1.76930
1.76930
1.76930
1.75953
1.75464
1.74975
1.73509
1.71065
1.71554
1.68132
1.66177
1.63245
1.61290
1.60312
1.59335
1.58846
1.53958
1.52981
1.52003
1.49560
1.48582
1.49071
1.46627
1.45161
1.44183
1.43206
1.42717
1.41739
1.41251
1.39784
1.39296
1.37341
1.36363
1.36852
1.37829
1.42228
1.50048
1.58846
1.71554
1.83284
1.94037
2.03323
2.10166
2.12121
2.11632
2.13098
2.08699
2.06256
2.01368
2.01368
1.96969
1.95992
1.91593
1.90615
1.89149
1.86705
1.87194
1.82795
1.81329
1.80351
1.78885
1.78396
1.78885
1.78885
1.77419
1.76441
1.75953
1.74975
1.72043
1.70576
1.69110
1.67155
1.66666
1.61779
1.60312
1.58846
1.55425
1.54447
1.53958
1.51026
1.48582
1.47605
1.46138
1.45650
1.43695
1.43206
1.44672
1.41739
1.39296
1.38807
1.37829
1.37341
1.35874
1.35386
1.35874
1.35386
1.36852
1.41739
1.51515
1.64711
1.77908
1.91104
2.03323
2.12609
2.17986
2.22873
2.19941
2.18963
2.17008
2.11632
2.09188
2.07233
2.04789
2.04789
2.00879
2.00879
1.98435
1.95992
1.93548
1.91593
1.89638
1.86217
1.85239
1.84750
1.85239
1.82306
1.81329
1.82795
1.79374
1.76930
1.75464
1.73020
1.72531
1.71554
1.65689
1.63734
1.62267
1.58846
1.56891
1.55425
1.57380
1.51026
1.49071
1.48093
1.47116
1.44672
1.43206
1.43206
1.41251
1.39784
1.38318
1.37341
1.37829
1.36852
1.34897
1.34408
1.33919
1.32453
1.30987
1.30987
1.33919
1.39296
1.48582
1.60312
1.75953
1.91593
2.04301
2.16031
2.22873
2.25806
2.25317
2.27272
2.21896
2.18475
2.16031
2.10166
2.08699
2.06744
2.03812
2.02346
2.00879
1.98924
1.96480
1.93059
1.91104
1.89149
1.86217
1.85239
1.84750
1.87194
1.81818
1.80840
1.79863
1.78396
1.78885
1.73509
1.71554
1.69599
1.66666
1.63734
1.61779
1.60801
1.59824
1.54447
1.52981
1.51515
1.49071
1.46627
1.46627
1.44672
1.42717
1.40273
1.39784
1.38807
1.37829
1.39784
1.35386
1.34897
1.33919
1.32942
1.31964
1.32453
1.31476
1.29521
1.29032
1.28543
1.28543
1.31476
1.39784
1.49071
1.63245
1.78396
1.94525
2.08699
2.19941
2.27272
2.26783
2.26783
2.25317
2.19452
2.15053
2.11632
2.07722
2.02834
1.99902
1.98435
1.99902
1.93059
1.90615
1.88660
1.87194
1.84750
1.83284
1.83773
1.83284
1.81818
1.81329
1.81329
1.82795
1.78396
1.76930
1.74975
1.73509
1.70087
1.68132
1.68621
1.63245
1.60312
1.57380
1.55425
1.53958
1.52003
1.49560
1.48582
1.47605
1.46138
1.42717
1.41739
1.41251
1.39296
1.38318
1.36852
1.36852
1.35874
1.37341
1.33431
1.33431
1.32453
1.30987
1.30498
1.30009
1.30009
1.29521
1.29032
1.32942
1.40762
1.51026
1.66666
1.85728
1.99413
2.10654
2.20430
2.26295
2.32160
2.25806
2.22385
2.17986
2.16520
2.06744
2.02346
1.97458
1.94037
1.89638
1.89638
1.83773
1.81818
1.79374
1.78396
1.78396
1.78885
1.78885
1.79374
1.80351
1.81818
1.81818
1.79374
1.78396
1.77419
1.74975
1.72531
1.71065
1.67644
1.64711
1.61779
1.59335
1.57869
1.55425
1.52492
1.50537
1.49560
1.48093
1.46627
1.44183
1.43206
1.42228
1.40762
1.39784
1.39296
1.38318
1.36852
1.36363
1.37341
1.35386
1.32942
1.31964
1.31964
1.31964
1.32942
1.39784
1.53470
1.66177
1.82306
1.98924
2.14565
2.26783
2.32160
2.35092
2.35092
2.33137
2.27272
2.22385
2.16520
2.12609
2.07233
2.02834
1.99902
2.00879
1.94037
1.90615
1.88172
1.87194
1.84750
1.83284
1.82795
1.83773
1.83773
1.82306
1.82306
1.82306
1.80840
1.78396
1.76930
1.74975
1.72531
1.68132
1.65200
1.62756
1.60312
1.56891
1.56402
1.55425
1.50537
1.47605
1.46138
1.44672
1.43206
1.40762
1.40273
1.39784
1.38318
1.36363
1.34897
1.34408
1.33431
1.31964
1.31964
1.30009
1.29521
1.27565
1.27077
1.30009
1.39296
1.45650
1.60312
1.79374
1.98435
2.14076
2.27272
2.35581
2.40469
2.39980
2.36559
2.33137
2.28738
2.22385
2.16520
2.13098
2.10166
2.06744
2.03812
2.01857
1.98924
1.95992
1.93059
1.90127
1.88660
1.87194
1.86705
1.84261
1.84261
1.83773
1.81329
1.80351
1.79863
1.80351
1.73509
1.71065
1.68621
1.66177
1.63245
1.61779
1.56891
1.54447
1.51515
1.49071
1.47116
1.45650
1.43206
1.42228
1.40273
1.38807
1.36363
1.35386
1.34408
1.33431
1.31964
1.31476
1.31476
1.31476
1.28543
1.27565
1.27077
1.26588
1.25122
1.26099
1.30009
1.38318
1.51515
1.66666
1.86217
2.05278
2.20430
2.30694
2.38025
2.40957
2.38514
2.34115
2.29227
2.25317
2.18475
2.13587
2.09188
2.07233
2.04301
2.00879
1.98924
1.96480
1.93548
1.89638
1.86705
1.86217
1.87194
1.81818
1.81329
1.80351
1.79863
1.80351
1.76441
1.73998
1.72043
1.68621
1.66177
1.64222
1.61779
1.57869
1.54936
1.53470
1.51515
1.48582
1.46627
1.47116
1.42717
1.39784
1.37829
1.36363
1.35386
1.33431
1.31964
1.32453
1.30009
1.29032
1.27565
1.27077
1.26588
1.25610
1.24144
1.24144
1.27077
1.21700
1.21212
1.22678
1.26588
1.34897
1.49560
1.70087
1.86705
2.03812
2.17008
2.27272
2.34115
2.34604
2.31671
2.28250
2.26783
2.17008
2.10166
2.04789
2.00879
1.96969
1.92570
1.89149
1.87683
1.85728
1.80840
1.79374
1.78885
1.78885
1.79374
1.78396
1.78885
1.78885
1.78396
1.76930
1.75953
1.74486
1.70576
1.69599
1.67644
1.63734
1.60312
1.57380
1.54936
1.52492
1.50048
1.48093
1.47605
1.46138
1.41739
1.39784
1.38807
1.37829
1.36363
1.34408
1.33919
1.33919
1.32942
1.34408
1.30498
1.30009
1.28543
1.26588
1.27077
1.27077
1.30498
1.30009
1.38318
1.52492
1.69599
1.86705
2.04789
2.22873
2.29227
2.34115
2.35581
2.34604
2.30694
2.24340
2.17008
2.11632
2.05767
1.99413
1.95503
1.94525
1.89638
1.84750
1.83284
1.79863
1.78885
1.77419
1.77419
1.77908
1.78885
1.81329
1.77908
1.78396
1.77908
1.74975
1.73020
1.72043
1.72043
1.64711
1.61290
1.58846
1.56402
1.53470
1.49560
1.47605
1.46138
1.43695
1.41251
1.40273
1.39784
1.37829
1.38807
1.34408
1.33919
1.32453
1.31964
1.30987
1.30987
1.29521
1.28054
1.27565
1.26588
1.25610
1.26588
1.32453
1.44183
1.60312
1.81818
1.97947
2.16031
2.29227
2.36559
2.40957
2.45356
2.42424
2.32649
2.27272
2.21896
2.17986
2.09677
2.06256
2.02834
2.00391
1.96480
1.96480
1.91104
1.89149
1.85239
1.84261
1.87194
1.83284
1.82306
1.81818
1.81818
1.82306
1.81329
1.77908
1.75953
1.73998
1.70576
1.67155
1.64222
1.61779
1.59824
1.57869
1.52003
1.50048
1.47116
1.44183
1.42228
1.41251
1.39784
1.39784
1.35386
1.34897
1.33431
1.31964
1.30987
1.30987
1.30009
1.30009
1.26099
1.25610
1.25122
1.25122
1.30009
1.40762
1.56402
1.73998
1.94037
2.12609
2.27272
2.35581
2.41446
2.40957
2.38514
2.32160
2.27272
2.21407
2.16031
2.11143
2.06256
2.03812
2.02346
1.98435
1.95014
1.92082
1.89638
1.85239
1.82795
1.82795
1.80351
1.77908
1.76930
1.76930
1.75953
1.73998
1.72531
1.69599
1.71554
1.64711
1.61290
1.58357
1.55913
1.52003
1.48582
1.45650
1.44183
1.41251
1.41739
1.36363
1.34897
1.32942
1.30498
1.29032
1.28543
1.27565
1.25610
1.24633
1.24144
1.22678
1.21212
1.21700
1.22678
1.20723
1.20723
1.28054
1.41251
1.59335
1.78396
1.99413
2.15053
2.27761
2.33137
2.36070
2.36070
2.33137
2.29716
2.20918
2.17008
2.12609
2.07722
2.07233
2.03323
2.01857
1.98924
1.95014
1.91593
1.88172
1.84261
1.80840
1.82306
1.77419
1.74975
1.73509
1.73020
1.72043
1.70087
1.68132
1.69110
1.63734
1.60801
1.57380
1.54936
1.52981
1.49560
1.49071
1.46627
1.41251
1.38807
1.35874
1.33919
1.32453
1.30498
1.28543
1.28543
1.28543
1.23655
1.22189
1.21212
1.20723
1.19745
1.18279
1.18279
1.18279
1.16813
1.15347
1.14858
1.14369
1.13880
1.14369
1.20234
1.31476
1.47116
1.66177
1.87683
2.06744
2.22873
2.31671
2.37047
2.38025
2.36070
2.29716
2.24340
2.19941
2.14076
2.08211
2.05278
2.01857
2.00391
1.99902
1.94525
1.91104
1.88660
1.84261
1.82306
1.79374
1.78885
1.76441
1.75464
1.74975
1.76930
1.71554
1.69110
1.67155
1.66177
1.63245
1.59824
1.58357
1.54936
1.54447
1.48582
1.46138
1.44183
1.41739
1.38807
1.36852
1.35874
1.34897
1.30987
1.29032
1.28054
1.26588
1.24144
1.23167
1.23655
1.21212
1.19745
1.18768
1.18279
1.17302
1.15347
1.15835
1.15835
1.15835
1.17302
1.13391
1.12903
1.13391
1.12414
1.14369
1.11436
1.11925
1.11925
1.15835
1.25610
1.40762
1.59335
1.81818
2.03812
2.17497
2.28738
2.35581
2.38514
2.38025
2.33626
2.29716
2.19941
2.13587
2.06256
1.99902
1.97458
1.90615
1.86217
1.82306
1.79863
1.78885
1.79374
1.74975
1.75464
1.77419
1.77908
1.77908
1.78885
1.80351
1.81818
1.75953
1.73998
1.72531
1.70087
1.66177
1.63734
1.63245
1.57869
1.53958
1.51026
1.49560
1.47605
1.46138
1.43695
1.42717
1.39296
1.36363
1.35386
1.34408
1.33919
1.31964
1.33431
1.30009
1.29521
1.27565
1.27077
1.26588
1.26588
1.25122
1.24144
1.26099
1.22678
1.23167
1.27565
1.37829
1.53470
1.72043
1.92082
2.14076
2.26295
2.37047
2.42424
2.45356
2.43890
2.39002
2.32160
2.24828
2.18963
2.12609
2.05278
2.00879
1.97458
1.93059
1.88660
1.87683
1.84261
1.81818
1.79863
1.79863
1.80840
1.82306
1.85239
1.81818
1.81818
1.81329
1.78885
1.76930
1.74486
1.71554
1.67155
1.64222
1.61290
1.58846
1.54936
1.53470
1.49560
1.48582
1.44183
1.42228
1.40762
1.39296
1.36852
1.35874
1.35874
1.34408
1.31964
1.30498
1.30009
1.29521
1.27565
1.26099
1.28543
1.24633
1.24633
1.27565
1.36363
1.51026
1.71065
1.95014
2.12609
2.31671
2.44379
2.51710
2.55131
2.55131
2.50733
2.43890
2.38025
2.33137
2.27272
2.21407
2.19941
2.16031
2.13587
2.09677
2.06744
2.04301
2.00391
1.96480
1.93548
1.95503
1.90615
1.88172
1.86705
1.86705
1.85728
1.85728
1.80351
1.77908
1.75464
1.71554
1.68621
1.66177
1.63245
1.59335
1.56891
1.56891
1.51515
1.48093
1.46138
1.44183
1.42228
1.39784
1.38318
1.37341
1.35386
1.33431
1.31964
1.31476
1.30987
1.30009
1.29032
1.28054
1.27565
1.25610
1.25122
1.25122
1.29032
1.37341
1.52003
1.73509
1.92570
2.13587
2.30205
2.42913
2.50733
2.54154
2.52688
2.47311
2.40469
2.33626
2.27272
2.22385
2.19452
2.19941
2.15542
2.10166
2.08211
2.06256
2.00391
1.96969
1.97458
1.91104
1.88172
1.86217
1.85728
1.84750
1.82795
1.81329
1.80351
1.80840
1.77419
1.70576
1.68132
1.65200
1.61290
1.58357
1.55913
1.53958
1.51515
1.47116
1.45161
1.43206
1.40762
1.38318
1.36852
1.35874
1.33431
1.33431
1.30498
1.30009
1.28543
1.27565
1.27077
1.26099
1.25610
1.25122
1.22678
1.22189
1.21212
1.22678
1.27565
1.40762
1.57869
1.74975
1.95992
2.15053
2.28738
2.36559
2.40957
2.43890
2.37536
2.31182
2.24828
2.20918
2.14076
2.08699
2.08211
2.03812
2.00391
1.95992
1.93059
1.92082
1.87194
1.83284
1.81818
1.82306
1.79374
1.77908
1.76930
1.76930
1.75953
1.73998
1.73998
1.71065
1.68621
1.62267
1.59335
1.56891
1.54447
1.50537
1.48093
1.48093
1.43206
1.39784
1.37341
1.35386
1.34408
1.31964
1.30009
1.29521
1.28543
1.28543
1.24633
1.23655
1.23167
1.21700
1.20723
1.20234
1.21212
1.21700
1.16813
1.16324
1.17302
1.19745
1.27077
1.40762
1.60312
1.76930
1.93548
2.07722
2.18475
2.23362
2.25806
2.20430
2.15542
2.09677
2.02346
1.96480
1.92082
1.87683
1.83773
1.80351
1.78396
1.75953
1.71065
1.68621
1.67155
1.67644
1.67644
1.64711
1.64711
1.65200
1.63734
1.62267
1.61779
1.60801
1.60312
1.53958
1.51515
1.49560
1.47116
1.44183
1.41739
1.40762
1.37829
1.36363
1.33431
1.33919
1.29521
1.27565
1.25610
1.25122
1.23167
1.21212
1.20723
1.20234
1.18279
1.16813
1.15835
1.15347
1.13880
1.11925
1.12903
1.18768
1.22678
1.33919
1.50048
1.68621
1.86705
2.02346
2.09677
2.15542
2.17008
2.14076
2.14076
2.06744
2.03323
1.97947
1.95503
1.93548
1.92082
1.89638
1.87683
1.86217
1.82795
1.78396
1.74486
1.73509
1.69110
1.66177
1.64711
1.65689
1.62756
1.60312
1.58846
1.57380
1.56402
1.53470
1.52981
1.51515
1.46138
1.42228
1.39784
1.37341
1.35386
1.32942
1.30498
1.30498
1.30009
1.24633
1.22678
1.20723
1.20234
1.18768
1.17302
1.16813
1.18768
1.14858
1.13880
1.13391
1.12414
1.11436
1.09970
1.09481
1.09481
1.12414
1.11436
1.18279
1.30498
1.46138
1.63245
1.80840
1.96969
2.05278
2.09188
2.10654
2.10166
2.09677
2.02834
2.00391
1.97458
1.95503
1.92570
1.92082
1.90615
1.89638
1.85728
1.82795
1.79374
1.76930
1.72043
1.69110
1.70087
1.65689
1.63734
1.62756
1.62267
1.62267
1.62756
1.57380
1.55425
1.53958
1.51026
1.48582
1.46627
1.45161
1.41739
1.39296
1.37341
1.35874
1.33431
1.30987
1.30009
1.29032
1.26588
1.24144
1.23167
1.22678
1.20723
1.19257
1.19257
1.19257
1.20723
1.16324
1.15835
1.15835
1.14858
1.14369
1.13880
1.14858
1.16324
1.11436
1.10948
1.10948
1.11925
1.14858
1.23167
1.36363
1.52003
1.69110
1.83773
1.96969
2.05278
2.07722
2.09188
2.07233
2.02834
1.98435
1.92570
1.90127
1.86217
1.82795
1.80351
1.80840
1.78885
1.73998
1.72043
1.70576
1.69599
1.68132
1.67155
1.68621
1.68621
1.67644
1.67155
1.67155
1.70087
1.64222
1.62267
1.62267
1.58846
1.55425
1.52981
1.50537
1.49560
1.46627
1.45650
1.42717
1.41251
1.39296
1.37341
1.35874
1.35874
1.33919
1.33919
1.31476
1.31476
1.30009
1.28543
1.27565
1.28054
1.29032
1.25610
1.25610
1.25122
1.24144
1.22189
1.22678
1.26099
1.25122
1.30498
1.40762
1.56402
1.75953
1.87194
2.00391
2.09677
2.15542
2.17497
2.13587
2.10654
2.06256
1.99902
1.95503
1.91593
1.89638
1.85728
1.83284
1.83284
1.80351
1.77419
1.74975
1.73509
1.73020
1.72043
1.71065
1.71065
1.71554
1.71065
1.73020
1.68621
1.67644
1.65689
1.62756
1.61779
1.61290
1.55425
1.52003
1.50048
1.48582
1.45161
1.43695
1.41739
1.43695
1.38318
1.35874
1.34408
1.33919
1.32453
1.30498
1.29521
1.29032
1.28543
1.27565
1.26099
1.26099
1.25122
1.23167
1.23167
1.25122
1.22189
1.21700
1.23655
1.30498
1.41739
1.55913
1.74975
1.89638
2.03812
2.12609
2.17497
2.19452
2.21896
2.14076
2.09677
2.05767
2.02834
2.02346
1.95992
1.95503
1.94525
1.92570
1.91593
1.89149
1.87194
1.85239
1.79863
1.78396
1.76930
1.78396
1.73020
1.72531
1.72531
1.73509
1.68621
1.67155
1.66177
1.63734
1.60312
1.60312
1.55913
1.53470
1.50048
1.48093
1.46138
1.44183
1.42717
1.39296
1.38318
1.36363
1.33919
1.32453
1.31476
1.30498
1.29032
1.27077
1.26588
1.25610
1.24144
1.23655
1.22678
1.22678
1.21700
1.21212
1.20723
1.21700
1.18768
1.18279
1.17790
1.18279
1.18768
1.22189
1.30987
1.44183
1.62267
1.75953
1.92082
2.04789
2.12121
2.16520
2.16520
2.14565
2.09677
2.07233
2.00391
2.00391
1.92570
1.91593
1.88660
1.88172
1.85728
1.83284
1.82306
1.80351
1.77908
1.75464
1.73998
1.73998
1.72531
1.71065
1.70576
1.71065
1.69110
1.67155
1.65689
1.64222
1.62267
1.60312
1.56402
1.54936
1.52003
1.49071
1.47605
1.46138
1.46138
1.41251
1.39784
1.38318
1.36852
1.34897
1.34408
1.36363
1.31476
1.29521
1.28543
1.28054
1.27565
1.26588
1.25610
1.25610
1.26588
1.23655
1.22678
1.22189
1.21700
1.21700
1.20234
1.21212
1.25122
1.30498
1.40762
1.56402
1.75464
1.86217
1.97947
2.06744
2.13098
2.13098
2.11143
2.08211
2.04301
1.98924
1.93059
1.89638
1.86217
1.82795
1.79374
1.77419
1.75953
1.73509
1.71065
1.69599
1.70087
1.70087
1.70087
1.70576
1.72043
1.72043
1.71065
1.72531
1.69599
1.68621
1.66177
1.64711
1.62267
1.59824
1.56891
1.54936
1.52981
1.51026
1.48582
1.47116
1.46138
1.47605
1.41739
1.40762
1.39784
1.38807
1.36852
1.35874
1.36363
1.37829
1.32453
1.31964
1.31476
1.30987
1.29521
1.29521
1.30009
1.29032
1.30498
1.27077
1.26099
1.26588
1.25610
1.27077
1.33431
1.46627
1.55913
1.71554
1.88660
2.03323
2.14565
2.20918
2.24340
2.25317
2.21896
2.17497
2.11632
2.07233
2.04789
1.95992
1.93059
1.90127
1.86705
1.83284
1.83773
1.79863
1.78885
1.77908
1.81818
1.78885
1.79863
1.79863
1.80840
1.82795
1.81329
1.78885
1.78885
1.76441
1.74975
1.71554
1.69110
1.67155
1.66177
1.61290
1.58846
1.56891
1.54936
1.52492
1.52981
1.50537
1.48093
1.46138
1.44672
1.43695
1.42717
1.41739
1.39784
1.39784
1.39296
1.37829
1.36363
1.35386
1.35874
1.34408
1.34897
1.33919
1.37341
1.44183
1.56402
1.72531
1.93548
2.06744
2.20430
2.30694
2.38025
2.39980
2.37536
2.34115
2.30694
2.25317
2.17986
2.13587
2.10166
2.06744
2.02834
2.00391
1.98924
1.96969
1.93548
1.91104
1.89638
1.88172
1.86705
1.86217
1.86705
1.86217
1.85239
1.87683
1.83284
1.82306
1.78885
1.76441
1.74486
1.72531
1.71065
1.65200
1.62756
1.59824
1.56891
1.54447
1.52981
1.51515
1.49560
1.46627
1.45161
1.44183
1.41739
1.40273
1.39784
1.39296
1.37341
1.36363
1.35874
1.35386
1.34408
1.35386
1.31476
1.31476
1.30498
1.31476
1.36852
1.48582
1.65200
1.83773
2.02346
2.20918
2.35092
2.42913
2.47800
2.48778
2.45356
2.39491
2.35092
2.29716
2.24828
2.19941
2.16520
2.15053
2.12609
2.09677
2.08211
2.05767
2.03323
2.02834
1.96969
1.95503
1.94525
1.95014
1.91104
1.90615
1.90127
1.87194
1.86217
1.83773
1.81818
1.78396
1.75464
1.73020
1.70576
1.66666
1.64222
1.61779
1.60801
1.57869
1.55425
1.52003
1.50048
1.47605
1.45161
1.44183
1.43206
1.40762
1.39296
1.38807
1.39784
1.35874
1.33919
1.33431
1.32942
1.31476
1.30009
1.30498
1.30009
1.28543
1.27565
1.27077
1.27077
1.26099
1.25122
1.27565
1.31476
1.36363
1.49071
1.66666
1.86705
2.05767
2.20918
2.33137
2.39491
2.41446
2.38514
2.34604
2.30205
2.25806
2.17008
2.12609
2.08699
2.06256
2.02834
2.00391
1.99413
1.96969
1.93059
1.91104
1.89638
1.89638
1.86217
1.85239
1.85239
1.85728
1.83284
1.81818
1.80351
1.79374
1.76441
1.73998
1.72043
1.71554
1.65200
1.62756
1.59824
1.57869
1.54936
1.52492
1.50048
1.49071
1.47116
1.46138
1.45161
1.41739
1.39784
1.38318
1.36852
1.36852
1.34897
1.33919
1.34408
1.36363
1.32453
1.30498
1.30009
1.30009
1.29032
1.27565
1.27565
1.28054
1.30009
1.38318
1.51026
1.63734
1.81818
1.98435
2.13098
2.24340
2.30694
2.30694
2.28738
2.25317
2.20430
2.13587
2.06744
2.02346
1.98435
1.93548
1.91104
1.88660
1.87194
1.83284
1.81329
1.79863
1.82306
1.78396
1.78396
1.78885
1.79863
1.78885
1.77908
1.80351
1.79374
1.73020
1.70087
1.67644
1.65200
1.61779
1.58357
1.56402
1.53958
1.51515
1.50048
1.46627
1.45650
1.43206
1.41251
1.39784
1.38807
1.37341
1.35874
1.35874
1.34408
1.32942
1.31964
1.30498
1.30498
1.30009
1.30009
1.31476
1.28054
1.27077
1.26588
1.29032
1.36363
1.49560
1.65689
1.85239
2.04789
2.21407
2.31671
2.39980
2.39491
2.38514
2.33137
2.27761
2.23362
2.21407
2.14076
2.11143
2.09677
2.09188
2.06744
2.04301
2.05767
1.99902
1.95503
1.91593
1.89149
1.88172
1.85239
1.83284
1.82306
1.82795
1.82306
1.77908
1.76441
1.74975
1.71554
1.68132
1.66177
1.63734
1.61290
1.59335
1.54936
1.52981
1.50537
1.47116
1.45161
1.43695
1.41739
1.39784
1.40273
1.39296
1.36852
1.33431
1.32453
1.32453
1.31476
1.30009
1.30009
1.29521
1.30009
1.30009
1.26099
1.25610
1.25610
1.26099
1.31964
1.45161
1.59335
1.77908
1.97458
2.15053
2.29227
2.35581
2.38514
2.38025
2.35092
2.28738
2.22873
2.18963
2.15053
2.10654
2.08211
2.06744
2.06256
2.03812
2.03812
1.97458
1.95014
1.90615
1.87194
1.85728
1.83773
1.81818
1.80351
1.79374
1.79863
1.76441
1.73509
1.71065
1.69110
1.66177
1.63245
1.60312
1.61290
1.56891
1.52003
1.50048
1.48093
1.45650
1.42717
1.41251
1.41251
1.37829
1.34897
1.33431
1.32453
1.30987
1.29521
1.28054
1.27565
1.27077
1.25610
1.23655
1.23167
1.22678
1.20723
1.20234
1.19745
1.20234
1.19257
1.19257
1.20723
1.18768
1.17790
1.16813
1.15835
1.15835
1.16813
1.20723
1.29521
1.44183
1.62267
1.82306
2.01857
2.19452
2.31182
2.33137
2.34604
2.33626
2.28738
2.19452
2.13098
2.06744
2.00391
1.94525
1.94525
1.88660
1.85239
1.81818
1.79863
1.81329
1.77908
1.76930
1.76930
1.78396
1.79374
1.81818
1.78885
1.79374
1.78396
1.75464
1.74486
1.75464
1.69599
1.65689
1.63245
1.60801
1.58846
1.55425
1.52981
1.52981
1.52981
1.46627
1.44672
1.43206
1.42228
1.39784
1.38318
1.37341
1.37341
1.36852
1.32942
1.32453
1.31964
1.30498
1.30009
1.30009
1.30498
1.28054
1.27077
1.26588
1.26588
1.25122
1.23655
1.25122
1.31964
1.35874
1.49071
1.67644
1.89149
2.07722
2.23362
2.38025
2.42424
2.43401
2.40469
2.35581
2.30205
2.22873
2.16031
2.09188
2.04789
2.00391
1.95992
1.96480
1.92570
1.88172
1.84750
1.82795
1.82795
1.84261
1.80840
1.81329
1.82306
1.82795
1.81818
1.83773
1.78885
1.77419
1.74486
1.71554
1.69110
1.65689
1.62267
1.59335
1.56891
1.54936
1.53958
1.48582
1.46627
1.45161
1.42717
1.40762
1.40273
1.39296
1.37341
1.35874
1.37829
1.33431
1.31964
1.30987
1.30009
1.30009
1.29032
1.28054
1.28054
1.29521
1.29032
1.26099
1.23655
1.24144
1.25610
1.30498
1.42228
1.59824
1.80351
2.01857
2.19452
2.34604
2.43890
2.46823
2.46823
2.43401
2.37047
2.28738
2.21896
2.14076
2.08699
2.04789
1.97458
1.95014
1.92082
1.88172
1.86705
1.87683
1.84261
1.81329
1.81329
1.82306
1.83284
1.82795
1.82306
1.82795
1.82795
1.79863
1.77419
1.73998
1.72043
1.67644
1.64222
1.61779
1.59335
1.55913
1.53470
1.50048
1.48093
1.45161
1.43206
1.41739
1.40762
1.38807
1.37341
1.35874
1.35874
1.37341
1.31964
1.31476
1.30498
1.29521
1.28054
1.28054
1.28054
1.28543
1.28054
1.24633
1.27077
1.32453
1.42717
1.60312
1.82306
2.04789
2.23851
2.40957
2.48778
2.53176
2.51710
2.50244
2.44868
2.36070
2.27272
2.20918
2.16031
2.11632
2.09188
2.03812
2.02346
2.03323
1.95992
1.92570
1.90615
1.88660
1.85728
1.84750
1.86217
1.86705
1.81329
1.79374
1.77908
1.76441
1.73020
1.69110
1.66177
1.63734
1.62756
1.55425
1.52003
1.49560
1.45650
1.42717
1.40273
1.38318
1.34897
1.32453
1.30498
1.29032
1.26588
1.25122
1.23167
1.22189
1.20723
1.18768
1.18768
1.16813
1.15347
1.13391
1.12414
1.11436
1.10459
1.09481
1.11436
1.18279
1.30009
1.47116
1.65200
1.85239
2.02346
2.13098
2.19941
2.24340
2.21896
2.19452
2.12121
2.08699
2.02834
1.97947
1.95014
1.93548
1.94525
1.90127
1.88172
1.86705
1.83284
1.78885
1.74975
1.72043
1.70087
1.70087
1.64711
1.63245
1.62756
1.60312
1.58357
1.57380
1.54936
1.52003
1.48582
1.46138
1.44183
1.40762
1.37829
1.35386
1.34897
1.32453
1.27565
1.25122
1.23655
1.20723
1.18279
1.16813
1.15347
1.14369
1.11436
1.09970
1.08993
1.07526
1.05571
1.04105
1.04105
1.03616
1.03616
0.99706
0.99706
0.99217
0.97262
0.96285
0.96774
0.96774
0.97262
0.94819
0.94330
0.93841
0.92864
0.94330
1.01173
1.11436
1.20723
1.36363
1.53470
1.70087
1.80840
1.90615
1.91593
1.92570
1.89149
1.86217
1.81818
1.78885
1.74486
1.71554
1.71554
1.71065
1.68132
1.66666
1.65200
1.64711
1.61779
1.59824
1.58357
1.58357
1.56891
1.55913
1.57869
1.55425
1.53958
1.53470
1.51515
1.50537
1.48582
1.46627
1.44183
1.42228
1.40762
1.38318
1.35874
1.34408
1.32453
1.30009
1.29032
1.28543
1.26099
1.23655
1.22189
1.21700
1.21212
1.18768
1.17302
1.17302
1.20234
1.14858
1.13880
1.14369
1.13391
1.12414
1.11436
1.10948
1.10948
1.09481
1.08993
1.08993
1.11925
1.18279
1.27565
1.40273
1.53958
1.65200
1.73998
1.80840
1.83284
1.82795
1.80351
1.77419
1.74975
1.71065
1.68621
1.65689
1.66177
1.63734
1.64222
1.61290
1.60801
1.58846
1.57380
1.57869
1.56891
1.56891
1.59824
1.56402
1.57380
1.56891
1.55425
1.54936
1.54447
1.52492
1.50048
1.48582
1.47116
1.45650
1.43206
1.42228
1.40273
1.38807
1.36363
1.34897
1.34408
1.33919
1.31964
1.30987
1.30009
1.29521
1.27077
1.27077
1.26588
1.26099
1.25122
1.24144
1.23655
1.23167
1.24633
1.21700
1.21212
1.21700
1.25122
1.31964
1.45650
1.55425
1.66666
1.76930
1.84261
1.89638
1.90615
1.89638
1.87683
1.87683
1.83284
1.80351
1.79863
1.79374
1.82306
1.77908
1.77908
1.78396
1.77419
1.74975
1.75464
1.71554
1.70576
1.68621
1.68132
1.67644
1.67155
1.69110
1.68132
1.65200
1.64222
1.61290
1.59824
1.58846
1.56891
1.54447
1.52492
1.51515
1.51026
1.47605
1.45650
1.44672
1.45161
1.43206
1.39784
1.38807
1.38318
1.35874
1.35874
1.33919
1.33919
1.32453
1.31476
1.30987
1.31476
1.30009
1.28543
1.28054
1.27565
1.27077
1.28543
1.35386
1.39784
1.50048
1.61779
1.74486
1.84750
1.92082
1.95503
1.95992
1.96969
1.93548
1.90127
1.88660
1.87683
1.87194
1.85728
1.87194
1.87194
1.88172
1.85728
1.84750
1.83284
1.81818
1.78396
1.77908
1.75953
1.74975
1.73020
1.73020
1.73020
1.72043
1.69599
1.70087
1.67644
1.66666
1.64711
1.61779
1.60312
1.59335
1.56891
1.56891
1.53470
1.52492
1.49560
1.48093
1.46627
1.46138
1.44183
1.43206
1.41251
1.40762
1.39296
1.37341
1.37341
1.36852
1.35386
1.34408
1.34897
1.33431
1.32453
1.31476
1.30987
1.30498
1.30498
1.29521
1.30987
1.29521
1.28543
1.27565
1.27565
1.27077
1.27077
1.27077
1.28054
1.32942
1.40762
1.50537
1.63734
1.75953
1.86705
1.93059
1.97458
1.99413
1.98435
1.95014
1.94525
1.89149
1.90615
1.83773
1.82306
1.81818
1.84261
1.80840
1.82306
1.79374
1.80840
1.77908
1.76930
1.80840
1.78396
1.77419
1.76930
1.78396
1.77419
1.76441
1.76441
1.73998
1.73509
1.71065
1.71065
1.68132
1.67644
1.64711
1.62267
1.61290
1.61779
1.58357
1.55913
1.54936
1.54447
1.53470
1.52003
1.52981
1.50048
1.48582
1.46627
1.46138
1.45650
1.45161
1.43695
1.42717
1.43206
1.45650
1.41251
1.40273
1.40762
1.40762
1.38807
1.38807
1.40762
1.42717
1.40273
1.46138
1.54936
1.66666
1.77908
1.90127
2.03323
2.08699
2.09677
2.11632
2.10654
2.09677
2.07233
2.02346
2.03323
1.97947
1.97458
1.93548
1.94525
1.92082
1.90127
1.88660
1.87683
1.88172
1.90615
1.86705
1.87194
1.88172
1.90127
1.87683
1.87683
1.87194
1.86217
1.83284
1.81818
1.83284
1.78396
1.75464
1.76441
1.71554
1.69599
1.66666
1.66177
1.65200
1.62267
1.59335
1.58357
1.57380
1.56402
1.53470
1.53470
1.54447
1.53470
1.49071
1.48093
1.47605
1.47116
1.45161
1.45161
1.45650
1.44183
1.41739
1.40762
1.40273
1.42228
1.44183
1.51026
1.63245
1.76441
1.90127
2.03812
2.16031
2.25317
2.33137
2.31182
2.31671
2.30694
2.27761
2.24340
2.21896
2.21407
2.19452
2.17497
2.17008
2.17008
2.17986
2.13098
2.11632
2.09677
2.07233
2.04789
2.03323
2.02834
2.04301
2.00391
1.98924
1.97947
1.96969
1.93548
1.91104
1.89638
1.87683
1.87194
1.80840
1.78885
1.75953
1.72531
1.70087
1.68132
1.66666
1.63245
1.61290
1.60312
1.58846
1.56891
1.52492
1.51026
1.50048
1.48093
1.46138
1.44672
1.44672
1.42717
1.43695
1.40762
1.40273
1.38318
1.37341
1.36852
1.35874
1.34897
1.35386
1.39296
1.43206
1.53470
1.66666
1.83284
2.00391
2.14565
2.24828
2.32160
2.37047
2.35581
2.32649
2.29716
2.26783
2.26295
2.18475
2.15542
2.14076
2.12609
2.10166
2.08699
2.06256
2.04301
2.00391
1.97947
1.96480
1.95503
1.92570
1.91593
1.90615
1.89638
1.87194
1.85239
1.84261
1.82795
1.81818
1.75953
1.73509
1.71554
1.67644
1.64711
1.62267
1.61290
1.59824
1.54936
1.52981
1.51026
1.48582
1.46627
1.45650
1.45650
1.41251
1.39296
1.38318
1.37829
1.35386
1.34408
1.33919
1.32453
1.30987
1.29521
1.28543
1.28543
1.27565
1.26099
1.27077
1.28054
1.29032
1.24633
1.24144
1.24144
1.23167
1.22678
1.26099
1.32942
1.43695
1.58846
1.73998
1.91593
2.06744
2.17008
2.25317
2.29227
2.32160
2.25317
2.21407
2.17497
2.12121
2.05767
2.05278
1.97947
1.95503
1.91593
1.89638
1.87194
1.85728
1.83284
1.85239
1.81818
1.82306
1.81818
1.83773
1.81818
1.82306
1.80840
1.79374
1.78396
1.79374
1.73509
1.70576
1.67644
1.66177
1.62756
1.60312
1.57869
1.56402
1.55425
1.51026
1.49071
1.48093
1.45650
1.43695
1.42717
1.41251
1.40762
1.38807
1.38318
1.40273
1.37829
1.37341
1.33431
1.33431
1.32453
1.30498
1.30009
1.30498
1.32942
1.30009
1.27565
1.28054
1.30009
1.34897
1.45161
1.60312
1.77908
1.95992
2.08699
2.20918
2.29716
2.32160
2.33626
2.32160
2.25806
2.19452
2.13587
2.07722
2.03323
1.98435
1.93548
1.90615
1.88172
1.85239
1.82306
1.81329
1.83284
1.80351
1.80351
1.80840
1.82795
1.83284
1.81818
1.81818
1.81329
1.79863
1.76930
1.74975
1.74486
1.70087
1.66177
1.63734
1.61779
1.59335
1.56402
1.54447
1.54447
1.52981
1.47605
1.46138
1.45161
1.43695
1.41739
1.39784
1.40273
1.38807
1.37341
1.39296
1.38807
1.34897
1.33431
1.32453
1.31964
1.31964
1.32942
1.37829
1.48582
1.63734
1.81329
1.97458
2.14076
2.28250
2.35092
2.39002
2.39980
2.38025
2.33137
2.26295
2.20430
2.16031
2.09677
2.04789
2.01368
1.98924
1.95992
1.92570
1.93548
1.88660
1.86705
1.84261
1.83773
1.83773
1.84261
1.85239
1.81329
1.81329
1.79374
1.76930
1.75464
1.73998
1.73509
1.66666
1.64222
1.61779
1.59335
1.55425
1.52981
1.51026
1.49071
1.48582
1.44183
1.42228
1.41251
1.38807
1.37341
1.35874
1.35874
1.34408
1.34897
1.35386
1.31476
1.29521
1.28543
1.27565
1.27077
1.27077
1.29521
1.39784
1.50048
1.66177
1.84261
2.03323
2.19452
2.29716
2.35092
2.36559
2.36070
2.31671
2.26295
2.20918
2.16520
2.12121
2.07722
2.05278
2.04301
2.01857
2.00391
1.96480
1.94037
1.90615
1.86705
1.87194
1.82795
1.81329
1.79374
1.78396
1.78396
1.78396
1.76930
1.72531
1.70576
1.68621
1.64711
1.62267
1.60312
1.59824
1.55913
1.51026
1.49071
1.47116
1.44183
1.42228
1.40762
1.42228
1.36363
1.34408
1.32942
1.31964
1.29521
1.28054
1.28054
1.30009
1.25610
1.24144
1.24144
1.23655
1.22189
1.21212
1.23655
1.19745
1.19257
1.20723
1.27077
1.38318
1.54447
1.72043
1.90615
2.09188
2.20918
2.23362
2.26295
2.25806
2.22385
2.16031
2.11143
2.07233
2.02834
2.01857
1.95503
1.94525
1.92570
1.89149
1.88660
1.84750
1.81818
1.77908
1.75464
1.73998
1.73020
1.71065
1.70576
1.72531
1.70576
1.67644
1.63734
1.62267
1.60312
1.57380
1.53958
1.52492
1.50537
1.49071
1.44183
1.42228
1.40762
1.37829
1.36363
1.35386
1.34408
1.32453
1.31964
1.27565
1.26588
1.25122
1.22678
1.22189
1.22189
1.20723
1.20723
1.18279
1.18279
1.16813
1.15835
1.15835
1.15835
1.15347
1.14858
1.14858
1.17302
1.15835
1.12414
1.12414
1.14858
1.20723
1.31476
1.46627
1.64222
1.82306
1.95992
2.07233
2.13098
2.15542
2.13587
2.10166
2.06256
2.01857
1.95992
1.91593
1.88172
1.85728
1.82306
1.82306
1.78885
1.77419
1.74486
1.72531
1.71554
1.71065
1.70087
1.69110
1.69110
1.69599
1.68621
1.67644
1.67644
1.65200
1.62756
1.60312
1.58846
1.58846
1.56402
1.51515
1.49560
1.48093
1.46138
1.43695
1.42717
1.43695
1.39296
1.37341
1.35874
1.34897
1.33919
1.32453
1.32453
1.30498
1.29521
1.28054
1.27565
1.27565
1.26588
1.25122
1.25122
1.24633
1.24144
1.22678
1.25610
1.22189
1.24144
1.28054
1.37341
1.51026
1.68132
1.83773
1.95992
2.06744
2.13587
2.14565
2.16031
2.10166
2.06256
1.99902
1.94525
1.90127
1.86705
1.81818
1.79374
1.76441
1.75464
1.72531
1.70576
1.70087
1.73020
1.70087
1.70087
1.70576
1.72531
1.73020
1.70576
1.70087
1.69110
1.66666
1.65200
1.62267
1.59824
1.57869
1.54447
1.52003
1.50537
1.48582
1.47605
1.44672
1.43206
1.42228
1.39296
1.38807
1.37829
1.36852
1.37829
1.33919
1.33431
1.32942
1.31476
1.30498
1.30009
1.29521
1.27565
1.27565
1.30009
1.26588
1.26588
1.30498
1.39784
1.54447
1.73020
1.86705
2.03323
2.16031
2.23362
2.26783
2.27272
2.25317
2.20430
2.16520
2.11143
2.08211
2.03812
2.00879
2.01857
1.98435
1.96480
1.94037
1.91593
1.90127
1.88172
1.84750
1.82795
1.82306
1.81818
1.80840
1.78885
1.78885
1.77419
1.74486
1.72531
1.71065
1.69110
1.66177
1.65200
1.60312
1.58357
1.54936
1.52492
1.51515
1.50048
1.47116
1.44183
1.42717
1.41251
1.39296
1.37341
1.36852
1.35874
1.34408
1.34408
1.32453
1.31964
1.30498
1.29521
1.29032
1.29032
1.27077
1.26099
1.28054
1.32942
1.36363
1.47605
1.63734
1.82306
1.98924
2.12609
2.22385
2.28738
2.31182
2.25806
2.21896
2.18475
2.13098
2.08211
2.05278
2.03812
2.02346
1.99902
1.98435
1.96969
1.95014
1.91104
1.88172
1.88660
1.86705
1.80840
1.79374
1.78885
1.80351
1.75464
1.74486
1.73509
1.71554
1.69110
1.69599
1.63734
1.61779
1.57869
1.55425
1.53958
1.52003
1.52003
1.46138
1.44183
1.42717
1.40273
1.37829
1.36363
1.35386
1.33431
1.32453
1.30009
1.29032
1.27565
1.25610
1.25122
1.25122
1.23655
1.24633
1.21700
1.21212
1.20723
1.18768
1.19257
1.21212
1.20234
1.16813
1.17790
1.22189
1.30498
1.42717
1.59824
1.77908
1.92570
2.03323
2.11632
2.15542
2.15542
2.12121
2.07233
2.03323
1.98435
1.95992
1.88660
1.88172
1.83773
1.84261
1.79863
1.77908
1.75953
1.73020
1.71554
1.71065
1.71554
1.70087
1.69599
1.69599
1.70087
1.70087
1.66666
1.65200
1.64222
1.60801
1.59335
1.57869
1.55425
1.52003
1.50048
1.48582
1.46627
1.43695
1.42717
1.43695
1.40273
1.38318
1.36363
1.35386
1.34897
1.33431
1.32453
1.31476
1.31964
1.30009
1.29032
1.27565
1.27077
1.26099
1.25122
1.23655
1.23655
1.23167
1.21700
1.22678
1.26588
1.34408
1.40762
1.55425
1.71554
1.87683
1.99413
2.08699
2.14076
2.16031
2.12609
2.09188
2.05278
1.99902
1.94037
1.89638
1.86217
1.83284
1.79863
1.77419
1.74975
1.74975
1.73020
1.69599
1.70087
1.70576
1.69599
1.70087
1.70576
1.72043
1.71554
1.70087
1.69110
1.68132
1.65689
1.63245
1.61779
1.59335
1.56402
1.53958
1.52003
1.50048
1.48582
1.45650
1.44672
1.44183
1.42228
1.39296
1.38318
1.37341
1.36363
1.34408
1.34408
1.34897
1.32942
1.31476
1.30498
1.30009
1.30009
1.30009
1.27565
1.27077
1.26588
1.25610
1.27077
1.32453
1.42228
1.55425
1.70087
1.87683
2.03323
2.14076
2.22385
2.25317
2.25806
2.21896
2.20430
2.12609
2.08211
2.05278
1.96969
1.94525
1.91593
1.88172
1.88172
1.83284
1.81818
1.79374
1.77908
1.77908
1.78885
1.80351
1.78396
1.79374
1.80351
1.79374
1.77908
1.75953
1.74975
1.72531
1.69110
1.67155
1.65200
1.64222
1.58846
1.56402
1.54936
1.52981
1.50048
1.48582
1.48093
1.49071
1.43206
1.41739
1.40762
1.40273
1.38318
1.36852
1.36852
1.36363
1.34897
1.35874
1.32942
1.32453
1.30498
1.30009
1.30498
1.35386
1.43695
1.57380
1.74975
1.95014
2.10654
2.23851
2.36559
2.39002
2.39002
2.36559
2.33137
2.29716
2.23362
2.18475
2.15053
2.12121
2.08699
2.06256
2.04301
2.06744
2.00391
1.96480
1.94037
1.92570
1.92082
1.88660
1.87683
1.87683
1.86705
1.85239
1.82795
1.81329
1.79374
1.75464
1.73020
1.70576
1.68132
1.64222
1.62756
1.62267
1.56402
1.52981
1.50537
1.48093
1.46138
1.43206
1.41739
1.40762
1.40273
1.38318
1.34408
1.32942
1.31964
1.30009
1.29032
1.28054
1.28054
1.26099
1.24144
1.22678
1.22678
1.21700
1.24144
1.31476
1.43695
1.58357
1.77908
1.92082
2.06744
2.15542
2.19941
2.21896
2.20918
2.17008
2.12121
2.08211
2.05278
2.01857
1.98435
1.96969
1.96480
1.95503
1.92082
1.89638
1.88660
1.83773
1.80351
1.77908
1.76441
1.74975
1.72531
1.71554
1.71065
1.69599
1.67155
1.65200
1.63734
1.61290
1.57380
1.55913
1.53470
1.52003
1.48582
1.47116
1.43206
1.41251
1.38318
1.35874
1.34897
1.33431
1.30987
1.29032
1.29032
1.30009
1.24633
1.22678
1.21700
1.20723
1.18768
1.17790
1.17302
1.16813
1.18279
1.13880
1.13391
1.12903
1.12414
1.11436
1.11436
1.11436
1.12903
1.08993
1.08504
1.08504
1.09970
1.13880
1.22189
1.35386
1.52003
1.66666
1.79863
1.87194
1.94037
1.95992
1.95992
1.95503
1.92570
1.87194
1.84261
1.81329
1.79374
1.75953
1.74975
1.73998
1.73509
1.71065
1.69599
1.68621
1.71554
1.66177
1.65200
1.65689
1.66177
1.64711
1.64222
1.63734
1.63734
1.63734
1.59824
1.58357
1.57869
1.56402
1.52003
1.50537
1.49560
1.47116
1.46627
1.47116
1.46138
1.40762
1.38807
1.37829
1.36363
1.35874
1.34897
1.32942
1.32453
1.31476
1.30009
1.30009
1.32453
1.28543
1.27077
1.27077
1.28054
1.26099
1.25122
1.23655
1.24633
1.26588
1.22189
1.22678
1.25610
1.31476
1.40762
1.53958
1.66177
1.77908
1.86217
1.92570
1.99902
1.97458
1.95014
1.93059
1.90127
1.89149
1.83284
1.84261
1.79374
1.79374
1.75953
1.74486
1.73020
1.73020
1.71065
1.69599
1.72531
1.70087
1.70087
1.69599
1.73998
1.71554
1.70576
1.69599
1.68621
1.69599
1.67155
1.65200
1.63734
1.62756
1.60801
1.58357
1.60801
1.56402
1.54936
1.53470
1.52492
1.52003
1.51026
1.52492
1.47605
1.47116
1.46138
1.44672
1.46138
1.42717
1.41739
1.39296
1.38807
1.39296
1.38318
1.35874
1.35386
1.34897
1.34897
1.33919
1.32453
1.34408
1.39296
1.46627
1.60801
1.70576
1.84261
1.94525
2.02834
2.08211
2.14565
2.09677
2.08211
2.05767
2.04301
2.00879
1.98435
1.97458
1.97947
1.96480
1.95503
1.94525
1.94525
1.92082
1.91593
1.87194
1.86705
1.88172
1.82795
1.82306
1.82306
1.81329
1.79374
1.78885
1.80840
1.75953
1.73509
1.71554
1.71554
1.68621
1.66177
1.64222
1.62756
1.60801
1.58846
1.57380
1.57380
1.57869
1.55425
1.52003
1.50048
1.49071
1.46627
1.45650
1.44672
1.44672
1.43206
1.42717
1.43206
1.40762
1.38807
1.38318
1.37829
1.37341
1.36363
1.34897
1.34897
1.37341
1.32942
1.32942
1.36363
1.44183
1.54447
1.66666
1.80351
1.95014
2.01857
2.07722
2.11143
2.12609
2.11143
2.07722
2.08699
2.03812
2.02346
1.98924
1.97947
1.97458
1.96969
1.97947
1.93548
1.93548
1.91104
1.88172
1.90127
1.85728
1.85239
1.83284
1.84261
1.82795
1.81818
1.79374
1.77908
1.76930
1.75953
1.74486
1.70576
1.68621
1.66666
1.64222
1.64711
1.60312
1.58846
1.55425
1.53470
1.52492
1.51026
1.49071
1.47605
1.46627
1.45650
1.44183
1.41739
1.40273
1.39784
1.37829
1.36852
1.35386
1.34897
1.34408
1.34897
1.31964
1.31964
1.30987
1.30009
1.29032
1.29032
1.29032
1.29032
1.27077
1.27565
1.29521
1.33431
1.43206
1.54936
1.67644
1.78396
1.88660
1.96969
2.01857
2.05278
2.02346
2.00391
1.98924
1.94037
1.91593
1.88660
1.87683
1.83284
1.82306
1.80351
1.78885
1.76441
1.75464
1.74975
1.78396
1.75464
1.75464
1.75953
1.76930
1.75953
1.75464
1.75464
1.74975
1.72531
1.70576
1.69110
1.68132
1.66666
1.62756
1.61290
1.60312
1.58357
1.58846
1.53958
1.52981
1.51515
1.49560
1.48582
1.47605
1.46627
1.47605
1.43206
1.42717
1.41739
1.40762
1.40273
1.42228
1.38807
1.38318
1.35874
1.35874
1.34897
1.33431
1.32942
1.33919
1.37341
1.41251
1.51026
1.63245
1.77419
1.88660
2.00879
2.08699
2.14565
2.15053
2.16520
2.14076
2.12609
2.10166
2.05767
2.03812
2.01857
1.99413
1.97458
1.96480
1.95503
1.93548
1.90615
1.89149
1.90127
1.86705
1.85728
1.85728
1.86217
1.84750
1.83284
1.82795
1.85239
1.79863
1.77419
1.76441
1.75953
1.71554
1.68621
1.66666
1.65200
1.63245
1.60312
1.61779
1.56402
1.54447
1.52003
1.51026
1.50048
1.48582
1.46627
1.45161
1.47116
1.43695
1.40762
1.40273
1.39784
1.38318
1.37341
1.36363
1.35874
1.35874
1.34897
1.34897
1.32453
1.33919
1.37341
1.45650
1.57869
1.73020
1.87683
2.01857
2.14076
2.22873
2.26295
2.27272
2.27272
2.26295
2.26295
2.18963
2.17008
2.15053
2.12609
2.11143
2.10166
2.09677
2.07233
2.04301
2.02834
2.00391
1.97947
1.95014
1.93548
1.92570
1.91593
1.92570
1.88172
1.87194
1.85239
1.82795
1.84261
1.78885
1.76441
1.73020
1.70087
1.68132
1.66666
1.66177
1.60312
1.58357
1.56891
1.53958
1.52003
1.50537
1.49560
1.47116
1.48093
1.43206
1.42717
1.40273
1.38807
1.37341
1.36852
1.35874
1.37341
1.33431
1.32453
1.30987
1.30009
1.29521
1.29032
1.28543
1.29032
1.27565
1.27077
1.26588
1.25610
1.25122
1.25122
1.25122
1.25122
1.26588
1.32942
1.42717
1.56402
1.72531
1.89638
2.04301
2.16520
2.21896
2.27272
2.27761
2.25317
2.23362
2.18475
2.14565
2.08211
2.04789
2.01857
1.99413
1.95992
1.94037
1.92082
1.90615
1.87683
1.86705
1.86217
1.87194
1.85728
1.85728
1.86217
1.87683
1.85239
1.83284
1.82306
1.81818
1.77908
1.75464
1.73509
1.71065
1.68132
1.67644
1.63245
1.61290
1.58357
1.56402
1.54447
1.53958
1.51515
1.49560
1.49071
1.46627
1.44672
1.42717
1.42228
1.41251
1.40273
1.38807
1.40273
1.37341
1.36363
1.34897
1.33919
1.33431
1.32942
1.31964
1.31476
1.34408
1.32453
1.36363
1.44183
1.57869
1.73509
1.90127
2.02834
2.15053
2.23851
2.27272
2.28250
2.30205
2.24340
2.17986
2.13587
2.08211
2.03812
2.00879
1.95992
1.92082
1.90127
1.86705
1.84261
1.82795
1.82306
1.82306
1.80840
1.81329
1.82795
1.82306
1.81818
1.82306
1.84750
1.78885
1.76441
1.74486
1.73020
1.70087
1.66666
1.63734
1.61779
1.58846
1.56402
1.54447
1.52981
1.51515
1.48582
1.46627
1.45650
1.44183
1.41739
1.40762
1.40273
1.39296
1.37829
1.37829
1.39296
1.35386
1.33431
1.32453
1.32453
1.31964
1.30009
1.29521
1.31476
1.35874
1.42717
1.55913
1.73020
1.92570
2.08699
2.22873
2.36070
2.39002
2.39980
2.38514
2.35581
2.31671
2.25806
2.20918
2.17008
2.14565
2.14076
2.08699
2.08699
2.06256
2.02834
2.00391
1.97458
1.95503
1.93059
1.92570
1.89638
1.89149
1.87683
1.86705
1.83773
1.82795
1.80840
1.77419
1.74486
1.72531
1.72043
1.68621
1.62756
1.60312
1.57869
1.53958
1.51515
1.49560
1.47605
1.45161
1.43695
1.41739
1.40762
1.37829
1.36363
1.35386
1.34408
1.32453
1.31476
1.30987
1.30498
1.29521
1.28054
1.27077
1.26099
1.25122
1.24633
1.27077
1.32942
1.42717
1.57380
1.73998
1.91593
2.04789
2.15053
2.22385
2.27761
2.24828
2.20430
2.17008
2.13587
2.08699
2.07233
2.01368
2.00879
1.97947
1.95992
1.94037
1.93059
1.89638
1.85728
1.83284
1.81329
1.79374
1.77908
1.75953
1.75464
1.74486
1.72531
1.71065
1.70087
1.71065
1.64222
1.61779
1.59335
1.57380
1.53470
1.51026
1.49560
1.47605
1.45650
1.44183
1.41251
1.39784
1.36852
1.35386
1.33919
1.33431
1.30987
1.31964
1.28543
1.28054
1.26099
1.25122
1.24633
1.24144
1.23167
1.22678
1.22678
1.25122
1.20234
1.19745
1.18768
1.18768
1.18279
1.20723
1.28543
1.40762
1.54936
1.66666
1.81818
1.95503
2.03812
2.08211
2.12121
2.09677
2.05767
2.00879
1.95992
1.93059
1.89149
1.85239
1.82795
1.81329
1.79374
1.79863
1.74486
1.72531
1.71554
1.69599
1.69110
1.69110
1.69110
1.71554
1.67644
1.67644
1.66666
1.64222
1.63245
1.62267
1.60312
1.56891
1.54936
1.52981
1.51026
1.48582
1.47116
1.46627
1.47116
1.41251
1.39784
1.38318
1.37829
1.36363
1.34897
1.33431
1.32942
1.31964
1.30498
1.30009
1.30009
1.29032
1.28054
1.27565
1.27077
1.26588
1.25122
1.25122
1.24633
1.24144
1.26099
1.33431
1.40273
1.53470
1.67155
1.82795
1.96480
2.07722
2.09188
2.10654
2.10654
2.07722
2.02346
2.01368
1.94037
1.92082
1.86217
1.86217
1.81818
1.80840
1.77419
1.75464
1.74486
1.74975
1.72043
1.72043
1.72531
1.76441
1.71554
1.71065
1.71065
1.73998
1.68621
1.66666
1.64711
1.63734
1.62756
1.57869
1.55913
1.54447
1.51515
1.49560
1.47605
1.47116
1.44672
1.44672
1.44183
1.41251
1.39296
1.37829
1.36363
1.35874
1.34897
1.33919
1.34897
1.36363
1.31964
1.30987
1.30009
1.30009
1.29521
1.28054
1.28054
1.27565
1.30009
1.35386
1.46138
1.61290
1.79374
1.95014
2.08699
2.18963
2.25317
2.25806
2.25317
2.24828
2.18963
2.13587
2.12609
2.08211
2.07722
2.06744
2.04301
2.04301
2.02834
2.00391
1.96969
1.97947
1.91593
1.88172
1.85728
1.84261
1.83773
1.83284
1.80351
1.79374
1.78396
1.76930
1.75464
1.71554
1.69599
1.67155
1.64222
1.62267
1.61290
1.60801
1.57380
1.55913
1.50537
1.48582
1.45650
1.44183
1.42717
1.41251
1.38807
1.38318
1.37829
1.38318
1.36852
1.33431
1.32942
1.32453
1.30987
1.30498
1.30498
1.30009
1.29032
1.29521
1.27077
1.27077
1.27077
1.30009
1.37341
1.50537
1.65200
1.84750
1.99413
2.13587
2.21407
2.25806
2.26783
2.28250
2.21407
2.16520
2.14076
2.09677
2.06256
2.03812
2.02834
2.03323
2.00879
1.98435
1.96480
1.94037
1.91104
1.88172
1.85239
1.87194
1.81818
1.79374
1.78396
1.78396
1.77419
1.73998
1.72531
1.70576
1.68621
1.65200
1.62756
1.61290
1.59335
1.58357
1.52981
1.51026
1.49071
1.46138
1.43695
1.43206
1.41739
1.39296
1.40762
1.35874
1.34897
1.32453
1.31476
1.30498
1.30498
1.29032
1.28054
1.30498
1.30009
1.25610
1.24633
1.24144
1.23655
1.23167
1.22189
1.23167
1.23167
1.21700
1.20723
1.20723
1.20723
1.21212
1.20234
1.20723
1.21700
1.23167
1.19257
1.19745
1.21700
1.26099
1.35874
1.52003
1.66666
1.84750
1.99902
2.13098
2.22873
2.28250
2.25317
2.22385
2.18475
2.14565
2.06256
2.01368
1.96480
1.93548
1.89149
1.85728
1.84261
1.84261
1.80351
1.78885
1.78885
1.79374
1.78885
1.80840
1.80840
1.81818
1.80351
1.80351
1.79374
1.78396
1.75464
1.73998
1.73998
1.69110
1.65689
1.62756
1.61290
1.61290
1.56402
1.53958
1.52003
1.51026
1.49071
1.47116
1.46627
1.45650
1.47116
1.41739
1.40273
1.40762
1.38807
1.37829
1.38807
1.39296
1.35386
1.33919
1.32453
1.32942
1.31964
1.31476
1.31476
1.32942
1.30498
1.29032
1.28543
1.28543
1.28543
1.27565
1.27077
1.28543
1.32453
1.40762
1.50537
1.66666
1.85239
2.00879
2.15053
2.28738
2.32160
2.32649
2.31182
2.27272
2.23362
2.18963
2.09677
2.04789
2.00391
1.95014
1.91104
1.88660
1.86705
1.83773
1.82306
1.81329
1.82306
1.81818
1.82795
1.83284
1.85239
1.85239
1.84750
1.85239
1.83284
1.81329
1.78396
1.75953
1.73998
1.72531
1.66666
1.63734
1.62267
1.59335
1.56402
1.53958
1.52981
1.53470
1.48093
1.46627
1.45650
1.44672
1.42717
1.42228
1.44672
1.40273
1.38807
1.37829
1.37341
1.36852
1.35874
1.35386
1.35386
1.35874
1.36852
1.31964
1.31964
1.33431
1.36852
1.45161
1.59824
1.78396
1.97458
2.16031
2.34604
2.42913
2.48289
2.48778
2.47311
2.44379
2.38514
2.32160
2.27761
2.23362
2.19452
2.16520
2.15053
2.13587
2.11143
2.08699
2.05278
2.03323
2.04301
1.97458
1.95992
1.95503
1.95014
1.92082
1.91104
1.90127
1.88660
1.85728
1.85239
1.82795
1.78396
1.74486
1.71554
1.68621
1.66177
1.62756
1.59824
1.57380
1.55913
1.53470
1.51515
1.48093
1.46627
1.44183
1.42717
1.41251
1.40273
1.37829
1.37341
1.37341
1.35874
1.33919
1.32942
1.32453
1.31964
1.30498
1.29032
1.28543
1.30009
1.34897
1.41739
1.55913
1.75464
1.95014
2.12121
2.26295
2.36559
2.40469
2.40957
2.36559
2.32649
2.27272
2.20918
2.16031
2.13098
2.11143
2.07233
2.06256
2.05278
2.02834
2.00391
1.95503
1.92570
1.89149
1.85728
1.83284
1.81818
1.80840
1.77908
1.76441
1.75464
1.74486
1.74486
1.68621
1.66666
1.63734
1.59824
1.57380
1.54447
1.52492
1.49560
1.47116
1.44672
1.42717
1.39784
1.37341
1.35874
1.34897
1.33431
1.30498
1.29521
1.28543
1.26588
1.25122
1.24144
1.24633
1.26099
1.21700
1.21212
1.20723
1.19745
1.19257
1.18768
1.20234
1.19745
1.16813
1.16324
1.17302
1.20723
1.28543
1.42228
1.58846
1.77908
1.94037
2.08211
2.17986
2.22873
2.22385
2.20430
2.16031
2.11143
2.03812
1.98924
1.95014
1.92082
1.88660
1.86217
1.85239
1.86705
1.79863
1.77908
1.79863
1.75953
1.73998
1.74975
1.73509
1.73509
1.72531
1.71554
1.70576
1.72531
1.69599
1.64711
1.62756
1.60801
1.57869
1.54447
1.52981
1.53470
1.48093
1.45650
1.44183
1.42228
1.40762
1.38318
1.37341
1.37341
1.36852
1.37341
1.31964
1.31964
1.30987
1.29032
1.28054
1.28543
1.29032
1.28543
1.25610
1.25122
1.25122
1.23655
1.23167
1.23167
1.22678
1.21212
1.22189
1.26588
1.35386
1.48582
1.65689
1.84261
2.01857
2.14565
2.20918
2.25317
2.26295
2.25317
2.16520
2.11143
2.07233
2.00391
1.96480
1.93059
1.91104
1.90615
1.86217
1.84261
1.82795
1.80840
1.77908
1.77419
1.79863
1.76441
1.75464
1.75464
1.75953
1.75953
1.72531
1.71065
1.69599
1.67155
1.63245
1.61290
1.62267
1.55913
1.52492
1.50048
1.48582
1.47605
1.47605
1.42228
1.41251
1.39784
1.37341
1.36363
1.35874
1.34897
1.33431
1.35386
1.31476
1.30987
1.29521
1.28543
1.28543
1.28543
1.27077
1.26099
1.26588
1.26099
1.26099
1.24633
1.23655
1.26099
1.30498
1.41251
1.56891
1.76930
1.95992
2.15542
2.25806
2.35092
2.37536
2.37047
2.33626
2.29227
2.22873
2.17497
2.15542
2.11632
2.09188
2.06744
2.06256
2.06256
2.03812
2.02834
1.97947
1.95503
1.93059
1.89638
1.88172
1.87683
1.88172
1.83773
1.82795
1.81818
1.79863
1.76930
1.77908
1.72043
1.69599
1.65689
1.63245
1.60801
1.58357
1.55425
1.56402
1.52492
1.49071
1.46138
1.44183
1.43206
1.41739
1.39296
1.37341
1.36852
1.36852
1.37341
1.32942
1.31964
1.31476
1.30009
1.29521
1.29032
1.30987
1.31476
1.27077
1.26588
1.26588
1.25122
1.23655
1.24144
1.24633
1.26588
1.30009
1.41251
1.57869
1.77419
1.96480
2.15053
2.29716
2.39980
2.40469
2.39980
2.37047
2.31671
2.24828
2.19941
2.15542
2.11632
2.10654
2.06256
2.08211
2.04301
2.00879
2.02346
1.96480
1.94037
1.90615
1.88660
1.87683
1.86705
1.85239
1.87194
1.82795
1.81818
1.78885
1.76930
1.74975
1.75464
1.68132
1.64711
1.62267
1.59824
1.56891
1.54447
1.53470
1.50537
1.48093
1.45650
1.44183
1.42717
1.40762
1.38807
1.37829
1.36852
1.35874
1.36852
1.32942
1.32453
1.30498
1.29032
1.29032
1.28543
1.28054
1.26588
1.29032
1.24633
1.24633
1.23167
1.22678
1.23167
1.22678
1.21700
1.21212
1.21212
1.21700
1.23655
1.19745
1.20234
1.22189
1.27565
1.39296
1.56402
1.76930
1.95992
2.12609
2.26783
2.35581
2.38025
2.39002
2.35092
2.29716
2.21896
2.15053
2.09677
2.04789
1.99413
1.95503
1.93059
1.92570
1.89149
1.86217
1.85728
1.85728
1.84750
1.88172
1.86705
1.87683
1.87194
1.87194
1.86705
1.89149
1.83773
1.80351
1.77908
1.76441
1.73509
1.69110
1.65689
1.64222
1.61290
1.58357
1.56891
1.54936
1.53958
1.50048
1.48582
1.47605
1.46138
1.43206
1.42717
1.42228
1.41739
1.39784
1.37829
1.36852
1.36363
1.34897
1.34408
1.33431
1.33431
1.31476
1.30987
1.30987
1.30498
1.32453
1.27565
1.27565
1.28543
1.30987
1.40273
1.54936
1.74486
1.92570
2.11143
2.27272
2.39980
2.47800
2.45845
2.43890
2.39980
2.33137
2.26295
2.20918
2.15542
2.10166
2.05767
2.03323
2.02346
1.98924
1.95992
1.94037
1.92570
1.94037
1.88660
1.88172
1.88660
1.88660
1.86705
1.86217
1.85239
1.83773
1.80840
1.78885
1.79374
1.75464
1.69110
1.66177
1.63734
1.60801
1.57380
1.54447
1.52492
1.50537
1.48093
1.46627
1.44183
1.42717
1.40762
1.39296
1.37829
1.36852
1.34408
1.33919
1.36363
1.31964
1.30009
1.29521
1.28543
1.29032
1.27565
1.27077
1.26588
1.26099
1.25122
1.26588
1.24144
1.27565
1.35386
1.49071
1.68132
1.90127
2.11143
2.30205
2.40469
2.48778
2.51221
2.48778
2.44868
2.39980
2.35092
2.25806
2.20430
2.19941
2.12609
2.09188
2.07722
2.05767
2.03812
2.00391
1.97458
1.94525
1.92570
1.90127
1.91104
1.88172
1.88172
1.85728
1.84750
1.83773
1.82306
1.78885
1.75464
1.72531
1.70087
1.66177
1.63245
1.60801
1.58357
1.54447
1.52003
1.50537
1.50537
1.45161
1.43206
1.41251
1.39784
1.37829
1.38807
1.34408
1.33431
1.31476
1.30009
1.29032
1.28054
1.27077
1.26588
1.27565
1.27565
1.22678
1.21700
1.20723
1.20723
1.19745
1.19257
1.18768
1.21212
1.17790
1.16813
1.16813
1.18768
1.25122
1.36363
1.53958
1.73998
1.95503
2.13098
2.27272
2.37536
2.41935
2.40957
2.38025
2.33626
2.26783
2.18475
2.13098
2.07722
2.03812
1.98924
1.96480
1.94525
1.92570
1.88660
1.87194
1.85239
1.84261
1.81818
1.81818
1.82795
1.83773
1.80840
1.78885
1.77908
1.76930
1.73509
1.70576
1.68132
1.66666
1.63245
1.62267
1.59335
1.54936
1.52003
1.49071
1.47116
1.45161
1.42228
1.40762
1.38807
1.38318
1.36852
1.33431
1.31964
1.30987
1.30009
1.28054
1.27077
1.26588
1.26099
1.26588
1.23167
1.22678
1.21700
1.20234
1.20234
1.20234
1.21212
1.18768
1.18279
1.18279
1.18279
1.17302
1.16813
1.16813
1.16813
1.16813
1.17790
1.23655
1.34897
1.49560
1.68621
1.88172
2.06256
2.18963
2.29716
2.32649
2.32160
2.28250
2.22873
2.17008
2.10654
2.02834
1.95992
1.90615
1.86705
1.82795
1.80351
1.75953
1.74486
1.72531
1.72531
1.74486
1.78396
1.76441
1.76930
1.78396
1.79374
1.78885
1.77419
1.78396
1.73998
1.71554
1.67644
1.64711
1.62267
1.58846
1.56402
1.53958
1.53958
1.49560
1.46627
1.45161
1.43695
1.42228
1.39784
1.38807
1.38318
1.39296
1.37341
1.36852
1.36363
1.34897
1.30009
1.29032
1.28054
1.27565
1.26099
1.25122
1.25122
1.25122
1.23655
1.23167
1.23167
1.26099
1.21700
1.20723
1.20723
1.20723
1.20234
1.20234
1.23167
1.29032
1.40273
1.56891
1.78396
2.01368
2.19941
2.34604
2.45845
2.53176
2.54154
2.51710
2.46334
2.41446
2.35581
2.27272
2.21896
2.20918
2.14565
2.10654
2.09188
2.07722
2.05767
2.05767
2.00879
1.98924
1.97947
1.95503
1.95992
1.94525
1.94037
1.91104
1.90127
1.89149
1.87683
1.85239
1.82306
1.77908
1.75464
1.71065
1.68132
1.64711
1.62756
1.59335
1.56891
1.54936
1.53470
1.52981
1.47116
1.45161
1.44183
1.41251
1.39784
1.38318
1.38318
1.35874
1.34408
1.34408
1.35874
1.30987
1.29521
1.28543
1.28543
1.27077
1.26099
1.25610
1.25610
1.27077
1.22189
1.22189
1.24633
1.30987
1.42228
1.59824
1.83773
2.04301
2.17986
2.31671
2.41935
2.45845
2.44868
2.41935
2.37047
2.31182
2.22873
2.17008
2.15542
2.08699
2.04301
2.02834
2.00879
1.99413
1.96969
1.93059
1.90615
1.89149
1.86705
1.84750
1.83773
1.83284
1.81329
1.79863
1.79374
1.77908
1.75464
1.71554
1.69110
1.67155
1.63245
1.59824
1.56891
1.55425
1.52492
1.51026
1.47116
1.45161
1.42717
1.40273
1.38318
1.37341
1.35386
1.32942
1.30987
1.30987
1.30009
1.30498
1.26588
1.25610
1.25122
1.23167
1.22678
1.22189
1.21212
1.20723
1.20234
1.20234
1.22678
1.18768
1.16813
1.17790
1.20234
1.26588
1.38807
1.56402
1.75464
1.93059
2.09188
2.20918
2.28738
2.29227
2.30694
2.23851
2.18963
2.11143
2.04789
2.02346
1.95503
1.90615
1.87194
1.85239
1.83773
1.82795
1.78885
1.77419
1.77908
1.78885
1.75464
1.75953
1.76930
1.76930
1.74975
1.74486
1.73998
1.72043
1.69110
1.67644
1.64711
1.61779
1.57869
1.55913
1.53470
1.52003
1.49071
1.50537
1.45650
1.43695
1.41251
1.39784
1.38318
1.37341
1.34897
1.34408
1.34408
1.34897
1.30498
1.29521
1.29032
1.28543
1.26588
1.26588
1.26099
1.26099
1.24633
1.26588
1.22678
1.22678
1.23167
1.28054
1.38318
1.53470
1.70576
1.90615
2.02834
2.14565
2.19941
2.21407
2.21407
2.17497
2.11143
2.07233
1.97947
1.93548
1.88172
1.83284
1.84261
1.78885
1.75464
1.73509
1.71554
1.71065
1.69599
1.69110
1.70087
1.74486
1.71065
1.70087
1.70087
1.69110
1.68132
1.65689
1.63734
1.63734
1.57869
1.53958
1.51515
1.48582
1.46138
1.42717
1.40762
1.38807
1.37829
1.34897
1.32453
1.31476
1.30498
1.28543
1.27077
1.26588
1.26099
1.24633
1.22678
1.21212
1.20723
1.18768
1.16813
1.15835
1.15835
1.17790
1.26099
1.32942
1.47605
1.62267
1.77419
1.89638
1.99413
2.03323
2.02834
2.01368
1.98435
1.93548
1.89149
1.86705
1.84750
1.82795
1.80351
1.80351
1.79374
1.77908
1.74975
1.72043
1.70087
1.66666
1.63245
1.61779
1.63734
1.59824
1.58357
1.57380
1.56891
1.55425
1.52492
1.51026
1.49560
1.50048
1.44672
1.41251
1.39296
1.37341
1.34408
1.31476
1.30987
1.30498
1.26588
1.24633
1.23167
1.22189
1.20234
1.19257
1.18279
1.17790
1.18768
1.14858
1.14369
1.13880
1.12414
1.10948
1.09970
1.09970
1.10459
1.14369
1.19257
1.30009
1.41739
1.54936
1.66177
1.75464
1.79863
1.80840
1.81329
1.80840
1.76441
1.73020
1.71554
1.71065
1.70576
1.70087
1.69599
1.70576
1.72531
1.67155
1.65689
1.62756
1.60801
1.57869
1.55425
1.54447
1.53470
1.52003
1.52981
1.50537
1.49560
1.47605
1.48093
1.44672
1.43206
1.40762
1.40273
1.37829
1.35874
1.33431
1.33919
1.30987
1.29521
1.28054
1.26099
1.25122
1.24633
1.22189
1.24633
1.20723
1.20234
1.17790
1.20234
1.16813
1.17302
1.16324
1.18768
1.14858
1.14858
1.14369
1.14369
1.12903
1.12903
1.12414
1.10948
1.10948
1.11925
1.12414
1.15835
1.24144
1.33431
1.44183
1.53958
1.61290
1.66666
1.68621
1.66666
1.65200
1.62267
1.59824
1.56402
1.54936
1.54936
1.54447
1.53470
1.56402
1.54936
1.53470
1.52003
1.50537
1.51026
1.49560
1.47116
1.47605
1.47605
1.49560
1.47605
1.47116
1.47116
1.49560
1.45650
1.43206
1.42228
1.41739
1.42228
1.38807
1.37829
1.36363
1.35386
1.33919
1.33919
1.32942
1.31476
1.30498
1.30498
1.29521
1.28543
1.27565
1.30987
1.27077
1.26588
1.25610
1.25610
1.26099
1.25122
1.23655
1.23655
1.25122
1.23167
1.22678
1.22189
1.23167
1.22189
1.21700
1.24633
1.21212
1.21700
1.20234
1.22189
1.21212
1.21700
1.23167
1.29032
1.36363
1.45161
1.52981
1.62756
1.65200
1.67644
1.66177
1.65200
1.61290
1.58846
1.55425
1.53470
1.52003
1.52003
1.52003
1.51026
1.52003
1.54447
1.51515
1.50537
1.50537
1.51026
1.50048
1.49560
1.52492
1.50537
1.50537
1.51026
1.49560
1.50048
1.49071
1.48582
1.46627
1.46627
1.45650
1.46627
1.43695
1.43206
1.42717
1.41739
1.40762
1.40762
1.40762
1.38807
1.38318
1.38807
1.37829
1.36852
1.36852
1.36363
1.36363
1.37829
1.34408
1.34897
1.35386
1.33431
1.32942
1.34408
1.33431
1.32453
1.32942
1.32942
1.32453
1.31476
1.31964
1.31964
1.32453
1.31964
1.31476
1.31476
1.32453
1.30987
1.30498
1.30987
1.33431
1.37829
1.43206
1.52003
1.62267
1.68621
1.73998
1.77419
1.82306
1.76930
1.76441
1.71554
1.70087
1.68132
1.66666
1.68621
1.67155
1.67644
1.68132
1.69110
1.70087
1.69110
1.70576
1.66666
1.68621
1.65689
1.65200
1.64711
1.65689
1.65200
1.64222
1.64222
1.64222
1.64222
1.62267
1.61779
1.61290
1.61290
1.58846
1.57869
1.58357
1.57380
1.55913
1.54936
1.54936
1.55425
1.54936
1.52003
1.51515
1.51515
1.50048
1.49560
1.51026
1.49560
1.48582
1.49071
1.47605
1.47605
1.47116
1.46627
1.45650
1.45650
1.45161
1.44183
1.44183
1.44672
1.43206
1.42228
1.45650
1.42717
1.42228
1.44183
1.41251
1.41739
1.41251
1.40762
1.40762
1.41251
1.40273
1.39784
1.41251
1.44672
1.50048
1.56891
1.65689
1.74975
1.82306
1.86217
1.87683
1.89149
1.86705
1.84750
1.80840
1.78396
1.77908
1.74486
1.73998
1.73998
1.75464
1.74486
1.74975
1.75953
1.75953
1.74975
1.73998
1.73998
1.78396
1.73998
1.74486
1.75464
1.75464
1.76930
1.73998
1.73998
1.73509
1.71554
1.70576
1.70087
1.69599
1.68132
1.67155
1.66177
1.65689
1.64711
1.63734
1.62756
1.62756
1.62267
1.60312
1.59824
1.59824
1.58357
1.57380
1.56402
1.56891
1.56891
1.54936
1.54936
1.54447
1.54447
1.52981
1.52492
1.52492
1.52003
1.50537
1.51026
1.52003
1.50537
1.49560
1.49560
1.49560
1.50537
1.48093
1.48093
1.48582
1.48582
1.47605
1.50048
1.49071
1.53470
1.59335
1.67155
1.76441
1.85239
1.90615
1.95503
1.96969
2.01368
1.95014
1.93548
1.90127
1.88660
1.84750
1.84261
1.81818
1.83773
1.80351
1.79374
1.80351
1.80351
1.79374
1.80351
1.79863
1.80840
1.83284
1.80840
1.81818
1.83284
1.82795
1.81818
1.82306
1.81329
1.80351
1.78885
1.77908
1.81329
1.76441
1.73998
1.76930
1.73020
1.72043
1.69599
1.68621
1.68621
1.69599
1.66177
1.65200
1.65200
1.68621
1.63245
1.62756
1.62267
1.62267
1.62267
1.59824
1.59824
1.60312
1.59824
1.57869
1.57380
1.57380
1.56402
1.55913
1.55425
1.55425
1.53958
1.52981
1.52492
1.53470
1.54447
1.53470
1.57380
1.64222
1.72043
1.83284
1.89149
1.96969
2.01857
2.04301
2.04301
2.04789
2.01857
1.98435
1.95503
1.93548
1.90615
1.87683
1.89638
1.86705
1.84750
1.83284
1.83773
1.82795
1.83284
1.82306
1.83284
1.84750
1.85728
1.85239
1.85239
1.85728
1.87194
1.83773
1.82795
1.83773
1.80351
1.77908
1.76441
1.77419
1.76930
1.73020
1.70087
1.68621
1.68621
1.65689
1.64711
1.64222
1.63734
1.62267
1.62756
1.59824
1.59335
1.57380
1.56402
1.55425
1.54936
1.53470
1.52981
1.52003
1.51515
1.50537
1.49071
1.49071
1.49071
1.48093
1.48093
1.46138
1.46138
1.47116
1.48582
1.54936
1.62756
1.72043
1.80840
1.89638
1.97458
2.00879
2.02346
2.01368
2.01368
1.97458
1.93548
1.90615
1.89149
1.88172
1.85728
1.85239
1.85239
1.85728
1.84261
1.83773
1.83284
1.83773
1.80351
1.79863
1.79863
1.80351
1.78885
1.78396
1.78396
1.78396
1.76441
1.74486
1.73509
1.75464
1.69599
1.68132
1.68621
1.65689
1.63734
1.61779
1.60801
1.60801
1.61779
1.55913
1.55425
1.54447
1.52981
1.51515
1.51515
1.51026
1.50048
1.47116
1.46627
1.46138
1.45161
1.43695
1.43695
1.45650
1.45650
1.41251
1.40762
1.41251
1.40762
1.39784
1.39296
1.41251
1.38318
1.37341
1.39296
1.43695
1.50048
1.57380
1.66666
1.76441
1.81818
1.83773
1.85239
1.85239
1.83773
1.79863
1.77419
1.75953
1.74975
1.72531
1.73998
1.72531
1.73998
1.72531
1.73020
1.72531
1.72043
1.73998
1.69599
1.68621
1.69110
1.68132
1.67644
1.67644
1.68132
1.67155
1.66177
1.68621
1.65200
1.64222
1.62267
1.61290
1.62267
1.62267
1.57869
1.57869
1.56891
1.55913
1.54447
1.53470
1.52981
1.52003
1.50537
1.50048
1.50048
1.49560
1.48093
1.47116
1.47116
1.47116
1.45161
1.45161
1.44672
1.44672
1.43695
1.43206
1.43695
1.43695
1.41739
1.43206
1.41739
1.41739
1.40762
1.44183
1.42717
1.46627
1.52981
1.58357
1.65689
1.73020
1.78396
1.83284
1.81329
1.80840
1.77419
1.74486
1.72531
1.71554
1.68621
1.67644
1.66666
1.67644
1.66666
1.66177
1.68132
1.66666
1.65689
1.65200
1.64711
1.65689
1.65689
1.64711
1.65689
1.70087
1.66177
1.64711
1.64222
1.64711
1.63245
1.61779
1.64222
1.61290
1.59824
1.57869
1.57380
1.59824
1.56891
1.55425
1.57869
1.54447
1.54447
1.53958
1.52003
1.51515
1.52492
1.50048
1.49560
1.50537
1.50048
1.48093
1.48582
1.49071
1.48582
1.47605
1.47116
1.48093
1.47116
1.45161
1.46138
1.45161
1.46138
1.47116
1.52981
1.56891
1.65200
1.72531
1.78885
1.81329
1.84261
1.82795
1.84261
1.78885
1.76441
1.73998
1.71065
1.70087
1.70087
1.69599
1.68621
1.69599
1.71554
1.69599
1.69599
1.68132
1.67644
1.67644
1.66666
1.66666
1.68132
1.67644
1.66666
1.67155
1.67155
1.66177
1.64711
1.64222
1.62756
1.62267
1.60312
1.59824
1.62267
1.59335
1.57869
1.56891
1.56891
1.56402
1.54936
1.53958
1.53958
1.53958
1.52492
1.54447
1.51515
1.52003
1.50537
1.50048
1.52003
1.50048
1.49071
1.48582
1.48582
1.49071
1.48093
1.47116
1.47116
1.48093
1.50048
1.46138
1.46138
1.47116
1.49071
1.52003
1.58357
1.67155
1.74975
1.81329
1.88172
1.90127
1.90127
1.88172
1.88172
1.84261
1.85239
1.79374
1.82306
1.79374
1.80840
1.78885
1.79863
1.80840
1.81329
1.79374
1.78396
1.77908
1.77419
1.75953
1.75464
1.76930
1.75464
1.74486
1.74486
1.73998
1.73998
1.73509
1.71554
1.70576
1.70087
1.70087
1.67644
1.66666
1.66666
1.64222
1.63734
1.63245
1.62756
1.60801
1.59335
1.59824
1.58846
1.57380
1.56402
1.56402
1.59335
1.54447
1.53470
1.53470
1.54447
1.52492
1.51515
1.51026
1.51026
1.51026
1.52492
1.49071
1.49560
1.48582
1.47116
1.47605
1.48582
1.46627
1.45650
1.45650
1.46627
1.49560
1.53470
1.60312
1.69110
1.77908
1.84261
1.91593
1.92082
1.92082
1.92570
1.87194
1.85239
1.82795
1.79863
1.79374
1.78885
1.79863
1.78885
1.79374
1.80351
1.80351
1.79374
1.77908
1.79374
1.78885
1.76441
1.75953
1.79374
1.77419
1.75953
1.75464
1.75953
1.75464
1.73509
1.73020
1.71554
1.71065
1.69599
1.70087
1.67644
1.67155
1.68132
1.63734
1.62756
1.63245
1.63245
1.59824
1.58846
1.58357
1.58846
1.56402
1.55913
1.55913
1.54936
1.53470
1.53958
1.55913
1.52492
1.51026
1.50537
1.51026
1.50537
1.49071
1.48582
1.49560
1.52003
1.47605
1.47605
1.47605
1.47116
1.46138
1.46138
1.46627
1.48093
1.44672
1.44183
1.44672
1.46627
1.50048
1.54447
1.62756
1.72531
1.80840
1.87194
1.94525
1.95992
1.95014
1.93059
1.91593
1.89149
1.89149
1.83284
1.81818
1.81818
1.83284
1.80351
1.82795
1.81818
1.81329
1.81818
1.79863
1.81329
1.80351
1.79863
1.83284
1.81329
1.81329
1.81329
1.80351
1.80351
1.79374
1.77908
1.79374
1.76930
1.74975
1.76930
1.72531
1.71554
1.70576
1.68621
1.67644
1.67644
1.67155
1.64711
1.63734
1.63245
1.63245
1.61290
1.60312
1.59824
1.59824
1.58357
1.59335
1.57380
1.56891
1.54936
1.54447
1.55425
1.57869
1.52981
1.52492
1.52003
1.52492
1.52003
1.51026
1.51026
1.51026
1.49560
1.49071
1.49560
1.51515
1.55425
1.58357
1.66177
1.75464
1.83773
1.91593
1.96480
1.99413
2.02834
1.97947
1.95992
1.94037
1.90127
1.86705
1.84750
1.83284
1.81818
1.79863
1.79863
1.79374
1.81329
1.77908
1.78396
1.79374
1.80840
1.79863
1.80351
1.85239
1.81818
1.80840
1.80351
1.80351
1.79374
1.76930
1.75953
1.74486
1.73509
1.73020
1.70087
1.68621
1.70576
1.64711
1.63734
1.62756
1.62756
1.63734
1.59335
1.58357
1.58846
1.59335
1.55425
1.54936
1.54447
1.52981
1.51515
1.51026
1.50537
1.49560
1.48093
1.47605
1.48582
1.48093
1.48093
1.45161
1.45161
1.44183
1.44672
1.48093
1.54447
1.64711
1.69599
1.78885
1.87683
1.93059
1.95014
1.95992
1.95014
1.93059
1.88660
1.87194
1.84750
1.83284
1.80840
1.80840
1.80840
1.81329
1.83773
1.79863
1.79863
1.78885
1.77419
1.76930
1.76930
1.80840
1.75953
1.75464
1.75953
1.76441
1.73509
1.73020
1.72043
1.71554
1.69110
1.67155
1.66177
1.65200
1.63245
1.61779
1.60801
1.62756
1.58357
1.56891
1.55913
1.55425
1.53958
1.52981
1.52492
1.54447
1.50537
1.49071
1.49071
1.48582
1.47605
1.48582
1.46138
1.46627
1.45650
1.44672
1.44672
1.45161
1.43695
1.42228
1.42228
1.42717
1.43695
1.45650
1.52003
1.63734
1.69110
1.76441
1.83284
1.88172
1.89638
1.88660
1.86217
1.84750
1.82306
1.79374
1.77908
1.78396
1.77419
1.76930
1.77419
1.78885
1.78396
1.77419
1.75953
1.74975
1.77908
1.72043
1.71554
1.75464
1.72043
1.70576
1.72043
1.70576
1.70576
1.68621
1.70576
1.67155
1.66177
1.64222
1.63245
1.61779
1.61290
1.59335
1.60801
1.57380
1.56891
1.54936
1.54447
1.55425
1.52981
1.51515
1.50048
1.50048
1.52492
1.48582
1.47605
1.47116
1.47116
1.46627
1.45650
1.47116
1.45161
1.45161
1.43695
1.44183
1.43695
1.44183
1.45650
1.41739
1.42228
1.42717
1.46138
1.51515
1.58846
1.67155
1.74486
1.79374
1.83284
1.87194
1.86217
1.80351
1.78396
1.75953
1.73509
1.72043
1.71065
1.71554
1.70576
1.71065
1.71554
1.72043
1.70576
1.69110
1.69599
1.69110
1.67644
1.67644
1.67155
1.68132
1.70087
1.67155
1.67155
1.66666
1.66177
1.64222
1.63734
1.63245
1.62267
1.60312
1.59335
1.58846
1.58846
1.56891
1.56402
1.57380
1.54936
1.53470
1.53470
1.52981
1.52492
1.51515
1.51515
1.53958
1.50048
1.48582
1.49071
1.52003
1.48582
1.47605
1.47116
1.47116
1.48093
1.50048
1.46138
1.45650
1.45161
1.44672
1.44183
1.45650
1.48582
1.52981
1.58846
1.66666
1.74486
1.80351
1.82306
1.83284
1.82795
1.80351
1.76930
1.75953
1.73020
1.73998
1.68621
1.71065
1.69110
1.72043
1.67644
1.68132
1.67644
1.69599
1.66177
1.65689
1.67644
1.66666
1.66666
1.66666
1.69110
1.67155
1.65689
1.65689
1.64711
1.63734
1.65200
1.61779
1.60801
1.60312
1.58357
1.57869
1.57380
1.56891
1.55425
1.54447
1.54447
1.53958
1.52981
1.55913
1.52003
1.52492
1.51515
1.50048
1.50537
1.51026
1.50048
1.49071
1.49071
1.49560
1.50048
1.48093
1.47605
1.48582
1.48093
1.46138
1.46138
1.47116
1.45650
1.46138
1.48582
1.53470
1.61779
1.66666
1.75464
1.82795
1.87194
1.89638
1.89149
1.92082
1.86217
1.83284
1.80840
1.79863
1.78885
1.77908
1.77908
1.79374
1.79863
1.79863
1.78885
1.79863
1.77419
1.76441
1.75464
1.74975
1.74975
1.77908
1.73998
1.74486
1.74486
1.73509
1.73020
1.72531
1.72043
1.69599
1.68621
1.72043
1.68132
1.65200
1.64222
1.64222
1.63245
1.61290
1.60312
1.61290
1.62267
1.57869
1.57380
1.57380
1.58846
1.55425
1.54447
1.54447
1.54936
1.53958
1.52003
1.52003
1.52003
1.51515
1.50537
1.50537
1.50537
1.50537
1.49071
1.49071
1.49071
1.48093
1.47605
1.47605
1.48093
1.47116
1.47116
1.51026
1.56891
1.65200
1.73020
1.82306
1.89638
1.94525
1.97458
1.95992
1.98924
1.93059
1.92570
1.87683
1.89638
1.86217
1.88172
1.85239
1.85728
1.87194
1.86217
1.85728
1.85728
1.84750
1.82795
1.82306
1.82306
1.82795
1.81329
1.80840
1.80840
1.81329
1.79374
1.78885
1.77419
1.79863
1.74975
1.73020
1.72531
1.72043
1.70087
1.68132
1.68621
1.67155
1.65200
1.64222
1.62756
1.62267
1.61290
1.59335
1.59335
1.58846
1.57380
1.55913
1.55913
1.54936
1.54447
1.53470
1.54936
1.52981
1.51515
1.50048
