2022-12-15 16:25:22.417899
2022-12-15 16:25:22.418897
2022-12-15 16:25:22.418897
2022-12-15 16:25:22.451777
2022-12-15 16:25:22.452775
2022-12-15 16:25:22.452775
2022-12-15 16:25:22.485687
2022-12-15 16:25:22.485687
2022-12-15 16:25:22.518599
2022-12-15 16:25:22.519597
2022-12-15 16:25:22.519597
2022-12-15 16:25:22.552510
2022-12-15 16:25:22.553505
2022-12-15 16:25:22.553505
2022-12-15 16:25:22.585419
2022-12-15 16:25:22.586416
2022-12-15 16:25:22.619329
2022-12-15 16:25:22.619329
2022-12-15 16:25:22.620326
2022-12-15 16:25:22.653237
2022-12-15 16:25:22.653237
2022-12-15 16:25:22.654238
2022-12-15 16:25:22.686149
2022-12-15 16:25:22.687148
2022-12-15 16:25:22.720060
2022-12-15 16:25:22.720060
2022-12-15 16:25:22.721065
2022-12-15 16:25:22.753970
2022-12-15 16:25:22.753970
2022-12-15 16:25:22.754967
2022-12-15 16:25:22.786918
2022-12-15 16:25:22.787878
2022-12-15 16:25:22.820792
2022-12-15 16:25:22.820792
2022-12-15 16:25:22.821788
2022-12-15 16:25:22.853708
2022-12-15 16:25:22.854700
2022-12-15 16:25:22.855697
2022-12-15 16:25:22.887611
2022-12-15 16:25:22.888609
2022-12-15 16:25:22.921522
2022-12-15 16:25:22.921522
2022-12-15 16:25:22.922519
2022-12-15 16:25:22.954433
2022-12-15 16:25:22.955431
2022-12-15 16:25:22.955431
2022-12-15 16:25:22.988379
2022-12-15 16:25:22.989341
2022-12-15 16:25:23.022253
2022-12-15 16:25:23.022253
2022-12-15 16:25:23.023249
2022-12-15 16:25:23.055202
2022-12-15 16:25:23.056200
2022-12-15 16:25:23.056200
2022-12-15 16:25:23.089113
2022-12-15 16:25:23.090071
2022-12-15 16:25:23.121988
2022-12-15 16:25:23.122984
2022-12-15 16:25:23.123981
2022-12-15 16:25:23.155902
2022-12-15 16:25:23.156892
2022-12-15 16:25:23.156892
2022-12-15 16:25:23.189803
2022-12-15 16:25:23.189803
2022-12-15 16:25:23.222754
2022-12-15 16:25:23.223714
2022-12-15 16:25:23.224748
2022-12-15 16:25:23.256629
2022-12-15 16:25:23.257623
2022-12-15 16:25:23.257623
2022-12-15 16:25:23.290537
2022-12-15 16:25:23.290537
2022-12-15 16:25:23.323479
2022-12-15 16:25:23.324445
2022-12-15 16:25:23.324445
2022-12-15 16:25:23.357379
2022-12-15 16:25:23.357379
2022-12-15 16:25:23.358356
2022-12-15 16:25:23.391266
2022-12-15 16:25:23.391266
2022-12-15 16:25:23.424217
2022-12-15 16:25:23.425176
2022-12-15 16:25:23.425176
2022-12-15 16:25:23.458089
2022-12-15 16:25:23.459085
2022-12-15 16:25:23.459085
2022-12-15 16:25:23.490998
2022-12-15 16:25:23.492003
2022-12-15 16:25:23.524908
2022-12-15 16:25:23.524908
2022-12-15 16:25:23.525906
2022-12-15 16:25:23.557852
2022-12-15 16:25:23.558819
2022-12-15 16:25:23.559816
2022-12-15 16:25:23.591732
2022-12-15 16:25:23.592728
2022-12-15 16:25:23.625639
2022-12-15 16:25:23.625639
2022-12-15 16:25:23.626637
2022-12-15 16:25:23.658551
2022-12-15 16:25:23.659548
2022-12-15 16:25:23.659548
2022-12-15 16:25:23.692460
2022-12-15 16:25:23.693461
2022-12-15 16:25:23.726369
2022-12-15 16:25:23.726369
2022-12-15 16:25:23.726369
2022-12-15 16:25:23.759290
2022-12-15 16:25:23.760282
2022-12-15 16:25:23.760282
2022-12-15 16:25:23.793235
2022-12-15 16:25:23.794190
2022-12-15 16:25:23.826140
2022-12-15 16:25:23.827137
2022-12-15 16:25:23.828098
2022-12-15 16:25:23.860013
2022-12-15 16:25:23.861011
2022-12-15 16:25:23.861011
2022-12-15 16:25:23.893913
2022-12-15 16:25:23.894915
2022-12-15 16:25:23.927419
2022-12-15 16:25:23.927924
2022-12-15 16:25:23.928926
2022-12-15 16:25:23.961282
2022-12-15 16:25:23.962062
2022-12-15 16:25:23.962659
2022-12-15 16:25:23.994105
2022-12-15 16:25:23.995102
2022-12-15 16:25:24.028177
2022-12-15 16:25:24.028177
2022-12-15 16:25:24.028747
2022-12-15 16:25:24.061520
2022-12-15 16:25:24.061520
2022-12-15 16:25:24.062490
2022-12-15 16:25:24.094604
2022-12-15 16:25:24.095597
2022-12-15 16:25:24.129219
2022-12-15 16:25:24.129458
2022-12-15 16:25:24.130069
2022-12-15 16:25:24.162676
2022-12-15 16:25:24.162966
2022-12-15 16:25:24.162966
2022-12-15 16:25:24.196261
2022-12-15 16:25:24.196604
2022-12-15 16:25:24.229877
2022-12-15 16:25:24.230158
2022-12-15 16:25:24.230158
2022-12-15 16:25:24.263285
2022-12-15 16:25:24.263285
2022-12-15 16:25:24.264304
2022-12-15 16:25:24.296124
2022-12-15 16:25:24.297130
2022-12-15 16:25:24.329799
2022-12-15 16:25:24.329799
2022-12-15 16:25:24.330796
2022-12-15 16:25:24.363234
2022-12-15 16:25:24.363234
2022-12-15 16:25:24.364199
2022-12-15 16:25:24.396935
2022-12-15 16:25:24.396935
2022-12-15 16:25:24.430075
2022-12-15 16:25:24.430075
2022-12-15 16:25:24.431072
2022-12-15 16:25:24.463984
2022-12-15 16:25:24.463984
2022-12-15 16:25:24.464981
2022-12-15 16:25:24.497431
2022-12-15 16:25:24.497431
2022-12-15 16:25:24.530345
2022-12-15 16:25:24.531341
2022-12-15 16:25:24.531341
2022-12-15 16:25:24.564507
2022-12-15 16:25:24.564507
2022-12-15 16:25:24.565504
2022-12-15 16:25:24.597420
2022-12-15 16:25:24.598455
2022-12-15 16:25:24.631330
2022-12-15 16:25:24.632328
2022-12-15 16:25:24.632328
2022-12-15 16:25:24.665020
2022-12-15 16:25:24.665020
2022-12-15 16:25:24.665020
2022-12-15 16:25:24.698583
2022-12-15 16:25:24.698583
2022-12-15 16:25:24.731414
2022-12-15 16:25:24.732396
2022-12-15 16:25:24.733362
2022-12-15 16:25:24.765961
2022-12-15 16:25:24.766740
2022-12-15 16:25:24.767743
2022-12-15 16:25:24.798788
2022-12-15 16:25:24.799795
2022-12-15 16:25:24.833191
2022-12-15 16:25:24.834195
2022-12-15 16:25:24.834195
2022-12-15 16:25:24.866854
2022-12-15 16:25:24.867151
2022-12-15 16:25:24.867731
2022-12-15 16:25:24.900196
2022-12-15 16:25:24.900196
2022-12-15 16:25:24.933123
2022-12-15 16:25:24.933123
2022-12-15 16:25:24.934106
2022-12-15 16:25:24.966981
2022-12-15 16:25:24.966981
2022-12-15 16:25:24.967979
2022-12-15 16:25:24.999908
2022-12-15 16:25:25.000902
2022-12-15 16:25:25.033802
2022-12-15 16:25:25.033802
2022-12-15 16:25:25.034832
2022-12-15 16:25:25.067748
2022-12-15 16:25:25.068712
2022-12-15 16:25:25.068712
2022-12-15 16:25:25.100624
2022-12-15 16:25:25.101623
2022-12-15 16:25:25.134533
2022-12-15 16:25:25.134533
2022-12-15 16:25:25.135532
2022-12-15 16:25:25.168239
2022-12-15 16:25:25.168239
2022-12-15 16:25:25.169265
2022-12-15 16:25:25.201196
2022-12-15 16:25:25.202146
2022-12-15 16:25:25.235101
2022-12-15 16:25:25.235101
2022-12-15 16:25:25.236056
2022-12-15 16:25:25.268647
2022-12-15 16:25:25.268647
2022-12-15 16:25:25.268647
2022-12-15 16:25:25.301755
2022-12-15 16:25:25.302721
2022-12-15 16:25:25.335628
2022-12-15 16:25:25.335628
2022-12-15 16:25:25.336626
2022-12-15 16:25:25.369573
2022-12-15 16:25:25.369573
2022-12-15 16:25:25.370535
2022-12-15 16:25:25.403143
2022-12-15 16:25:25.403143
2022-12-15 16:25:25.436555
2022-12-15 16:25:25.436555
2022-12-15 16:25:25.437557
2022-12-15 16:25:25.469470
2022-12-15 16:25:25.470470
2022-12-15 16:25:25.470470
2022-12-15 16:25:25.503393
2022-12-15 16:25:25.503393
2022-12-15 16:25:25.536343
2022-12-15 16:25:25.537289
2022-12-15 16:25:25.537289
2022-12-15 16:25:25.570204
2022-12-15 16:25:25.571200
2022-12-15 16:25:25.571200
2022-12-15 16:25:25.603580
2022-12-15 16:25:25.604567
2022-12-15 16:25:25.637487
2022-12-15 16:25:25.637487
2022-12-15 16:25:25.638476
2022-12-15 16:25:25.671530
2022-12-15 16:25:25.671824
2022-12-15 16:25:25.672409
2022-12-15 16:25:25.705134
2022-12-15 16:25:25.705478
2022-12-15 16:25:25.738776
2022-12-15 16:25:25.738776
2022-12-15 16:25:25.739669
2022-12-15 16:25:25.772300
2022-12-15 16:25:25.772300
2022-12-15 16:25:25.773302
2022-12-15 16:25:25.804677
2022-12-15 16:25:25.805645
2022-12-15 16:25:25.838615
2022-12-15 16:25:25.838615
2022-12-15 16:25:25.839615
2022-12-15 16:25:25.872795
2022-12-15 16:25:25.873083
2022-12-15 16:25:25.873083
2022-12-15 16:25:25.906532
2022-12-15 16:25:25.906918
2022-12-15 16:25:25.939812
2022-12-15 16:25:25.940050
2022-12-15 16:25:25.940596
2022-12-15 16:25:25.973383
2022-12-15 16:25:25.973677
2022-12-15 16:25:25.973677
2022-12-15 16:25:26.007002
2022-12-15 16:25:26.007375
2022-12-15 16:25:26.040638
2022-12-15 16:25:26.040879
2022-12-15 16:25:26.041468
2022-12-15 16:25:26.074118
2022-12-15 16:25:26.074434
2022-12-15 16:25:26.074434
2022-12-15 16:25:26.107940
2022-12-15 16:25:26.107940
2022-12-15 16:25:26.139817
2022-12-15 16:25:26.140824
2022-12-15 16:25:26.140824
2022-12-15 16:25:26.174582
2022-12-15 16:25:26.174871
2022-12-15 16:25:26.175416
2022-12-15 16:25:26.208171
2022-12-15 16:25:26.208555
2022-12-15 16:25:26.241803
2022-12-15 16:25:26.242040
2022-12-15 16:25:26.242040
2022-12-15 16:25:26.275440
2022-12-15 16:25:26.275773
2022-12-15 16:25:26.275773
2022-12-15 16:25:26.308901
2022-12-15 16:25:26.309248
2022-12-15 16:25:26.342227
2022-12-15 16:25:26.342227
2022-12-15 16:25:26.343229
2022-12-15 16:25:26.374783
2022-12-15 16:25:26.375782
2022-12-15 16:25:26.375782
2022-12-15 16:25:26.408714
2022-12-15 16:25:26.408714
2022-12-15 16:25:26.441603
2022-12-15 16:25:26.442600
2022-12-15 16:25:26.442600
2022-12-15 16:25:26.475556
2022-12-15 16:25:26.476509
2022-12-15 16:25:26.476509
2022-12-15 16:25:26.508821
2022-12-15 16:25:26.509806
2022-12-15 16:25:26.542687
2022-12-15 16:25:26.542687
2022-12-15 16:25:26.543686
2022-12-15 16:25:26.576595
2022-12-15 16:25:26.576595
2022-12-15 16:25:26.576595
2022-12-15 16:25:26.609555
2022-12-15 16:25:26.610505
2022-12-15 16:25:26.643436
2022-12-15 16:25:26.643436
2022-12-15 16:25:26.644416
2022-12-15 16:25:26.676517
2022-12-15 16:25:26.677528
2022-12-15 16:25:26.677528
2022-12-15 16:25:26.711032
2022-12-15 16:25:26.711414
2022-12-15 16:25:26.744114
2022-12-15 16:25:26.744472
2022-12-15 16:25:26.745060
2022-12-15 16:25:26.777810
2022-12-15 16:25:26.778174
2022-12-15 16:25:26.778174
2022-12-15 16:25:26.811046
2022-12-15 16:25:26.811588
2022-12-15 16:25:26.844750
2022-12-15 16:25:26.845028
2022-12-15 16:25:26.845560
2022-12-15 16:25:26.878673
2022-12-15 16:25:26.878964
2022-12-15 16:25:26.879423
2022-12-15 16:25:26.912029
2022-12-15 16:25:26.912892
2022-12-15 16:25:26.945170
2022-12-15 16:25:26.945170
2022-12-15 16:25:26.946164
2022-12-15 16:25:26.979322
2022-12-15 16:25:26.979644
2022-12-15 16:25:26.980305
2022-12-15 16:25:27.012387
2022-12-15 16:25:27.012763
2022-12-15 16:25:27.046397
2022-12-15 16:25:27.046662
2022-12-15 16:25:27.047311
2022-12-15 16:25:27.079861
2022-12-15 16:25:27.080181
2022-12-15 16:25:27.080181
2022-12-15 16:25:27.113360
2022-12-15 16:25:27.113712
2022-12-15 16:25:27.146843
2022-12-15 16:25:27.147080
2022-12-15 16:25:27.147545
2022-12-15 16:25:27.180445
2022-12-15 16:25:27.180782
2022-12-15 16:25:27.181416
2022-12-15 16:25:27.213888
2022-12-15 16:25:27.213888
2022-12-15 16:25:27.246522
2022-12-15 16:25:27.247530
2022-12-15 16:25:27.247530
2022-12-15 16:25:27.280749
2022-12-15 16:25:27.281083
2022-12-15 16:25:27.281083
2022-12-15 16:25:27.314698
2022-12-15 16:25:27.315076
2022-12-15 16:25:27.348164
2022-12-15 16:25:27.348435
2022-12-15 16:25:27.349088
2022-12-15 16:25:27.380459
2022-12-15 16:25:27.381456
2022-12-15 16:25:27.381456
2022-12-15 16:25:27.414420
2022-12-15 16:25:27.415367
2022-12-15 16:25:27.448278
2022-12-15 16:25:27.448278
2022-12-15 16:25:27.448278
2022-12-15 16:25:27.481238
2022-12-15 16:25:27.482188
2022-12-15 16:25:27.482188
2022-12-15 16:25:27.515099
2022-12-15 16:25:27.516102
2022-12-15 16:25:27.548044
2022-12-15 16:25:27.549030
2022-12-15 16:25:27.549030
2022-12-15 16:25:27.581941
2022-12-15 16:25:27.582908
2022-12-15 16:25:27.582908
2022-12-15 16:25:27.615850
2022-12-15 16:25:27.615850
2022-12-15 16:25:27.648733
2022-12-15 16:25:27.649729
2022-12-15 16:25:27.649729
2022-12-15 16:25:27.682641
2022-12-15 16:25:27.683641
2022-12-15 16:25:27.684637
2022-12-15 16:25:27.716541
2022-12-15 16:25:27.716541
2022-12-15 16:25:27.750116
2022-12-15 16:25:27.750116
2022-12-15 16:25:27.751113
2022-12-15 16:25:27.783925
2022-12-15 16:25:27.784247
2022-12-15 16:25:27.785249
2022-12-15 16:25:27.817096
2022-12-15 16:25:27.817096
2022-12-15 16:25:27.851205
2022-12-15 16:25:27.851532
2022-12-15 16:25:27.852125
2022-12-15 16:25:27.884767
2022-12-15 16:25:27.885203
2022-12-15 16:25:27.885664
2022-12-15 16:25:27.918303
2022-12-15 16:25:27.918828
2022-12-15 16:25:27.951647
2022-12-15 16:25:27.951977
2022-12-15 16:25:27.952433
2022-12-15 16:25:27.984963
2022-12-15 16:25:27.984963
2022-12-15 16:25:27.985965
2022-12-15 16:25:28.018026
2022-12-15 16:25:28.019034
2022-12-15 16:25:28.051338
2022-12-15 16:25:28.052339
2022-12-15 16:25:28.052339
2022-12-15 16:25:28.084906
2022-12-15 16:25:28.085910
2022-12-15 16:25:28.085910
2022-12-15 16:25:28.118342
2022-12-15 16:25:28.119341
2022-12-15 16:25:28.152806
2022-12-15 16:25:28.153085
2022-12-15 16:25:28.153677
2022-12-15 16:25:28.186319
2022-12-15 16:25:28.186641
2022-12-15 16:25:28.187148
2022-12-15 16:25:28.219849
2022-12-15 16:25:28.220199
2022-12-15 16:25:28.253510
2022-12-15 16:25:28.253747
2022-12-15 16:25:28.253747
2022-12-15 16:25:28.287097
2022-12-15 16:25:28.287097
2022-12-15 16:25:28.288099
2022-12-15 16:25:28.320394
2022-12-15 16:25:28.320394
2022-12-15 16:25:28.353728
2022-12-15 16:25:28.353953
2022-12-15 16:25:28.354426
2022-12-15 16:25:28.387282
2022-12-15 16:25:28.387577
2022-12-15 16:25:28.387577
2022-12-15 16:25:28.421141
2022-12-15 16:25:28.421483
2022-12-15 16:25:28.454695
2022-12-15 16:25:28.454932
2022-12-15 16:25:28.455480
2022-12-15 16:25:28.488218
2022-12-15 16:25:28.488548
2022-12-15 16:25:28.489010
2022-12-15 16:25:28.521708
2022-12-15 16:25:28.522053
2022-12-15 16:25:28.555158
2022-12-15 16:25:28.555879
2022-12-15 16:25:28.555879
2022-12-15 16:25:28.588596
2022-12-15 16:25:28.588759
2022-12-15 16:25:28.589238
2022-12-15 16:25:28.622258
2022-12-15 16:25:28.622599
2022-12-15 16:25:28.655957
2022-12-15 16:25:28.656195
2022-12-15 16:25:28.656789
2022-12-15 16:25:28.689511
2022-12-15 16:25:28.689801
2022-12-15 16:25:28.689801
2022-12-15 16:25:28.722951
2022-12-15 16:25:28.723298
2022-12-15 16:25:28.756565
2022-12-15 16:25:28.756803
2022-12-15 16:25:28.757351
2022-12-15 16:25:28.790005
2022-12-15 16:25:28.790297
2022-12-15 16:25:28.790756
2022-12-15 16:25:28.823674
2022-12-15 16:25:28.824018
2022-12-15 16:25:28.857081
2022-12-15 16:25:28.857081
2022-12-15 16:25:28.857990
2022-12-15 16:25:28.889914
2022-12-15 16:25:28.889914
2022-12-15 16:25:28.890945
2022-12-15 16:25:28.923224
2022-12-15 16:25:28.924220
2022-12-15 16:25:28.957778
2022-12-15 16:25:28.958015
2022-12-15 16:25:28.958605
2022-12-15 16:25:28.991301
2022-12-15 16:25:28.991301
2022-12-15 16:25:28.992264
2022-12-15 16:25:29.024965
2022-12-15 16:25:29.025352
2022-12-15 16:25:29.058215
2022-12-15 16:25:29.058454
2022-12-15 16:25:29.058916
2022-12-15 16:25:29.091734
2022-12-15 16:25:29.092292
2022-12-15 16:25:29.092292
2022-12-15 16:25:29.125474
2022-12-15 16:25:29.125849
2022-12-15 16:25:29.159096
2022-12-15 16:25:29.159096
2022-12-15 16:25:29.160005
2022-12-15 16:25:29.192022
2022-12-15 16:25:29.192022
2022-12-15 16:25:29.192022
2022-12-15 16:25:29.225854
2022-12-15 16:25:29.226198
2022-12-15 16:25:29.259390
2022-12-15 16:25:29.259628
2022-12-15 16:25:29.259628
2022-12-15 16:25:29.293066
2022-12-15 16:25:29.293356
2022-12-15 16:25:29.293356
2022-12-15 16:25:29.326619
2022-12-15 16:25:29.326965
2022-12-15 16:25:29.360137
2022-12-15 16:25:29.360377
2022-12-15 16:25:29.360377
2022-12-15 16:25:29.393563
2022-12-15 16:25:29.394182
2022-12-15 16:25:29.394182
2022-12-15 16:25:29.427196
2022-12-15 16:25:29.427695
2022-12-15 16:25:29.460801
2022-12-15 16:25:29.461148
2022-12-15 16:25:29.461148
2022-12-15 16:25:29.494558
2022-12-15 16:25:29.494558
2022-12-15 16:25:29.495562
2022-12-15 16:25:29.527099
2022-12-15 16:25:29.528079
2022-12-15 16:25:29.560704
2022-12-15 16:25:29.560704
2022-12-15 16:25:29.561606
2022-12-15 16:25:29.594593
2022-12-15 16:25:29.595113
2022-12-15 16:25:29.595113
2022-12-15 16:25:29.628080
2022-12-15 16:25:29.628080
2022-12-15 16:25:29.661936
2022-12-15 16:25:29.661936
2022-12-15 16:25:29.662877
2022-12-15 16:25:29.694987
2022-12-15 16:25:29.694987
2022-12-15 16:25:29.695995
2022-12-15 16:25:29.729049
2022-12-15 16:25:29.729049
2022-12-15 16:25:29.762121
2022-12-15 16:25:29.762121
2022-12-15 16:25:29.763159
2022-12-15 16:25:29.795048
2022-12-15 16:25:29.796086
2022-12-15 16:25:29.796086
2022-12-15 16:25:29.828653
2022-12-15 16:25:29.829606
2022-12-15 16:25:29.862517
2022-12-15 16:25:29.862517
2022-12-15 16:25:29.862517
2022-12-15 16:25:29.895950
2022-12-15 16:25:29.895950
2022-12-15 16:25:29.895950
2022-12-15 16:25:29.929908
2022-12-15 16:25:29.930256
2022-12-15 16:25:29.963588
2022-12-15 16:25:29.963826
2022-12-15 16:25:29.964283
2022-12-15 16:25:29.997211
2022-12-15 16:25:29.997547
2022-12-15 16:25:29.998126
2022-12-15 16:25:30.030618
2022-12-15 16:25:30.031620
2022-12-15 16:25:30.064071
2022-12-15 16:25:30.064071
2022-12-15 16:25:30.065065
2022-12-15 16:25:30.097716
2022-12-15 16:25:30.098033
2022-12-15 16:25:30.098675
2022-12-15 16:25:30.130566
2022-12-15 16:25:30.130566
2022-12-15 16:25:30.164732
2022-12-15 16:25:30.164732
2022-12-15 16:25:30.165733
2022-12-15 16:25:30.198245
2022-12-15 16:25:30.198535
2022-12-15 16:25:30.199122
2022-12-15 16:25:30.231789
2022-12-15 16:25:30.232134
2022-12-15 16:25:30.265360
2022-12-15 16:25:30.265641
2022-12-15 16:25:30.265641
2022-12-15 16:25:30.298769
2022-12-15 16:25:30.299303
2022-12-15 16:25:30.299303
2022-12-15 16:25:30.331872
2022-12-15 16:25:30.331872
2022-12-15 16:25:30.365876
2022-12-15 16:25:30.366114
2022-12-15 16:25:30.366658
2022-12-15 16:25:30.399643
2022-12-15 16:25:30.399937
2022-12-15 16:25:30.400473
2022-12-15 16:25:30.433091
2022-12-15 16:25:30.433459
2022-12-15 16:25:30.466678
2022-12-15 16:25:30.466678
2022-12-15 16:25:30.467679
2022-12-15 16:25:30.500120
2022-12-15 16:25:30.500409
2022-12-15 16:25:30.500953
2022-12-15 16:25:30.533786
2022-12-15 16:25:30.534132
2022-12-15 16:25:30.567313
2022-12-15 16:25:30.567552
2022-12-15 16:25:30.567552
2022-12-15 16:25:30.600777
2022-12-15 16:25:30.601221
2022-12-15 16:25:30.602238
2022-12-15 16:25:30.633875
2022-12-15 16:25:30.633875
2022-12-15 16:25:30.667707
2022-12-15 16:25:30.667944
2022-12-15 16:25:30.668487
2022-12-15 16:25:30.701378
2022-12-15 16:25:30.701671
2022-12-15 16:25:30.702294
2022-12-15 16:25:30.734831
2022-12-15 16:25:30.735178
2022-12-15 16:25:30.768406
2022-12-15 16:25:30.768645
2022-12-15 16:25:30.769219
2022-12-15 16:25:30.801944
2022-12-15 16:25:30.802284
2022-12-15 16:25:30.802742
2022-12-15 16:25:30.835496
2022-12-15 16:25:30.835922
2022-12-15 16:25:30.869037
2022-12-15 16:25:30.869037
2022-12-15 16:25:30.870038
2022-12-15 16:25:30.902482
2022-12-15 16:25:30.903484
2022-12-15 16:25:30.903484
2022-12-15 16:25:30.935108
2022-12-15 16:25:30.936115
2022-12-15 16:25:30.969278
2022-12-15 16:25:30.969278
2022-12-15 16:25:30.970283
2022-12-15 16:25:31.002690
2022-12-15 16:25:31.002690
2022-12-15 16:25:31.003697
2022-12-15 16:25:31.036239
2022-12-15 16:25:31.036598
2022-12-15 16:25:31.069678
2022-12-15 16:25:31.069918
2022-12-15 16:25:31.069918
2022-12-15 16:25:31.103618
2022-12-15 16:25:31.103909
2022-12-15 16:25:31.104461
2022-12-15 16:25:31.137209
2022-12-15 16:25:31.137595
2022-12-15 16:25:31.170620
2022-12-15 16:25:31.170620
2022-12-15 16:25:31.171540
2022-12-15 16:25:31.203871
2022-12-15 16:25:31.203871
2022-12-15 16:25:31.204868
2022-12-15 16:25:31.237103
2022-12-15 16:25:31.237683
2022-12-15 16:25:31.270926
2022-12-15 16:25:31.271251
2022-12-15 16:25:31.271251
2022-12-15 16:25:31.304497
2022-12-15 16:25:31.304870
2022-12-15 16:25:31.305323
2022-12-15 16:25:31.338184
2022-12-15 16:25:31.339186
2022-12-15 16:25:31.371871
2022-12-15 16:25:31.372107
2022-12-15 16:25:31.372107
2022-12-15 16:25:31.405540
2022-12-15 16:25:31.405873
2022-12-15 16:25:31.406506
2022-12-15 16:25:31.438827
2022-12-15 16:25:31.438827
2022-12-15 16:25:31.471958
2022-12-15 16:25:31.471958
2022-12-15 16:25:31.472959
2022-12-15 16:25:31.505980
2022-12-15 16:25:31.506371
2022-12-15 16:25:31.506953
2022-12-15 16:25:31.539460
2022-12-15 16:25:31.539460
2022-12-15 16:25:31.573047
2022-12-15 16:25:31.573047
2022-12-15 16:25:31.573948
2022-12-15 16:25:31.606504
2022-12-15 16:25:31.606504
2022-12-15 16:25:31.607513
2022-12-15 16:25:31.639799
2022-12-15 16:25:31.639799
2022-12-15 16:25:31.673068
2022-12-15 16:25:31.673068
2022-12-15 16:25:31.674086
2022-12-15 16:25:31.706800
2022-12-15 16:25:31.707124
2022-12-15 16:25:31.707584
2022-12-15 16:25:31.740562
2022-12-15 16:25:31.740562
2022-12-15 16:25:31.772950
2022-12-15 16:25:31.773976
2022-12-15 16:25:31.773976
2022-12-15 16:25:31.807696
2022-12-15 16:25:31.807987
2022-12-15 16:25:31.807987
2022-12-15 16:25:31.841236
2022-12-15 16:25:31.841579
2022-12-15 16:25:31.873827
2022-12-15 16:25:31.874824
2022-12-15 16:25:31.874824
2022-12-15 16:25:31.908438
2022-12-15 16:25:31.908731
2022-12-15 16:25:31.909311
2022-12-15 16:25:31.941916
2022-12-15 16:25:31.942259
2022-12-15 16:25:31.975423
2022-12-15 16:25:31.975661
2022-12-15 16:25:31.975661
2022-12-15 16:25:32.009023
2022-12-15 16:25:32.009342
2022-12-15 16:25:32.009974
2022-12-15 16:25:32.042623
2022-12-15 16:25:32.042964
2022-12-15 16:25:32.075898
2022-12-15 16:25:32.075898
2022-12-15 16:25:32.076927
2022-12-15 16:25:32.108475
2022-12-15 16:25:32.109476
2022-12-15 16:25:32.109908
2022-12-15 16:25:32.141920
2022-12-15 16:25:32.142872
2022-12-15 16:25:32.176791
2022-12-15 16:25:32.176791
2022-12-15 16:25:32.177803
2022-12-15 16:25:32.210370
2022-12-15 16:25:32.210698
2022-12-15 16:25:32.210698
2022-12-15 16:25:32.243737
2022-12-15 16:25:32.244083
2022-12-15 16:25:32.277150
2022-12-15 16:25:32.277619
2022-12-15 16:25:32.277619
2022-12-15 16:25:32.310653
2022-12-15 16:25:32.310653
2022-12-15 16:25:32.311655
2022-12-15 16:25:32.343591
2022-12-15 16:25:32.344600
2022-12-15 16:25:32.377650
2022-12-15 16:25:32.377650
2022-12-15 16:25:32.378681
2022-12-15 16:25:32.411406
2022-12-15 16:25:32.411406
2022-12-15 16:25:32.412408
2022-12-15 16:25:32.444818
2022-12-15 16:25:32.445310
2022-12-15 16:25:32.478001
2022-12-15 16:25:32.478001
2022-12-15 16:25:32.479011
2022-12-15 16:25:32.511653
2022-12-15 16:25:32.512304
2022-12-15 16:25:32.512690
2022-12-15 16:25:32.545440
2022-12-15 16:25:32.545918
2022-12-15 16:25:32.578358
2022-12-15 16:25:32.579395
2022-12-15 16:25:32.579395
2022-12-15 16:25:32.611990
2022-12-15 16:25:32.612999
2022-12-15 16:25:32.612999
2022-12-15 16:25:32.645285
2022-12-15 16:25:32.646278
2022-12-15 16:25:32.679154
2022-12-15 16:25:32.679421
2022-12-15 16:25:32.680077
2022-12-15 16:25:32.712850
2022-12-15 16:25:32.713231
2022-12-15 16:25:32.713857
2022-12-15 16:25:32.746239
2022-12-15 16:25:32.746587
2022-12-15 16:25:32.780095
2022-12-15 16:25:32.780334
2022-12-15 16:25:32.780880
2022-12-15 16:25:32.813268
2022-12-15 16:25:32.813603
2022-12-15 16:25:32.813603
2022-12-15 16:25:32.847240
2022-12-15 16:25:32.847610
2022-12-15 16:25:32.880684
2022-12-15 16:25:32.880684
2022-12-15 16:25:32.881694
2022-12-15 16:25:32.913594
2022-12-15 16:25:32.913594
2022-12-15 16:25:32.914596
2022-12-15 16:25:32.947488
2022-12-15 16:25:32.947951
2022-12-15 16:25:32.981500
2022-12-15 16:25:32.981738
2022-12-15 16:25:32.982327
2022-12-15 16:25:33.014946
2022-12-15 16:25:33.015265
2022-12-15 16:25:33.015895
2022-12-15 16:25:33.048533
2022-12-15 16:25:33.048877
2022-12-15 16:25:33.081673
2022-12-15 16:25:33.081911
2022-12-15 16:25:33.082372
2022-12-15 16:25:33.115631
2022-12-15 16:25:33.115922
2022-12-15 16:25:33.116506
2022-12-15 16:25:33.149037
2022-12-15 16:25:33.149424
2022-12-15 16:25:33.182764
2022-12-15 16:25:33.182764
2022-12-15 16:25:33.183772
2022-12-15 16:25:33.215787
2022-12-15 16:25:33.216129
2022-12-15 16:25:33.216129
2022-12-15 16:25:33.249672
2022-12-15 16:25:33.250016
2022-12-15 16:25:33.283184
2022-12-15 16:25:33.283425
2022-12-15 16:25:33.284011
2022-12-15 16:25:33.316798
2022-12-15 16:25:33.317089
2022-12-15 16:25:33.317673
2022-12-15 16:25:33.350435
2022-12-15 16:25:33.350824
2022-12-15 16:25:33.383877
2022-12-15 16:25:33.384144
2022-12-15 16:25:33.384648
2022-12-15 16:25:33.417481
2022-12-15 16:25:33.417810
2022-12-15 16:25:33.418396
2022-12-15 16:25:33.450990
2022-12-15 16:25:33.450990
2022-12-15 16:25:33.484355
2022-12-15 16:25:33.485140
2022-12-15 16:25:33.485624
2022-12-15 16:25:33.516799
2022-12-15 16:25:33.517808
2022-12-15 16:25:33.517808
2022-12-15 16:25:33.550619
2022-12-15 16:25:33.551571
2022-12-15 16:25:33.584819
2022-12-15 16:25:33.585057
2022-12-15 16:25:33.585057
2022-12-15 16:25:33.618517
2022-12-15 16:25:33.618812
2022-12-15 16:25:33.619435
2022-12-15 16:25:33.652073
2022-12-15 16:25:33.652421
2022-12-15 16:25:33.685562
2022-12-15 16:25:33.685826
2022-12-15 16:25:33.686829
2022-12-15 16:25:33.719113
2022-12-15 16:25:33.719113
2022-12-15 16:25:33.720115
2022-12-15 16:25:33.753015
2022-12-15 16:25:33.753015
2022-12-15 16:25:33.785930
2022-12-15 16:25:33.786171
2022-12-15 16:25:33.787172
2022-12-15 16:25:33.819748
2022-12-15 16:25:33.819748
2022-12-15 16:25:33.820783
2022-12-15 16:25:33.853354
2022-12-15 16:25:33.853750
2022-12-15 16:25:33.886664
2022-12-15 16:25:33.886948
2022-12-15 16:25:33.886948
2022-12-15 16:25:33.920354
2022-12-15 16:25:33.920652
2022-12-15 16:25:33.921114
2022-12-15 16:25:33.953457
2022-12-15 16:25:33.953457
2022-12-15 16:25:33.987361
2022-12-15 16:25:33.987631
2022-12-15 16:25:33.988141
2022-12-15 16:25:34.020640
2022-12-15 16:25:34.020640
2022-12-15 16:25:34.021680
2022-12-15 16:25:34.053873
2022-12-15 16:25:34.053873
2022-12-15 16:25:34.087263
2022-12-15 16:25:34.087263
2022-12-15 16:25:34.088261
2022-12-15 16:25:34.120591
2022-12-15 16:25:34.121593
2022-12-15 16:25:34.121593
2022-12-15 16:25:34.153868
2022-12-15 16:25:34.154866
2022-12-15 16:25:34.188369
2022-12-15 16:25:34.188369
2022-12-15 16:25:34.189250
2022-12-15 16:25:34.221934
2022-12-15 16:25:34.222253
2022-12-15 16:25:34.222909
2022-12-15 16:25:34.255514
2022-12-15 16:25:34.255960
2022-12-15 16:25:34.289211
2022-12-15 16:25:34.289475
2022-12-15 16:25:34.290479
2022-12-15 16:25:34.322665
2022-12-15 16:25:34.322665
2022-12-15 16:25:34.323543
2022-12-15 16:25:34.356098
2022-12-15 16:25:34.356098
2022-12-15 16:25:34.388459
2022-12-15 16:25:34.389464
2022-12-15 16:25:34.389464
2022-12-15 16:25:34.422785
2022-12-15 16:25:34.423200
2022-12-15 16:25:34.423200
2022-12-15 16:25:34.456880
2022-12-15 16:25:34.457224
2022-12-15 16:25:34.490447
2022-12-15 16:25:34.490725
2022-12-15 16:25:34.491378
2022-12-15 16:25:34.523790
2022-12-15 16:25:34.524083
2022-12-15 16:25:34.524538
2022-12-15 16:25:34.557356
2022-12-15 16:25:34.557726
2022-12-15 16:25:34.591029
2022-12-15 16:25:34.591298
2022-12-15 16:25:34.591298
2022-12-15 16:25:34.624458
2022-12-15 16:25:34.624866
2022-12-15 16:25:34.625870
2022-12-15 16:25:34.657641
2022-12-15 16:25:34.657641
2022-12-15 16:25:34.691027
2022-12-15 16:25:34.691350
2022-12-15 16:25:34.691809
2022-12-15 16:25:34.725031
2022-12-15 16:25:34.725364
2022-12-15 16:25:34.725941
2022-12-15 16:25:34.758646
2022-12-15 16:25:34.758990
2022-12-15 16:25:34.792059
2022-12-15 16:25:34.792297
2022-12-15 16:25:34.792881
2022-12-15 16:25:34.825597
2022-12-15 16:25:34.825597
2022-12-15 16:25:34.826402
2022-12-15 16:25:34.859368
2022-12-15 16:25:34.859747
2022-12-15 16:25:34.892737
2022-12-15 16:25:34.892737
2022-12-15 16:25:34.893740
2022-12-15 16:25:34.925121
2022-12-15 16:25:34.926149
2022-12-15 16:25:34.926149
2022-12-15 16:25:34.959399
2022-12-15 16:25:34.959821
2022-12-15 16:25:34.993407
2022-12-15 16:25:34.993678
2022-12-15 16:25:34.994266
2022-12-15 16:25:35.026988
2022-12-15 16:25:35.027318
2022-12-15 16:25:35.027865
2022-12-15 16:25:35.060444
2022-12-15 16:25:35.060792
2022-12-15 16:25:35.093907
2022-12-15 16:25:35.093907
2022-12-15 16:25:35.094698
2022-12-15 16:25:35.127769
2022-12-15 16:25:35.128020
2022-12-15 16:25:35.128659
2022-12-15 16:25:35.160991
2022-12-15 16:25:35.160991
2022-12-15 16:25:35.194239
2022-12-15 16:25:35.194239
2022-12-15 16:25:35.195275
2022-12-15 16:25:35.227642
2022-12-15 16:25:35.227642
2022-12-15 16:25:35.227642
2022-12-15 16:25:35.261203
2022-12-15 16:25:35.261548
2022-12-15 16:25:35.294898
2022-12-15 16:25:35.295313
2022-12-15 16:25:35.295313
2022-12-15 16:25:35.328561
2022-12-15 16:25:35.328561
2022-12-15 16:25:35.329562
2022-12-15 16:25:35.362028
2022-12-15 16:25:35.362560
2022-12-15 16:25:35.395798
2022-12-15 16:25:35.396197
2022-12-15 16:25:35.396197
2022-12-15 16:25:35.429247
2022-12-15 16:25:35.429789
2022-12-15 16:25:35.429789
2022-12-15 16:25:35.462678
2022-12-15 16:25:35.463352
2022-12-15 16:25:35.495892
2022-12-15 16:25:35.495892
2022-12-15 16:25:35.496910
2022-12-15 16:25:35.528724
2022-12-15 16:25:35.529723
2022-12-15 16:25:35.529723
2022-12-15 16:25:35.562853
2022-12-15 16:25:35.562853
2022-12-15 16:25:35.596804
2022-12-15 16:25:35.596804
2022-12-15 16:25:35.597810
2022-12-15 16:25:35.629867
2022-12-15 16:25:35.629867
2022-12-15 16:25:35.630889
2022-12-15 16:25:35.663601
2022-12-15 16:25:35.663601
2022-12-15 16:25:35.696856
2022-12-15 16:25:35.696856
2022-12-15 16:25:35.697890
2022-12-15 16:25:35.730164
2022-12-15 16:25:35.731165
2022-12-15 16:25:35.731165
2022-12-15 16:25:35.764515
2022-12-15 16:25:35.764515
2022-12-15 16:25:35.797923
2022-12-15 16:25:35.798908
2022-12-15 16:25:35.798908
2022-12-15 16:25:35.830957
2022-12-15 16:25:35.830957
2022-12-15 16:25:35.831960
2022-12-15 16:25:35.864584
2022-12-15 16:25:35.865005
2022-12-15 16:25:35.898696
2022-12-15 16:25:35.898977
2022-12-15 16:25:35.899521
2022-12-15 16:25:35.930980
2022-12-15 16:25:35.931963
2022-12-15 16:25:35.931963
2022-12-15 16:25:35.965712
2022-12-15 16:25:35.966056
2022-12-15 16:25:35.999292
2022-12-15 16:25:35.999559
2022-12-15 16:25:36.000214
2022-12-15 16:25:36.032838
2022-12-15 16:25:36.033172
2022-12-15 16:25:36.033633
2022-12-15 16:25:36.066354
2022-12-15 16:25:36.066697
2022-12-15 16:25:36.099637
2022-12-15 16:25:36.100025
2022-12-15 16:25:36.101041
2022-12-15 16:25:36.132989
2022-12-15 16:25:36.132989
2022-12-15 16:25:36.133985
2022-12-15 16:25:36.166029
2022-12-15 16:25:36.167026
2022-12-15 16:25:36.200509
2022-12-15 16:25:36.200746
2022-12-15 16:25:36.201332
2022-12-15 16:25:36.233975
2022-12-15 16:25:36.234265
2022-12-15 16:25:36.234844
2022-12-15 16:25:36.267582
2022-12-15 16:25:36.267924
2022-12-15 16:25:36.300982
2022-12-15 16:25:36.301221
2022-12-15 16:25:36.301845
2022-12-15 16:25:36.334655
2022-12-15 16:25:36.334655
2022-12-15 16:25:36.335656
2022-12-15 16:25:36.368046
2022-12-15 16:25:36.368456
2022-12-15 16:25:36.401792
2022-12-15 16:25:36.401792
2022-12-15 16:25:36.402792
2022-12-15 16:25:36.434236
2022-12-15 16:25:36.435237
2022-12-15 16:25:36.435237
2022-12-15 16:25:36.468526
2022-12-15 16:25:36.468937
2022-12-15 16:25:36.501929
2022-12-15 16:25:36.501929
2022-12-15 16:25:36.502823
2022-12-15 16:25:36.535235
2022-12-15 16:25:36.535235
2022-12-15 16:25:36.536236
2022-12-15 16:25:36.569181
2022-12-15 16:25:36.569530
2022-12-15 16:25:36.602749
2022-12-15 16:25:36.602989
2022-12-15 16:25:36.603447
2022-12-15 16:25:36.636281
2022-12-15 16:25:36.636603
2022-12-15 16:25:36.636603
2022-12-15 16:25:36.669656
2022-12-15 16:25:36.670044
2022-12-15 16:25:36.703132
2022-12-15 16:25:36.703844
2022-12-15 16:25:36.703844
2022-12-15 16:25:36.736302
2022-12-15 16:25:36.736302
2022-12-15 16:25:36.737304
2022-12-15 16:25:36.770526
2022-12-15 16:25:36.770870
2022-12-15 16:25:36.803903
2022-12-15 16:25:36.804139
2022-12-15 16:25:36.805141
2022-12-15 16:25:36.837534
2022-12-15 16:25:36.837823
2022-12-15 16:25:36.838417
2022-12-15 16:25:36.871017
2022-12-15 16:25:36.871504
2022-12-15 16:25:36.904548
2022-12-15 16:25:36.904874
2022-12-15 16:25:36.905419
2022-12-15 16:25:36.938068
2022-12-15 16:25:36.938450
2022-12-15 16:25:36.938908
2022-12-15 16:25:36.971594
2022-12-15 16:25:36.972284
2022-12-15 16:25:37.004021
2022-12-15 16:25:37.005045
2022-12-15 16:25:37.005450
2022-12-15 16:25:37.038299
2022-12-15 16:25:37.038299
2022-12-15 16:25:37.039304
2022-12-15 16:25:37.071713
2022-12-15 16:25:37.072718
2022-12-15 16:25:37.105240
2022-12-15 16:25:37.105510
2022-12-15 16:25:37.106141
2022-12-15 16:25:37.139226
2022-12-15 16:25:37.139571
2022-12-15 16:25:37.139571
2022-12-15 16:25:37.172735
2022-12-15 16:25:37.172735
2022-12-15 16:25:37.206277
2022-12-15 16:25:37.206545
2022-12-15 16:25:37.206545
2022-12-15 16:25:37.239603
2022-12-15 16:25:37.239603
2022-12-15 16:25:37.240467
2022-12-15 16:25:37.273003
2022-12-15 16:25:37.273323
2022-12-15 16:25:37.306842
2022-12-15 16:25:37.307081
2022-12-15 16:25:37.307671
2022-12-15 16:25:37.340090
2022-12-15 16:25:37.340466
2022-12-15 16:25:37.340917
2022-12-15 16:25:37.373896
2022-12-15 16:25:37.374242
2022-12-15 16:25:37.407648
2022-12-15 16:25:37.407913
2022-12-15 16:25:37.408407
2022-12-15 16:25:37.441021
2022-12-15 16:25:37.441340
2022-12-15 16:25:37.441995
2022-12-15 16:25:37.474663
2022-12-15 16:25:37.475007
2022-12-15 16:25:37.508248
2022-12-15 16:25:37.508512
2022-12-15 16:25:37.509514
2022-12-15 16:25:37.541680
2022-12-15 16:25:37.541680
2022-12-15 16:25:37.542524
2022-12-15 16:25:37.574899
2022-12-15 16:25:37.574899
2022-12-15 16:25:37.608726
2022-12-15 16:25:37.608963
2022-12-15 16:25:37.608963
2022-12-15 16:25:37.642125
2022-12-15 16:25:37.642414
2022-12-15 16:25:37.642414
2022-12-15 16:25:37.675760
2022-12-15 16:25:37.676108
2022-12-15 16:25:37.709325
2022-12-15 16:25:37.709565
2022-12-15 16:25:37.710029
2022-12-15 16:25:37.742996
2022-12-15 16:25:37.743330
2022-12-15 16:25:37.743877
2022-12-15 16:25:37.776501
2022-12-15 16:25:37.776846
2022-12-15 16:25:37.809891
2022-12-15 16:25:37.810344
2022-12-15 16:25:37.811385
2022-12-15 16:25:37.842291
2022-12-15 16:25:37.843292
2022-12-15 16:25:37.843623
2022-12-15 16:25:37.876890
2022-12-15 16:25:37.877234
2022-12-15 16:25:37.910623
2022-12-15 16:25:37.910861
2022-12-15 16:25:37.911446
2022-12-15 16:25:37.943915
2022-12-15 16:25:37.944210
2022-12-15 16:25:37.944795
2022-12-15 16:25:37.977613
2022-12-15 16:25:37.977961
2022-12-15 16:25:38.011114
2022-12-15 16:25:38.011378
2022-12-15 16:25:38.011378
2022-12-15 16:25:38.044792
2022-12-15 16:25:38.044792
2022-12-15 16:25:38.045795
2022-12-15 16:25:38.077628
2022-12-15 16:25:38.077628
2022-12-15 16:25:38.111689
2022-12-15 16:25:38.111932
2022-12-15 16:25:38.112518
2022-12-15 16:25:38.145399
2022-12-15 16:25:38.145686
2022-12-15 16:25:38.146228
2022-12-15 16:25:38.178735
2022-12-15 16:25:38.179078
2022-12-15 16:25:38.212322
2022-12-15 16:25:38.212322
2022-12-15 16:25:38.213218
2022-12-15 16:25:38.245755
2022-12-15 16:25:38.245755
2022-12-15 16:25:38.246753
2022-12-15 16:25:38.279289
2022-12-15 16:25:38.279289
2022-12-15 16:25:38.312502
2022-12-15 16:25:38.312502
2022-12-15 16:25:38.313504
2022-12-15 16:25:38.346182
2022-12-15 16:25:38.346182
2022-12-15 16:25:38.347192
2022-12-15 16:25:38.379693
2022-12-15 16:25:38.379693
2022-12-15 16:25:38.412958
2022-12-15 16:25:38.412958
2022-12-15 16:25:38.413958
2022-12-15 16:25:38.446913
2022-12-15 16:25:38.446913
2022-12-15 16:25:38.447916
2022-12-15 16:25:38.480620
2022-12-15 16:25:38.480620
2022-12-15 16:25:38.513701
2022-12-15 16:25:38.513701
2022-12-15 16:25:38.514710
2022-12-15 16:25:38.547616
2022-12-15 16:25:38.547616
2022-12-15 16:25:38.548598
2022-12-15 16:25:38.580725
2022-12-15 16:25:38.580725
2022-12-15 16:25:38.613285
2022-12-15 16:25:38.614295
2022-12-15 16:25:38.614295
2022-12-15 16:25:38.647068
2022-12-15 16:25:38.648025
2022-12-15 16:25:38.648025
2022-12-15 16:25:38.681351
2022-12-15 16:25:38.681732
2022-12-15 16:25:38.715226
2022-12-15 16:25:38.715464
2022-12-15 16:25:38.716013
2022-12-15 16:25:38.748321
2022-12-15 16:25:38.748616
2022-12-15 16:25:38.749076
2022-12-15 16:25:38.782399
2022-12-15 16:25:38.782749
2022-12-15 16:25:38.815658
2022-12-15 16:25:38.815956
2022-12-15 16:25:38.816458
2022-12-15 16:25:38.849137
2022-12-15 16:25:38.849546
2022-12-15 16:25:38.850507
2022-12-15 16:25:38.882751
2022-12-15 16:25:38.883096
2022-12-15 16:25:38.916349
2022-12-15 16:25:38.916616
2022-12-15 16:25:38.917268
2022-12-15 16:25:38.949871
2022-12-15 16:25:38.950196
2022-12-15 16:25:38.950196
2022-12-15 16:25:38.983388
2022-12-15 16:25:38.983734
2022-12-15 16:25:39.016997
2022-12-15 16:25:39.017281
2022-12-15 16:25:39.017779
2022-12-15 16:25:39.050460
2022-12-15 16:25:39.050797
2022-12-15 16:25:39.051402
2022-12-15 16:25:39.083910
2022-12-15 16:25:39.083910
2022-12-15 16:25:39.116709
2022-12-15 16:25:39.117723
2022-12-15 16:25:39.118020
2022-12-15 16:25:39.151120
2022-12-15 16:25:39.151439
2022-12-15 16:25:39.152085
2022-12-15 16:25:39.184635
2022-12-15 16:25:39.184981
2022-12-15 16:25:39.218210
2022-12-15 16:25:39.218450
2022-12-15 16:25:39.218450
2022-12-15 16:25:39.251738
2022-12-15 16:25:39.252031
2022-12-15 16:25:39.252580
2022-12-15 16:25:39.285255
2022-12-15 16:25:39.285602
2022-12-15 16:25:39.318695
2022-12-15 16:25:39.319076
2022-12-15 16:25:39.319763
2022-12-15 16:25:39.352214
2022-12-15 16:25:39.352214
2022-12-15 16:25:39.353221
2022-12-15 16:25:39.385586
2022-12-15 16:25:39.386089
2022-12-15 16:25:39.419403
2022-12-15 16:25:39.419676
2022-12-15 16:25:39.420333
2022-12-15 16:25:39.452968
2022-12-15 16:25:39.453303
2022-12-15 16:25:39.453895
2022-12-15 16:25:39.486515
2022-12-15 16:25:39.486860
2022-12-15 16:25:39.520022
2022-12-15 16:25:39.520290
2022-12-15 16:25:39.520798
2022-12-15 16:25:39.553560
2022-12-15 16:25:39.553880
2022-12-15 16:25:39.554532
2022-12-15 16:25:39.587106
2022-12-15 16:25:39.587477
2022-12-15 16:25:39.620507
2022-12-15 16:25:39.620507
2022-12-15 16:25:39.621511
2022-12-15 16:25:39.654067
2022-12-15 16:25:39.654067
2022-12-15 16:25:39.655074
2022-12-15 16:25:39.687028
2022-12-15 16:25:39.687442
2022-12-15 16:25:39.721280
2022-12-15 16:25:39.721519
2022-12-15 16:25:39.722103
2022-12-15 16:25:39.754730
2022-12-15 16:25:39.755019
2022-12-15 16:25:39.755604
2022-12-15 16:25:39.788258
2022-12-15 16:25:39.788611
2022-12-15 16:25:39.821918
2022-12-15 16:25:39.822182
2022-12-15 16:25:39.822743
2022-12-15 16:25:39.855340
2022-12-15 16:25:39.855734
2022-12-15 16:25:39.856370
2022-12-15 16:25:39.888865
2022-12-15 16:25:39.888865
2022-12-15 16:25:39.921360
2022-12-15 16:25:39.922370
2022-12-15 16:25:39.922370
2022-12-15 16:25:39.955464
2022-12-15 16:25:39.955464
2022-12-15 16:25:39.956459
2022-12-15 16:25:39.988603
2022-12-15 16:25:39.989600
2022-12-15 16:25:40.022836
2022-12-15 16:25:40.022836
2022-12-15 16:25:40.023842
2022-12-15 16:25:40.056210
2022-12-15 16:25:40.056659
2022-12-15 16:25:40.056659
2022-12-15 16:25:40.089589
2022-12-15 16:25:40.090026
2022-12-15 16:25:40.122990
2022-12-15 16:25:40.123375
2022-12-15 16:25:40.123878
2022-12-15 16:25:40.156763
2022-12-15 16:25:40.157096
2022-12-15 16:25:40.157688
2022-12-15 16:25:40.190435
2022-12-15 16:25:40.191212
2022-12-15 16:25:40.223973
2022-12-15 16:25:40.224979
2022-12-15 16:25:40.225207
2022-12-15 16:25:40.257293
2022-12-15 16:25:40.257568
2022-12-15 16:25:40.258091
2022-12-15 16:25:40.290808
2022-12-15 16:25:40.291134
2022-12-15 16:25:40.324266
2022-12-15 16:25:40.324517
2022-12-15 16:25:40.325038
2022-12-15 16:25:40.357717
2022-12-15 16:25:40.358091
2022-12-15 16:25:40.358091
2022-12-15 16:25:40.391333
2022-12-15 16:25:40.391758
2022-12-15 16:25:40.425298
2022-12-15 16:25:40.425587
2022-12-15 16:25:40.425587
2022-12-15 16:25:40.458763
2022-12-15 16:25:40.459058
2022-12-15 16:25:40.459516
2022-12-15 16:25:40.492362
2022-12-15 16:25:40.492752
2022-12-15 16:25:40.525913
2022-12-15 16:25:40.525913
2022-12-15 16:25:40.526914
2022-12-15 16:25:40.559485
2022-12-15 16:25:40.560487
2022-12-15 16:25:40.560487
2022-12-15 16:25:40.592883
2022-12-15 16:25:40.593229
2022-12-15 16:25:40.626465
2022-12-15 16:25:40.626703
2022-12-15 16:25:40.627291
2022-12-15 16:25:40.659976
2022-12-15 16:25:40.660270
2022-12-15 16:25:40.660270
2022-12-15 16:25:40.693641
2022-12-15 16:25:40.693985
2022-12-15 16:25:40.727110
2022-12-15 16:25:40.727376
2022-12-15 16:25:40.727868
2022-12-15 16:25:40.760610
2022-12-15 16:25:40.760948
2022-12-15 16:25:40.761587
2022-12-15 16:25:40.794187
2022-12-15 16:25:40.794562
2022-12-15 16:25:40.827596
2022-12-15 16:25:40.828605
2022-12-15 16:25:40.828605
2022-12-15 16:25:40.861103
2022-12-15 16:25:40.861393
2022-12-15 16:25:40.861976
2022-12-15 16:25:40.894682
2022-12-15 16:25:40.894682
2022-12-15 16:25:40.928284
2022-12-15 16:25:40.928521
2022-12-15 16:25:40.929111
2022-12-15 16:25:40.961861
2022-12-15 16:25:40.962155
2022-12-15 16:25:40.962745
2022-12-15 16:25:40.995479
2022-12-15 16:25:40.995833
2022-12-15 16:25:41.028987
2022-12-15 16:25:41.029226
2022-12-15 16:25:41.029811
2022-12-15 16:25:41.062366
2022-12-15 16:25:41.062914
2022-12-15 16:25:41.062914
2022-12-15 16:25:41.095430
2022-12-15 16:25:41.095430
2022-12-15 16:25:41.129419
2022-12-15 16:25:41.129419
2022-12-15 16:25:41.130321
2022-12-15 16:25:41.162295
2022-12-15 16:25:41.162295
2022-12-15 16:25:41.163306
2022-12-15 16:25:41.195544
2022-12-15 16:25:41.196545
2022-12-15 16:25:41.230019
2022-12-15 16:25:41.230019
2022-12-15 16:25:41.230843
2022-12-15 16:25:41.263581
2022-12-15 16:25:41.264452
2022-12-15 16:25:41.264452
2022-12-15 16:25:41.297185
2022-12-15 16:25:41.298057
2022-12-15 16:25:41.330787
2022-12-15 16:25:41.331192
2022-12-15 16:25:41.331655
2022-12-15 16:25:41.364317
2022-12-15 16:25:41.364317
2022-12-15 16:25:41.365212
2022-12-15 16:25:41.397473
2022-12-15 16:25:41.397887
2022-12-15 16:25:41.430824
2022-12-15 16:25:41.431174
2022-12-15 16:25:41.431787
2022-12-15 16:25:41.464756
2022-12-15 16:25:41.464756
2022-12-15 16:25:41.465759
2022-12-15 16:25:41.497856
2022-12-15 16:25:41.498177
2022-12-15 16:25:41.531612
2022-12-15 16:25:41.531612
2022-12-15 16:25:41.532613
2022-12-15 16:25:41.565136
2022-12-15 16:25:41.565492
2022-12-15 16:25:41.566125
2022-12-15 16:25:41.598877
2022-12-15 16:25:41.599222
2022-12-15 16:25:41.631971
2022-12-15 16:25:41.632248
2022-12-15 16:25:41.632248
2022-12-15 16:25:41.665915
2022-12-15 16:25:41.666207
2022-12-15 16:25:41.666754
2022-12-15 16:25:41.699469
2022-12-15 16:25:41.699845
2022-12-15 16:25:41.732832
2022-12-15 16:25:41.733472
2022-12-15 16:25:41.733472
2022-12-15 16:25:41.766047
2022-12-15 16:25:41.766047
2022-12-15 16:25:41.767043
2022-12-15 16:25:41.800037
2022-12-15 16:25:41.800378
2022-12-15 16:25:41.833521
2022-12-15 16:25:41.833761
2022-12-15 16:25:41.834351
2022-12-15 16:25:41.867150
2022-12-15 16:25:41.867554
2022-12-15 16:25:41.868191
2022-12-15 16:25:41.900635
2022-12-15 16:25:41.900982
2022-12-15 16:25:41.934162
2022-12-15 16:25:41.934400
2022-12-15 16:25:41.934863
2022-12-15 16:25:41.967714
2022-12-15 16:25:41.968008
2022-12-15 16:25:41.968555
2022-12-15 16:25:42.001230
2022-12-15 16:25:42.001230
2022-12-15 16:25:42.033922
2022-12-15 16:25:42.033922
2022-12-15 16:25:42.034920
2022-12-15 16:25:42.068217
2022-12-15 16:25:42.068511
2022-12-15 16:25:42.069058
2022-12-15 16:25:42.102028
2022-12-15 16:25:42.102373
2022-12-15 16:25:42.135375
2022-12-15 16:25:42.135612
2022-12-15 16:25:42.136159
2022-12-15 16:25:42.168922
2022-12-15 16:25:42.169213
2022-12-15 16:25:42.169672
2022-12-15 16:25:42.202612
2022-12-15 16:25:42.202959
2022-12-15 16:25:42.235924
2022-12-15 16:25:42.235924
2022-12-15 16:25:42.236896
2022-12-15 16:25:42.269136
2022-12-15 16:25:42.269136
2022-12-15 16:25:42.270143
2022-12-15 16:25:42.302009
2022-12-15 16:25:42.303012
2022-12-15 16:25:42.336530
2022-12-15 16:25:42.336796
2022-12-15 16:25:42.336796
2022-12-15 16:25:42.370212
2022-12-15 16:25:42.370504
2022-12-15 16:25:42.371077
2022-12-15 16:25:42.402964
2022-12-15 16:25:42.402964
2022-12-15 16:25:42.435946
2022-12-15 16:25:42.436943
2022-12-15 16:25:42.436943
2022-12-15 16:25:42.470867
2022-12-15 16:25:42.471158
2022-12-15 16:25:42.471615
2022-12-15 16:25:42.504466
2022-12-15 16:25:42.504844
2022-12-15 16:25:42.537844
2022-12-15 16:25:42.537844
2022-12-15 16:25:42.538846
2022-12-15 16:25:42.571361
2022-12-15 16:25:42.571361
2022-12-15 16:25:42.572400
2022-12-15 16:25:42.604476
2022-12-15 16:25:42.604476
2022-12-15 16:25:42.638442
2022-12-15 16:25:42.638710
2022-12-15 16:25:42.639359
2022-12-15 16:25:42.671881
2022-12-15 16:25:42.672218
2022-12-15 16:25:42.672800
2022-12-15 16:25:42.705648
2022-12-15 16:25:42.706037
2022-12-15 16:25:42.739100
2022-12-15 16:25:42.739378
2022-12-15 16:25:42.739924
2022-12-15 16:25:42.772743
2022-12-15 16:25:42.773070
2022-12-15 16:25:42.773584
2022-12-15 16:25:42.806169
2022-12-15 16:25:42.806554
2022-12-15 16:25:42.839679
2022-12-15 16:25:42.840690
2022-12-15 16:25:42.840690
2022-12-15 16:25:42.871856
2022-12-15 16:25:42.872893
2022-12-15 16:25:42.872893
2022-12-15 16:25:42.906424
2022-12-15 16:25:42.906424
2022-12-15 16:25:42.940146
2022-12-15 16:25:42.940146
2022-12-15 16:25:42.941148
2022-12-15 16:25:42.973687
2022-12-15 16:25:42.974690
2022-12-15 16:25:42.974690
2022-12-15 16:25:43.007236
2022-12-15 16:25:43.008238
2022-12-15 16:25:43.040651
2022-12-15 16:25:43.040651
2022-12-15 16:25:43.041657
2022-12-15 16:25:43.074174
2022-12-15 16:25:43.074459
2022-12-15 16:25:43.075037
2022-12-15 16:25:43.107553
2022-12-15 16:25:43.107913
2022-12-15 16:25:43.140954
2022-12-15 16:25:43.141222
2022-12-15 16:25:43.141720
2022-12-15 16:25:43.174499
2022-12-15 16:25:43.174822
2022-12-15 16:25:43.175523
2022-12-15 16:25:43.208391
2022-12-15 16:25:43.208391
2022-12-15 16:25:43.240803
2022-12-15 16:25:43.241815
2022-12-15 16:25:43.241815
2022-12-15 16:25:43.275065
2022-12-15 16:25:43.275454
2022-12-15 16:25:43.275933
2022-12-15 16:25:43.308622
2022-12-15 16:25:43.309085
2022-12-15 16:25:43.342143
2022-12-15 16:25:43.342442
2022-12-15 16:25:43.342899
2022-12-15 16:25:43.375753
2022-12-15 16:25:43.376127
2022-12-15 16:25:43.376585
2022-12-15 16:25:43.409527
2022-12-15 16:25:43.410313
2022-12-15 16:25:43.443057
2022-12-15 16:25:43.443338
2022-12-15 16:25:43.443794
2022-12-15 16:25:43.476600
2022-12-15 16:25:43.476893
2022-12-15 16:25:43.476893
2022-12-15 16:25:43.510007
2022-12-15 16:25:43.510007
2022-12-15 16:25:43.543670
2022-12-15 16:25:43.543670
2022-12-15 16:25:43.544672
2022-12-15 16:25:43.577292
2022-12-15 16:25:43.577292
2022-12-15 16:25:43.578292
2022-12-15 16:25:43.610882
2022-12-15 16:25:43.610882
2022-12-15 16:25:43.644271
2022-12-15 16:25:43.644513
2022-12-15 16:25:43.645106
2022-12-15 16:25:43.677840
2022-12-15 16:25:43.678132
2022-12-15 16:25:43.678716
2022-12-15 16:25:43.711139
2022-12-15 16:25:43.711139
2022-12-15 16:25:43.744953
2022-12-15 16:25:43.745193
2022-12-15 16:25:43.745782
2022-12-15 16:25:43.778543
2022-12-15 16:25:43.778844
2022-12-15 16:25:43.778844
2022-12-15 16:25:43.811377
2022-12-15 16:25:43.811377
2022-12-15 16:25:43.845600
2022-12-15 16:25:43.845840
2022-12-15 16:25:43.846427
2022-12-15 16:25:43.879057
2022-12-15 16:25:43.879350
2022-12-15 16:25:43.879804
2022-12-15 16:25:43.912548
2022-12-15 16:25:43.912895
2022-12-15 16:25:43.946057
2022-12-15 16:25:43.946057
2022-12-15 16:25:43.947064
2022-12-15 16:25:43.979524
2022-12-15 16:25:43.980542
2022-12-15 16:25:43.980801
2022-12-15 16:25:44.012669
2022-12-15 16:25:44.013242
2022-12-15 16:25:44.046139
2022-12-15 16:25:44.046139
2022-12-15 16:25:44.047156
2022-12-15 16:25:44.080251
2022-12-15 16:25:44.080546
2022-12-15 16:25:44.080546
2022-12-15 16:25:44.113686
2022-12-15 16:25:44.113686
2022-12-15 16:25:44.147431
2022-12-15 16:25:44.147431
2022-12-15 16:25:44.148432
2022-12-15 16:25:44.180851
2022-12-15 16:25:44.181142
2022-12-15 16:25:44.181142
2022-12-15 16:25:44.214123
2022-12-15 16:25:44.214956
2022-12-15 16:25:44.247972
2022-12-15 16:25:44.247972
2022-12-15 16:25:44.248847
2022-12-15 16:25:44.281508
2022-12-15 16:25:44.282307
2022-12-15 16:25:44.282307
2022-12-15 16:25:44.314613
2022-12-15 16:25:44.315261
2022-12-15 16:25:44.347786
2022-12-15 16:25:44.347786
2022-12-15 16:25:44.348811
2022-12-15 16:25:44.380721
2022-12-15 16:25:44.381721
2022-12-15 16:25:44.381721
2022-12-15 16:25:44.415496
2022-12-15 16:25:44.415496
2022-12-15 16:25:44.448967
2022-12-15 16:25:44.448967
2022-12-15 16:25:44.449974
2022-12-15 16:25:44.482031
2022-12-15 16:25:44.482430
2022-12-15 16:25:44.482430
2022-12-15 16:25:44.516016
2022-12-15 16:25:44.516016
2022-12-15 16:25:44.549227
2022-12-15 16:25:44.549511
2022-12-15 16:25:44.550012
2022-12-15 16:25:44.583085
2022-12-15 16:25:44.584083
2022-12-15 16:25:44.584484
2022-12-15 16:25:44.616646
2022-12-15 16:25:44.617022
2022-12-15 16:25:44.650155
2022-12-15 16:25:44.650464
2022-12-15 16:25:44.651047
2022-12-15 16:25:44.683675
2022-12-15 16:25:44.683966
2022-12-15 16:25:44.684510
2022-12-15 16:25:44.717200
2022-12-15 16:25:44.717547
2022-12-15 16:25:44.750739
2022-12-15 16:25:44.750980
2022-12-15 16:25:44.751508
2022-12-15 16:25:44.784425
2022-12-15 16:25:44.784716
2022-12-15 16:25:44.784716
2022-12-15 16:25:44.817772
2022-12-15 16:25:44.818143
2022-12-15 16:25:44.851035
2022-12-15 16:25:44.851647
2022-12-15 16:25:44.852643
2022-12-15 16:25:44.884854
2022-12-15 16:25:44.885183
2022-12-15 16:25:44.885826
2022-12-15 16:25:44.918544
2022-12-15 16:25:44.918920
2022-12-15 16:25:44.951993
2022-12-15 16:25:44.952233
2022-12-15 16:25:44.952829
2022-12-15 16:25:44.985559
2022-12-15 16:25:44.985849
2022-12-15 16:25:44.985849
2022-12-15 16:25:45.019106
2022-12-15 16:25:45.019450
2022-12-15 16:25:45.052540
2022-12-15 16:25:45.052829
2022-12-15 16:25:45.053474
2022-12-15 16:25:45.086057
2022-12-15 16:25:45.086057
2022-12-15 16:25:45.086904
2022-12-15 16:25:45.118870
2022-12-15 16:25:45.119876
2022-12-15 16:25:45.153126
2022-12-15 16:25:45.153366
2022-12-15 16:25:45.153954
2022-12-15 16:25:45.186723
2022-12-15 16:25:45.187015
2022-12-15 16:25:45.187015
2022-12-15 16:25:45.220205
2022-12-15 16:25:45.220578
2022-12-15 16:25:45.253799
2022-12-15 16:25:45.254040
2022-12-15 16:25:45.254684
2022-12-15 16:25:45.287372
2022-12-15 16:25:45.287665
2022-12-15 16:25:45.288247
2022-12-15 16:25:45.320829
2022-12-15 16:25:45.321217
2022-12-15 16:25:45.354443
2022-12-15 16:25:45.354712
2022-12-15 16:25:45.354712
2022-12-15 16:25:45.387840
2022-12-15 16:25:45.387840
2022-12-15 16:25:45.388842
2022-12-15 16:25:45.420877
2022-12-15 16:25:45.421884
2022-12-15 16:25:45.454645
2022-12-15 16:25:45.454645
2022-12-15 16:25:45.455643
2022-12-15 16:25:45.488558
2022-12-15 16:25:45.488848
2022-12-15 16:25:45.489432
2022-12-15 16:25:45.522025
2022-12-15 16:25:45.522367
2022-12-15 16:25:45.555817
2022-12-15 16:25:45.556095
2022-12-15 16:25:45.556095
2022-12-15 16:25:45.589134
2022-12-15 16:25:45.589425
2022-12-15 16:25:45.589969
2022-12-15 16:25:45.622803
2022-12-15 16:25:45.623146
2022-12-15 16:25:45.656362
2022-12-15 16:25:45.656597
2022-12-15 16:25:45.657180
2022-12-15 16:25:45.689706
2022-12-15 16:25:45.689706
2022-12-15 16:25:45.690707
2022-12-15 16:25:45.723472
2022-12-15 16:25:45.724476
2022-12-15 16:25:45.755947
2022-12-15 16:25:45.755947
2022-12-15 16:25:45.756939
2022-12-15 16:25:45.790359
2022-12-15 16:25:45.790653
2022-12-15 16:25:45.791199
2022-12-15 16:25:45.823839
2022-12-15 16:25:45.824184
2022-12-15 16:25:45.857386
2022-12-15 16:25:45.857623
2022-12-15 16:25:45.858264
2022-12-15 16:25:45.890946
2022-12-15 16:25:45.891235
2022-12-15 16:25:45.891803
2022-12-15 16:25:45.924467
2022-12-15 16:25:45.924862
2022-12-15 16:25:45.957990
2022-12-15 16:25:45.957990
2022-12-15 16:25:45.958891
2022-12-15 16:25:45.991579
2022-12-15 16:25:45.991917
2022-12-15 16:25:45.992419
2022-12-15 16:25:46.024361
2022-12-15 16:25:46.024933
2022-12-15 16:25:46.058445
2022-12-15 16:25:46.058445
2022-12-15 16:25:46.059452
2022-12-15 16:25:46.090926
2022-12-15 16:25:46.091892
2022-12-15 16:25:46.091892
2022-12-15 16:25:46.125140
2022-12-15 16:25:46.126147
2022-12-15 16:25:46.158482
2022-12-15 16:25:46.158482
2022-12-15 16:25:46.159520
2022-12-15 16:25:46.192562
2022-12-15 16:25:46.192562
2022-12-15 16:25:46.193569
2022-12-15 16:25:46.226142
2022-12-15 16:25:46.226555
2022-12-15 16:25:46.259552
2022-12-15 16:25:46.259552
2022-12-15 16:25:46.260553
2022-12-15 16:25:46.292791
2022-12-15 16:25:46.292791
2022-12-15 16:25:46.293837
2022-12-15 16:25:46.326176
2022-12-15 16:25:46.327179
2022-12-15 16:25:46.359712
2022-12-15 16:25:46.360086
2022-12-15 16:25:46.360504
2022-12-15 16:25:46.393537
2022-12-15 16:25:46.393911
2022-12-15 16:25:46.394364
2022-12-15 16:25:46.427062
2022-12-15 16:25:46.427488
2022-12-15 16:25:46.460804
2022-12-15 16:25:46.461041
2022-12-15 16:25:46.461628
2022-12-15 16:25:46.494555
2022-12-15 16:25:46.494876
2022-12-15 16:25:46.495509
2022-12-15 16:25:46.527896
2022-12-15 16:25:46.528286
2022-12-15 16:25:46.561665
2022-12-15 16:25:46.561931
2022-12-15 16:25:46.561931
2022-12-15 16:25:46.594910
2022-12-15 16:25:46.595264
2022-12-15 16:25:46.596267
2022-12-15 16:25:46.627769
2022-12-15 16:25:46.628770
2022-12-15 16:25:46.661486
2022-12-15 16:25:46.661486
2022-12-15 16:25:46.662484
2022-12-15 16:25:46.695691
2022-12-15 16:25:46.695980
2022-12-15 16:25:46.696566
2022-12-15 16:25:46.729256
2022-12-15 16:25:46.729604
2022-12-15 16:25:46.762701
2022-12-15 16:25:46.762938
2022-12-15 16:25:46.762938
2022-12-15 16:25:46.796362
2022-12-15 16:25:46.796690
2022-12-15 16:25:46.797148
2022-12-15 16:25:46.829759
2022-12-15 16:25:46.830104
2022-12-15 16:25:46.863312
2022-12-15 16:25:46.863312
2022-12-15 16:25:46.864314
2022-12-15 16:25:46.896750
2022-12-15 16:25:46.897233
2022-12-15 16:25:46.898236
2022-12-15 16:25:46.929975
2022-12-15 16:25:46.930238
2022-12-15 16:25:46.963834
2022-12-15 16:25:46.964072
2022-12-15 16:25:46.964072
2022-12-15 16:25:46.997438
2022-12-15 16:25:46.997729
2022-12-15 16:25:46.997729
2022-12-15 16:25:47.030992
2022-12-15 16:25:47.031335
2022-12-15 16:25:47.064061
2022-12-15 16:25:47.064300
2022-12-15 16:25:47.064678
2022-12-15 16:25:47.097864
2022-12-15 16:25:47.097864
2022-12-15 16:25:47.098869
2022-12-15 16:25:47.131711
2022-12-15 16:25:47.131711
2022-12-15 16:25:47.165095
2022-12-15 16:25:47.165095
2022-12-15 16:25:47.166125
2022-12-15 16:25:47.197719
2022-12-15 16:25:47.198720
2022-12-15 16:25:47.198720
2022-12-15 16:25:47.231912
2022-12-15 16:25:47.232539
2022-12-15 16:25:47.265647
2022-12-15 16:25:47.266097
2022-12-15 16:25:47.266097
2022-12-15 16:25:47.299296
2022-12-15 16:25:47.299686
2022-12-15 16:25:47.300340
2022-12-15 16:25:47.332770
2022-12-15 16:25:47.332770
2022-12-15 16:25:47.366226
2022-12-15 16:25:47.366226
2022-12-15 16:25:47.367277
2022-12-15 16:25:47.399834
2022-12-15 16:25:47.400245
2022-12-15 16:25:47.400842
2022-12-15 16:25:47.433030
2022-12-15 16:25:47.433030
2022-12-15 16:25:47.466148
2022-12-15 16:25:47.467156
2022-12-15 16:25:47.467355
2022-12-15 16:25:47.500310
2022-12-15 16:25:47.500599
2022-12-15 16:25:47.500599
2022-12-15 16:25:47.533435
2022-12-15 16:25:47.534063
2022-12-15 16:25:47.567353
2022-12-15 16:25:47.567590
2022-12-15 16:25:47.568181
2022-12-15 16:25:47.600558
2022-12-15 16:25:47.600883
2022-12-15 16:25:47.601510
2022-12-15 16:25:47.634378
2022-12-15 16:25:47.634378
2022-12-15 16:25:47.667903
2022-12-15 16:25:47.668142
2022-12-15 16:25:47.668725
2022-12-15 16:25:47.701561
2022-12-15 16:25:47.701878
2022-12-15 16:25:47.702380
2022-12-15 16:25:47.734903
2022-12-15 16:25:47.735798
2022-12-15 16:25:47.768567
2022-12-15 16:25:47.768805
2022-12-15 16:25:47.769392
2022-12-15 16:25:47.802106
2022-12-15 16:25:47.802397
2022-12-15 16:25:47.802946
2022-12-15 16:25:47.835740
2022-12-15 16:25:47.836113
2022-12-15 16:25:47.869236
2022-12-15 16:25:47.869504
2022-12-15 16:25:47.870120
2022-12-15 16:25:47.902820
2022-12-15 16:25:47.903145
2022-12-15 16:25:47.904147
2022-12-15 16:25:47.936292
2022-12-15 16:25:47.936682
2022-12-15 16:25:47.969926
2022-12-15 16:25:47.970168
2022-12-15 16:25:47.970717
2022-12-15 16:25:48.003257
2022-12-15 16:25:48.003257
2022-12-15 16:25:48.004258
2022-12-15 16:25:48.036665
2022-12-15 16:25:48.036665
2022-12-15 16:25:48.069693
2022-12-15 16:25:48.069693
2022-12-15 16:25:48.070694
2022-12-15 16:25:48.102953
2022-12-15 16:25:48.103949
2022-12-15 16:25:48.103949
2022-12-15 16:25:48.137576
2022-12-15 16:25:48.137925
2022-12-15 16:25:48.171058
2022-12-15 16:25:48.171339
2022-12-15 16:25:48.171883
2022-12-15 16:25:48.204742
2022-12-15 16:25:48.205068
2022-12-15 16:25:48.205068
2022-12-15 16:25:48.238076
2022-12-15 16:25:48.238421
2022-12-15 16:25:48.271840
2022-12-15 16:25:48.272120
2022-12-15 16:25:48.272577
2022-12-15 16:25:48.305279
2022-12-15 16:25:48.305569
2022-12-15 16:25:48.306151
2022-12-15 16:25:48.338729
2022-12-15 16:25:48.339527
2022-12-15 16:25:48.371921
2022-12-15 16:25:48.371921
2022-12-15 16:25:48.372929
2022-12-15 16:25:48.405809
2022-12-15 16:25:48.406101
2022-12-15 16:25:48.406683
2022-12-15 16:25:48.439263
2022-12-15 16:25:48.439639
2022-12-15 16:25:48.472910
2022-12-15 16:25:48.473191
2022-12-15 16:25:48.473191
2022-12-15 16:25:48.506385
2022-12-15 16:25:48.506678
2022-12-15 16:25:48.507141
2022-12-15 16:25:48.539938
2022-12-15 16:25:48.540322
2022-12-15 16:25:48.573320
2022-12-15 16:25:48.573320
2022-12-15 16:25:48.574321
2022-12-15 16:25:48.606965
2022-12-15 16:25:48.607966
2022-12-15 16:25:48.607966
2022-12-15 16:25:48.639515
2022-12-15 16:25:48.640523
2022-12-15 16:25:48.673448
2022-12-15 16:25:48.673448
2022-12-15 16:25:48.674404
2022-12-15 16:25:48.706864
2022-12-15 16:25:48.706864
2022-12-15 16:25:48.707823
2022-12-15 16:25:48.740438
2022-12-15 16:25:48.740438
2022-12-15 16:25:48.774765
2022-12-15 16:25:48.775002
2022-12-15 16:25:48.775598
2022-12-15 16:25:48.808383
2022-12-15 16:25:48.808713
2022-12-15 16:25:48.808713
2022-12-15 16:25:48.841895
2022-12-15 16:25:48.842284
2022-12-15 16:25:48.875372
2022-12-15 16:25:48.875611
2022-12-15 16:25:48.875611
2022-12-15 16:25:48.908826
2022-12-15 16:25:48.909780
2022-12-15 16:25:48.909780
2022-12-15 16:25:48.941338
2022-12-15 16:25:48.942346
2022-12-15 16:25:48.974522
2022-12-15 16:25:48.975536
2022-12-15 16:25:48.976057
2022-12-15 16:25:49.009209
2022-12-15 16:25:49.009654
2022-12-15 16:25:49.010235
2022-12-15 16:25:49.042785
2022-12-15 16:25:49.043164
2022-12-15 16:25:49.076439
2022-12-15 16:25:49.076683
2022-12-15 16:25:49.077275
2022-12-15 16:25:49.109927
2022-12-15 16:25:49.110272
2022-12-15 16:25:49.110731
2022-12-15 16:25:49.143277
2022-12-15 16:25:49.143652
2022-12-15 16:25:49.176554
2022-12-15 16:25:49.176554
2022-12-15 16:25:49.177555
2022-12-15 16:25:49.210201
2022-12-15 16:25:49.210201
2022-12-15 16:25:49.211199
2022-12-15 16:25:49.243605
2022-12-15 16:25:49.244069
2022-12-15 16:25:49.276364
2022-12-15 16:25:49.277365
2022-12-15 16:25:49.277365
2022-12-15 16:25:49.310956
2022-12-15 16:25:49.311250
2022-12-15 16:25:49.311794
2022-12-15 16:25:49.344697
2022-12-15 16:25:49.345070
2022-12-15 16:25:49.378200
2022-12-15 16:25:49.378464
2022-12-15 16:25:49.378963
2022-12-15 16:25:49.411799
2022-12-15 16:25:49.412133
2022-12-15 16:25:49.412682
2022-12-15 16:25:49.445222
2022-12-15 16:25:49.445222
2022-12-15 16:25:49.478197
2022-12-15 16:25:49.478197
2022-12-15 16:25:49.479199
2022-12-15 16:25:49.512158
2022-12-15 16:25:49.512452
2022-12-15 16:25:49.513002
2022-12-15 16:25:49.545451
2022-12-15 16:25:49.545797
2022-12-15 16:25:49.579220
2022-12-15 16:25:49.579458
2022-12-15 16:25:49.580006
2022-12-15 16:25:49.612758
2022-12-15 16:25:49.612758
2022-12-15 16:25:49.613679
2022-12-15 16:25:49.646528
2022-12-15 16:25:49.646872
2022-12-15 16:25:49.680015
2022-12-15 16:25:49.680282
2022-12-15 16:25:49.680942
2022-12-15 16:25:49.713561
2022-12-15 16:25:49.713906
2022-12-15 16:25:49.714406
2022-12-15 16:25:49.747352
2022-12-15 16:25:49.747352
2022-12-15 16:25:49.779624
2022-12-15 16:25:49.780626
2022-12-15 16:25:49.780626
2022-12-15 16:25:49.813984
2022-12-15 16:25:49.814315
2022-12-15 16:25:49.814315
2022-12-15 16:25:49.847714
2022-12-15 16:25:49.848063
2022-12-15 16:25:49.881208
2022-12-15 16:25:49.881446
2022-12-15 16:25:49.881998
2022-12-15 16:25:49.914069
2022-12-15 16:25:49.914069
2022-12-15 16:25:49.915071
2022-12-15 16:25:49.948013
2022-12-15 16:25:49.948386
2022-12-15 16:25:49.981502
2022-12-15 16:25:49.982510
2022-12-15 16:25:49.982510
2022-12-15 16:25:50.015164
2022-12-15 16:25:50.015457
2022-12-15 16:25:50.015457
2022-12-15 16:25:50.048759
2022-12-15 16:25:50.049109
2022-12-15 16:25:50.082213
2022-12-15 16:25:50.082929
2022-12-15 16:25:50.083428
2022-12-15 16:25:50.115754
2022-12-15 16:25:50.115754
2022-12-15 16:25:50.116756
2022-12-15 16:25:50.149332
2022-12-15 16:25:50.150066
2022-12-15 16:25:50.182846
2022-12-15 16:25:50.183570
2022-12-15 16:25:50.183570
2022-12-15 16:25:50.216490
2022-12-15 16:25:50.217118
2022-12-15 16:25:50.217118
2022-12-15 16:25:50.249934
2022-12-15 16:25:50.250541
2022-12-15 16:25:50.283455
2022-12-15 16:25:50.284463
2022-12-15 16:25:50.284463
2022-12-15 16:25:50.316582
2022-12-15 16:25:50.316582
2022-12-15 16:25:50.316582
2022-12-15 16:25:50.350051
2022-12-15 16:25:50.350051
2022-12-15 16:25:50.383822
2022-12-15 16:25:50.384431
2022-12-15 16:25:50.384723
2022-12-15 16:25:50.417581
2022-12-15 16:25:50.417876
2022-12-15 16:25:50.418461
2022-12-15 16:25:50.450787
2022-12-15 16:25:50.450787
2022-12-15 16:25:50.484643
2022-12-15 16:25:50.484884
2022-12-15 16:25:50.485432
2022-12-15 16:25:50.518093
2022-12-15 16:25:50.518385
2022-12-15 16:25:50.518938
2022-12-15 16:25:50.551326
2022-12-15 16:25:50.551698
2022-12-15 16:25:50.584577
2022-12-15 16:25:50.584577
2022-12-15 16:25:50.585577
2022-12-15 16:25:50.618235
2022-12-15 16:25:50.618609
2022-12-15 16:25:50.619068
2022-12-15 16:25:50.652327
2022-12-15 16:25:50.652670
2022-12-15 16:25:50.685908
2022-12-15 16:25:50.686145
2022-12-15 16:25:50.686145
2022-12-15 16:25:50.718932
2022-12-15 16:25:50.718932
2022-12-15 16:25:50.718932
2022-12-15 16:25:50.752297
2022-12-15 16:25:50.752896
2022-12-15 16:25:50.786376
2022-12-15 16:25:50.786658
2022-12-15 16:25:50.787167
2022-12-15 16:25:50.819979
2022-12-15 16:25:50.819979
2022-12-15 16:25:50.820980
2022-12-15 16:25:50.853517
2022-12-15 16:25:50.854524
2022-12-15 16:25:50.886629
2022-12-15 16:25:50.886950
2022-12-15 16:25:50.887403
2022-12-15 16:25:50.920684
2022-12-15 16:25:50.920974
2022-12-15 16:25:50.921588
2022-12-15 16:25:50.954232
2022-12-15 16:25:50.954575
2022-12-15 16:25:50.987768
2022-12-15 16:25:50.988008
2022-12-15 16:25:50.988008
2022-12-15 16:25:51.021327
2022-12-15 16:25:51.021720
2022-12-15 16:25:51.022307
2022-12-15 16:25:51.054651
2022-12-15 16:25:51.055066
2022-12-15 16:25:51.088104
2022-12-15 16:25:51.089138
2022-12-15 16:25:51.089423
2022-12-15 16:25:51.121376
2022-12-15 16:25:51.121376
2022-12-15 16:25:51.122436
2022-12-15 16:25:51.155005
2022-12-15 16:25:51.155005
2022-12-15 16:25:51.188337
2022-12-15 16:25:51.188337
2022-12-15 16:25:51.189233
2022-12-15 16:25:51.221943
2022-12-15 16:25:51.222238
2022-12-15 16:25:51.222823
2022-12-15 16:25:51.255726
2022-12-15 16:25:51.256195
2022-12-15 16:25:51.289332
2022-12-15 16:25:51.289571
2022-12-15 16:25:51.290029
2022-12-15 16:25:51.322852
2022-12-15 16:25:51.323173
2022-12-15 16:25:51.323173
2022-12-15 16:25:51.356245
2022-12-15 16:25:51.356891
2022-12-15 16:25:51.389038
2022-12-15 16:25:51.390040
2022-12-15 16:25:51.390040
2022-12-15 16:25:51.423035
2022-12-15 16:25:51.423409
2022-12-15 16:25:51.423867
2022-12-15 16:25:51.457047
2022-12-15 16:25:51.457391
2022-12-15 16:25:51.490712
2022-12-15 16:25:51.490950
2022-12-15 16:25:51.490950
2022-12-15 16:25:51.524308
2022-12-15 16:25:51.524642
2022-12-15 16:25:51.525190
2022-12-15 16:25:51.557804
2022-12-15 16:25:51.558184
2022-12-15 16:25:51.591319
2022-12-15 16:25:51.591558
2022-12-15 16:25:51.592016
2022-12-15 16:25:51.624854
2022-12-15 16:25:51.625143
2022-12-15 16:25:51.625726
2022-12-15 16:25:51.658399
2022-12-15 16:25:51.658746
2022-12-15 16:25:51.691911
2022-12-15 16:25:51.692197
2022-12-15 16:25:51.692844
2022-12-15 16:25:51.725339
2022-12-15 16:25:51.725339
2022-12-15 16:25:51.726341
2022-12-15 16:25:51.758030
2022-12-15 16:25:51.759039
2022-12-15 16:25:51.792425
2022-12-15 16:25:51.792662
2022-12-15 16:25:51.792662
2022-12-15 16:25:51.825989
2022-12-15 16:25:51.826279
2022-12-15 16:25:51.826279
2022-12-15 16:25:51.859103
2022-12-15 16:25:51.859103
2022-12-15 16:25:51.892895
2022-12-15 16:25:51.893136
2022-12-15 16:25:51.893136
2022-12-15 16:25:51.926438
2022-12-15 16:25:51.926438
2022-12-15 16:25:51.927309
2022-12-15 16:25:51.959978
2022-12-15 16:25:51.960981
2022-12-15 16:25:51.993070
2022-12-15 16:25:51.993070
2022-12-15 16:25:51.994078
2022-12-15 16:25:52.027022
2022-12-15 16:25:52.028027
2022-12-15 16:25:52.028027
2022-12-15 16:25:52.060660
2022-12-15 16:25:52.061662
2022-12-15 16:25:52.094317
2022-12-15 16:25:52.094562
2022-12-15 16:25:52.095150
2022-12-15 16:25:52.127688
2022-12-15 16:25:52.128008
2022-12-15 16:25:52.128008
2022-12-15 16:25:52.160752
2022-12-15 16:25:52.160752
2022-12-15 16:25:52.194365
2022-12-15 16:25:52.194633
2022-12-15 16:25:52.195276
2022-12-15 16:25:52.228288
2022-12-15 16:25:52.228288
2022-12-15 16:25:52.229289
2022-12-15 16:25:52.261844
2022-12-15 16:25:52.262842
2022-12-15 16:25:52.294791
2022-12-15 16:25:52.294791
2022-12-15 16:25:52.295791
2022-12-15 16:25:52.328884
2022-12-15 16:25:52.329175
2022-12-15 16:25:52.329175
2022-12-15 16:25:52.361900
2022-12-15 16:25:52.362258
2022-12-15 16:25:52.395860
2022-12-15 16:25:52.396139
2022-12-15 16:25:52.396139
2022-12-15 16:25:52.429396
2022-12-15 16:25:52.429689
2022-12-15 16:25:52.430153
2022-12-15 16:25:52.462906
2022-12-15 16:25:52.462906
2022-12-15 16:25:52.495628
2022-12-15 16:25:52.496630
2022-12-15 16:25:52.496630
2022-12-15 16:25:52.530042
2022-12-15 16:25:52.530335
2022-12-15 16:25:52.530915
2022-12-15 16:25:52.563638
2022-12-15 16:25:52.563983
2022-12-15 16:25:52.597131
2022-12-15 16:25:52.597368
2022-12-15 16:25:52.597961
2022-12-15 16:25:52.630678
2022-12-15 16:25:52.630971
2022-12-15 16:25:52.631552
2022-12-15 16:25:52.664208
2022-12-15 16:25:52.664557
2022-12-15 16:25:52.697754
2022-12-15 16:25:52.698039
2022-12-15 16:25:52.698039
2022-12-15 16:25:52.731283
2022-12-15 16:25:52.731624
2022-12-15 16:25:52.731624
2022-12-15 16:25:52.764697
2022-12-15 16:25:52.765146
2022-12-15 16:25:52.797856
2022-12-15 16:25:52.798075
2022-12-15 16:25:52.798075
2022-12-15 16:25:52.831820
2022-12-15 16:25:52.832139
2022-12-15 16:25:52.833142
2022-12-15 16:25:52.865389
2022-12-15 16:25:52.865740
2022-12-15 16:25:52.898967
2022-12-15 16:25:52.899206
2022-12-15 16:25:52.899206
2022-12-15 16:25:52.932470
2022-12-15 16:25:52.932761
2022-12-15 16:25:52.932761
2022-12-15 16:25:52.966058
2022-12-15 16:25:52.966430
2022-12-15 16:25:52.999612
2022-12-15 16:25:52.999612
2022-12-15 16:25:53.000412
2022-12-15 16:25:53.032978
2022-12-15 16:25:53.032978
2022-12-15 16:25:53.034004
2022-12-15 16:25:53.066041
2022-12-15 16:25:53.066041
2022-12-15 16:25:53.099823
2022-12-15 16:25:53.100049
2022-12-15 16:25:53.100049
2022-12-15 16:25:53.133925
2022-12-15 16:25:53.134214
2022-12-15 16:25:53.134753
2022-12-15 16:25:53.167416
2022-12-15 16:25:53.167825
2022-12-15 16:25:53.200627
2022-12-15 16:25:53.201015
2022-12-15 16:25:53.201015
2022-12-15 16:25:53.234191
2022-12-15 16:25:53.234606
2022-12-15 16:25:53.234606
2022-12-15 16:25:53.267654
2022-12-15 16:25:53.268665
2022-12-15 16:25:53.301237
2022-12-15 16:25:53.301455
2022-12-15 16:25:53.302038
2022-12-15 16:25:53.334674
2022-12-15 16:25:53.334674
2022-12-15 16:25:53.335680
2022-12-15 16:25:53.367931
2022-12-15 16:25:53.368278
2022-12-15 16:25:53.401684
2022-12-15 16:25:53.401962
2022-12-15 16:25:53.402566
2022-12-15 16:25:53.435398
2022-12-15 16:25:53.435689
2022-12-15 16:25:53.436150
2022-12-15 16:25:53.468843
2022-12-15 16:25:53.469189
2022-12-15 16:25:53.501911
2022-12-15 16:25:53.501911
2022-12-15 16:25:53.502922
2022-12-15 16:25:53.534949
2022-12-15 16:25:53.535935
2022-12-15 16:25:53.536393
2022-12-15 16:25:53.569446
2022-12-15 16:25:53.569790
2022-12-15 16:25:53.602945
2022-12-15 16:25:53.603186
2022-12-15 16:25:53.603774
2022-12-15 16:25:53.636467
2022-12-15 16:25:53.636762
2022-12-15 16:25:53.636762
2022-12-15 16:25:53.670067
2022-12-15 16:25:53.670411
2022-12-15 16:25:53.703659
2022-12-15 16:25:53.703934
2022-12-15 16:25:53.704424
2022-12-15 16:25:53.737270
2022-12-15 16:25:53.737590
2022-12-15 16:25:53.738237
2022-12-15 16:25:53.770558
2022-12-15 16:25:53.770558
2022-12-15 16:25:53.803427
2022-12-15 16:25:53.803427
2022-12-15 16:25:53.804434
2022-12-15 16:25:53.837791
2022-12-15 16:25:53.838089
2022-12-15 16:25:53.838636
2022-12-15 16:25:53.871287
2022-12-15 16:25:53.871627
2022-12-15 16:25:53.904856
2022-12-15 16:25:53.905093
2022-12-15 16:25:53.905642
2022-12-15 16:25:53.938371
2022-12-15 16:25:53.938706
2022-12-15 16:25:53.939253
2022-12-15 16:25:53.971994
2022-12-15 16:25:53.972341
2022-12-15 16:25:54.005452
2022-12-15 16:25:54.005730
2022-12-15 16:25:54.005730
2022-12-15 16:25:54.039074
2022-12-15 16:25:54.040077
2022-12-15 16:25:54.040077
2022-12-15 16:25:54.072402
2022-12-15 16:25:54.072744
2022-12-15 16:25:54.106035
2022-12-15 16:25:54.106274
2022-12-15 16:25:54.106274
2022-12-15 16:25:54.139559
2022-12-15 16:25:54.139850
2022-12-15 16:25:54.140437
2022-12-15 16:25:54.173110
2022-12-15 16:25:54.173458
2022-12-15 16:25:54.206673
2022-12-15 16:25:54.206912
2022-12-15 16:25:54.207374
2022-12-15 16:25:54.240211
2022-12-15 16:25:54.240550
2022-12-15 16:25:54.240550
2022-12-15 16:25:54.273608
2022-12-15 16:25:54.273608
2022-12-15 16:25:54.306266
2022-12-15 16:25:54.307302
2022-12-15 16:25:54.307720
2022-12-15 16:25:54.340711
2022-12-15 16:25:54.341034
2022-12-15 16:25:54.341695
2022-12-15 16:25:54.374280
2022-12-15 16:25:54.374624
2022-12-15 16:25:54.407834
2022-12-15 16:25:54.408072
2022-12-15 16:25:54.408664
2022-12-15 16:25:54.441203
2022-12-15 16:25:54.441496
2022-12-15 16:25:54.441496
2022-12-15 16:25:54.474921
2022-12-15 16:25:54.475267
2022-12-15 16:25:54.508522
2022-12-15 16:25:54.508762
2022-12-15 16:25:54.509220
2022-12-15 16:25:54.541981
2022-12-15 16:25:54.542332
2022-12-15 16:25:54.542332
2022-12-15 16:25:54.575572
2022-12-15 16:25:54.575957
2022-12-15 16:25:54.609004
2022-12-15 16:25:54.609768
2022-12-15 16:25:54.609768
2022-12-15 16:25:54.642296
2022-12-15 16:25:54.642296
2022-12-15 16:25:54.642296
2022-12-15 16:25:54.675472
2022-12-15 16:25:54.675472
2022-12-15 16:25:54.709615
2022-12-15 16:25:54.709853
2022-12-15 16:25:54.710444
2022-12-15 16:25:54.742723
2022-12-15 16:25:54.742723
2022-12-15 16:25:54.743755
2022-12-15 16:25:54.776944
2022-12-15 16:25:54.777333
2022-12-15 16:25:54.810395
2022-12-15 16:25:54.810632
2022-12-15 16:25:54.811220
2022-12-15 16:25:54.843850
2022-12-15 16:25:54.843850
2022-12-15 16:25:54.844851
2022-12-15 16:25:54.877427
2022-12-15 16:25:54.877427
2022-12-15 16:25:54.910939
2022-12-15 16:25:54.911950
2022-12-15 16:25:54.911950
2022-12-15 16:25:54.943091
2022-12-15 16:25:54.944053
2022-12-15 16:25:54.944053
2022-12-15 16:25:54.977332
2022-12-15 16:25:54.977332
2022-12-15 16:25:55.011601
2022-12-15 16:25:55.011841
2022-12-15 16:25:55.012385
2022-12-15 16:25:55.044878
2022-12-15 16:25:55.044878
2022-12-15 16:25:55.045897
2022-12-15 16:25:55.078560
2022-12-15 16:25:55.078934
2022-12-15 16:25:55.112139
2022-12-15 16:25:55.112408
2022-12-15 16:25:55.113053
2022-12-15 16:25:55.145711
2022-12-15 16:25:55.145711
2022-12-15 16:25:55.146416
2022-12-15 16:25:55.178743
2022-12-15 16:25:55.179784
2022-12-15 16:25:55.212032
2022-12-15 16:25:55.212032
2022-12-15 16:25:55.213042
2022-12-15 16:25:55.244920
2022-12-15 16:25:55.245950
2022-12-15 16:25:55.245950
2022-12-15 16:25:55.279203
2022-12-15 16:25:55.279683
2022-12-15 16:25:55.312083
2022-12-15 16:25:55.313085
2022-12-15 16:25:55.313085
2022-12-15 16:25:55.345800
2022-12-15 16:25:55.346804
2022-12-15 16:25:55.346804
2022-12-15 16:25:55.380109
2022-12-15 16:25:55.380496
2022-12-15 16:25:55.413636
2022-12-15 16:25:55.413873
2022-12-15 16:25:55.414327
2022-12-15 16:25:55.446994
2022-12-15 16:25:55.447639
2022-12-15 16:25:55.447955
2022-12-15 16:25:55.480786
2022-12-15 16:25:55.480786
2022-12-15 16:25:55.513583
2022-12-15 16:25:55.514234
2022-12-15 16:25:55.514234
2022-12-15 16:25:55.547415
2022-12-15 16:25:55.547707
2022-12-15 16:25:55.547707
2022-12-15 16:25:55.581433
2022-12-15 16:25:55.581774
2022-12-15 16:25:55.614819
2022-12-15 16:25:55.614819
2022-12-15 16:25:55.615699
2022-12-15 16:25:55.648449
2022-12-15 16:25:55.648737
2022-12-15 16:25:55.649319
2022-12-15 16:25:55.682065
2022-12-15 16:25:55.682430
2022-12-15 16:25:55.715725
2022-12-15 16:25:55.716002
2022-12-15 16:25:55.716587
2022-12-15 16:25:55.748464
2022-12-15 16:25:55.749425
2022-12-15 16:25:55.749425
2022-12-15 16:25:55.782498
2022-12-15 16:25:55.782999
2022-12-15 16:25:55.815316
2022-12-15 16:25:55.816325
2022-12-15 16:25:55.816325
2022-12-15 16:25:55.849785
2022-12-15 16:25:55.850117
2022-12-15 16:25:55.850117
2022-12-15 16:25:55.883354
2022-12-15 16:25:55.883810
2022-12-15 16:25:55.916818
2022-12-15 16:25:55.916818
2022-12-15 16:25:55.917820
2022-12-15 16:25:55.950202
2022-12-15 16:25:55.950202
2022-12-15 16:25:55.951205
2022-12-15 16:25:55.983677
2022-12-15 16:25:55.983677
2022-12-15 16:25:56.017299
2022-12-15 16:25:56.017299
2022-12-15 16:25:56.018302
2022-12-15 16:25:56.050366
2022-12-15 16:25:56.050366
2022-12-15 16:25:56.051176
2022-12-15 16:25:56.083946
2022-12-15 16:25:56.084641
2022-12-15 16:25:56.117520
2022-12-15 16:25:56.117520
2022-12-15 16:25:56.118521
2022-12-15 16:25:56.151424
2022-12-15 16:25:56.151424
2022-12-15 16:25:56.152426
2022-12-15 16:25:56.184550
2022-12-15 16:25:56.184550
2022-12-15 16:25:56.217932
2022-12-15 16:25:56.217932
2022-12-15 16:25:56.217932
2022-12-15 16:25:56.251934
2022-12-15 16:25:56.252285
2022-12-15 16:25:56.252915
2022-12-15 16:25:56.285150
2022-12-15 16:25:56.285526
2022-12-15 16:25:56.318957
2022-12-15 16:25:56.319251
2022-12-15 16:25:56.319251
2022-12-15 16:25:56.352600
2022-12-15 16:25:56.352889
2022-12-15 16:25:56.353391
2022-12-15 16:25:56.385793
2022-12-15 16:25:56.386225
2022-12-15 16:25:56.419655
2022-12-15 16:25:56.419892
2022-12-15 16:25:56.419892
2022-12-15 16:25:56.452894
2022-12-15 16:25:56.452894
2022-12-15 16:25:56.453497
2022-12-15 16:25:56.486741
2022-12-15 16:25:56.487131
2022-12-15 16:25:56.520203
2022-12-15 16:25:56.520443
2022-12-15 16:25:56.520985
2022-12-15 16:25:56.553756
2022-12-15 16:25:56.554047
2022-12-15 16:25:56.554596
2022-12-15 16:25:56.587274
2022-12-15 16:25:56.587617
2022-12-15 16:25:56.620909
2022-12-15 16:25:56.621146
2022-12-15 16:25:56.621687
2022-12-15 16:25:56.654413
2022-12-15 16:25:56.654730
2022-12-15 16:25:56.655228
2022-12-15 16:25:56.687860
2022-12-15 16:25:56.688832
2022-12-15 16:25:56.721159
2022-12-15 16:25:56.721159
2022-12-15 16:25:56.722166
2022-12-15 16:25:56.754654
2022-12-15 16:25:56.754996
2022-12-15 16:25:56.755456
2022-12-15 16:25:56.788637
2022-12-15 16:25:56.788985
2022-12-15 16:25:56.822058
2022-12-15 16:25:56.822296
2022-12-15 16:25:56.822838
2022-12-15 16:25:56.855645
2022-12-15 16:25:56.855976
2022-12-15 16:25:56.856616
2022-12-15 16:25:56.889130
2022-12-15 16:25:56.889471
2022-12-15 16:25:56.922763
2022-12-15 16:25:56.923000
2022-12-15 16:25:56.923591
2022-12-15 16:25:56.956126
2022-12-15 16:25:56.956726
2022-12-15 16:25:56.957729
2022-12-15 16:25:56.989094
2022-12-15 16:25:56.990106
2022-12-15 16:25:57.023175
2022-12-15 16:25:57.023439
2022-12-15 16:25:57.024076
2022-12-15 16:25:57.056774
2022-12-15 16:25:57.056774
2022-12-15 16:25:57.057777
2022-12-15 16:25:57.090294
2022-12-15 16:25:57.090636
2022-12-15 16:25:57.123865
2022-12-15 16:25:57.124103
2022-12-15 16:25:57.124103
2022-12-15 16:25:57.157377
2022-12-15 16:25:57.157673
2022-12-15 16:25:57.158249
2022-12-15 16:25:57.190940
2022-12-15 16:25:57.191280
2022-12-15 16:25:57.224477
2022-12-15 16:25:57.224714
2022-12-15 16:25:57.225215
2022-12-15 16:25:57.257917
2022-12-15 16:25:57.258233
2022-12-15 16:25:57.258233
2022-12-15 16:25:57.291562
2022-12-15 16:25:57.291562
2022-12-15 16:25:57.324966
2022-12-15 16:25:57.325553
2022-12-15 16:25:57.325553
2022-12-15 16:25:57.357303
2022-12-15 16:25:57.358304
2022-12-15 16:25:57.358869
2022-12-15 16:25:57.392024
2022-12-15 16:25:57.392361
2022-12-15 16:25:57.425740
2022-12-15 16:25:57.425976
2022-12-15 16:25:57.426570
2022-12-15 16:25:57.459314
2022-12-15 16:25:57.459601
2022-12-15 16:25:57.460181
2022-12-15 16:25:57.492700
2022-12-15 16:25:57.492700
2022-12-15 16:25:57.526406
2022-12-15 16:25:57.526644
2022-12-15 16:25:57.527105
2022-12-15 16:25:57.560012
2022-12-15 16:25:57.560341
2022-12-15 16:25:57.560929
2022-12-15 16:25:57.593414
2022-12-15 16:25:57.593414
2022-12-15 16:25:57.626942
2022-12-15 16:25:57.627973
2022-12-15 16:25:57.627973
2022-12-15 16:25:57.659259
2022-12-15 16:25:57.660267
2022-12-15 16:25:57.660267
2022-12-15 16:25:57.693491
2022-12-15 16:25:57.693941
2022-12-15 16:25:57.727488
2022-12-15 16:25:57.727725
2022-12-15 16:25:57.728345
2022-12-15 16:25:57.760956
2022-12-15 16:25:57.761246
2022-12-15 16:25:57.761821
2022-12-15 16:25:57.794607
2022-12-15 16:25:57.794948
2022-12-15 16:25:57.828022
2022-12-15 16:25:57.828259
2022-12-15 16:25:57.828259
2022-12-15 16:25:57.861734
2022-12-15 16:25:57.862024
2022-12-15 16:25:57.862480
2022-12-15 16:25:57.895278
2022-12-15 16:25:57.895619
2022-12-15 16:25:57.928735
2022-12-15 16:25:57.928735
2022-12-15 16:25:57.929708
2022-12-15 16:25:57.962140
2022-12-15 16:25:57.962140
2022-12-15 16:25:57.963149
2022-12-15 16:25:57.995124
2022-12-15 16:25:57.995124
2022-12-15 16:25:58.028035
2022-12-15 16:25:58.029042
2022-12-15 16:25:58.029042
2022-12-15 16:25:58.061899
2022-12-15 16:25:58.062899
2022-12-15 16:25:58.062899
2022-12-15 16:25:58.096216
2022-12-15 16:25:58.097218
2022-12-15 16:25:58.129649
2022-12-15 16:25:58.129649
2022-12-15 16:25:58.130651
2022-12-15 16:25:58.163110
2022-12-15 16:25:58.164112
2022-12-15 16:25:58.164112
2022-12-15 16:25:58.196465
2022-12-15 16:25:58.197467
2022-12-15 16:25:58.229810
2022-12-15 16:25:58.229810
2022-12-15 16:25:58.230813
2022-12-15 16:25:58.263836
2022-12-15 16:25:58.264129
2022-12-15 16:25:58.264713
2022-12-15 16:25:58.297430
2022-12-15 16:25:58.297771
2022-12-15 16:25:58.330892
2022-12-15 16:25:58.331130
2022-12-15 16:25:58.331589
2022-12-15 16:25:58.364412
2022-12-15 16:25:58.364704
2022-12-15 16:25:58.365284
2022-12-15 16:25:58.397404
2022-12-15 16:25:58.399403
2022-12-15 16:25:58.431340
2022-12-15 16:25:58.431552
2022-12-15 16:25:58.431552
2022-12-15 16:25:58.464547
2022-12-15 16:25:58.464974
2022-12-15 16:25:58.464974
2022-12-15 16:25:58.498181
2022-12-15 16:25:58.498604
2022-12-15 16:25:58.531707
2022-12-15 16:25:58.532031
2022-12-15 16:25:58.532550
2022-12-15 16:25:58.565293
2022-12-15 16:25:58.565563
2022-12-15 16:25:58.566021
2022-12-15 16:25:58.599151
2022-12-15 16:25:58.599494
2022-12-15 16:25:58.632877
2022-12-15 16:25:58.633143
2022-12-15 16:25:58.633644
2022-12-15 16:25:58.666443
2022-12-15 16:25:58.666765
2022-12-15 16:25:58.667401
2022-12-15 16:25:58.700001
2022-12-15 16:25:58.700379
2022-12-15 16:25:58.733351
2022-12-15 16:25:58.733351
2022-12-15 16:25:58.734393
2022-12-15 16:25:58.765870
2022-12-15 16:25:58.766896
2022-12-15 16:25:58.766896
2022-12-15 16:25:58.800502
2022-12-15 16:25:58.800877
2022-12-15 16:25:58.833277
2022-12-15 16:25:58.834275
2022-12-15 16:25:58.834275
2022-12-15 16:25:58.867548
2022-12-15 16:25:58.867837
2022-12-15 16:25:58.867837
2022-12-15 16:25:58.900956
2022-12-15 16:25:58.901301
2022-12-15 16:25:58.934632
2022-12-15 16:25:58.934870
2022-12-15 16:25:58.934870
2022-12-15 16:25:58.968109
2022-12-15 16:25:58.968109
2022-12-15 16:25:58.969110
2022-12-15 16:25:59.001570
2022-12-15 16:25:59.002114
2022-12-15 16:25:59.035031
2022-12-15 16:25:59.035427
2022-12-15 16:25:59.035427
2022-12-15 16:25:59.068607
2022-12-15 16:25:59.069444
2022-12-15 16:25:59.069444
2022-12-15 16:25:59.101976
2022-12-15 16:25:59.102501
2022-12-15 16:25:59.134734
2022-12-15 16:25:59.135742
2022-12-15 16:25:59.135742
2022-12-15 16:25:59.169076
2022-12-15 16:25:59.169076
2022-12-15 16:25:59.170094
2022-12-15 16:25:59.202307
2022-12-15 16:25:59.202307
2022-12-15 16:25:59.235577
2022-12-15 16:25:59.235577
2022-12-15 16:25:59.236541
2022-12-15 16:25:59.269797
2022-12-15 16:25:59.270122
2022-12-15 16:25:59.270713
2022-12-15 16:25:59.303116
2022-12-15 16:25:59.303116
2022-12-15 16:25:59.336890
2022-12-15 16:25:59.337170
2022-12-15 16:25:59.337818
2022-12-15 16:25:59.370063
2022-12-15 16:25:59.370063
2022-12-15 16:25:59.371089
2022-12-15 16:25:59.404051
2022-12-15 16:25:59.405045
2022-12-15 16:25:59.437282
2022-12-15 16:25:59.437937
2022-12-15 16:25:59.438190
2022-12-15 16:25:59.470987
2022-12-15 16:25:59.471275
2022-12-15 16:25:59.471861
2022-12-15 16:25:59.504463
2022-12-15 16:25:59.504801
2022-12-15 16:25:59.538019
2022-12-15 16:25:59.538257
2022-12-15 16:25:59.538711
2022-12-15 16:25:59.571672
2022-12-15 16:25:59.571958
2022-12-15 16:25:59.572525
2022-12-15 16:25:59.605111
2022-12-15 16:25:59.605488
2022-12-15 16:25:59.638666
2022-12-15 16:25:59.638666
2022-12-15 16:25:59.639668
2022-12-15 16:25:59.671324
2022-12-15 16:25:59.672115
2022-12-15 16:25:59.672115
2022-12-15 16:25:59.705231
2022-12-15 16:25:59.705695
2022-12-15 16:25:59.739352
2022-12-15 16:25:59.739589
2022-12-15 16:25:59.740131
2022-12-15 16:25:59.772883
2022-12-15 16:25:59.773172
2022-12-15 16:25:59.773711
2022-12-15 16:25:59.806529
2022-12-15 16:25:59.806920
2022-12-15 16:25:59.839992
2022-12-15 16:25:59.840231
2022-12-15 16:25:59.840778
2022-12-15 16:25:59.873429
2022-12-15 16:25:59.873747
2022-12-15 16:25:59.873747
2022-12-15 16:25:59.906821
2022-12-15 16:25:59.907428
2022-12-15 16:25:59.939811
2022-12-15 16:25:59.940820
2022-12-15 16:25:59.940820
2022-12-15 16:25:59.973968
2022-12-15 16:25:59.974289
2022-12-15 16:25:59.974934
2022-12-15 16:26:00.006719
2022-12-15 16:26:00.007716
2022-12-15 16:26:00.041065
2022-12-15 16:26:00.041303
2022-12-15 16:26:00.041844
2022-12-15 16:26:00.074609
2022-12-15 16:26:00.074899
2022-12-15 16:26:00.075353
2022-12-15 16:26:00.108171
2022-12-15 16:26:00.108540
2022-12-15 16:26:00.141686
2022-12-15 16:26:00.141686
2022-12-15 16:26:00.142687
2022-12-15 16:26:00.175133
2022-12-15 16:26:00.175830
2022-12-15 16:26:00.175830
2022-12-15 16:26:00.208448
2022-12-15 16:26:00.208448
2022-12-15 16:26:00.241933
2022-12-15 16:26:00.242292
2022-12-15 16:26:00.242722
2022-12-15 16:26:00.275002
2022-12-15 16:26:00.275952
2022-12-15 16:26:00.275952
2022-12-15 16:26:00.309537
2022-12-15 16:26:00.309922
2022-12-15 16:26:00.343107
2022-12-15 16:26:00.343385
2022-12-15 16:26:00.343837
2022-12-15 16:26:00.376553
2022-12-15 16:26:00.376844
2022-12-15 16:26:00.377423
2022-12-15 16:26:00.409897
2022-12-15 16:26:00.410237
2022-12-15 16:26:00.443539
2022-12-15 16:26:00.443539
2022-12-15 16:26:00.444570
2022-12-15 16:26:00.475976
2022-12-15 16:26:00.476985
2022-12-15 16:26:00.476985
2022-12-15 16:26:00.510130
2022-12-15 16:26:00.510522
2022-12-15 16:26:00.543968
2022-12-15 16:26:00.544206
2022-12-15 16:26:00.544750
2022-12-15 16:26:00.577696
2022-12-15 16:26:00.577987
2022-12-15 16:26:00.578527
2022-12-15 16:26:00.611333
2022-12-15 16:26:00.611714
2022-12-15 16:26:00.644857
2022-12-15 16:26:00.645131
2022-12-15 16:26:00.645586
2022-12-15 16:26:00.678436
2022-12-15 16:26:00.678754
2022-12-15 16:26:00.679447
2022-12-15 16:26:00.711898
2022-12-15 16:26:00.712243
2022-12-15 16:26:00.745384
2022-12-15 16:26:00.745384
2022-12-15 16:26:00.746430
2022-12-15 16:26:00.778187
2022-12-15 16:26:00.778187
2022-12-15 16:26:00.779216
2022-12-15 16:26:00.812322
2022-12-15 16:26:00.812713
2022-12-15 16:26:00.845677
2022-12-15 16:26:00.845677
2022-12-15 16:26:00.846568
2022-12-15 16:26:00.879379
2022-12-15 16:26:00.879379
2022-12-15 16:26:00.880381
2022-12-15 16:26:00.912879
2022-12-15 16:26:00.913881
2022-12-15 16:26:00.946115
2022-12-15 16:26:00.946115
2022-12-15 16:26:00.947116
2022-12-15 16:26:00.979475
2022-12-15 16:26:00.979475
2022-12-15 16:26:00.980477
2022-12-15 16:26:01.013172
2022-12-15 16:26:01.013172
2022-12-15 16:26:01.046372
2022-12-15 16:26:01.046372
2022-12-15 16:26:01.047372
2022-12-15 16:26:01.080436
2022-12-15 16:26:01.081437
2022-12-15 16:26:01.081703
2022-12-15 16:26:01.113450
2022-12-15 16:26:01.113450
2022-12-15 16:26:01.147510
2022-12-15 16:26:01.147510
2022-12-15 16:26:01.148513
2022-12-15 16:26:01.180868
2022-12-15 16:26:01.180868
2022-12-15 16:26:01.181871
2022-12-15 16:26:01.214222
2022-12-15 16:26:01.215224
2022-12-15 16:26:01.247568
2022-12-15 16:26:01.247568
2022-12-15 16:26:01.248606
2022-12-15 16:26:01.281701
2022-12-15 16:26:01.281701
2022-12-15 16:26:01.282716
2022-12-15 16:26:01.315290
2022-12-15 16:26:01.315696
2022-12-15 16:26:01.348760
2022-12-15 16:26:01.349024
2022-12-15 16:26:01.349513
2022-12-15 16:26:01.382388
2022-12-15 16:26:01.382704
2022-12-15 16:26:01.382704
2022-12-15 16:26:01.415805
2022-12-15 16:26:01.415805
2022-12-15 16:26:01.448692
2022-12-15 16:26:01.448692
2022-12-15 16:26:01.449692
2022-12-15 16:26:01.482831
2022-12-15 16:26:01.483834
2022-12-15 16:26:01.484011
2022-12-15 16:26:01.516072
2022-12-15 16:26:01.516492
2022-12-15 16:26:01.549413
2022-12-15 16:26:01.549735
2022-12-15 16:26:01.550195
2022-12-15 16:26:01.583070
2022-12-15 16:26:01.583342
2022-12-15 16:26:01.583796
2022-12-15 16:26:01.617072
2022-12-15 16:26:01.617413
2022-12-15 16:26:01.650546
2022-12-15 16:26:01.650825
2022-12-15 16:26:01.651284
2022-12-15 16:26:01.684113
2022-12-15 16:26:01.684451
2022-12-15 16:26:01.684996
2022-12-15 16:26:01.717567
2022-12-15 16:26:01.717908
2022-12-15 16:26:01.750248
2022-12-15 16:26:01.751274
2022-12-15 16:26:01.751492
2022-12-15 16:26:01.784582
2022-12-15 16:26:01.784875
2022-12-15 16:26:01.784875
2022-12-15 16:26:01.818299
2022-12-15 16:26:01.818646
2022-12-15 16:26:01.851767
2022-12-15 16:26:01.852005
2022-12-15 16:26:01.852005
2022-12-15 16:26:01.885360
2022-12-15 16:26:01.885650
2022-12-15 16:26:01.885650
2022-12-15 16:26:01.918703
2022-12-15 16:26:01.918703
2022-12-15 16:26:01.952235
2022-12-15 16:26:01.953039
2022-12-15 16:26:01.953227
2022-12-15 16:26:01.985793
2022-12-15 16:26:01.985793
2022-12-15 16:26:01.986634
2022-12-15 16:26:02.019585
2022-12-15 16:26:02.020590
2022-12-15 16:26:02.052309
2022-12-15 16:26:02.053312
2022-12-15 16:26:02.053312
2022-12-15 16:26:02.086448
2022-12-15 16:26:02.086448
2022-12-15 16:26:02.087329
2022-12-15 16:26:02.119879
2022-12-15 16:26:02.119879
2022-12-15 16:26:02.153664
2022-12-15 16:26:02.153920
2022-12-15 16:26:02.154481
2022-12-15 16:26:02.186589
2022-12-15 16:26:02.186589
2022-12-15 16:26:02.187567
2022-12-15 16:26:02.220513
2022-12-15 16:26:02.220513
2022-12-15 16:26:02.253543
2022-12-15 16:26:02.253543
2022-12-15 16:26:02.254568
2022-12-15 16:26:02.287591
2022-12-15 16:26:02.287591
2022-12-15 16:26:02.288593
2022-12-15 16:26:02.320053
2022-12-15 16:26:02.321021
2022-12-15 16:26:02.354752
2022-12-15 16:26:02.354991
2022-12-15 16:26:02.355574
2022-12-15 16:26:02.388285
2022-12-15 16:26:02.388579
2022-12-15 16:26:02.389124
2022-12-15 16:26:02.421857
2022-12-15 16:26:02.422250
2022-12-15 16:26:02.455245
2022-12-15 16:26:02.455515
2022-12-15 16:26:02.456037
2022-12-15 16:26:02.488777
2022-12-15 16:26:02.489101
2022-12-15 16:26:02.489750
2022-12-15 16:26:02.522238
2022-12-15 16:26:02.522238
2022-12-15 16:26:02.555831
2022-12-15 16:26:02.556070
2022-12-15 16:26:02.556659
2022-12-15 16:26:02.589324
2022-12-15 16:26:02.589612
2022-12-15 16:26:02.590198
2022-12-15 16:26:02.622929
2022-12-15 16:26:02.623266
2022-12-15 16:26:02.656444
2022-12-15 16:26:02.656685
2022-12-15 16:26:02.657232
2022-12-15 16:26:02.690020
2022-12-15 16:26:02.690311
2022-12-15 16:26:02.690766
2022-12-15 16:26:02.723681
2022-12-15 16:26:02.724022
2022-12-15 16:26:02.757005
2022-12-15 16:26:02.757005
2022-12-15 16:26:02.758007
2022-12-15 16:26:02.789591
2022-12-15 16:26:02.790599
2022-12-15 16:26:02.790599
2022-12-15 16:26:02.823768
2022-12-15 16:26:02.824192
2022-12-15 16:26:02.857840
2022-12-15 16:26:02.858126
2022-12-15 16:26:02.858717
2022-12-15 16:26:02.891337
2022-12-15 16:26:02.891625
2022-12-15 16:26:02.892211
2022-12-15 16:26:02.924956
2022-12-15 16:26:02.925340
2022-12-15 16:26:02.958414
2022-12-15 16:26:02.958650
2022-12-15 16:26:02.959192
2022-12-15 16:26:02.991704
2022-12-15 16:26:02.991704
2022-12-15 16:26:02.992706
2022-12-15 16:26:03.025318
2022-12-15 16:26:03.026327
2022-12-15 16:26:03.058312
2022-12-15 16:26:03.058312
2022-12-15 16:26:03.059313
2022-12-15 16:26:03.091944
2022-12-15 16:26:03.092218
2022-12-15 16:26:03.092218
2022-12-15 16:26:03.126039
2022-12-15 16:26:03.126423
2022-12-15 16:26:03.159689
2022-12-15 16:26:03.159963
2022-12-15 16:26:03.160511
2022-12-15 16:26:03.193021
2022-12-15 16:26:03.193311
2022-12-15 16:26:03.193766
2022-12-15 16:26:03.226743
2022-12-15 16:26:03.227126
2022-12-15 16:26:03.259920
2022-12-15 16:26:03.259920
2022-12-15 16:26:03.260924
2022-12-15 16:26:03.292444
2022-12-15 16:26:03.293513
2022-12-15 16:26:03.293513
2022-12-15 16:26:03.327073
2022-12-15 16:26:03.327417
2022-12-15 16:26:03.360622
2022-12-15 16:26:03.360888
2022-12-15 16:26:03.361540
2022-12-15 16:26:03.394210
2022-12-15 16:26:03.394501
2022-12-15 16:26:03.395044
2022-12-15 16:26:03.427794
2022-12-15 16:26:03.428166
2022-12-15 16:26:03.461329
2022-12-15 16:26:03.461567
2022-12-15 16:26:03.462093
2022-12-15 16:26:03.494869
2022-12-15 16:26:03.495188
2022-12-15 16:26:03.495834
2022-12-15 16:26:03.528579
2022-12-15 16:26:03.528579
2022-12-15 16:26:03.561739
2022-12-15 16:26:03.561979
2022-12-15 16:26:03.562562
2022-12-15 16:26:03.595381
2022-12-15 16:26:03.595670
2022-12-15 16:26:03.596257
2022-12-15 16:26:03.628953
2022-12-15 16:26:03.629296
2022-12-15 16:26:03.662520
2022-12-15 16:26:03.662798
2022-12-15 16:26:03.663291
2022-12-15 16:26:03.696052
2022-12-15 16:26:03.696396
2022-12-15 16:26:03.696396
2022-12-15 16:26:03.729523
2022-12-15 16:26:03.729523
2022-12-15 16:26:03.761994
2022-12-15 16:26:03.763003
2022-12-15 16:26:03.763003
2022-12-15 16:26:03.796645
2022-12-15 16:26:03.796933
2022-12-15 16:26:03.797521
2022-12-15 16:26:03.830214
2022-12-15 16:26:03.830555
2022-12-15 16:26:03.863646
2022-12-15 16:26:03.863883
2022-12-15 16:26:03.863883
2022-12-15 16:26:03.897205
2022-12-15 16:26:03.897494
2022-12-15 16:26:03.898076
2022-12-15 16:26:03.930849
2022-12-15 16:26:03.931217
2022-12-15 16:26:03.963811
2022-12-15 16:26:03.963811
2022-12-15 16:26:03.963811
2022-12-15 16:26:03.997777
2022-12-15 16:26:03.997777
2022-12-15 16:26:03.998784
2022-12-15 16:26:04.030842
2022-12-15 16:26:04.031164
2022-12-15 16:26:04.064340
2022-12-15 16:26:04.064580
2022-12-15 16:26:04.065582
2022-12-15 16:26:04.098379
2022-12-15 16:26:04.099384
2022-12-15 16:26:04.099384
2022-12-15 16:26:04.131814
2022-12-15 16:26:04.132295
2022-12-15 16:26:04.165436
2022-12-15 16:26:04.165804
2022-12-15 16:26:04.166389
2022-12-15 16:26:04.198830
2022-12-15 16:26:04.199264
2022-12-15 16:26:04.199810
2022-12-15 16:26:04.232209
2022-12-15 16:26:04.232693
2022-12-15 16:26:04.265548
2022-12-15 16:26:04.265877
2022-12-15 16:26:04.265877
2022-12-15 16:26:04.298927
2022-12-15 16:26:04.298927
2022-12-15 16:26:04.299913
2022-12-15 16:26:04.332427
2022-12-15 16:26:04.332427
2022-12-15 16:26:04.366186
2022-12-15 16:26:04.366506
2022-12-15 16:26:04.366966
2022-12-15 16:26:04.399858
2022-12-15 16:26:04.399858
2022-12-15 16:26:04.400822
2022-12-15 16:26:04.433272
2022-12-15 16:26:04.433578
2022-12-15 16:26:04.467085
2022-12-15 16:26:04.467326
2022-12-15 16:26:04.467913
2022-12-15 16:26:04.500823
2022-12-15 16:26:04.501140
2022-12-15 16:26:04.501643
2022-12-15 16:26:04.534375
2022-12-15 16:26:04.534743
2022-12-15 16:26:04.567879
2022-12-15 16:26:04.567879
2022-12-15 16:26:04.568881
2022-12-15 16:26:04.601133
2022-12-15 16:26:04.602030
2022-12-15 16:26:04.602030
2022-12-15 16:26:04.634400
2022-12-15 16:26:04.634400
2022-12-15 16:26:04.667941
2022-12-15 16:26:04.668162
2022-12-15 16:26:04.668620
2022-12-15 16:26:04.701904
2022-12-15 16:26:04.702196
2022-12-15 16:26:04.702196
2022-12-15 16:26:04.735414
2022-12-15 16:26:04.735414
2022-12-15 16:26:04.768948
2022-12-15 16:26:04.769185
2022-12-15 16:26:04.769185
2022-12-15 16:26:04.802680
2022-12-15 16:26:04.802998
2022-12-15 16:26:04.802998
2022-12-15 16:26:04.835955
2022-12-15 16:26:04.835955
2022-12-15 16:26:04.869809
2022-12-15 16:26:04.869809
2022-12-15 16:26:04.870816
2022-12-15 16:26:04.902259
2022-12-15 16:26:04.903259
2022-12-15 16:26:04.903259
2022-12-15 16:26:04.936764
2022-12-15 16:26:04.937060
2022-12-15 16:26:04.970269
2022-12-15 16:26:04.970269
2022-12-15 16:26:04.971272
2022-12-15 16:26:05.003740
2022-12-15 16:26:05.004043
2022-12-15 16:26:05.004627
2022-12-15 16:26:05.037191
2022-12-15 16:26:05.037540
2022-12-15 16:26:05.070753
2022-12-15 16:26:05.070753
2022-12-15 16:26:05.071756
2022-12-15 16:26:05.104078
2022-12-15 16:26:05.104078
2022-12-15 16:26:05.105086
2022-12-15 16:26:05.136954
2022-12-15 16:26:05.137961
2022-12-15 16:26:05.171061
2022-12-15 16:26:05.171061
2022-12-15 16:26:05.172067
2022-12-15 16:26:05.203936
2022-12-15 16:26:05.204891
2022-12-15 16:26:05.204891
2022-12-15 16:26:05.237909
2022-12-15 16:26:05.237909
2022-12-15 16:26:05.271841
2022-12-15 16:26:05.272082
2022-12-15 16:26:05.272082
2022-12-15 16:26:05.304882
2022-12-15 16:26:05.304882
2022-12-15 16:26:05.305931
2022-12-15 16:26:05.338921
2022-12-15 16:26:05.338921
2022-12-15 16:26:05.372465
2022-12-15 16:26:05.373008
2022-12-15 16:26:05.373008
2022-12-15 16:26:05.405823
2022-12-15 16:26:05.405823
2022-12-15 16:26:05.405823
2022-12-15 16:26:05.439187
2022-12-15 16:26:05.439187
2022-12-15 16:26:05.473152
2022-12-15 16:26:05.473390
2022-12-15 16:26:05.473390
2022-12-15 16:26:05.506737
2022-12-15 16:26:05.507068
2022-12-15 16:26:05.507611
2022-12-15 16:26:05.540245
2022-12-15 16:26:05.540589
2022-12-15 16:26:05.573723
2022-12-15 16:26:05.573962
2022-12-15 16:26:05.574504
2022-12-15 16:26:05.607269
2022-12-15 16:26:05.607594
2022-12-15 16:26:05.608161
2022-12-15 16:26:05.640758
2022-12-15 16:26:05.641140
2022-12-15 16:26:05.674203
2022-12-15 16:26:05.674661
2022-12-15 16:26:05.675665
2022-12-15 16:26:05.707747
2022-12-15 16:26:05.708086
2022-12-15 16:26:05.708622
2022-12-15 16:26:05.741262
2022-12-15 16:26:05.741262
2022-12-15 16:26:05.774775
2022-12-15 16:26:05.775476
2022-12-15 16:26:05.775476
2022-12-15 16:26:05.808122
2022-12-15 16:26:05.808122
2022-12-15 16:26:05.809113
2022-12-15 16:26:05.841430
2022-12-15 16:26:05.841430
2022-12-15 16:26:05.874851
2022-12-15 16:26:05.875293
2022-12-15 16:26:05.875854
2022-12-15 16:26:05.908897
2022-12-15 16:26:05.908897
2022-12-15 16:26:05.909900
2022-12-15 16:26:05.943406
2022-12-15 16:26:05.943406
2022-12-15 16:26:05.975692
2022-12-15 16:26:05.975936
2022-12-15 16:26:05.975936
2022-12-15 16:26:06.009656
2022-12-15 16:26:06.009980
2022-12-15 16:26:06.010983
2022-12-15 16:26:06.043073
2022-12-15 16:26:06.043414
2022-12-15 16:26:06.076663
2022-12-15 16:26:06.076900
2022-12-15 16:26:06.077501
2022-12-15 16:26:06.110146
2022-12-15 16:26:06.110438
2022-12-15 16:26:06.110897
2022-12-15 16:26:06.143736
2022-12-15 16:26:06.144121
2022-12-15 16:26:06.177187
2022-12-15 16:26:06.177425
2022-12-15 16:26:06.177425
2022-12-15 16:26:06.210646
2022-12-15 16:26:06.211649
2022-12-15 16:26:06.211649
2022-12-15 16:26:06.243283
2022-12-15 16:26:06.244308
2022-12-15 16:26:06.277902
2022-12-15 16:26:06.278140
2022-12-15 16:26:06.278727
2022-12-15 16:26:06.311567
2022-12-15 16:26:06.311858
2022-12-15 16:26:06.312435
2022-12-15 16:26:06.345001
2022-12-15 16:26:06.345340
2022-12-15 16:26:06.377365
2022-12-15 16:26:06.378363
2022-12-15 16:26:06.378363
2022-12-15 16:26:06.412068
2022-12-15 16:26:06.412398
2022-12-15 16:26:06.412980
2022-12-15 16:26:06.445737
2022-12-15 16:26:06.445737
2022-12-15 16:26:06.477825
2022-12-15 16:26:06.478788
2022-12-15 16:26:06.478788
2022-12-15 16:26:06.511898
2022-12-15 16:26:06.512893
2022-12-15 16:26:06.512893
2022-12-15 16:26:06.546073
2022-12-15 16:26:06.546444
2022-12-15 16:26:06.579614
2022-12-15 16:26:06.579878
2022-12-15 16:26:06.580536
2022-12-15 16:26:06.613198
2022-12-15 16:26:06.613485
2022-12-15 16:26:06.613485
2022-12-15 16:26:06.646771
2022-12-15 16:26:06.647154
2022-12-15 16:26:06.680273
2022-12-15 16:26:06.680538
2022-12-15 16:26:06.681541
2022-12-15 16:26:06.713748
2022-12-15 16:26:06.714388
2022-12-15 16:26:06.714388
2022-12-15 16:26:06.747030
2022-12-15 16:26:06.747233
2022-12-15 16:26:06.780826
2022-12-15 16:26:06.781066
2022-12-15 16:26:06.781653
2022-12-15 16:26:06.814476
2022-12-15 16:26:06.814766
2022-12-15 16:26:06.815305
2022-12-15 16:26:06.847914
2022-12-15 16:26:06.848255
2022-12-15 16:26:06.881465
2022-12-15 16:26:06.881768
2022-12-15 16:26:06.882314
2022-12-15 16:26:06.914875
2022-12-15 16:26:06.915163
2022-12-15 16:26:06.915620
2022-12-15 16:26:06.948768
2022-12-15 16:26:06.949146
2022-12-15 16:26:06.981926
2022-12-15 16:26:06.982970
2022-12-15 16:26:06.983092
2022-12-15 16:26:07.014701
2022-12-15 16:26:07.015697
2022-12-15 16:26:07.015697
2022-12-15 16:26:07.049193
2022-12-15 16:26:07.049193
2022-12-15 16:26:07.082747
2022-12-15 16:26:07.082747
2022-12-15 16:26:07.083778
2022-12-15 16:26:07.116255
2022-12-15 16:26:07.116693
2022-12-15 16:26:07.117290
2022-12-15 16:26:07.149781
2022-12-15 16:26:07.150301
2022-12-15 16:26:07.183227
2022-12-15 16:26:07.183600
2022-12-15 16:26:07.184114
2022-12-15 16:26:07.216710
2022-12-15 16:26:07.216710
2022-12-15 16:26:07.217746
2022-12-15 16:26:07.250285
2022-12-15 16:26:07.251289
2022-12-15 16:26:07.283367
2022-12-15 16:26:07.283367
2022-12-15 16:26:07.283367
2022-12-15 16:26:07.317003
2022-12-15 16:26:07.317003
2022-12-15 16:26:07.318030
2022-12-15 16:26:07.350841
2022-12-15 16:26:07.351211
2022-12-15 16:26:07.384482
2022-12-15 16:26:07.384753
2022-12-15 16:26:07.385401
2022-12-15 16:26:07.417944
2022-12-15 16:26:07.418273
2022-12-15 16:26:07.418728
2022-12-15 16:26:07.451463
2022-12-15 16:26:07.451808
2022-12-15 16:26:07.484835
2022-12-15 16:26:07.485363
2022-12-15 16:26:07.485363
2022-12-15 16:26:07.517759
2022-12-15 16:26:07.517759
2022-12-15 16:26:07.518760
2022-12-15 16:26:07.551610
2022-12-15 16:26:07.551610
2022-12-15 16:26:07.585616
2022-12-15 16:26:07.585852
2022-12-15 16:26:07.585852
2022-12-15 16:26:07.618612
2022-12-15 16:26:07.618985
2022-12-15 16:26:07.619442
2022-12-15 16:26:07.652558
2022-12-15 16:26:07.652899
2022-12-15 16:26:07.686173
2022-12-15 16:26:07.686411
2022-12-15 16:26:07.686411
2022-12-15 16:26:07.719674
2022-12-15 16:26:07.719962
2022-12-15 16:26:07.719962
2022-12-15 16:26:07.753336
2022-12-15 16:26:07.753721
2022-12-15 16:26:07.786689
2022-12-15 16:26:07.786689
2022-12-15 16:26:07.787580
2022-12-15 16:26:07.820231
2022-12-15 16:26:07.820933
2022-12-15 16:26:07.820933
2022-12-15 16:26:07.853727
2022-12-15 16:26:07.854066
2022-12-15 16:26:07.887385
2022-12-15 16:26:07.887385
2022-12-15 16:26:07.888387
2022-12-15 16:26:07.920868
2022-12-15 16:26:07.921261
2022-12-15 16:26:07.921261
2022-12-15 16:26:07.954720
2022-12-15 16:26:07.954942
2022-12-15 16:26:07.987878
2022-12-15 16:26:07.988181
2022-12-15 16:26:07.988821
2022-12-15 16:26:08.021642
2022-12-15 16:26:08.021886
2022-12-15 16:26:08.022344
2022-12-15 16:26:08.055166
2022-12-15 16:26:08.055492
2022-12-15 16:26:08.088127
2022-12-15 16:26:08.088127
2022-12-15 16:26:08.089133
2022-12-15 16:26:08.121510
2022-12-15 16:26:08.121510
2022-12-15 16:26:08.122530
2022-12-15 16:26:08.154883
2022-12-15 16:26:08.155891
2022-12-15 16:26:08.188948
2022-12-15 16:26:08.188948
2022-12-15 16:26:08.189891
2022-12-15 16:26:08.222148
2022-12-15 16:26:08.222148
2022-12-15 16:26:08.222987
2022-12-15 16:26:08.256175
2022-12-15 16:26:08.256175
2022-12-15 16:26:08.289274
2022-12-15 16:26:08.289513
2022-12-15 16:26:08.289513
2022-12-15 16:26:08.323199
2022-12-15 16:26:08.323488
2022-12-15 16:26:08.323943
2022-12-15 16:26:08.356901
2022-12-15 16:26:08.357267
2022-12-15 16:26:08.390339
2022-12-15 16:26:08.390576
2022-12-15 16:26:08.390576
2022-12-15 16:26:08.424009
2022-12-15 16:26:08.424009
2022-12-15 16:26:08.425025
2022-12-15 16:26:08.456971
2022-12-15 16:26:08.456971
2022-12-15 16:26:08.490896
2022-12-15 16:26:08.491133
2022-12-15 16:26:08.491133
2022-12-15 16:26:08.524543
2022-12-15 16:26:08.524831
2022-12-15 16:26:08.524831
2022-12-15 16:26:08.558035
2022-12-15 16:26:08.558414
2022-12-15 16:26:08.591504
2022-12-15 16:26:08.591784
2022-12-15 16:26:08.592285
2022-12-15 16:26:08.625071
2022-12-15 16:26:08.625404
2022-12-15 16:26:08.625991
2022-12-15 16:26:08.658759
2022-12-15 16:26:08.658759
2022-12-15 16:26:08.692129
2022-12-15 16:26:08.692677
2022-12-15 16:26:08.692677
2022-12-15 16:26:08.725119
2022-12-15 16:26:08.725119
2022-12-15 16:26:08.726120
2022-12-15 16:26:08.759278
2022-12-15 16:26:08.759660
2022-12-15 16:26:08.792897
2022-12-15 16:26:08.793187
2022-12-15 16:26:08.793187
2022-12-15 16:26:08.826384
2022-12-15 16:26:08.826675
2022-12-15 16:26:08.827228
2022-12-15 16:26:08.859828
2022-12-15 16:26:08.860168
2022-12-15 16:26:08.893498
2022-12-15 16:26:08.893775
2022-12-15 16:26:08.894232
2022-12-15 16:26:08.926976
2022-12-15 16:26:08.927266
2022-12-15 16:26:08.927266
2022-12-15 16:26:08.960373
2022-12-15 16:26:08.960755
2022-12-15 16:26:08.993888
2022-12-15 16:26:08.993888
2022-12-15 16:26:08.994896
2022-12-15 16:26:09.026529
2022-12-15 16:26:09.027530
2022-12-15 16:26:09.027530
2022-12-15 16:26:09.060890
2022-12-15 16:26:09.060890
2022-12-15 16:26:09.094572
2022-12-15 16:26:09.094810
2022-12-15 16:26:09.095388
2022-12-15 16:26:09.128109
2022-12-15 16:26:09.128441
2022-12-15 16:26:09.128441
2022-12-15 16:26:09.161790
2022-12-15 16:26:09.162174
2022-12-15 16:26:09.195238
2022-12-15 16:26:09.195517
2022-12-15 16:26:09.196061
2022-12-15 16:26:09.228844
2022-12-15 16:26:09.229170
2022-12-15 16:26:09.229170
2022-12-15 16:26:09.262213
2022-12-15 16:26:09.262213
2022-12-15 16:26:09.295513
2022-12-15 16:26:09.295513
2022-12-15 16:26:09.296519
2022-12-15 16:26:09.328306
2022-12-15 16:26:09.329302
2022-12-15 16:26:09.329302
2022-12-15 16:26:09.362770
2022-12-15 16:26:09.363115
2022-12-15 16:26:09.396368
2022-12-15 16:26:09.396604
2022-12-15 16:26:09.397151
2022-12-15 16:26:09.429953
2022-12-15 16:26:09.430243
2022-12-15 16:26:09.430825
2022-12-15 16:26:09.463559
2022-12-15 16:26:09.463940
2022-12-15 16:26:09.497060
2022-12-15 16:26:09.497296
2022-12-15 16:26:09.497756
2022-12-15 16:26:09.530625
2022-12-15 16:26:09.530917
2022-12-15 16:26:09.531458
2022-12-15 16:26:09.563949
2022-12-15 16:26:09.563949
2022-12-15 16:26:09.597029
2022-12-15 16:26:09.598037
2022-12-15 16:26:09.598037
2022-12-15 16:26:09.629850
2022-12-15 16:26:09.630858
2022-12-15 16:26:09.630858
2022-12-15 16:26:09.663759
2022-12-15 16:26:09.664760
2022-12-15 16:26:09.697660
2022-12-15 16:26:09.697908
2022-12-15 16:26:09.698384
2022-12-15 16:26:09.730677
2022-12-15 16:26:09.731628
2022-12-15 16:26:09.731628
2022-12-15 16:26:09.765238
2022-12-15 16:26:09.765575
2022-12-15 16:26:09.798842
2022-12-15 16:26:09.799077
2022-12-15 16:26:09.799660
2022-12-15 16:26:09.832396
2022-12-15 16:26:09.832683
2022-12-15 16:26:09.833136
2022-12-15 16:26:09.865925
2022-12-15 16:26:09.866263
2022-12-15 16:26:09.899494
2022-12-15 16:26:09.899494
2022-12-15 16:26:09.899494
2022-12-15 16:26:09.933190
2022-12-15 16:26:09.933190
2022-12-15 16:26:09.934194
2022-12-15 16:26:09.965659
2022-12-15 16:26:09.966667
2022-12-15 16:26:09.998450
2022-12-15 16:26:09.999529
2022-12-15 16:26:09.999529
2022-12-15 16:26:10.033424
2022-12-15 16:26:10.033709
2022-12-15 16:26:10.034710
2022-12-15 16:26:10.066925
2022-12-15 16:26:10.067958
2022-12-15 16:26:10.100568
2022-12-15 16:26:10.100851
2022-12-15 16:26:10.101434
2022-12-15 16:26:10.133907
2022-12-15 16:26:10.133907
2022-12-15 16:26:10.134861
2022-12-15 16:26:10.167590
2022-12-15 16:26:10.167955
2022-12-15 16:26:10.201178
2022-12-15 16:26:10.201444
2022-12-15 16:26:10.201444
2022-12-15 16:26:10.234652
2022-12-15 16:26:10.234956
2022-12-15 16:26:10.234956
2022-12-15 16:26:10.268007
2022-12-15 16:26:10.268394
2022-12-15 16:26:10.301341
2022-12-15 16:26:10.301577
2022-12-15 16:26:10.302235
2022-12-15 16:26:10.334745
2022-12-15 16:26:10.335062
2022-12-15 16:26:10.335568
2022-12-15 16:26:10.368920
2022-12-15 16:26:10.368920
2022-12-15 16:26:10.401735
2022-12-15 16:26:10.401735
2022-12-15 16:26:10.402735
2022-12-15 16:26:10.434629
2022-12-15 16:26:10.435627
2022-12-15 16:26:10.435627
2022-12-15 16:26:10.468801
2022-12-15 16:26:10.469110
2022-12-15 16:26:10.502398
2022-12-15 16:26:10.502631
2022-12-15 16:26:10.503107
2022-12-15 16:26:10.535525
2022-12-15 16:26:10.536521
2022-12-15 16:26:10.536794
2022-12-15 16:26:10.569563
2022-12-15 16:26:10.569563
2022-12-15 16:26:10.602976
2022-12-15 16:26:10.603348
2022-12-15 16:26:10.603785
2022-12-15 16:26:10.636800
2022-12-15 16:26:10.637187
2022-12-15 16:26:10.637187
2022-12-15 16:26:10.670274
2022-12-15 16:26:10.670274
2022-12-15 16:26:10.703568
2022-12-15 16:26:10.703568
2022-12-15 16:26:10.704570
2022-12-15 16:26:10.736922
2022-12-15 16:26:10.737725
2022-12-15 16:26:10.737725
2022-12-15 16:26:10.770952
2022-12-15 16:26:10.770952
2022-12-15 16:26:10.804045
2022-12-15 16:26:10.804045
2022-12-15 16:26:10.805028
2022-12-15 16:26:10.838044
2022-12-15 16:26:10.838534
2022-12-15 16:26:10.839002
2022-12-15 16:26:10.871601
2022-12-15 16:26:10.872051
2022-12-15 16:26:10.905167
2022-12-15 16:26:10.905512
2022-12-15 16:26:10.905512
2022-12-15 16:26:10.938521
2022-12-15 16:26:10.939036
2022-12-15 16:26:10.939036
2022-12-15 16:26:10.972076
2022-12-15 16:26:10.972552
2022-12-15 16:26:11.005371
2022-12-15 16:26:11.005371
2022-12-15 16:26:11.006380
2022-12-15 16:26:11.038978
2022-12-15 16:26:11.039988
2022-12-15 16:26:11.039988
2022-12-15 16:26:11.072496
2022-12-15 16:26:11.073126
2022-12-15 16:26:11.105804
2022-12-15 16:26:11.106103
2022-12-15 16:26:11.106742
2022-12-15 16:26:11.139732
2022-12-15 16:26:11.140074
2022-12-15 16:26:11.140074
2022-12-15 16:26:11.173027
2022-12-15 16:26:11.173369
2022-12-15 16:26:11.206835
2022-12-15 16:26:11.207073
2022-12-15 16:26:11.207527
2022-12-15 16:26:11.240535
2022-12-15 16:26:11.240822
2022-12-15 16:26:11.241405
2022-12-15 16:26:11.274001
2022-12-15 16:26:11.274001
2022-12-15 16:26:11.306392
2022-12-15 16:26:11.307402
2022-12-15 16:26:11.307402
2022-12-15 16:26:11.340637
2022-12-15 16:26:11.340932
2022-12-15 16:26:11.341413
2022-12-15 16:26:11.374714
2022-12-15 16:26:11.375100
2022-12-15 16:26:11.408277
2022-12-15 16:26:11.408558
2022-12-15 16:26:11.409099
2022-12-15 16:26:11.441795
2022-12-15 16:26:11.442119
2022-12-15 16:26:11.442570
2022-12-15 16:26:11.475277
2022-12-15 16:26:11.475617
2022-12-15 16:26:11.508706
2022-12-15 16:26:11.508944
2022-12-15 16:26:11.509401
2022-12-15 16:26:11.542269
2022-12-15 16:26:11.542269
2022-12-15 16:26:11.543269
2022-12-15 16:26:11.575307
2022-12-15 16:26:11.575307
2022-12-15 16:26:11.607978
2022-12-15 16:26:11.608987
2022-12-15 16:26:11.609546
2022-12-15 16:26:11.642784
2022-12-15 16:26:11.643073
2022-12-15 16:26:11.643657
2022-12-15 16:26:11.676314
2022-12-15 16:26:11.676655
2022-12-15 16:26:11.709927
2022-12-15 16:26:11.710166
2022-12-15 16:26:11.710756
2022-12-15 16:26:11.743452
2022-12-15 16:26:11.743740
2022-12-15 16:26:11.743740
2022-12-15 16:26:11.776968
2022-12-15 16:26:11.777309
2022-12-15 16:26:11.810680
2022-12-15 16:26:11.810918
2022-12-15 16:26:11.811507
2022-12-15 16:26:11.844083
2022-12-15 16:26:11.844416
2022-12-15 16:26:11.844915
2022-12-15 16:26:11.877588
2022-12-15 16:26:11.877981
2022-12-15 16:26:11.911104
2022-12-15 16:26:11.911104
2022-12-15 16:26:11.912137
2022-12-15 16:26:11.944350
2022-12-15 16:26:11.944350
2022-12-15 16:26:11.944350
2022-12-15 16:26:11.977885
2022-12-15 16:26:11.978306
2022-12-15 16:26:12.011789
2022-12-15 16:26:12.012033
2022-12-15 16:26:12.012618
2022-12-15 16:26:12.045447
2022-12-15 16:26:12.045784
2022-12-15 16:26:12.046327
2022-12-15 16:26:12.078952
2022-12-15 16:26:12.079295
2022-12-15 16:26:12.112490
2022-12-15 16:26:12.112728
2022-12-15 16:26:12.113185
2022-12-15 16:26:12.145861
2022-12-15 16:26:12.146158
2022-12-15 16:26:12.146158
2022-12-15 16:26:12.179316
2022-12-15 16:26:12.179316
2022-12-15 16:26:12.211804
2022-12-15 16:26:12.212812
2022-12-15 16:26:12.212812
2022-12-15 16:26:12.245923
2022-12-15 16:26:12.245923
2022-12-15 16:26:12.246919
2022-12-15 16:26:12.279967
2022-12-15 16:26:12.280331
2022-12-15 16:26:12.313692
2022-12-15 16:26:12.313960
2022-12-15 16:26:12.314550
2022-12-15 16:26:12.347155
2022-12-15 16:26:12.347445
2022-12-15 16:26:12.348029
2022-12-15 16:26:12.380800
2022-12-15 16:26:12.381179
2022-12-15 16:26:12.413574
2022-12-15 16:26:12.413574
2022-12-15 16:26:12.413574
2022-12-15 16:26:12.447751
2022-12-15 16:26:12.447751
2022-12-15 16:26:12.448744
2022-12-15 16:26:12.480696
2022-12-15 16:26:12.481704
2022-12-15 16:26:12.514715
2022-12-15 16:26:12.514951
2022-12-15 16:26:12.514951
2022-12-15 16:26:12.548287
2022-12-15 16:26:12.548620
2022-12-15 16:26:12.548620
2022-12-15 16:26:12.581784
2022-12-15 16:26:12.582155
2022-12-15 16:26:12.615438
2022-12-15 16:26:12.615678
2022-12-15 16:26:12.615678
2022-12-15 16:26:12.649052
2022-12-15 16:26:12.649395
2022-12-15 16:26:12.649857
2022-12-15 16:26:12.682575
2022-12-15 16:26:12.682914
2022-12-15 16:26:12.716003
2022-12-15 16:26:12.716003
2022-12-15 16:26:12.717007
2022-12-15 16:26:12.748783
2022-12-15 16:26:12.748783
2022-12-15 16:26:12.749790
2022-12-15 16:26:12.782591
2022-12-15 16:26:12.782591
2022-12-15 16:26:12.816515
2022-12-15 16:26:12.816753
2022-12-15 16:26:12.817343
2022-12-15 16:26:12.849945
2022-12-15 16:26:12.850236
2022-12-15 16:26:12.850813
2022-12-15 16:26:12.883615
2022-12-15 16:26:12.883954
2022-12-15 16:26:12.917057
2022-12-15 16:26:12.917295
2022-12-15 16:26:12.917892
2022-12-15 16:26:12.950825
2022-12-15 16:26:12.951158
2022-12-15 16:26:12.951158
2022-12-15 16:26:12.984372
2022-12-15 16:26:12.984752
2022-12-15 16:26:13.017931
2022-12-15 16:26:13.018213
2022-12-15 16:26:13.018902
2022-12-15 16:26:13.051454
2022-12-15 16:26:13.051454
2022-12-15 16:26:13.052455
2022-12-15 16:26:13.085406
2022-12-15 16:26:13.085406
2022-12-15 16:26:13.117206
2022-12-15 16:26:13.118214
2022-12-15 16:26:13.118214
2022-12-15 16:26:13.150983
2022-12-15 16:26:13.150983
2022-12-15 16:26:13.151983
2022-12-15 16:26:13.185250
2022-12-15 16:26:13.185250
2022-12-15 16:26:13.218867
2022-12-15 16:26:13.218867
2022-12-15 16:26:13.219870
2022-12-15 16:26:13.252233
2022-12-15 16:26:13.253272
2022-12-15 16:26:13.253272
2022-12-15 16:26:13.285590
2022-12-15 16:26:13.286143
2022-12-15 16:26:13.318951
2022-12-15 16:26:13.318951
2022-12-15 16:26:13.319967
2022-12-15 16:26:13.352361
2022-12-15 16:26:13.352361
2022-12-15 16:26:13.353364
2022-12-15 16:26:13.385384
2022-12-15 16:26:13.386413
2022-12-15 16:26:13.419990
2022-12-15 16:26:13.420227
2022-12-15 16:26:13.420227
2022-12-15 16:26:13.453522
2022-12-15 16:26:13.453813
2022-12-15 16:26:13.454316
2022-12-15 16:26:13.486860
2022-12-15 16:26:13.486860
2022-12-15 16:26:13.519755
2022-12-15 16:26:13.520757
2022-12-15 16:26:13.520757
2022-12-15 16:26:13.554099
2022-12-15 16:26:13.554388
2022-12-15 16:26:13.554966
2022-12-15 16:26:13.587689
2022-12-15 16:26:13.588030
2022-12-15 16:26:13.621300
2022-12-15 16:26:13.621540
2022-12-15 16:26:13.621540
2022-12-15 16:26:13.654734
2022-12-15 16:26:13.655068
2022-12-15 16:26:13.655068
2022-12-15 16:26:13.688226
2022-12-15 16:26:13.688569
2022-12-15 16:26:13.721643
2022-12-15 16:26:13.721643
2022-12-15 16:26:13.722500
2022-12-15 16:26:13.755230
2022-12-15 16:26:13.755974
2022-12-15 16:26:13.755974
2022-12-15 16:26:13.788807
2022-12-15 16:26:13.789441
2022-12-15 16:26:13.821668
2022-12-15 16:26:13.822678
2022-12-15 16:26:13.822678
2022-12-15 16:26:13.855894
2022-12-15 16:26:13.856165
2022-12-15 16:26:13.856770
2022-12-15 16:26:13.889413
2022-12-15 16:26:13.889814
2022-12-15 16:26:13.922972
2022-12-15 16:26:13.923183
2022-12-15 16:26:13.923731
2022-12-15 16:26:13.956502
2022-12-15 16:26:13.956502
2022-12-15 16:26:13.957457
2022-12-15 16:26:13.989958
2022-12-15 16:26:13.989958
2022-12-15 16:26:14.023164
2022-12-15 16:26:14.023427
2022-12-15 16:26:14.024062
2022-12-15 16:26:14.056897
2022-12-15 16:26:14.056897
2022-12-15 16:26:14.057907
2022-12-15 16:26:14.089796
2022-12-15 16:26:14.090808
2022-12-15 16:26:14.122876
2022-12-15 16:26:14.123904
2022-12-15 16:26:14.123904
2022-12-15 16:26:14.157413
2022-12-15 16:26:14.158084
2022-12-15 16:26:14.158366
2022-12-15 16:26:14.191288
2022-12-15 16:26:14.191627
2022-12-15 16:26:14.224677
2022-12-15 16:26:14.224917
2022-12-15 16:26:14.225462
2022-12-15 16:26:14.258226
2022-12-15 16:26:14.258516
2022-12-15 16:26:14.259022
2022-12-15 16:26:14.291799
2022-12-15 16:26:14.292145
2022-12-15 16:26:14.325230
2022-12-15 16:26:14.325469
2022-12-15 16:26:14.325924
2022-12-15 16:26:14.358235
2022-12-15 16:26:14.358877
2022-12-15 16:26:14.358877
2022-12-15 16:26:14.391767
2022-12-15 16:26:14.392241
2022-12-15 16:26:14.425911
2022-12-15 16:26:14.426148
2022-12-15 16:26:14.426729
2022-12-15 16:26:14.459481
2022-12-15 16:26:14.459770
2022-12-15 16:26:14.459770
2022-12-15 16:26:14.492991
2022-12-15 16:26:14.493332
2022-12-15 16:26:14.526542
2022-12-15 16:26:14.526780
2022-12-15 16:26:14.527320
2022-12-15 16:26:14.560073
2022-12-15 16:26:14.560362
2022-12-15 16:26:14.560936
2022-12-15 16:26:14.593563
2022-12-15 16:26:14.593563
2022-12-15 16:26:14.627030
2022-12-15 16:26:14.627030
2022-12-15 16:26:14.628045
2022-12-15 16:26:14.659497
2022-12-15 16:26:14.660505
2022-12-15 16:26:14.660505
2022-12-15 16:26:14.693748
2022-12-15 16:26:14.694171
2022-12-15 16:26:14.727861
2022-12-15 16:26:14.728122
2022-12-15 16:26:14.728740
2022-12-15 16:26:14.761425
2022-12-15 16:26:14.761713
2022-12-15 16:26:14.762294
2022-12-15 16:26:14.795012
2022-12-15 16:26:14.795395
2022-12-15 16:26:14.828555
2022-12-15 16:26:14.828826
2022-12-15 16:26:14.829283
2022-12-15 16:26:14.861869
2022-12-15 16:26:14.862160
2022-12-15 16:26:14.862740
2022-12-15 16:26:14.895313
2022-12-15 16:26:14.895313
2022-12-15 16:26:14.928849
2022-12-15 16:26:14.929857
2022-12-15 16:26:14.929857
2022-12-15 16:26:14.961830
2022-12-15 16:26:14.962837
2022-12-15 16:26:14.962837
2022-12-15 16:26:14.995803
2022-12-15 16:26:14.995999
2022-12-15 16:26:15.029056
2022-12-15 16:26:15.029287
2022-12-15 16:26:15.029686
2022-12-15 16:26:15.063043
2022-12-15 16:26:15.063043
2022-12-15 16:26:15.064046
2022-12-15 16:26:15.096642
2022-12-15 16:26:15.097014
2022-12-15 16:26:15.130006
2022-12-15 16:26:15.130245
2022-12-15 16:26:15.130245
2022-12-15 16:26:15.163682
2022-12-15 16:26:15.163973
2022-12-15 16:26:15.164559
2022-12-15 16:26:15.197291
2022-12-15 16:26:15.197662
2022-12-15 16:26:15.230810
2022-12-15 16:26:15.230810
2022-12-15 16:26:15.231682
2022-12-15 16:26:15.264286
2022-12-15 16:26:15.264286
2022-12-15 16:26:15.265287
2022-12-15 16:26:15.297738
2022-12-15 16:26:15.298747
2022-12-15 16:26:15.330895
2022-12-15 16:26:15.330895
2022-12-15 16:26:15.331890
2022-12-15 16:26:15.364863
2022-12-15 16:26:15.365179
2022-12-15 16:26:15.365832
2022-12-15 16:26:15.398353
2022-12-15 16:26:15.398699
2022-12-15 16:26:15.431908
2022-12-15 16:26:15.431908
2022-12-15 16:26:15.432737
2022-12-15 16:26:15.465403
2022-12-15 16:26:15.465403
2022-12-15 16:26:15.466348
2022-12-15 16:26:15.498920
2022-12-15 16:26:15.498920
2022-12-15 16:26:15.532476
2022-12-15 16:26:15.532847
2022-12-15 16:26:15.533497
2022-12-15 16:26:15.565863
2022-12-15 16:26:15.565863
2022-12-15 16:26:15.566871
2022-12-15 16:26:15.599067
2022-12-15 16:26:15.600074
2022-12-15 16:26:15.633091
2022-12-15 16:26:15.633355
2022-12-15 16:26:15.634030
2022-12-15 16:26:15.666557
2022-12-15 16:26:15.666850
2022-12-15 16:26:15.667431
2022-12-15 16:26:15.700077
2022-12-15 16:26:15.700447
2022-12-15 16:26:15.733545
2022-12-15 16:26:15.733782
2022-12-15 16:26:15.734325
2022-12-15 16:26:15.767111
2022-12-15 16:26:15.767400
2022-12-15 16:26:15.767987
2022-12-15 16:26:15.800234
2022-12-15 16:26:15.800234
2022-12-15 16:26:15.832994
2022-12-15 16:26:15.833993
2022-12-15 16:26:15.833993
2022-12-15 16:26:15.867672
2022-12-15 16:26:15.867672
2022-12-15 16:26:15.868689
2022-12-15 16:26:15.900212
2022-12-15 16:26:15.901244
2022-12-15 16:26:15.934957
2022-12-15 16:26:15.935195
2022-12-15 16:26:15.935785
2022-12-15 16:26:15.968493
2022-12-15 16:26:15.968783
2022-12-15 16:26:15.969406
2022-12-15 16:26:16.001986
2022-12-15 16:26:16.001986
2022-12-15 16:26:16.035515
2022-12-15 16:26:16.035787
2022-12-15 16:26:16.036498
2022-12-15 16:26:16.069034
2022-12-15 16:26:16.069350
2022-12-15 16:26:16.070050
2022-12-15 16:26:16.102540
2022-12-15 16:26:16.102880
2022-12-15 16:26:16.136073
2022-12-15 16:26:16.136360
2022-12-15 16:26:16.136823
2022-12-15 16:26:16.169611
2022-12-15 16:26:16.169941
2022-12-15 16:26:16.170517
2022-12-15 16:26:16.203204
2022-12-15 16:26:16.203204
2022-12-15 16:26:16.236550
2022-12-15 16:26:16.236988
2022-12-15 16:26:16.237993
2022-12-15 16:26:16.269696
2022-12-15 16:26:16.269696
2022-12-15 16:26:16.270706
2022-12-15 16:26:16.303033
2022-12-15 16:26:16.303033
2022-12-15 16:26:16.336699
2022-12-15 16:26:16.336699
2022-12-15 16:26:16.337736
2022-12-15 16:26:16.370177
2022-12-15 16:26:16.371178
2022-12-15 16:26:16.371178
2022-12-15 16:26:16.404291
2022-12-15 16:26:16.404670
2022-12-15 16:26:16.437708
2022-12-15 16:26:16.437932
2022-12-15 16:26:16.438398
2022-12-15 16:26:16.471349
2022-12-15 16:26:16.471638
2022-12-15 16:26:16.472263
2022-12-15 16:26:16.503734
2022-12-15 16:26:16.504731
2022-12-15 16:26:16.538246
2022-12-15 16:26:16.538873
2022-12-15 16:26:16.538873
2022-12-15 16:26:16.571871
2022-12-15 16:26:16.572162
2022-12-15 16:26:16.572162
2022-12-15 16:26:16.605003
2022-12-15 16:26:16.605422
2022-12-15 16:26:16.638505
2022-12-15 16:26:16.638828
2022-12-15 16:26:16.638828
2022-12-15 16:26:16.672087
2022-12-15 16:26:16.672355
2022-12-15 16:26:16.672355
2022-12-15 16:26:16.705956
2022-12-15 16:26:16.706632
2022-12-15 16:26:16.739609
2022-12-15 16:26:16.739609
2022-12-15 16:26:16.740492
2022-12-15 16:26:16.773182
2022-12-15 16:26:16.773939
2022-12-15 16:26:16.773939
2022-12-15 16:26:16.806710
2022-12-15 16:26:16.806710
2022-12-15 16:26:16.840068
2022-12-15 16:26:16.840068
2022-12-15 16:26:16.841075
2022-12-15 16:26:16.873178
2022-12-15 16:26:16.873178
2022-12-15 16:26:16.874176
2022-12-15 16:26:16.906975
2022-12-15 16:26:16.907383
2022-12-15 16:26:16.940647
2022-12-15 16:26:16.940647
2022-12-15 16:26:16.941672
2022-12-15 16:26:16.974298
2022-12-15 16:26:16.974298
2022-12-15 16:26:16.975305
2022-12-15 16:26:17.007235
2022-12-15 16:26:17.007235
2022-12-15 16:26:17.041157
2022-12-15 16:26:17.041157
2022-12-15 16:26:17.042164
2022-12-15 16:26:17.074913
2022-12-15 16:26:17.075204
2022-12-15 16:26:17.075204
2022-12-15 16:26:17.108495
2022-12-15 16:26:17.109507
2022-12-15 16:26:17.141900
2022-12-15 16:26:17.142136
2022-12-15 16:26:17.142728
2022-12-15 16:26:17.175407
2022-12-15 16:26:17.175695
2022-12-15 16:26:17.175695
2022-12-15 16:26:17.208959
2022-12-15 16:26:17.209304
2022-12-15 16:26:17.242450
2022-12-15 16:26:17.242450
2022-12-15 16:26:17.243244
2022-12-15 16:26:17.276009
2022-12-15 16:26:17.276300
2022-12-15 16:26:17.276885
2022-12-15 16:26:17.309574
2022-12-15 16:26:17.309914
2022-12-15 16:26:17.343027
2022-12-15 16:26:17.343027
2022-12-15 16:26:17.344033
2022-12-15 16:26:17.377078
2022-12-15 16:26:17.377078
2022-12-15 16:26:17.378086
2022-12-15 16:26:17.409998
2022-12-15 16:26:17.409998
2022-12-15 16:26:17.443548
2022-12-15 16:26:17.443548
2022-12-15 16:26:17.444582
2022-12-15 16:26:17.476740
2022-12-15 16:26:17.476740
2022-12-15 16:26:17.477836
2022-12-15 16:26:17.510748
2022-12-15 16:26:17.511115
2022-12-15 16:26:17.544369
2022-12-15 16:26:17.544604
2022-12-15 16:26:17.544604
2022-12-15 16:26:17.577855
2022-12-15 16:26:17.578144
2022-12-15 16:26:17.578721
2022-12-15 16:26:17.611459
2022-12-15 16:26:17.611459
2022-12-15 16:26:17.644607
2022-12-15 16:26:17.644607
2022-12-15 16:26:17.645613
2022-12-15 16:26:17.677484
2022-12-15 16:26:17.678506
2022-12-15 16:26:17.678506
2022-12-15 16:26:17.711140
2022-12-15 16:26:17.712141
2022-12-15 16:26:17.745127
2022-12-15 16:26:17.745346
2022-12-15 16:26:17.745801
2022-12-15 16:26:17.779063
2022-12-15 16:26:17.779354
2022-12-15 16:26:17.779354
2022-12-15 16:26:17.812682
2022-12-15 16:26:17.813024
2022-12-15 16:26:17.846341
2022-12-15 16:26:17.846618
2022-12-15 16:26:17.847202
2022-12-15 16:26:17.879898
2022-12-15 16:26:17.880221
2022-12-15 16:26:17.880676
2022-12-15 16:26:17.913211
2022-12-15 16:26:17.913555
2022-12-15 16:26:17.946829
2022-12-15 16:26:17.946829
2022-12-15 16:26:17.947830
2022-12-15 16:26:17.980794
2022-12-15 16:26:17.980794
2022-12-15 16:26:17.981799
2022-12-15 16:26:18.013198
2022-12-15 16:26:18.013198
2022-12-15 16:26:18.046949
2022-12-15 16:26:18.047213
2022-12-15 16:26:18.047668
2022-12-15 16:26:18.080993
2022-12-15 16:26:18.081281
2022-12-15 16:26:18.081859
2022-12-15 16:26:18.114459
2022-12-15 16:26:18.114811
2022-12-15 16:26:18.148144
2022-12-15 16:26:18.148423
2022-12-15 16:26:18.148423
2022-12-15 16:26:18.181705
2022-12-15 16:26:18.182033
2022-12-15 16:26:18.182490
2022-12-15 16:26:18.213955
2022-12-15 16:26:18.214957
2022-12-15 16:26:18.248464
2022-12-15 16:26:18.249475
2022-12-15 16:26:18.249844
2022-12-15 16:26:18.281993
