HR_time,RR-interval,heart_rate
1.3076376364128035,502,83.77027711598745
1.99917677105419,729,86.93467632023147
2.6529955892605916,691,90.69886360894006
3.294240968655332,653,90.69886360894006
3.9857801032967184,641,86.18570408813301
4.752759870808075,691,81.0727564828614
5.519739638319431,766,78.66269890710382
6.274145967019124,766,78.2421177331218
7.053699173342142,754,76.2666607038123
7.883546134911806,779,73.14776266459661
8.738539974104793,829,71.23317672333518
9.580960374486118,855,71.98631971575944
10.385660458432458,842,75.5545505233367
11.127493348320492,804,78.32431818502823
11.881899677020186,741,79.98123276836156
12.63630600571988,754,80.92719649122806
13.35299201798459,754,82.82081315789472
14.057104591437637,716,82.82081315789472
14.811510920137332,704,80.57033494623654
15.59106412646035,754,78.2421177331218
16.358043893971704,779,79.15627750323674
17.087303345048078,766,80.9256189937818
17.816562796124447,729,81.36021954022988
18.570969124824142,729,80.01145922366685
19.337948892335497,754,77.83488834244079
20.130075537470177,766,77.83488834244079
20.88448186616987,792,80.16310555555555
21.58859443962292,754,84.92692106918237
22.254986696640984,704,87.87254699510831
22.933952392470708,666,88.92455625436757
23.612918088300432,678,86.33731162196679
24.342177539376802,678,84.3058454661558
25.071436990453176,729,80.50503781979977
25.85099019677619,729,77.55159856250535
26.668263719534195,779,73.86767113069885
27.51068411991552,817,73.46044174001784
28.3028107650502,842,75.06512068074926
29.069790532561555,792,77.40028779599271
29.83677030007291,766,78.66269890710382
30.591176628772605,766,80.49259594477996
31.307862641037314,754,83.87282241715398
31.98682833686704,716,87.95138139151295
32.640647155073445,678,90.0574893028006
33.307039412091505,653,89.52192095263226
33.998578546732894,666,86.35752174838822
34.72783799780926,691,83.77027711598745
35.457097448885634,729,82.27437931034481
36.18635689996201,729,82.27437931034481
36.91561635103837,729,80.9256189937818
37.68259611854973,729,80.46079199202842
38.42442900843776,766,79.54663222191348
39.17883533713746,741,81.87484943502824
39.88294791059051,754,86.10386372549019
40.52419328998525,704,91.40599039215685
41.152865230568324,641,93.01377812800591
41.81925748758639,628,89.73072756041044
42.5359434998511,666,84.42860089374378
43.290349828550795,716,80.92719649122806
44.04475615725049,754,79.98123276836156
44.78658904713852,754,80.43056553672315
45.52842193702655,741,79.16815442561204
46.32054858216123,741,76.67954217007097
47.13782210491924,792,75.37502768127929
47.91737531124225,817,77.55159856250535
48.64663476231863,779,80.50503781979978
49.37589421339499,729,82.27437931034481
50.105153664471366,729,81.36021954022988
50.85955999317106,729,80.44605977011494
51.613966321870755,754,79.98123276836156
52.355799211758786,754,82.9268586942875
53.03476490758851,741,86.42826309680322
53.70115716460658,678,88.38898790419921
54.39269629924796,666,87.85341955403086
55.08423543388935,691,85.7473116427432
55.80092144615406,691,85.7473116427432
56.492460580795445,716,85.7473116427432
57.18399971543683,691,84.35201515151513
57.93840604413653,691,84.35201515151513
58.62994517877791,754,83.33725406698562
59.34663119104262,691,84.73255055821369
60.06331720330733,716,84.73255055821369
60.754856337948716,716,85.2308707336523
61.45896891140177,691,84.28490701078582
62.2008018012898,704,81.44024888858016
62.96778156880115,741,79.54663222191348
63.722187897500845,766,80.99091612021857
64.42630047095389,754,83.31913333333331
65.13041304440695,704,84.23329310344826
65.85967249548331,704,81.9050758903335
66.62665226299467,729,80.01145922366685
67.38105859169437,766,79.0972994535519
68.13546492039406,754,80.44605977011494
68.86472437147043,754,81.36021954022988
69.5939838225468,729,80.9256189937818
70.36096359005816,729,78.74904811255573
71.15309023519283,766,75.7956088552613
71.97036375795084,792,75.37502768127929
72.74991696427385,817,77.55159856250535
73.47917641535022,779,80.0402108180464
74.22100930523825,729,80.46079199202842
74.98798907274961,741,78.69145050148337
75.76754227907263,766,76.58520314978847
76.57224236301897,779,74.98052420905707
77.38951588577697,804,74.98052420905707
78.16906909209999,817,77.55159856250535
78.89832854317636,779,79.15627750323674
79.66530831068772,729,80.46079199202842
80.40714120057575,766,79.99596499027507
81.14897409046378,741,81.82586202795122
81.8656601027285,741,80.94192871314155
82.63263987023986,716,79.63741422434987
83.41219307656287,766,75.83206015736423
84.24204003813253,779,73.85660312805473
85.0718869997022,829,73.85660312805473
85.85144020602522,829,73.85660312805473
86.68128716759487,779,75.0042495927012
87.47341381272956,829,75.0042495927012
88.25296701905258,792,78.80960365968684
88.96965303131728,779,82.48207234655553
89.66119216595867,716,85.2308707336523
90.36530473941173,691,84.28490701078582
91.10713762929976,704,81.44024888858016
91.87411739681112,741,78.28422111080238
92.66624404194579,766,77.40028779599271
93.43322380945715,792,79.23018483366886
94.14990982172185,766,81.88789243600803
94.86659583398657,716,119.43737964912279
95.1809318042781,1031,141.2388873245614
95.58328184625127,402,140.75775060344827
96.31254129732764,729,104.55702370689656
97.04180074840401,729,83.25383620689654
97.74591332185706,704,86.41823541114057
98.39973214006346,653,89.58263461538459
99.05355095826987,653,90.0990755244755
99.74509009291125,691,86.93467632023147
100.47434954398763,729,82.42151679942441
101.24132931149899,766,80.46079199202842
101.98316220138702,741,79.1120316754654
102.75014196889838,766,77.88971763858015
103.5548420528447,804,74.67061720852703
104.39726245322603,842,73.06593826779563
105.21453597598403,817,74.72285285112896
105.96894230468374,754,78.88791700404857
106.68562831694844,716,81.37652925958963
107.42746120683647,741,80.94192871314155
108.19444097434783,766,79.99596499027507
108.93627386423586,741,80.46079199202842
109.66553331531223,729,83.30545011423408
110.35707244995362,691,86.93467632023147
111.01089126816002,653,90.69886360894006
111.65213664755476,641,94.24017269984915
112.26823514932617,616,93.6630181280059
112.93462740634425,666,90.87828773584904
113.6387399797973,704,84.92692106918238
114.39314630849698,754,79.76860208333332
115.19784639244332,804,76.21807083333333
116.00254647638967,804,75.36288911290322
116.78209968271268,779,75.75739258512544
117.57422632784736,792,76.15189605734767
118.36635297298204,792,76.15189605734766
119.14590617930506,779,78.32846693857371
119.87516563038143,729,82.0009356254424
120.56670476502282,691,84.74973401253916
121.27081733847587,704,85.2308707336523
121.98750335074057,716,84.21610964912279
122.70418936300528,716,82.7718257508177
123.44602225289331,741,82.7718257508177
124.16270826515803,716,82.29068902970458
124.8919677162344,729,81.40675571489491
125.65894748374575,766,80.01145922366685
126.41335381244545,754,79.54663222191348
127.15518670233348,741,81.87484943502824
127.85929927578653,704,84.28490701078582
128.55083841042793,691,86.2456318181818
129.2423775450693,691,85.7473116427432
129.95906355733402,716,82.48207234655553
130.73861676365703,779,78.80960365968684
131.53074340879172,792,75.75739258512544
132.33544349273805,804,73.84280664386401
133.17786389311937,842,71.98631971575942
134.03285773231235,855,70.87346663740122
134.8752781326937,842,72.38082318798165
135.66740477782835,792,74.23731011608623
136.45953142296304,792,77.45641054613935
137.20136431285107,741,80.11411814847852
137.9180503251158,716,83.78658683534721
138.60958945975716,691,87.41581304134459
139.26340827796358,653,88.4305741258741
139.95494741260495,691,86.02051655011653
140.70935374130465,754,80.67954646464645
141.50148038643934,792,77.00707777777777
142.29360703157403,792,74.59702020202019
143.12345399314367,829,72.40152261747913
143.99102127114833,867,70.89416606689869
144.83344167152964,842,71.64730905932294
145.638141755476,804,76.01937752509005
146.36740120655236,729,80.68276185344827
147.0715137800054,704,84.23329310344826
147.77562635345845,704,84.23329310344826
148.50488580453484,729,82.3396764367816
149.25929213323454,754,80.89539253847651
150.00112502312257,741,81.37652925958963
150.71781103538726,716,81.82586202795122
151.4596439252753,741,80.94192871314155
152.22662369278666,766,79.54663222191348
152.98103002148636,754,80.99091612021857
153.6851425949394,704,83.31913333333331
154.38925516839245,704,84.71442982456139
155.10594118065717,716,84.21610964912279
155.82262719292186,716,83.71778947368419
156.53931320518657,716,85.26811890838205
157.2182789010163,678,87.95138139151295
157.8720977192227,653,88.96614247604245
158.5636368538641,691,86.46984931847811
159.30546974375213,741,80.35201085693966
160.12274326651013,817,75.53189570542452
160.9525902280798,829,73.82015182595183
161.74471687321446,792,75.0042495927012
162.52427007953747,779,75.37502768127929
163.34154360229547,817,73.86767113069885
164.18396400267682,842,72.68357336394948
165.00123752543482,817,75.17218561949053
165.74307041532285,741,77.507352734734
166.5100501828342,766,79.54663222191348
167.2644565115339,754,78.2421177331218
168.0440097178569,779,79.59087804968482
168.7732691689333,729,80.9861745409129
169.48995518119798,716,82.29068902970458
170.23178807108602,741,82.29068902970458
170.9610475221624,729,82.29068902970458
171.67773353442712,716,84.25141383710057
172.3692726690685,691,84.25141383710057
173.09853212014485,729,82.42151679942441
173.86551188765623,766,79.15627750323674
174.64506509397924,779,78.2421177331218
175.39947142267894,754,80.07201477079795
176.11615743494363,716,81.37652925958963
176.8579903248317,741,81.37652925958963
177.61239665353136,754,79.12605104793147
178.39194985985438,779,79.12605104793147
179.1337827497424,741,80.0402108180464
179.8630422008188,729,82.29068902970458
180.5797282130835,716,83.73497292800967
181.28384078653656,704,84.71442982456138
181.9879533599896,704,85.21274999999999
182.69206593344265,704,86.82053773584904
183.3584581904607,666,88.4283254716981
184.02485044747877,666,87.93000529625951
184.7415364597435,716,84.42860089374378
185.4959427884432,754,79.66478538011694
186.28806943357785,792,79.18364865900382
187.01732888465423,729,80.57894515023189
187.73401489691895,716,81.40675571489491
188.5009946644303,766,79.63741422434987
189.2805478707533,779,78.2421177331218
190.034954199453,754,80.07201477079795
190.7516402117177,716,82.32249298245613
191.46832622398242,716,83.23665275257108
192.1975856750588,729,81.84135626134301
192.95199200375848,754,81.84135626134301
193.6686780160232,716,83.87282241715398
194.34764371185292,678,86.28287999291155
195.0391828464943,691,85.80174327179844
195.7684422975707,729,83.77027711598745
196.49770174864705,729,82.27437931034481
197.22696119972343,729,83.77027711598745
197.9185003343648,691,85.80174327179843
198.59746603019454,678,88.38898790419921
199.2638582872126,666,90.0574893028006
199.917677105419,653,91.19042235123365
200.5714959236254,653,92.9911446153846
201.20016786420848,628,94.8639523076923
201.81626636597989,616,96.08751999999998
202.444938306563,628,96.08751999999998
203.07361024714606,628,93.08177925925925
203.75257594297577,678,90.18971016835016
204.44411507761717,691,87.29764107744106
205.13565421225854,691,86.24563181818179
205.8397667857116,704,84.74973401253916
206.56902623678798,729,82.3396764367816
207.32343256548768,754,80.44605977011494
208.07783889418735,754,82.47752592592592
208.75680459001708,678,85.97893032844163
209.42319684703514,666,88.92455625436757
210.10216254286487,678,88.92455625436757
210.7811282386946,678,88.36877777777778
211.4600939345243,678,89.50171082621083
212.11391275273073,653,91.2344319591084
212.75515813212547,641,93.59093269984916
213.38383007270855,628,94.19072078431371
214.0250754521033,641,93.01377812800591
214.69146770912135,666,90.65727738726517
215.37043340495106,678,89.48033473095737
216.03682566196915,666,89.48033473095737
216.7032179189872,666,86.98404157339301
217.44505080887524,741,83.04803662442922
218.21203057638658,766,77.1365746461559
219.04187753795625,829,75.83206015736423
219.82143074427927,779,73.49689304212076
220.66385114466058,842,73.1371829561868
221.50627154504193,842,71.95308518943742
222.32354506779993,817,73.86767113069885
223.10309827412294,779,77.55159856250535
223.8323577251993,729,79.59087804968483
224.586764053899,754,80.44605977011494
225.3411703825987,754,79.98123276836156
226.08300327248674,741,82.39129034411914
226.7745424071281,691,85.33691627004507
227.45350810295784,678,88.38898790419921
228.1199003599759,666,88.38898790419921
228.8114394946173,691,86.35752174838822
229.54069894569366,729,83.77027711598745
230.26995839677002,729,84.8616239427456
230.9363506537881,666,88.02602314698963
231.5901694719945,653,89.52192095263226
232.28170860663587,691,85.58591600366844
233.04868837414725,766,81.50735702930947
233.80309470284695,754,79.0972994535519
234.55750103154662,754,79.98123276836156
235.29933392143465,741,78.71882165725046
236.09146056656934,792,77.06190707391713
236.8961606505157,804,76.61257430555554
237.65056697921537,754,79.27028190789473
238.3672529914801,716,82.82081315789472
239.07136556493313,704,84.21610964912279
239.78805157719785,716,83.73497292800965
240.5173110282742,729,83.73497292800967
241.22142360172725,704,83.73497292800967
241.93810961399197,716,83.73497292800965
242.66736906506836,729,82.29068902970458
243.4092019549564,741,81.34472530683809
244.15103484484442,741,81.82586202795122
244.86772085710913,716,84.32215518551557
245.54668655293884,678,86.28287999291155
246.23822568758024,691,86.78120016835015
246.94233826103329,704,84.28490701078582
247.68417115092132,741,81.87484943502824
248.43857747962102,754,80.43056553672315
249.18041036950905,741,79.98123276836156
249.93481669820872,754,78.71882165725046
250.7269433433434,792,77.83488834244079
251.49392311085478,766,77.83488834244079
252.24832943955445,754,80.49259594477996
252.96501545181917,716,84.42860089374378
253.63140770883723,666,87.9300052962595
254.2977999658553,666,90.03611320754716
254.96419222287335,666,89.48033473095737
255.64315791870308,678,86.42826309680322
256.3849908085911,741,83.84101846440245
257.1142502596675,729,81.80955230859146
257.8435097107439,729,80.09780842911877
258.63563635587855,792,76.77359108324625
259.4654833174482,829,73.82015182595183
260.2827568402062,817,74.22738121663282
261.0623100465292,779,74.98052420905707
261.8670101304756,804,74.98052420905707
262.6842836532336,817,72.71680789027148
263.53927749242655,855,71.96366489784724
264.3691244539962,829,73.14776266459661
265.1486776603192,779,75.83206015736423
265.9156574278306,766,77.38693601269169
266.6952106341536,779,76.9797066220107
267.4873372792883,792,76.9797066220107
268.25431704679966,766,77.40028779599271
269.02129681431103,766,80.55631557377048
269.72540938776405,704,84.49232052273429
270.3918016447821,666,86.82053773584904
271.0959142182352,704,84.92692106918238
271.8503205469349,754,80.16310555555555
272.64244719206954,792,104.78012222222222
273.0196503564194,377,122.45387777777776
273.4722941536392,452,121.6770094017094
274.2895676763972,817,92.04747802916037
275.14456151559017,855,70.91581377795264
276.01212879359485,867,70.18532560344059
276.85454919397614,842,72.44904192222617
277.6341024002992,779,75.05176889744824
278.41365560662217,779,76.55912544802867
279.2057822517569,792,76.55912544802867
279.9853354580799,779,77.41430716845878
280.7397417867796,754,79.59087804968482
281.46900123785593,729,80.89539253847651
282.21083412774396,741,80.0402108180464
282.990387334067,779,78.69145050148339
283.7573671015784,766,78.69145050148339
284.4991999914664,741,80.46079199202842
285.22845944254277,729,81.34472530683809
285.9702923324308,741,79.23847795514318
286.77499241637713,804,75.20542014581255
287.62998625557015,855,71.63718933823527
288.4849800947631,855,70.17520588235293
289.3399739339561,855,72.85950337512052
290.10695370146743,766,75.12321969390611
290.8865069077905,779,76.20283824594232
291.7037804305485,817,74.59815930521091
292.5210539533065,817,73.79642644230769
293.3257540372528,804,75.4011053830391
294.0927338047642,766,79.33400153688524
294.7968463782172,704,81.9050758903335
295.5261058292936,729,83.25383620689655
296.25536528037,729,81.36021954022988
297.0097716090697,754,80.89539253847651
297.7516044989577,741,81.37652925958963
298.4682905112224,716,84.32215518551557
299.1472562070521,678,85.76643908382064
299.8513687805052,704,85.28530236270753
300.58062823158156,729,82.78900920514317
301.3224611214696,741,80.46079199202842
302.08944088898096,766,80.46079199202842
302.8187003400573,729,82.42151679942441
303.5102394746987,691,84.74973401253916
304.21435204815174,704,85.2308707336523
304.9310380604164,716,83.73497292800965
305.66029751149284,729,82.75551603145794
306.3895569625692,729,82.75551603145794
307.1062429748339,716,84.25141383710057
307.7977821094753,691,84.73255055821369
308.51446812174,716,84.25141383710057
309.2437275728164,729,82.29068902970458
309.9855604627044,741,81.80955230859146
310.7148199137808,729,82.78900920514317
311.4189324872338,704,84.23329310344826
312.1230450606869,704,84.23329310344826
312.85230451176324,729,82.78900920514317
313.59413740165127,741,81.34472530683809
314.3359702915393,741,81.82586202795122
315.05265630380404,716,83.78658683534721
315.7441954384454,691,85.2308707336523
316.44830801189846,704,85.2308707336523
317.16499402416315,716,84.21610964912279
317.8816800364279,716,83.71778947368419
318.5983660486926,716,84.21610964912279
319.30247862214566,704,85.76643908382064
319.98144431797533,678,85.76643908382064
320.6981303302401,716,84.78698218726893
321.42738978131644,729,83.23665275257108
322.1440757935811,716,84.78698218726893
322.82304148941085,678,86.81844834307991
323.5020071852406,678,87.83320942760942
324.193546319882,691,86.28287999291156
324.9102323321467,716,85.2308707336523
325.61434490559975,704,85.76643908382064
326.2933106014295,678,86.26475925925925
326.9974231748825,704,86.26475925925925
327.7015357483356,704,84.23329310344826
328.43079519941193,729,83.25383620689655
329.1600546504883,729,83.77027711598745
329.8515937851297,691,85.26617492163007
330.5431329197711,691,86.24563181818179
331.2472454932241,704,85.2308707336523
331.96393150548886,716,83.73497292800965
332.6931909565652,729,83.73497292800967
333.39730353001823,704,85.28530236270753
334.07626922584797,678,87.31676851851851
334.7552349216777,678,87.31676851851851
335.45934749513077,704,83.9365420461445
336.2263272626421,766,79.72850500910747
337.0184539077768,792,77.40028779599271
337.7854336752881,766,76.97970662201068
338.56498688161116,779,76.58520314978847
339.3696869655575,804,74.98052420905707
340.1869604883155,817,74.57329481837607
340.9790871334502,792,76.2302094017094
341.73349346214985,754,78.71882165725046
342.4753263520379,741,80.43056553672315
343.2171592419259,741,80.87989830508474
343.958992131814,741,82.32418220338981
344.663104705267,704,84.28490701078582
345.3546438399084,691,86.78120016835015
346.03360953573815,678,85.80174327179844
346.7628689868145,729,82.95708514959279
347.5298487543259,766,78.74904811255573
348.32197539946054,792,77.83488834244079
349.07638172816024,754,78.26948888888887
349.83078805685994,754,79.0972994535519
350.59776782437126,766,78.66269890710382
351.36474759188263,766,79.1120316754654
352.10658048177066,741,81.44024888858014
352.81069305522374,704,82.78900920514317
353.5399525063001,729,82.78900920514317
354.2817853961881,741,81.34472530683809
355.02361828607616,741,81.82586202795122
355.74030429834085,716,82.7718257508177
356.4569903106056,716,83.23665275257108
357.18624976168195,729,82.29068902970458
357.92808265157,741,82.29068902970458
358.64476866383467,716,84.32215518551557
359.3237343596644,678,85.26811890838205
360.04042037192914,716,85.26811890838205
360.75710638419383,716,83.23665275257108
361.4863658352702,729,83.23665275257108
362.20305184753494,716,83.73497292800967
362.90716442098795,704,83.73497292800965
363.6364238720643,729,83.25383620689655
364.36568332314073,729,81.80955230859146
365.10751621302876,741,82.78900920514317
365.8116287864818,704,84.28490701078582
366.5031679211232,691,84.74973401253916
367.23242737219954,729,82.8561173458725
367.98683370089924,754,80.44605977011494
368.74124002959894,754,81.42551666666665
369.44535260305196,704,84.92692106918237
370.11174486007,666,87.87254699510831
370.79071055589975,678,85.97893032844163
371.54511688459945,754,80.43824643874643
372.36239040735745,817,75.08256293706293
373.1922373689271,829,73.04328344988345
374.0095108916851,817,74.22738121663282
374.78906409800817,779,74.98052420905707
375.5937641819545,804,74.60974612047897
376.42361114352417,829,72.34602980169339
377.2786049827171,855,71.23317672333518
378.12102538309847,842,72.78805257866266
378.90057858942146,779,77.30224710910642
379.6172646016862,716,82.48207234655553
380.3088037363276,691,85.2308707336523
381.0129163097806,704,84.74973401253916
381.742175760857,729,82.78900920514317
382.484008650745,741,81.80955230859146
383.2132681018214,729,81.80955230859146
383.9425275528978,729,82.27437931034481
384.67178700397415,729,81.80955230859146
385.4136198938622,741,80.46079199202842
386.18059966137355,766,78.69145050148337
386.96015286769654,779,77.38693601269169
387.7397060740196,779,78.73569632925472
388.46896552509594,729,82.0009356254424
389.16050465973734,691,85.26617492163007
389.8520437943787,691,85.26617492163007
390.5813032454551,729,83.77027711598745
391.31056269653146,729,81.80955230859146
392.0523955864195,741,81.80955230859146
392.78165503749585,729,81.80955230859146
393.5109144885722,729,81.36021954022988
394.2653208172719,754,80.01145922366685
395.0323005847833,766,78.66269890710382
395.79928035229466,766,78.66269890710382
396.5536866809943,754,80.99091612021857
397.2577992544474,704,83.83557424242423
397.9493383890888,691,85.72919090909089
398.6534509625418,704,85.2308707336523
399.37013697480654,716,83.2701459262563
400.1119698646946,741,80.52134753915954
400.89152307101756,779,79.57538381629305
401.6333559609056,741,80.52134753915954
402.35004197317033,716,81.82586202795122
403.09187486305837,741,80.94192871314155
403.8588546305697,766,79.54663222191348
404.6132609592694,754,79.54663222191348
405.3550938491574,741,82.39129034411914
406.0466329837988,691,86.46984931847811
406.7004518020052,653,90.0990755244755
407.3542706202116,653,90.63464387464386
408.0332363160413,678,89.50171082621081
408.71220201187106,678,87.83320942760942
409.40374114651246,691,87.83320942760942
410.0827068423422,678,86.78120016835015
410.7868194157952,704,85.28530236270753
411.5160788668716,729,81.9050758903335
412.28305863438294,766,80.01145922366685
413.03746496308264,754,80.49259594477996
413.7541509753474,716,82.82081315789472
414.4582635488004,704,84.21610964912279
415.1749495610651,716,84.71442982456138
415.87906213451816,704,84.71442982456138
416.58317470797124,704,85.72919090909089
417.2747138426126,691,85.72919090909089
417.97882641606566,704,83.83557424242423
418.73323274476536,754,80.99091612021857
419.5002125122767,766,78.2421177331218
420.2797657185997,779,78.69145050148339
421.02159860848775,741,80.0402108180464
421.7508580595641,729,81.34472530683809
422.49269094945214,741,80.89539253847651
423.24709727815184,754,79.54663222191348
424.0140770456632,766,78.66269890710382
424.7810568131746,766,79.57685867721875
425.51031626425095,729,81.9050758903335
426.21442883770396,704,83.73497292800967
426.9311148499687,716,83.2701459262563
427.67294773985674,741,81.37652925958963
428.42735406855644,754,79.98123276836156
429.1817603972561,754,79.98123276836156
429.9235932871441,741,79.12605104793147
430.70314649346716,779,78.69145050148339
431.47012626097853,766,78.2421177331218
432.22453258967823,754,80.99091612021857
432.92864516313125,704,82.33967643678159
433.6579046142076,729,83.25383620689655
434.387164065284,729,82.27437931034481
435.1164235163604,729,83.25383620689654
435.8205360898134,704,83.73497292800967
436.53722210207815,716,83.2701459262563
437.2790549919662,741,82.29068902970458
438.00831444304254,729,81.80955230859146
438.7375738941189,729,84.3058454661558
439.4165395899486,678,87.47024467039984
440.070358408155,653,89.50171082621081
440.74932410398475,678,87.95138139151295
441.4660101162495,716,84.32215518551556
442.2078430061375,741,82.7718257508177
442.9245290184022,716,81.37652925958963
443.6789353471019,754,80.49259594477996
444.4459151146133,766,78.66269890710382
445.2128948821246,766,78.66269890710382
445.9673012108243,754,80.49259594477996
446.683987223089,716,82.32249298245613
447.40067323535374,716,83.23665275257108
448.1299326864301,729,83.73497292800967
448.83404525988317,704,84.74973401253916
449.5255843945245,691,88.51392130124776
450.1668297739193,641,91.92243130124776
450.79550171450234,628,93.59093269984916
451.4493205327087,653,90.80620230769229
452.1534331061618,704,85.06947509457754
452.9204128736732,766,80.13573439978846
453.69996607999616,779,78.2421177331218
454.45437240869586,754,78.2421177331218
455.22135217620723,766,77.83488834244079
456.0134788213419,792,75.42483076668321
456.84332578291156,829,73.82015182595183
457.66059930566956,817,74.22738121663282
458.4401525119926,779,75.78225707196029
459.2197057183156,779,76.96635483870968
459.99925892463864,779,77.38693601269169
460.76623869214995,766,78.2421177331218
461.52064502084966,754,80.01145922366685
462.2499044719261,729,83.39168569604087
462.92887016775575,678,85.80174327179844
463.62040930239715,691,86.28287999291156
464.33709531466184,716,83.78658683534721
465.0789282045499,741,81.37652925958963
465.83333453324957,754,79.98123276836156
466.58774086194927,754,78.67671827956988
467.3672940682723,779,77.01980369623655
468.17199415221864,804,74.98052420905707
468.98926767497665,817,74.98052420905707
469.7688208812997,779,75.78225707196029
470.5483740876227,779,76.96635483870968
471.3279272939457,779,76.55912544802867
472.1200539390804,792,76.9797066220107
472.88703370659175,766,79.23018483366886
473.60371971885644,716,81.40675571489491
474.3329791699328,729,81.40675571489491
475.09995893744417,766,79.57685867721875
475.86693870495554,766,78.66269890710382
476.62134503365525,754,79.54663222191348
477.3631779235433,741,81.87484943502824
478.0672904969963,704,83.2701459262563
478.78397650926104,716,84.21610964912279
479.5006625215257,716,82.7718257508177
480.24249541141376,741,82.29068902970458
480.9717548624901,729,82.78900920514317
481.6758674359432,704,85.28530236270753
482.3548331317729,678,85.28530236270753
483.0840925828493,729,82.53650397561076
483.86364578917227,779,77.55159856250535
484.68091931193027,817,75.37502768127928
485.473045957065,792,76.2302094017094
486.2274522857647,754,79.18364865900382
486.95671173684104,729,81.36021954022988
487.6859711879174,729,82.27437931034481
488.41523063899376,729,81.80955230859146
489.1570635288818,741,82.78900920514317
489.86117610233487,704,84.28490701078582
490.55271523697627,691,85.72919090909089
491.2568278104293,704,84.74973401253916
491.98608726150565,729,82.3396764367816
492.74049359020535,754,80.01145922366685
493.5074733577167,766,79.54663222191348
494.24930624760475,741,80.46079199202842
494.9785656986811,729,80.89539253847651
495.7329720273808,754,80.44605977011494
496.4873783560805,754,80.44605977011494
497.21663780715687,729,82.3396764367816
497.92075038060995,704,83.25383620689655
498.6500098316863,729,83.25383620689655
499.37926928276266,729,81.36021954022988
500.13367561146237,754,80.89539253847651
500.8755085013504,741,80.89539253847651
501.60476795242676,729,82.78900920514317
502.30888052587983,704,83.25383620689655
503.0381399769562,729,82.78900920514317
503.7799728668442,741,80.46079199202842
504.5469526343556,766,79.99596499027507
505.2887855242436,741,81.44024888858014
505.99289809769664,704,83.7684661016949
506.6970106711497,704,84.71442982456139
507.4136966834144,716,83.2701459262563
508.15552957330243,741,81.82586202795122
508.89736246319046,741,80.87989830508474
509.6391953530785,741,78.77365095338982
510.4438954370249,804,75.5545505233367
511.28631583740616,842,71.98631971575942
512.1413096765991,855,71.60395481191327
512.9585831993571,817,74.37372247360481
513.7129895280568,754,77.05801996637243
514.4799692955683,766,77.83488834244079
515.2720959407029,792,77.40028779599271
516.0390757082142,766,77.83488834244079
516.7934820369139,754,77.83488834244079
517.5856086820486,792,77.00707777777777
518.3777353271834,792,77.45641054613935
519.1195682170713,741,80.11411814847852
519.8362542293361,716,83.2701459262563
520.5403668027891,704,85.2308707336523
521.2319059374305,691,83.83557424242423
521.9863122661302,754,79.90267808857809
522.8035857888882,817,73.70538717948718
523.6837265057045,880,70.247478483835
524.5512937837092,867,69.8767003952569
525.3811407452788,829,72.0070191452569
526.1858408292252,804,73.05487026515151
527.0156877907948,829,72.34602980169339
527.8706816299878,855,72.74053327391562
528.6628082751224,792,75.59992361803478
529.4046411650105,741,79.6329814273654
530.1339006160869,729,82.78900920514317
530.8380131895399,704,82.78900920514317
531.579846079428,741,82.78900920514317
532.3091055305043,729,82.29068902970458
533.0257915427691,716,85.34276066385873
533.6921837997871,666,87.3742268196697
534.3711494956168,678,87.3742268196697
535.0878355078816,716,84.78698218726893
535.8170949589579,729,81.84135626134301
536.5715012876576,754,81.36021954022988
537.300760738734,729,82.8561173458725
537.9922998733754,691,86.35752174838822
538.6586921303934,666,88.38898790419921
539.3376578262231,678,87.87254699510831
540.0417703996762,704,86.26475925925925
540.7458829731293,704,85.72919090909089
541.4374221077707,691,86.78120016835015
542.1163878036003,678,87.83320942760942
542.7953534994301,678,86.81844834307992
543.5120395116948,716,85.26811890838205
544.2287255239595,716,83.71778947368419
544.9454115362242,716,84.73255055821369
545.6369506708656,691,86.28287999291156
546.3159163666953,678,87.83320942760942
546.994882062525,678,86.33731162196679
547.7241415136015,729,83.84101846440245
548.4659744034894,741,81.80955230859146
549.1952338545658,729,81.80955230859146
549.9244933056422,729,82.27437931034481
550.6537527567185,729,80.50503781979977
551.4333059630416,779,77.55159856250535
552.2505794857996,817,75.37502768127928
553.0427061309342,792,75.7956088552613
553.8096858984457,766,78.28422111080238
554.5515187883336,741,79.1120316754654
555.318498555845,766,78.69145050148337
556.098051762168,779,77.38693601269169
556.877604968491,779,78.73569632925472
557.6068644195674,729,80.0402108180464
558.3486973094555,741,80.0402108180464
559.1282505157784,779,77.46913646459814
559.9329505997248,804,74.98052420905707
560.7502241224828,817,74.98052420905707
561.5297773288058,779,74.59815930521091
562.3470508515638,817,74.59815930521091
563.1643243743218,817,73.79642644230769
563.9690244582681,804,74.98052420905707
564.7485776645912,779,77.01980369623655
565.5029839932909,754,77.41430716845878
566.2951106384255,792,75.49972122719734
567.1375310388069,842,73.08966365143976
567.9673780003766,829,71.9420171867933
568.7972249619462,829,73.85660312805473
569.5767781682692,779,75.83206015736423
570.3437579357806,766,78.2421177331218
571.0981642644803,754,79.54663222191348
571.8399971543683,741,81.87484943502824
572.5441097278214,704,84.28490701078582
573.2356488624628,691,84.74973401253916
573.9649083135391,729,81.59370623476138
574.7570349586738,792,77.9212375478927
575.5491616038084,792,77.45641054613935
576.2909944936965,741,77.86363993682035
577.0705477000196,779,78.27086932750136
577.8501009063425,779,76.55912544802867
578.6422275514772,792,77.41430716845878
579.3966338801769,754,79.66478538011694
580.1133198924416,716,81.84135626134301
580.842579343518,729,81.84135626134301
581.5969856722177,754,81.36021954022988
582.326245123294,729,82.3396764367816
583.0303576967472,704,85.84108083929732
583.6967499537652,666,88.4283254716981
584.3631422107833,666,89.48033473095737
585.042107906613,678,87.87254699510831
585.746220480066,704,86.26475925925925
586.4503330535191,704,86.82053773584904
587.1167253105372,666,87.87254699510831
587.7956910063668,678,86.89309009855658
588.5249504574432,729,82.12927458492976
589.3170771025779,792,77.52673407567049
590.1217771865242,804,75.35016319444443
590.9139038316589,792,77.52673407567049
591.6431632827353,729,79.18364865900382
592.397569611435,754,80.01145922366685
593.1645493789464,766,77.83488834244079
593.956676024081,792,78.74904811255573
594.6859354751574,729,82.68505306151954
595.3523277321755,666,88.02602314698963
596.0061465503818,653,90.6132677793904
596.6725388073999,666,89.00548004354134
597.376651380853,704,86.82053773584904
598.080763954306,704,85.21274999999999
598.784876527759,704,86.26475925925925
599.4638422235888,678,86.78120016835015
600.1553813582302,691,86.28287999291156
600.8720673704948,716,84.25141383710057
601.6013268215712,729,83.23665275257108
602.318012833836,716,83.73497292800967
603.022125407289,704,83.73497292800965
603.7513848583653,729,82.78900920514317
604.4932177482534,741,80.46079199202842
605.2601975157647,766,79.54663222191348
606.0146038444644,754,80.01145922366685
606.7438632955408,729,80.44605977011494
607.4982696242405,754,80.01145922366685
608.2652493917519,766,79.0972994535519
609.0196557204516,754,80.01145922366685
609.748915171528,729,82.3396764367816
610.453027744981,704,82.3396764367816
611.2074340736807,754,79.76860208333332
612.0121341576271,804,75.10521775497511
612.8545545580083,842,72.33545009328357
613.6969749583897,842,69.88508345595963
614.5896891140177,892,73.56901088776613
615.318948565094,729,74.29949906227817
616.136222087852,817,77.97217973648736
616.9032018553634,766,77.97217973648736
617.6324613064397,729,80.46079199202842
618.3742941963278,741,80.89539253847651
619.1287005250275,754,78.71882165725046
619.9208271701622,792,77.83488834244079
620.6878069376735,766,77.40028779599271
621.4547867051849,766,77.40028779599271
622.2469133503196,792,76.57247723132969
623.0390399954542,792,76.57247723132969
623.8060197629655,766,79.72850500910745
624.5101323364187,704,82.88453278688523
625.2142449098717,704,84.23329310344826
625.943504360948,729,83.73497292800967
626.6601903732128,716,82.75551603145794
627.3894498242892,729,84.25141383710057
628.0809889589306,691,84.25141383710057
628.7976749711952,716,83.78658683534721
629.5395078610833,741,81.37652925958963
630.293914189783,754,79.98123276836156
631.0483205184827,754,80.92719649122806
631.7650065307473,716,83.87282241715398
632.4439722265771,678,86.28287999291155
633.1355113612185,691,87.83320942760942
633.8144770570482,678,86.78120016835015
634.5185896305012,704,86.26475925925925
635.2227022039543,704,86.26475925925925
635.901667899784,678,85.76643908382064
636.6183539120487,716,83.43822187070589
637.3853336795601,766,79.23018483366886
638.1774603246947,792,76.97970662201068
638.9570135310178,779,76.9797066220107
639.7239932985291,766,79.63741422434987
640.4406793107938,716,82.90265352053754
641.1322184454352,691,85.7473116427432
641.8237575800766,691,85.26617492163007
642.553017031153,729,83.77027711598745
643.2822764822293,729,82.75551603145794
643.9989624944941,716,85.34276066385873
644.6653547515122,666,87.3742268196697
645.3443204473418,678,85.97893032844163
646.0987267760415,754,80.82061134259258
646.9034268599879,804,75.46492784090908
647.7332738215575,829,73.4256483537296
648.5505473443155,817,75.53189570542452
649.2923802342036,741,78.85611305129703
650.02163968528,729,82.78900920514317
650.725752258733,704,84.74973401253916
651.4172913933744,691,87.33697864493995
652.0836836503925,666,89.52192095263226
652.7375024685989,653,92.41399004354135
653.3661744091819,628,94.8639523076923
653.9822729109534,616,96.73675999999998
654.5983714127248,616,96.11298039215686
655.2396167921195,641,93.6630181280059
655.9060090491375,666,90.12170903709682
656.5975481837789,691,88.38898790419921
657.2765138796087,678,87.83320942760942
657.9554795754384,678,87.83320942760942
658.6470187100798,691,86.78120016835015
659.3511312835328,704,86.2456318181818
660.0426704181742,691,86.2456318181818
660.7342095528156,691,87.29764107744106
661.4131752486453,678,89.56593056050701
662.0544206280401,641,92.45799965141612
662.6830925686231,628,94.81450039215684
663.3117645092062,628,94.81450039215684
663.953009888601,641,94.19072078431371
664.5942552679958,641,92.38999852016276
665.2606475250138,666,91.79021043569821
665.9144663432202,653,91.19042235123365
666.5682851614266,653,91.19042235123365
667.2346774184447,666,89.00548004354134
667.9387899918977,704,87.33697864493995
668.6303291265391,691,88.51392130124776
669.2715745059338,641,89.56593056050701
669.9505402017636,678,90.65727738726517
670.6169324587817,666,90.0574893028006
671.270751276988,653,92.41399004354135
671.8994232175711,628,92.9911446153846
672.5532420357775,653,92.41399004354135
673.2196342927956,666,89.52192095263226
673.911173427437,691,87.33697864493995
674.61528600089,704,86.2456318181818
675.3068251355314,691,87.33697864493995
675.9732173925495,666,87.85341955403086
676.6647565271909,691,86.83865846950135
677.3814425394555,716,84.25141383710057
678.1107019905319,729,82.75551603145794
678.8399614416082,729,83.25383620689654
679.5440740150614,704,83.73497292800967
680.260760027326,716,83.73497292800965
680.9900194784025,729,82.29068902970458
681.7318523682904,741,81.80955230859146
682.4611118193668,729,83.30545011423408
683.1526509540082,691,85.80174327179843
683.8316166498379,678,86.78120016835015
684.535729223291,704,85.28530236270753
685.2649886743674,729,82.3396764367816
686.0193950030671,754,81.36021954022988
686.7486544541434,729,81.36021954022988
687.4779139052198,729,81.80955230859146
688.2197467951078,741,80.46079199202842
688.9867265626192,766,79.1120316754654
689.7537063301305,766,79.57685867721875
690.4829657812069,729,81.9050758903335
691.18707835466,704,85.28530236270753
691.8660440504897,678,86.26475925925925
692.5701566239427,704,85.28530236270753
693.299416075019,729,81.9050758903335
694.0663958425305,766,79.57685867721875
694.8333756100418,766,79.57685867721875
695.5626350611182,729,80.9256189937818
696.2918945121945,729,80.9256189937818
697.058874279706,766,79.15627750323674
697.8384274860289,779,77.38693601269169
698.6179806923519,779,78.27086932750136
699.35981358224,741,80.52134753915954
700.0764995945046,716,82.7718257508177
700.7931856067694,716,83.23665275257108
701.5224450578457,729,82.75551603145794
702.2517045089221,729,81.36021954022988
703.0061108376218,754,80.44605977011494
703.7605171663215,754,80.92719649122806
704.4772031785863,716,83.33725406698562
705.1687423132277,691,84.25141383710057
705.898001764304,729,82.8561173458725
706.6524080930037,754,79.18364865900382
707.4445347381384,792,77.41430716845878
708.2240879444614,779,77.41430716845878
708.9784942731611,754,77.41430716845878
709.7706209182958,792,76.61257430555554
710.575321002242,804,75.75739258512544
711.3548742085651,779,77.93396346635149
712.0841336596415,729,80.0402108180464
712.8259665495295,741,80.89539253847651
713.5803728782292,754,80.43056553672315
714.3222057681172,741,80.89539253847651
715.0514652191936,729,81.34472530683809
715.7932981090817,741,80.46079199202842
716.560277876593,766,79.1120316754654
717.3272576441044,766,79.1120316754654
718.0690905339924,741,80.94192871314155
718.7857765462571,716,82.29068902970458
719.5150359973335,729,81.84135626134301
720.2694423260332,754,80.01145922366685
721.0364220935445,766,80.49259594477996
721.7531081058092,716,82.38621261144664
722.4572206792623,704,83.73497292800965
723.1864801303386,729,82.78900920514317
723.9283130202267,741,80.46079199202842
724.695292787738,766,79.99596499027507
725.4371256776261,741,80.94192871314155
726.1538116898907,716,82.29068902970458
726.8830711409671,729,83.23665275257108
727.5997571532318,716,83.23665275257108
728.3164431654966,716,84.21610964912279
729.0205557389496,704,85.2308707336523
729.712094873591,691,85.2308707336523
730.4287808858558,716,84.25141383710057
731.1580403369321,729,82.75551603145794
731.8872997880085,729,82.75551603145794
732.6039858002732,716,83.23665275257108
733.3206718125379,716,82.7718257508177
734.0625047024259,741,82.29068902970458
734.7917641535023,729,82.29068902970458
735.508450165767,716,84.25141383710057
736.1999893004083,691,85.2308707336523
736.9041018738615,704,85.72919090909089
737.6082144473145,704,85.72919090909089
738.2997535819559,691,86.78120016835015
738.9787192777856,678,88.38898790419921
739.6451115348036,666,87.87254699510831
740.3492241082567,704,84.92692106918238
741.1036304369565,754,80.57033494623654
741.8831836432794,779,78.2421177331218
742.6501634107908,766,78.69145050148339
743.3919963006788,741,79.99596499027507
744.1338291905669,741,80.87989830508474
744.8756620804548,741,80.43056553672315
745.6300684091545,754,79.98123276836156
746.3844747378542,754,81.42551666666665
747.0885873113073,704,86.10386372549019
747.7298326907021,641,89.6052681280059
748.3962249477202,666,91.79021043569821
749.0500437659265,653,89.52192095263226
749.7415829005679,691,87.9141332167832
750.4456954740209,704,86.78120016835015
751.1246611698507,678,87.87254699510831
751.7910534268688,666,88.92455625436757
752.4700191226984,678,87.3742268196697
753.1867051349632,716,85.26811890838205
753.9033911472279,716,83.71778947368419
754.6200771594926,716,85.82389738497184
755.2864694165106,666,87.9300052962595
755.9528616735287,666,90.61326777939041
756.6066804917351,653,89.00548004354134
757.3107930651881,704,87.39769230769228
758.0149056386412,704,85.21274999999999
758.7190182120943,704,86.26475925925925
759.397983907924,678,86.78120016835015
760.0895230425654,691,86.28287999291156
760.8062090548301,716,85.2308707336523
761.5103216282831,704,86.32221756041044
762.1767138853012,666,89.00548004354135
762.8305327035076,653,91.79021043569821
763.4717780829023,641,92.36736500754145
764.1255969011087,653,91.23443195910842
764.8045625969385,678,89.50171082621081
765.4835282927681,678,88.36877777777778
766.1624939885979,678,87.83320942760942
766.8540331232393,691,85.80174327179844
767.5832925743157,729,82.8561173458725
768.3376989030154,754,80.01145922366685
769.1046786705267,766,80.49259594477996
769.8213646827915,716,82.90265352053754
770.5129038174329,691,85.7473116427432
771.2044429520741,691,86.24563181818179
771.9085555255273,704,86.2456318181818
772.6000946601687,691,86.78120016835015
773.2790603559984,678,89.56593056050701
773.9203057353931,641,91.83422004357297
774.5615511147878,641,91.83422004357297
775.2405168106176,678,89.04948965141611
775.9446293840706,704,87.31676851851851
776.6235950799004,678,87.31676851851851
777.3025607757301,678,88.36877777777778
777.9815264715597,678,86.81844834307992
778.6982124838245,716,85.26811890838205
779.4148984960892,716,83.23665275257108
780.1441579471656,729,84.78698218726893
780.8231236429953,678,88.0700327548644
781.4643690223901,641,91.23443195910842
782.1181878405964,653,91.79021043569821
782.7845800976145,666,89.52192095263226
783.4761192322559,691,87.85341955403086
784.1676583668973,691,87.85341955403085
784.8340506239153,666,89.52192095263226
785.4878694421218,653,90.0574893028006
786.1668351379515,678,89.50171082621081
786.8458008337811,678,86.81844834307992
787.5624868460459,716,86.28287999291155
788.2540259806873,691,87.41581304134459
788.9078447988937,653,89.52192095263226
789.5742370559118,666,89.52192095263226
790.2657761905532,691,87.33697864493995
790.9698887640062,704,84.74973401253916
791.6991482150826,729,84.23329310344826
792.4032607885356,704,85.28530236270753
793.0822264843654,678,87.31676851851851
793.761192180195,678,88.36877777777778
794.4401578760248,678,87.31676851851851
795.1442704494779,704,86.26475925925925
795.8483830229309,704,86.26475925925925
796.5273487187605,678,88.44970156695155
797.181167536967,653,90.63464387464386
797.8349863551734,653,90.63464387464386
798.5139520510031,678,89.50171082621081
799.1929177468329,678,87.83320942760942
799.8844568814742,691,87.83320942760942
800.563422577304,678,88.38898790419921
801.229814834322,666,88.38898790419921
801.9213539689634,691,86.35752174838822
802.6506134200398,729,83.30545011423408
803.3924463099278,741,81.34472530683809
804.1342791998159,741,82.32418220338981
804.8383917732689,704,84.82047536095416
805.5173574690987,678,85.76643908382064
806.2340434813633,716,84.78698218726893
806.9633029324397,729,82.75551603145794
807.6925623835161,729,81.80955230859146
808.4343952734041,741,82.29068902970458
809.1510812856689,716,82.7718257508177
809.8677672979335,716,83.71778947368419
810.5844533101982,716,83.71778947368419
811.301139322463,716,84.21610964912279
812.005251895916,704,85.2308707336523
812.6967910305574,691,84.74973401253916
813.4260504816338,729,84.25141383710057
814.1427364938985,716,83.23665275257108
814.8594225061631,716,84.73255055821369
815.5509616408045,691,85.7473116427432
816.2425007754459,691,85.26617492163007
816.9717602265223,729,83.30545011423408
817.7135931164104,741,81.80955230859146
818.4428525674867,729,82.29068902970458
819.1595385797515,716,84.25141383710057
819.8510777143928,691,84.73255055821369
820.5677637266575,716,84.25141383710057
821.2970231777339,729,83.23665275257108
822.0137091899986,716,84.78698218726893
822.6926748858283,678,87.95138139151295
823.3464937040347,653,90.0574893028006
824.0128859610528,666,90.6132677793904
824.6792782180709,666,88.4283254716981
825.3833907915239,704,88.4283254716981
826.0497830485419,666,88.4283254716981
826.71617530556,666,89.48033473095737
827.3951410013898,678,88.38898790419921
828.0866801360312,691,85.80174327179844
828.8159395871076,729,83.77027711598745
829.5451990381839,729,83.77027711598745
830.2367381728253,691,84.74973401253916
830.9408507462783,704,84.74973401253916
831.6701101973547,729,83.25383620689655
832.399369648431,729,81.80955230859146
833.1412025383191,741,82.29068902970458
833.8578885505838,716,84.32215518551557
834.5368542464136,678,87.3742268196697
835.2032465034316,666,89.48033473095737
835.8696387604497,666,89.48033473095737
836.5486044562793,678,87.87254699510831
837.2527170297325,704,86.78120016835015
837.9442561643738,691,86.78120016835015
838.6232218602036,678,86.78120016835015
839.3273344336566,704,85.76643908382064
840.0440204459213,716,83.73497292800965
840.7732798969977,729,84.25141383710057
841.4648190316391,691,84.74973401253916
842.1689316050921,704,85.2308707336523
842.8856176173568,716,83.73497292800965
843.6148770684332,729,82.29068902970458
844.3567099583212,741,81.34472530683809
845.0985428482093,741,81.34472530683809
845.8278022992856,729,80.89539253847651
846.5822086279853,754,80.44605977011494
847.336614956685,754,80.92719649122806
848.0533009689498,716,82.32249298245613
848.7699869812144,716,82.7718257508177
849.5118198711025,741,81.37652925958963
850.2662261998022,754,80.43056553672315
851.0080590896902,741,81.37652925958963
851.7247451019549,716,84.32215518551557
852.4037107977846,678,85.76643908382064
853.1078233712377,704,83.9365420461445
853.874803138749,766,78.95163663303909
854.692076661507,817,74.64796239061485
855.5219236230768,829,74.22738121663282
856.3014768293997,779,74.22738121663282
857.1187503521577,817,74.22738121663282
857.9485973137274,829,73.04328344988345
858.7658708364854,817,73.82015182595183
859.5579974816201,792,77.14436917182434
860.2872569326964,729,80.57894515023189
861.0039429449612,716,83.23665275257108
861.7206289572258,716,82.32249298245613
862.4750352859255,754,81.84135626134301
863.2042947370019,729,81.84135626134301
863.9209807492666,716,83.73497292800967
864.6250933227196,704,83.2701459262563
865.3669262126077,741,81.87484943502824
866.1213325413074,754,78.32431818502823
866.9260326252537,804,77.44038487021857
867.6930123927651,766,78.83568136144663
868.4096984050298,716,81.40675571489491
869.1389578561062,729,82.75551603145794
869.8682173071826,729,81.80955230859146
870.6100501970706,741,82.29068902970458
871.3267362093353,716,83.78658683534721
872.0182753439767,691,86.28287999291156
872.6972410398064,678,86.28287999291156
873.4139270520711,716,85.26811890838205
874.1306130643359,716,82.32249298245613
874.8850193930356,754,81.84135626134301
875.6142788441119,729,81.36021954022988
876.3435382951883,729,80.9256189937818
877.1105180626996,766,79.57685867721875
877.8774978302109,766,77.8075171866737
878.657051036534,779,78.69145050148339
879.3988839264221,741,81.01966771459813
880.1029964998751,704,85.95340840938721
880.7568153180815,653,89.00548004354134
881.4232075750996,666,89.00548004354134
882.1273201485526,704,84.07173934875227
882.9068733548756,779,78.16027737047898
883.7367203164453,829,73.85660312805473
884.566567278015,829,73.44937373737372
885.3586939231496,792,73.82015182595183
886.1759674459076,817,74.57329481837607
886.9806675298539,804,73.4256483537296
887.8105144914236,829,74.20251672979796
888.6026411365583,792,76.30876408149288
889.3444740264463,741,80.61243832391712
890.0485865998994,704,83.7684661016949
890.7526991733524,704,84.71442982456139
891.4693851856172,716,83.2701459262563
892.2112180755051,741,80.94192871314155
892.9781978430166,766,79.99596499027507
893.7200307329045,741,80.46079199202842
894.4492901839809,729,80.46079199202842
895.2162699514923,766,80.01145922366685
895.9706762801919,754,79.0972994535519
896.7250826088916,754,80.92719649122806
897.4417686211564,716,83.33725406698562
898.1333077557978,691,85.2308707336523
898.8374203292508,704,85.2308707336523
899.5541063415155,716,83.2701459262563
900.2959392314035,741,80.94192871314155
901.0629189989149,766,80.46079199202842
901.7921784499913,729,82.95708514959277
902.471144145821,678,86.33731162196679
903.1501098416508,678,87.83320942760942
903.8416489762922,691,86.28287999291156
904.5583349885568,716,84.73255055821369
905.2750210008215,716,83.71778947368419
905.9917070130863,716,84.73255055821369
906.6832461477277,691,85.7473116427432
907.374785282369,691,85.26617492163007
908.1040447334454,729,82.8561173458725
908.858451062145,754,80.01145922366685
909.6254308296565,766,79.54663222191348
910.3672637195444,741,80.46079199202842
911.0965231706208,729,80.89539253847651
911.8509294993205,754,80.01145922366685
912.6179092668319,766,78.66269890710382
913.3848890343432,766,79.57685867721875
914.1141484854196,729,81.9050758903335
914.8182610588726,704,82.78900920514317
915.5600939487607,741,82.32418220338982
916.3019268386488,741,80.43056553672315
917.0563331673484,754,79.98123276836156
917.8107394960481,754,79.0972994535519
918.5777192635595,766,77.83488834244079
919.3698459086942,792,76.57247723132969
920.1619725538288,792,76.15189605734766
920.9415257601519,779,77.41430716845878
921.6959320888516,754,78.67671827956988
922.4503384175513,754,80.44605977011494
923.1795978686276,729,82.3396764367816
923.8837104420807,704,85.28530236270753
924.5626761379104,678,86.26475925925925
925.2667887113635,704,84.82047536095416
926.0086216012514,741,80.61243832391713
926.8007482463862,792,76.67954217007097
927.6180217691442,817,74.1909299145299
928.4352952919022,817,74.59815930521091
929.2148484982251,779,74.59815930521091
930.0321220209831,817,73.5185407531747
930.8871158601762,855,71.60395481191327
931.7295362605574,842,72.78805257866266
932.5090894668805,779,74.64453950676723
933.3012161120151,792,76.15189605734767
934.0933427571499,792,75.74466666666666
934.8854694022846,792,75.74466666666666
935.6775960474192,792,77.45641054613935
936.4194289373072,741,78.28422111080238
937.1864087048186,766,79.1120316754654
937.95338847233,766,78.22809836065574
938.7203682398414,766,78.22809836065574
939.4873480073527,766,80.05799539833188
940.2040340196174,716,82.38621261144664
940.9081465930705,704,83.73497292800965
941.6374060441468,729,81.48449471635149
942.4169592504699,779,77.9339634663515
943.2216593344161,804,76.16462197580644
944.0012125407392,779,75.36288911290322
944.8059126246856,804,74.98052420905707
945.6231861474436,817,73.79642644230769
946.4404596702016,817,74.59815930521091
947.2200128765246,779,77.55159856250535
947.949272327601,729,80.50503781979978
948.6785317786773,729,83.25383620689654
949.3826443521303,704,83.73497292800967
950.0993303643951,716,85.76643908382064
950.7782960602248,678,86.28287999291155
951.4698351948662,691,85.80174327179844
952.1990946459425,729,82.8561173458725
952.9535009746422,754,79.59087804968483
953.7330541809653,779,78.2421177331218
954.5000339484766,766,77.38693601269169
955.2795871547996,779,76.9797066220107
956.0717137999343,792,76.55912544802867
956.8512670062573,779,76.15189605734767
957.643393651392,792,79.30792383512544
958.347506224845,704,81.07726532567048
959.0767656759214,729,83.25383620689655
959.8060251269978,729,81.36021954022988
960.5604314556974,754,79.59087804968483
961.3399846620205,779,79.12605104793147
962.0818175519086,741,80.52134753915954
962.7985035641732,716,81.82586202795122
963.5403364540613,741,80.94192871314155
964.3073162215726,766,78.69145050148337
965.0868694278956,779,78.2421177331218
965.8412757565953,754,77.01980369623655
966.6459758405417,804,75.83570592948718
967.4632493632997,817,73.79642644230769
968.2805228860577,817,74.59815930521091
969.0600760923807,779,77.08677156075197
969.8019089822687,741,78.69145050148339
970.5688887497801,766,79.1120316754654
971.3358685172915,766,78.66269890710382
972.0902748459912,754,80.01145922366685
972.8195342970675,729,80.01145922366685
973.5865140645789,766,78.35454464033351
974.3912141485253,804,74.67061720852703
975.2336345489065,842,72.69516017921754
976.0634815104762,829,73.08966365143976
976.8556081556109,792,75.0042495927012
977.6351613619339,779,76.55912544802867
978.414714568257,779,77.82153655913979
979.1691208969567,754,79.59087804968482
979.898380348033,729,81.84135626134301
980.6150663602976,716,81.84135626134301
981.3694726889973,754,77.80829845201237
982.2244665281904,855,72.62576862745097
983.1046072450067,880,68.83853529411763
983.984747961823,880,70.30051875
984.7894480457693,804,72.04847259615384
985.6067215685273,817,73.79642644230769
986.4239950912853,817,73.04328344988345
987.253842052855,829,73.04328344988345
988.071115575613,817,73.4256483537296
988.8758156595593,804,77.23100242071524
989.592501671824,716,82.21590783382065
990.2714673676538,678,87.3742268196697
990.9378596246719,666,88.38898790419921
991.6293987593132,691,86.83865846950135
992.3460847715779,716,84.25141383710057
993.0753442226543,729,83.23665275257108
993.792030234919,716,83.73497292800967
994.496142808372,704,83.73497292800965
995.2254022594484,729,81.07726532567048
996.0175289045831,792,78.32846693857371
996.7970821109061,779,76.55912544802867
997.5766353172291,779,78.27086932750136
998.3184682071172,741,81.53610862368905
999.0100073417585,691,82.84062311248073
999.7518402316466,741,83.30545011423408
1000.481099682723,729,80.46079199202842
1001.2480794502343,766,79.15627750323674
1002.0276326565573,779,78.2421177331218
1002.782038985257,754,80.07201477079795
1003.4987249975218,716,81.84135626134301
1004.2279844485981,729,81.84135626134301
1004.9823907772978,754,79.59087804968483
1005.7619439836209,779,77.01980369623655
1006.5666440675672,804,75.75739258512544
1007.3587707127018,792,77.06190707391713
1008.1006036025899,741,80.11411814847852
1008.8172896148546,716,82.7718257508177
1009.5339756271193,716,82.7718257508177
1010.2758085170074,741,80.94192871314155
1011.0427882845187,766,79.1120316754654
1011.80976805203,766,78.66269890710382
1012.5641743807297,754,79.54663222191348
1013.3060072706178,741,79.12605104793147
1014.0855604769408,779,77.46913646459814
1014.8902605608871,804,74.98052420905707
1015.7075340836451,817,74.98052420905707
1016.4870872899681,779,78.03273528361846
1017.2037733022329,716,81.46731126202602
1017.9204593144975,716,83.71778947368419
1018.6371453267623,716,82.7718257508177
1019.3789782166504,741,80.94192871314155
1020.1459579841617,766,79.99596499027507
1020.8877908740498,741,80.46079199202842
1021.6170503251261,729,81.34472530683809
1022.3588832150141,741,80.46079199202842
1023.1258629825254,766,78.69145050148337
1023.9054161888484,779,78.2421177331218
1024.6598225175483,754,80.07201477079795
1025.3765085298128,716,82.82081315789472
1026.080621103266,704,84.21610964912279
1026.7973071155307,716,82.82081315789472
1027.5517134442302,754,81.84135626134301
1028.2809728953066,729,81.84135626134301
1028.9976589075713,716,84.25141383710057
1029.6891980422129,691,84.73255055821369
1030.4058840544776,716,83.78658683534721
1031.1477169443656,741,81.37652925958963
1031.9021232730652,754,81.37652925958963
1032.61880928533,716,83.33725406698562
1033.3103484199714,691,84.73255055821369
1034.027034432236,716,84.25141383710057
1034.7562938833123,729,82.29068902970458
1035.4981267732005,741,81.80955230859146
1036.2273862242769,729,83.30545011423408
1036.9189253589182,691,83.77027711598745
1037.6481848099945,729,83.77027711598745
1038.3774442610709,729,82.75551603145794
1039.0941302733356,716,82.75551603145794
1039.823389724412,729,84.25141383710057
1040.5149288590535,691,85.26617492163007
1041.2064679936948,691,85.7473116427432
1041.9231540059595,716,83.78658683534721
1042.6649868958475,741,81.37652925958963
1043.4193932245473,754,80.43056553672315
1044.1612261144353,741,81.37652925958963
1044.8779121267,716,81.82586202795122
1045.619745016588,741,81.37652925958963
1046.3741513452876,754,80.89539253847651
1047.1034107963642,729,82.3396764367816
1047.807523369817,704,84.74973401253916
1048.4990625044586,691,86.2456318181818
1049.1906016391,691,86.24563181818179
1049.894714212553,704,86.2456318181818
1050.5862533471943,691,86.2456318181818
1051.2777924818358,691,85.7473116427432
1051.9944784941003,716,83.78658683534721
1052.7363113839886,741,81.37652925958963
1053.4907177126881,754,79.54663222191348
1054.2576974801996,766,80.99091612021857
1054.9618100536525,704,81.9050758903335
1055.6910695047288,729,82.3396764367816
1056.4454758334286,754,80.89539253847651
1057.1873087233166,741,81.87484943502824
1057.8914212967697,704,84.82047536095416
1058.5703869925994,678,88.44970156695155
1059.2242058108059,653,88.96614247604245
1059.9157449454472,691,88.4305741258741
1060.6072840800887,691,86.76207272727271
1061.29882321473,691,88.4305741258741
1061.9526420329364,653,88.96614247604246
1062.631607728766,678,87.95138139151295
1063.3482937410308,716,83.87282241715398
1064.1027000697304,754,81.37652925958963
1064.8445329596186,741,80.89539253847651
1065.573792410695,729,80.89539253847651
1066.3281987393946,754,80.01145922366685
1067.095178506906,766,78.66269890710382
1067.8621582744174,766,79.1120316754654
1068.6039911643054,741,80.46079199202842
1069.3332506153818,729,81.34472530683809
1070.0750835052697,741,81.80955230859146
1070.804342956346,729,81.80955230859146
1071.5336024074224,729,82.27437931034481
1072.2628618584988,729,83.25383620689654
1072.966974431952,704,83.25383620689655
1073.6962338830283,729,82.3396764367816
1074.450640211728,754,80.01145922366685
1075.2176199792393,766,79.0972994535519
1075.9720263079391,754,77.83488834244079
1076.7641529530738,792,77.41430716845878
1077.5437061593968,779,77.86363993682036
1078.2855390492848,741,80.52134753915954
1079.0022250615496,716,83.2701459262563
1079.7063376350025,704,84.71442982456138
1080.4104502084556,704,83.7684661016949
1081.1522830983436,741,82.32418220338982
1081.8941159882318,741,82.84062311248073
1082.585655122873,691,85.33691627004507
1083.2646208187027,678,85.80174327179844
1083.993880269779,729,82.12927458492976
1084.7860069149137,792,76.77359108324625
1085.6158538764835,829,74.59702020202019
1086.4079805216181,792,75.42483076668321
1087.1749602891296,766,76.57247723132969
1087.9670869342642,792,75.7956088552613
1088.784360457022,817,75.7956088552613
1089.5513402245335,766,78.4533164576005
1090.2680262367983,716,83.9940003472957
1090.9344184938163,666,86.32221756041044
1091.6385310672695,704,85.84108083929732
1092.3677905183458,729,81.9050758903335
1093.134770285857,766,79.15627750323674
1093.91432349218,779,78.69145050148339
1094.656156382068,741,77.86363993682036
1095.448283027203,792,77.06190707391713
1096.2529831111492,804,76.17797375910746
1097.0199628786606,766,78.83568136144663
1097.7366488909252,716,80.94192871314155
1098.4784817808134,741,81.82586202795122
1099.2203146707013,741,80.87989830508474
1099.9621475605893,741,81.82586202795122
1100.678833572854,716,82.29068902970458
1101.4080930239304,729,81.84135626134301
1102.16249935263,754,79.59087804968483
1102.942052558953,779,71.80359111907606
1103.9605011026977,1018,87.15185252258483
1104.4382917775408,477,89.40233073424301
1105.1549777898056,716,97.18961766485177
1105.884237240882,729,81.84135626134301
1106.6386435695815,754,80.44605977011494
1107.3930498982813,754,79.98123276836156
1108.1348827881693,741,80.89539253847651
1108.8641422392457,729,80.89539253847651
1109.6185485679455,754,77.6762921084234
1110.4609689683268,842,72.97489900497511
1111.341109685143,880,69.18766567164178
1112.2212504019594,880,69.54737575757575
1113.051097363529,829,72.900008544461
1113.8180771310404,766,77.1365746461559
1114.5599100209283,741,78.28422111080238
1115.352036666063,792,78.28422111080238
1116.1190164335744,766,77.40028779599271
1116.8859962010858,766,79.57685867721875
1117.6152556521622,729,81.9050758903335
1118.3193682256153,704,83.25383620689655
1119.0486276766917,729,82.78900920514317
1119.7904605665797,741,80.46079199202842
1120.557440334091,766,77.88971763858015
1121.3621404180374,804,77.00578432377048
1122.1291201855486,766,77.88971763858015
1122.8709530754368,741,78.69145050148337
1123.6505062817598,779,79.12605104793147
1124.4049126104594,754,77.82153655913977
1125.1844658167824,779,77.82153655913977
1125.9640190231055,779,77.82153655913979
1126.718425351805,754,79.12605104793147
1127.4602582416933,741,79.98123276836156
1128.2146645703929,754,78.32431818502823
1129.0193646543391,804,75.83570592948718
1129.8366381770973,817,74.17879134615384
1130.6413382610435,804,74.98052420905707
1131.4208914673666,779,77.93396346635149
1132.150150918443,729,79.15627750323674
1132.9171306859544,766,79.15627750323674
1133.6966838922774,779,76.9797066220107
1134.488810537412,792,76.55912544802867
1135.268363743735,779,76.9797066220107
1136.0353435112463,766,78.2421177331218
1136.7897498399461,754,79.54663222191348
1137.531582729834,741,79.54663222191348
1138.2985624973455,766,79.1120316754654
1139.0655422648567,766,78.22809836065574
1139.8325220323682,766,79.57685867721875
1140.5617814834445,729,81.9050758903335
1141.2658940568977,704,83.25383620689655
1141.995153507974,729,82.78900920514317
1142.736986397862,741,80.0402108180464
1143.516539604185,779,79.12605104793147
1144.2709459328846,754,79.12605104793147
1145.0127788227728,741,79.98123276836156
1145.7671851514724,754,79.98123276836156
1146.5215914801722,754,78.67671827956988
1147.3011446864953,779,79.12605104793147
1148.0429775763832,741,81.01966771459813
1148.7470901498361,704,83.2701459262563
1149.4637761621009,716,84.21610964912279
1150.1804621743656,716,83.71778947368419
1150.8971481866304,716,82.7718257508177
1151.6389810765183,741,83.78658683534721
1152.3305202111599,691,84.2849070107858
1153.0346327846128,704,84.74973401253916
1153.7638922356891,729,82.3396764367816
1154.518298564389,754,80.89539253847651
1155.260131454277,741,80.89539253847651
1155.9893909053533,729,83.30545011423408
1156.6809300399948,691,84.25141383710057
1157.3976160522593,716,83.78658683534721
1158.1394489421475,741,82.29068902970458
1158.8687083932239,729,81.80955230859146
1159.5979678443002,729,83.77027711598745
1160.2895069789415,691,84.74973401253916
1160.9936195523946,704,84.28490701078582
1161.7354524422826,741,82.32418220338982
1162.4772853321706,741,80.87989830508474
1163.2191182220588,741,81.82586202795122
1163.9358042343233,716,82.29068902970458
1164.6650636853997,729,81.40675571489491
1165.432043452911,766,79.15627750323674
1166.2115966592341,779,78.69145050148339
1166.9534295491221,741,81.01966771459813
1167.6575421225753,704,84.28490701078582
1168.3490812572165,691,85.72919090909089
1169.0531938306697,704,85.2308707336523
1169.7698798429344,716,83.73497292800965
1170.4991392940108,729,83.73497292800967
1171.203251867464,704,84.23329310344826
1171.9073644409168,704,83.31913333333333
1172.6617707696166,754,80.99091612021857
1173.4287505371278,766,79.0972994535519
1174.1831568658276,754,79.54663222191348
1174.9249897557156,741,80.89539253847651
1175.654249206792,729,80.89539253847651
1176.4086555354918,754,80.89539253847651
1177.1504884253798,741,80.43056553672315
1177.8923213152677,741,81.82586202795122
1178.6090073275325,716,82.7718257508177
1179.3256933397972,716,84.21610964912279
1180.0298059132501,704,84.21610964912279
1180.7464919255149,716,83.73497292800965
1181.4757513765912,729,83.23665275257108
1182.192437388856,716,84.25141383710057
1182.8839765234975,691,84.73255055821369
1183.600662535762,716,84.25141383710057
1184.3299219868384,729,81.84135626134301
1185.0843283155382,754,80.44605977011494
1185.8387346442378,754,79.5319
1186.5931409729376,754,78.67671827956988
1187.3726941792606,779,77.41430716845878
1188.1648208243953,792,76.15189605734767
1188.95694746953,792,77.00707777777777
1189.7113537982295,754,78.71882165725046
1190.4531866881177,741,80.89539253847651
1191.182446139194,729,82.29068902970458
1191.8991321514588,716,82.75551603145794
1192.6283916025352,729,83.23665275257108
1193.3450776147997,716,84.78698218726893
1194.0240433106296,678,87.3742268196697
1194.6904355676477,666,89.48033473095737
