2022-12-14 16:27:12.862692, 1.64222
2022-12-14 16:27:12.863655, 1.64222
2022-12-14 16:27:12.863655, 1.68132
2022-12-14 16:27:12.896566, 1.69599
2022-12-14 16:27:12.897563, 1.72531
2022-12-14 16:27:12.897563, 1.73020
2022-12-14 16:27:12.929477, 1.73509
2022-12-14 16:27:12.930475, 1.69599
2022-12-14 16:27:12.963427, 1.68621
2022-12-14 16:27:12.963427, 1.66666
2022-12-14 16:27:12.964384, 1.64222
2022-12-14 16:27:12.997296, 1.61779
2022-12-14 16:27:12.997296, 1.60312
2022-12-14 16:27:12.998295, 1.57869
2022-12-14 16:27:13.030209, 1.53958
2022-12-14 16:27:13.031206, 1.52003
2022-12-14 16:27:13.064116, 1.50048
2022-12-14 16:27:13.064116, 1.49071
2022-12-14 16:27:13.065115, 1.46627
2022-12-14 16:27:13.098067, 1.45650
2022-12-14 16:27:13.098067, 1.45161
2022-12-14 16:27:13.099024, 1.44672
2022-12-14 16:27:13.130978, 1.43206
2022-12-14 16:27:13.131953, 1.45650
2022-12-14 16:27:13.164848, 1.43206
2022-12-14 16:27:13.164848, 1.42717
2022-12-14 16:27:13.165882, 1.43695
2022-12-14 16:27:13.197760, 1.42228
2022-12-14 16:27:13.198757, 1.42228
2022-12-14 16:27:13.198757, 1.42717
2022-12-14 16:27:13.231706, 1.44183
2022-12-14 16:27:13.232667, 1.42228
2022-12-14 16:27:13.264581, 1.42717
2022-12-14 16:27:13.265578, 1.43206
2022-12-14 16:27:13.266577, 1.43206
2022-12-14 16:27:13.298491, 1.42717
2022-12-14 16:27:13.299488, 1.43206
2022-12-14 16:27:13.299488, 1.46627
2022-12-14 16:27:13.332399, 1.47116
2022-12-14 16:27:13.333410, 1.50537
2022-12-14 16:27:13.365348, 1.57380
2022-12-14 16:27:13.366315, 1.66666
2022-12-14 16:27:13.367308, 1.74975
2022-12-14 16:27:13.399258, 1.81329
2022-12-14 16:27:13.400221, 1.87194
2022-12-14 16:27:13.400221, 1.91593
2022-12-14 16:27:13.433132, 1.92570
2022-12-14 16:27:13.433132, 1.91593
2022-12-14 16:27:13.466085, 1.90127
2022-12-14 16:27:13.467039, 1.88172
2022-12-14 16:27:13.467039, 1.85239
2022-12-14 16:27:13.499990, 1.83773
2022-12-14 16:27:13.500952, 1.77908
2022-12-14 16:27:13.500952, 1.77419
2022-12-14 16:27:13.532863, 1.76441
2022-12-14 16:27:13.533861, 1.70576
2022-12-14 16:27:13.566773, 1.68621
2022-12-14 16:27:13.567770, 1.67644
2022-12-14 16:27:13.567770, 1.65689
2022-12-14 16:27:13.600687, 1.63245
2022-12-14 16:27:13.601683, 1.62756
2022-12-14 16:27:13.601683, 1.63734
2022-12-14 16:27:13.633594, 1.63734
2022-12-14 16:27:13.634592, 1.63245
2022-12-14 16:27:13.667503, 1.63734
2022-12-14 16:27:13.667503, 1.65200
2022-12-14 16:27:13.668502, 1.65689
2022-12-14 16:27:13.701413, 1.64711
2022-12-14 16:27:13.701413, 1.64711
2022-12-14 16:27:13.702411, 1.64711
2022-12-14 16:27:13.734357, 1.63734
2022-12-14 16:27:13.735354, 1.61779
2022-12-14 16:27:13.768271, 1.61290
2022-12-14 16:27:13.768271, 1.59335
2022-12-14 16:27:13.769232, 1.58846
2022-12-14 16:27:13.801147, 1.56402
2022-12-14 16:27:13.802146, 1.57380
2022-12-14 16:27:13.802146, 1.54936
2022-12-14 16:27:13.835100, 1.53958
2022-12-14 16:27:13.836055, 1.52492
2022-12-14 16:27:13.868966, 1.54936
2022-12-14 16:27:13.868966, 1.51515
2022-12-14 16:27:13.869964, 1.51026
2022-12-14 16:27:13.901915, 1.50048
2022-12-14 16:27:13.902910, 1.50048
2022-12-14 16:27:13.902910, 1.52492
2022-12-14 16:27:13.935786, 1.49560
2022-12-14 16:27:13.935786, 1.49071
2022-12-14 16:27:13.969210, 1.49071
2022-12-14 16:27:13.969210, 1.50048
2022-12-14 16:27:13.970217, 1.49071
2022-12-14 16:27:14.003560, 1.49071
2022-12-14 16:27:14.003855, 1.49560
2022-12-14 16:27:14.004323, 1.49071
2022-12-14 16:27:14.037222, 1.49560
2022-12-14 16:27:14.037595, 1.50537
2022-12-14 16:27:14.070606, 1.52492
2022-12-14 16:27:14.070606, 1.59335
2022-12-14 16:27:14.071623, 1.65200
2022-12-14 16:27:14.103089, 1.72531
2022-12-14 16:27:14.104096, 1.79374
2022-12-14 16:27:14.104096, 1.85728
2022-12-14 16:27:14.137569, 1.90615
2022-12-14 16:27:14.137912, 1.92570
2022-12-14 16:27:14.171148, 1.92570
2022-12-14 16:27:14.171393, 1.92082
2022-12-14 16:27:14.171393, 1.91104
2022-12-14 16:27:14.204658, 1.87683
2022-12-14 16:27:14.204658, 1.84750
2022-12-14 16:27:14.205676, 1.80840
2022-12-14 16:27:14.238237, 1.78885
2022-12-14 16:27:14.238237, 1.75953
2022-12-14 16:27:14.271844, 1.73509
2022-12-14 16:27:14.272082, 1.74975
2022-12-14 16:27:14.272082, 1.70576
2022-12-14 16:27:14.304159, 1.68132
2022-12-14 16:27:14.305157, 1.65689
2022-12-14 16:27:14.305157, 1.65689
2022-12-14 16:27:14.339008, 1.65200
2022-12-14 16:27:14.339352, 1.65200
2022-12-14 16:27:14.371974, 1.65200
2022-12-14 16:27:14.372492, 1.65689
2022-12-14 16:27:14.373083, 1.67644
2022-12-14 16:27:14.405376, 1.67155
2022-12-14 16:27:14.405376, 1.66666
2022-12-14 16:27:14.406376, 1.67155
2022-12-14 16:27:14.439009, 1.67155
2022-12-14 16:27:14.439009, 1.68132
2022-12-14 16:27:14.472096, 1.65200
2022-12-14 16:27:14.472096, 1.64222
2022-12-14 16:27:14.473096, 1.63245
2022-12-14 16:27:14.505903, 1.61779
2022-12-14 16:27:14.505903, 1.62267
2022-12-14 16:27:14.506904, 1.59335
2022-12-14 16:27:14.539865, 1.58357
2022-12-14 16:27:14.540210, 1.57380
2022-12-14 16:27:14.573397, 1.55425
2022-12-14 16:27:14.573681, 1.57869
2022-12-14 16:27:14.574237, 1.55425
2022-12-14 16:27:14.607305, 1.54447
2022-12-14 16:27:14.607628, 1.53470
2022-12-14 16:27:14.607628, 1.53958
2022-12-14 16:27:14.640725, 1.52981
2022-12-14 16:27:14.640725, 1.53470
2022-12-14 16:27:14.673048, 1.52492
2022-12-14 16:27:14.674055, 1.52981
2022-12-14 16:27:14.674055, 1.52492
2022-12-14 16:27:14.706997, 1.52981
2022-12-14 16:27:14.706997, 1.52981
2022-12-14 16:27:14.707993, 1.52981
2022-12-14 16:27:14.741115, 1.53958
2022-12-14 16:27:14.741459, 1.57869
2022-12-14 16:27:14.774774, 1.63245
2022-12-14 16:27:14.774774, 1.69110
2022-12-14 16:27:14.775775, 1.76930
2022-12-14 16:27:14.808289, 1.84750
2022-12-14 16:27:14.808584, 1.89638
2022-12-14 16:27:14.808584, 1.92570
2022-12-14 16:27:14.841797, 1.95014
2022-12-14 16:27:14.842146, 1.95503
2022-12-14 16:27:14.875393, 1.93548
2022-12-14 16:27:14.875638, 1.91104
2022-12-14 16:27:14.875638, 1.88660
2022-12-14 16:27:14.909069, 1.86217
2022-12-14 16:27:14.909362, 1.82795
2022-12-14 16:27:14.909362, 1.79863
2022-12-14 16:27:14.942663, 1.77419
2022-12-14 16:27:14.942663, 1.75953
2022-12-14 16:27:14.976195, 1.73509
2022-12-14 16:27:14.976195, 1.71065
2022-12-14 16:27:14.977196, 1.72043
2022-12-14 16:27:15.009633, 1.68621
2022-12-14 16:27:15.009633, 1.67155
2022-12-14 16:27:15.010638, 1.66177
2022-12-14 16:27:15.042250, 1.66666
2022-12-14 16:27:15.042250, 1.69110
2022-12-14 16:27:15.076456, 1.68132
2022-12-14 16:27:15.076456, 1.68132
2022-12-14 16:27:15.077492, 1.68621
2022-12-14 16:27:15.109968, 1.69599
2022-12-14 16:27:15.110970, 1.69599
2022-12-14 16:27:15.110970, 1.68132
2022-12-14 16:27:15.143512, 1.67155
2022-12-14 16:27:15.144514, 1.67155
2022-12-14 16:27:15.176881, 1.65200
2022-12-14 16:27:15.176881, 1.63245
2022-12-14 16:27:15.177916, 1.62267
2022-12-14 16:27:15.210235, 1.60801
2022-12-14 16:27:15.211238, 1.59824
2022-12-14 16:27:15.211238, 1.57869
2022-12-14 16:27:15.243628, 1.57869
2022-12-14 16:27:15.244630, 1.56402
2022-12-14 16:27:15.277051, 1.56402
2022-12-14 16:27:15.277051, 1.54447
2022-12-14 16:27:15.278054, 1.54447
2022-12-14 16:27:15.310421, 1.53958
2022-12-14 16:27:15.311424, 1.53470
2022-12-14 16:27:15.311424, 1.52492
2022-12-14 16:27:15.343786, 1.52492
2022-12-14 16:27:15.344757, 1.52003
2022-12-14 16:27:15.377120, 1.52492
2022-12-14 16:27:15.378121, 1.52492
2022-12-14 16:27:15.378121, 1.53958
2022-12-14 16:27:15.411353, 1.57380
2022-12-14 16:27:15.411639, 1.63734
2022-12-14 16:27:15.412004, 1.70576
2022-12-14 16:27:15.445303, 1.78885
2022-12-14 16:27:15.445303, 1.86705
2022-12-14 16:27:15.478548, 1.93548
2022-12-14 16:27:15.479156, 1.95992
2022-12-14 16:27:15.479156, 1.97458
2022-12-14 16:27:15.511434, 1.97947
2022-12-14 16:27:15.512433, 1.96969
2022-12-14 16:27:15.512433, 1.94037
2022-12-14 16:27:15.545874, 1.90615
2022-12-14 16:27:15.546220, 1.88660
2022-12-14 16:27:15.579436, 1.86705
2022-12-14 16:27:15.579680, 1.85728
2022-12-14 16:27:15.579680, 1.82795
2022-12-14 16:27:15.612913, 1.78885
2022-12-14 16:27:15.612913, 1.78396
2022-12-14 16:27:15.613914, 1.78396
2022-12-14 16:27:15.646548, 1.73509
2022-12-14 16:27:15.646548, 1.72043
2022-12-14 16:27:15.679876, 1.71065
2022-12-14 16:27:15.680376, 1.69599
2022-12-14 16:27:15.680376, 1.70087
2022-12-14 16:27:15.713495, 1.69110
2022-12-14 16:27:15.713881, 1.69599
2022-12-14 16:27:15.714571, 1.70087
2022-12-14 16:27:15.747016, 1.69110
2022-12-14 16:27:15.747520, 1.71065
2022-12-14 16:27:15.780372, 1.70087
2022-12-14 16:27:15.781377, 1.68621
2022-12-14 16:27:15.781377, 1.67155
2022-12-14 16:27:15.813534, 1.66666
2022-12-14 16:27:15.814533, 1.65689
2022-12-14 16:27:15.814533, 1.63245
2022-12-14 16:27:15.847866, 1.61779
2022-12-14 16:27:15.847866, 1.60312
2022-12-14 16:27:15.880600, 1.60312
2022-12-14 16:27:15.881172, 1.58357
2022-12-14 16:27:15.881172, 1.56891
2022-12-14 16:27:15.914728, 1.55913
2022-12-14 16:27:15.914728, 1.55913
2022-12-14 16:27:15.915752, 1.54936
2022-12-14 16:27:15.947673, 1.53470
2022-12-14 16:27:15.947673, 1.53958
2022-12-14 16:27:15.981592, 1.52981
2022-12-14 16:27:15.981592, 1.52492
2022-12-14 16:27:15.982599, 1.53470
2022-12-14 16:27:16.015068, 1.51026
2022-12-14 16:27:16.015406, 1.51515
2022-12-14 16:27:16.015406, 1.52981
2022-12-14 16:27:16.048706, 1.53958
2022-12-14 16:27:16.049708, 1.58846
2022-12-14 16:27:16.081562, 1.67155
2022-12-14 16:27:16.081562, 1.74975
2022-12-14 16:27:16.082569, 1.82306
2022-12-14 16:27:16.115854, 1.89638
2022-12-14 16:27:16.115854, 1.95992
2022-12-14 16:27:16.116855, 1.99413
2022-12-14 16:27:16.149315, 1.98924
2022-12-14 16:27:16.149665, 1.98435
2022-12-14 16:27:16.182943, 1.96480
2022-12-14 16:27:16.183186, 1.95014
2022-12-14 16:27:16.183186, 1.91104
2022-12-14 16:27:16.216533, 1.88660
2022-12-14 16:27:16.216827, 1.86217
2022-12-14 16:27:16.216827, 1.84750
2022-12-14 16:27:16.249949, 1.82306
2022-12-14 16:27:16.250295, 1.80351
2022-12-14 16:27:16.283642, 1.78885
2022-12-14 16:27:16.283886, 1.77908
2022-12-14 16:27:16.283886, 1.75953
2022-12-14 16:27:16.317002, 1.72531
2022-12-14 16:27:16.317298, 1.73509
2022-12-14 16:27:16.317778, 1.71065
2022-12-14 16:27:16.350645, 1.70087
2022-12-14 16:27:16.350645, 1.69110
2022-12-14 16:27:16.384136, 1.69110
2022-12-14 16:27:16.384136, 1.69599
2022-12-14 16:27:16.385137, 1.68621
2022-12-14 16:27:16.417578, 1.67644
2022-12-14 16:27:16.418584, 1.67644
2022-12-14 16:27:16.418584, 1.66666
2022-12-14 16:27:16.450458, 1.64711
2022-12-14 16:27:16.451466, 1.66177
2022-12-14 16:27:16.483940, 1.62267
2022-12-14 16:27:16.483940, 1.60801
2022-12-14 16:27:16.484937, 1.58846
2022-12-14 16:27:16.517844, 1.57869
2022-12-14 16:27:16.517844, 1.56402
2022-12-14 16:27:16.518842, 1.55425
2022-12-14 16:27:16.551916, 1.56891
2022-12-14 16:27:16.552274, 1.52492
2022-12-14 16:27:16.585229, 1.51515
2022-12-14 16:27:16.585472, 1.52003
2022-12-14 16:27:16.585472, 1.50537
2022-12-14 16:27:16.619053, 1.49071
2022-12-14 16:27:16.619392, 1.48582
2022-12-14 16:27:16.620400, 1.49071
2022-12-14 16:27:16.652462, 1.48093
2022-12-14 16:27:16.652807, 1.48093
2022-12-14 16:27:16.686039, 1.47605
2022-12-14 16:27:16.686282, 1.47605
2022-12-14 16:27:16.686282, 1.47116
2022-12-14 16:27:16.719413, 1.47605
2022-12-14 16:27:16.719413, 1.47605
2022-12-14 16:27:16.720415, 1.49560
2022-12-14 16:27:16.753018, 1.56891
2022-12-14 16:27:16.753018, 1.59824
2022-12-14 16:27:16.785326, 1.68132
2022-12-14 16:27:16.786332, 1.76930
2022-12-14 16:27:16.786332, 1.85239
2022-12-14 16:27:16.819283, 1.90127
2022-12-14 16:27:16.819283, 1.93548
2022-12-14 16:27:16.820281, 1.95992
2022-12-14 16:27:16.853382, 1.97458
2022-12-14 16:27:16.853952, 1.91104
2022-12-14 16:27:16.887040, 1.88660
2022-12-14 16:27:16.887353, 1.86217
2022-12-14 16:27:16.887353, 1.83773
2022-12-14 16:27:16.920552, 1.80351
2022-12-14 16:27:16.920552, 1.79374
2022-12-14 16:27:16.921557, 1.77908
2022-12-14 16:27:16.953856, 1.76930
2022-12-14 16:27:16.953856, 1.74486
2022-12-14 16:27:16.987151, 1.72531
2022-12-14 16:27:16.987151, 1.70576
2022-12-14 16:27:16.988183, 1.69110
2022-12-14 16:27:17.021191, 1.66666
2022-12-14 16:27:17.021532, 1.68132
2022-12-14 16:27:17.022095, 1.65200
2022-12-14 16:27:17.054819, 1.65689
2022-12-14 16:27:17.055160, 1.64711
2022-12-14 16:27:17.088090, 1.67155
2022-12-14 16:27:17.088090, 1.64222
2022-12-14 16:27:17.089091, 1.64222
2022-12-14 16:27:17.121711, 1.62756
2022-12-14 16:27:17.122471, 1.61779
2022-12-14 16:27:17.122471, 1.60801
2022-12-14 16:27:17.154777, 1.59824
2022-12-14 16:27:17.154777, 1.57869
2022-12-14 16:27:17.188748, 1.55913
2022-12-14 16:27:17.188988, 1.54936
2022-12-14 16:27:17.189586, 1.53958
2022-12-14 16:27:17.222370, 1.52492
2022-12-14 16:27:17.222660, 1.52981
2022-12-14 16:27:17.223662, 1.50537
2022-12-14 16:27:17.255863, 1.50048
2022-12-14 16:27:17.256206, 1.49071
2022-12-14 16:27:17.289444, 1.48093
2022-12-14 16:27:17.289686, 1.47116
2022-12-14 16:27:17.290295, 1.47605
2022-12-14 16:27:17.322895, 1.48582
2022-12-14 16:27:17.322895, 1.46138
2022-12-14 16:27:17.323809, 1.45650
2022-12-14 16:27:17.356504, 1.47605
2022-12-14 16:27:17.356851, 1.45650
2022-12-14 16:27:17.390038, 1.45161
2022-12-14 16:27:17.390282, 1.45161
2022-12-14 16:27:17.390282, 1.47116
2022-12-14 16:27:17.422901, 1.45161
2022-12-14 16:27:17.422901, 1.44672
2022-12-14 16:27:17.423903, 1.44183
2022-12-14 16:27:17.456299, 1.44672
2022-12-14 16:27:17.456299, 1.44672
2022-12-14 16:27:17.490653, 1.43695
2022-12-14 16:27:17.490653, 1.44672
2022-12-14 16:27:17.491654, 1.49560
2022-12-14 16:27:17.523186, 1.53470
2022-12-14 16:27:17.524215, 1.60312
2022-12-14 16:27:17.524215, 1.69110
2022-12-14 16:27:17.557315, 1.78396
2022-12-14 16:27:17.557572, 1.84261
2022-12-14 16:27:17.590829, 1.88172
2022-12-14 16:27:17.590829, 1.91104
2022-12-14 16:27:17.591835, 1.91593
2022-12-14 16:27:17.624918, 1.92570
2022-12-14 16:27:17.625212, 1.87194
2022-12-14 16:27:17.625212, 1.84750
2022-12-14 16:27:17.658252, 1.82795
2022-12-14 16:27:17.658599, 1.80840
2022-12-14 16:27:17.692002, 1.77908
2022-12-14 16:27:17.692245, 1.76930
2022-12-14 16:27:17.692245, 1.75953
2022-12-14 16:27:17.725339, 1.74975
2022-12-14 16:27:17.725634, 1.75464
2022-12-14 16:27:17.725634, 1.70576
2022-12-14 16:27:17.759089, 1.69110
2022-12-14 16:27:17.759437, 1.69599
2022-12-14 16:27:17.792592, 1.66666
2022-12-14 16:27:17.792836, 1.66177
2022-12-14 16:27:17.793398, 1.66666
2022-12-14 16:27:17.826007, 1.69110
2022-12-14 16:27:17.826302, 1.66177
2022-12-14 16:27:17.826302, 1.65689
2022-12-14 16:27:17.859542, 1.66177
2022-12-14 16:27:17.859937, 1.66177
2022-12-14 16:27:17.893280, 1.68132
2022-12-14 16:27:17.894282, 1.66666
2022-12-14 16:27:17.894282, 1.63245
2022-12-14 16:27:17.926069, 1.61290
2022-12-14 16:27:17.926069, 1.59824
2022-12-14 16:27:17.926069, 1.58357
2022-12-14 16:27:17.960076, 1.57380
2022-12-14 16:27:17.960422, 1.57869
2022-12-14 16:27:17.993757, 1.55425
2022-12-14 16:27:17.994030, 1.53958
2022-12-14 16:27:17.994030, 1.53470
2022-12-14 16:27:18.027125, 1.54447
2022-12-14 16:27:18.027423, 1.52981
2022-12-14 16:27:18.027423, 1.51515
2022-12-14 16:27:18.060735, 1.51515
2022-12-14 16:27:18.061736, 1.51515
2022-12-14 16:27:18.094188, 1.51026
2022-12-14 16:27:18.094188, 1.53470
2022-12-14 16:27:18.095190, 1.51026
2022-12-14 16:27:18.127758, 1.50537
2022-12-14 16:27:18.128761, 1.50537
2022-12-14 16:27:18.128761, 1.52003
2022-12-14 16:27:18.161704, 1.49560
2022-12-14 16:27:18.162711, 1.50048
2022-12-14 16:27:18.194524, 1.50537
2022-12-14 16:27:18.194524, 1.49071
2022-12-14 16:27:18.194524, 1.49071
2022-12-14 16:27:18.227864, 1.49071
2022-12-14 16:27:18.228866, 1.49071
2022-12-14 16:27:18.228866, 1.49071
2022-12-14 16:27:18.261262, 1.49071
2022-12-14 16:27:18.262263, 1.51515
2022-12-14 16:27:18.294682, 1.57869
2022-12-14 16:27:18.294682, 1.59824
2022-12-14 16:27:18.295684, 1.66666
2022-12-14 16:27:18.328228, 1.73998
2022-12-14 16:27:18.328228, 1.80840
2022-12-14 16:27:18.329223, 1.84261
2022-12-14 16:27:18.361885, 1.87194
2022-12-14 16:27:18.361885, 1.88660
2022-12-14 16:27:18.394801, 1.88660
2022-12-14 16:27:18.395802, 1.86217
2022-12-14 16:27:18.395802, 1.84261
2022-12-14 16:27:18.428277, 1.82795
2022-12-14 16:27:18.429253, 1.80840
2022-12-14 16:27:18.429253, 1.78396
2022-12-14 16:27:18.462554, 1.75953
2022-12-14 16:27:18.462902, 1.74975
2022-12-14 16:27:18.496402, 1.74486
2022-12-14 16:27:18.496402, 1.72531
2022-12-14 16:27:18.497402, 1.70576
2022-12-14 16:27:18.529728, 1.69110
2022-12-14 16:27:18.530331, 1.68132
2022-12-14 16:27:18.530331, 1.67644
2022-12-14 16:27:18.562639, 1.66666
2022-12-14 16:27:18.563634, 1.68132
2022-12-14 16:27:18.597123, 1.68132
2022-12-14 16:27:18.597367, 1.69110
2022-12-14 16:27:18.597367, 1.67644
2022-12-14 16:27:18.630535, 1.67644
2022-12-14 16:27:18.631359, 1.68132
2022-12-14 16:27:18.631586, 1.67155
2022-12-14 16:27:18.664027, 1.65689
2022-12-14 16:27:18.664863, 1.64222
2022-12-14 16:27:18.697593, 1.64222
2022-12-14 16:27:18.698364, 1.61779
2022-12-14 16:27:18.698602, 1.59824
2022-12-14 16:27:18.731059, 1.59335
2022-12-14 16:27:18.731881, 1.61779
2022-12-14 16:27:18.731881, 1.57380
2022-12-14 16:27:18.764694, 1.56402
2022-12-14 16:27:18.765384, 1.55913
2022-12-14 16:27:18.798075, 1.55913
2022-12-14 16:27:18.798754, 1.55913
2022-12-14 16:27:18.798754, 1.53958
2022-12-14 16:27:18.831356, 1.53470
2022-12-14 16:27:18.831356, 1.53958
2022-12-14 16:27:18.831356, 1.55425
2022-12-14 16:27:18.864401, 1.52492
2022-12-14 16:27:18.865404, 1.52981
2022-12-14 16:27:18.898910, 1.53470
2022-12-14 16:27:18.899244, 1.52981
2022-12-14 16:27:18.899244, 1.53958
2022-12-14 16:27:18.931831, 1.52981
2022-12-14 16:27:18.931831, 1.52492
2022-12-14 16:27:18.932847, 1.52003
2022-12-14 16:27:18.965779, 1.51026
2022-12-14 16:27:18.965779, 1.52003
2022-12-14 16:27:18.999046, 1.51515
2022-12-14 16:27:18.999046, 1.51515
2022-12-14 16:27:18.999867, 1.51515
2022-12-14 16:27:19.032706, 1.53470
2022-12-14 16:27:19.033058, 1.56891
2022-12-14 16:27:19.033058, 1.61779
2022-12-14 16:27:19.066382, 1.67155
2022-12-14 16:27:19.066382, 1.73509
2022-12-14 16:27:19.098857, 1.82306
2022-12-14 16:27:19.099866, 1.84261
2022-12-14 16:27:19.099866, 1.85239
2022-12-14 16:27:19.132896, 1.86705
2022-12-14 16:27:19.132896, 1.87194
2022-12-14 16:27:19.133894, 1.86217
2022-12-14 16:27:19.167008, 1.82795
2022-12-14 16:27:19.167354, 1.80840
2022-12-14 16:27:19.200583, 1.79863
2022-12-14 16:27:19.200826, 1.80840
2022-12-14 16:27:19.201435, 1.74975
2022-12-14 16:27:19.234128, 1.73509
2022-12-14 16:27:19.234424, 1.73020
2022-12-14 16:27:19.234424, 1.72043
2022-12-14 16:27:19.267592, 1.69599
2022-12-14 16:27:19.267939, 1.67644
2022-12-14 16:27:19.301104, 1.66666
2022-12-14 16:27:19.301455, 1.68132
2022-12-14 16:27:19.302470, 1.65200
2022-12-14 16:27:19.334621, 1.66177
2022-12-14 16:27:19.334621, 1.68132
2022-12-14 16:27:19.335432, 1.67155
2022-12-14 16:27:19.368121, 1.66177
2022-12-14 16:27:19.369127, 1.66177
2022-12-14 16:27:19.400946, 1.65689
2022-12-14 16:27:19.401587, 1.65689
2022-12-14 16:27:19.402583, 1.63734
2022-12-14 16:27:19.435423, 1.62756
2022-12-14 16:27:19.435716, 1.61779
2022-12-14 16:27:19.435716, 1.64222
2022-12-14 16:27:19.469034, 1.59824
2022-12-14 16:27:19.469413, 1.57869
2022-12-14 16:27:19.502595, 1.57380
2022-12-14 16:27:19.502887, 1.56891
2022-12-14 16:27:19.502887, 1.55425
2022-12-14 16:27:19.535958, 1.56402
2022-12-14 16:27:19.536259, 1.53958
2022-12-14 16:27:19.536723, 1.53958
2022-12-14 16:27:19.569587, 1.52981
2022-12-14 16:27:19.569935, 1.52492
2022-12-14 16:27:19.603050, 1.51515
2022-12-14 16:27:19.603291, 1.52492
2022-12-14 16:27:19.603768, 1.51515
2022-12-14 16:27:19.636397, 1.51026
2022-12-14 16:27:19.636397, 1.52003
2022-12-14 16:27:19.637404, 1.51515
2022-12-14 16:27:19.669358, 1.51026
2022-12-14 16:27:19.669358, 1.50048
2022-12-14 16:27:19.703522, 1.52003
2022-12-14 16:27:19.703767, 1.51026
2022-12-14 16:27:19.703767, 1.50537
2022-12-14 16:27:19.736921, 1.49560
2022-12-14 16:27:19.736921, 1.49560
2022-12-14 16:27:19.737922, 1.52492
2022-12-14 16:27:19.770679, 1.50537
2022-12-14 16:27:19.771026, 1.49560
2022-12-14 16:27:19.804190, 1.51026
2022-12-14 16:27:19.804428, 1.54447
2022-12-14 16:27:19.804941, 1.58357
2022-12-14 16:27:19.837882, 1.63734
2022-12-14 16:27:19.838174, 1.70576
2022-12-14 16:27:19.839176, 1.77419
2022-12-14 16:27:19.871259, 1.83284
2022-12-14 16:27:19.871600, 1.85728
2022-12-14 16:27:19.904926, 1.88172
2022-12-14 16:27:19.905166, 1.89149
2022-12-14 16:27:19.905166, 1.88660
2022-12-14 16:27:19.938493, 1.86217
2022-12-14 16:27:19.938493, 1.84750
2022-12-14 16:27:19.939496, 1.83284
2022-12-14 16:27:19.971207, 1.84750
2022-12-14 16:27:19.971207, 1.78396
2022-12-14 16:27:20.005234, 1.77419
2022-12-14 16:27:20.005475, 1.76441
2022-12-14 16:27:20.005475, 1.75464
2022-12-14 16:27:20.038573, 1.73998
2022-12-14 16:27:20.039111, 1.72043
2022-12-14 16:27:20.039111, 1.71065
2022-12-14 16:27:20.072444, 1.70576
2022-12-14 16:27:20.072796, 1.68132
2022-12-14 16:27:20.106054, 1.66666
2022-12-14 16:27:20.106300, 1.67155
2022-12-14 16:27:20.107302, 1.68132
2022-12-14 16:27:20.139547, 1.67155
2022-12-14 16:27:20.139879, 1.66666
2022-12-14 16:27:20.140453, 1.66666
2022-12-14 16:27:20.173127, 1.68132
2022-12-14 16:27:20.173471, 1.65200
2022-12-14 16:27:20.206625, 1.64222
2022-12-14 16:27:20.206625, 1.63245
2022-12-14 16:27:20.207627, 1.62756
2022-12-14 16:27:20.240150, 1.60801
2022-12-14 16:27:20.241151, 1.62267
2022-12-14 16:27:20.241151, 1.58846
2022-12-14 16:27:20.272493, 1.57869
2022-12-14 16:27:20.273500, 1.55913
2022-12-14 16:27:20.307101, 1.54936
2022-12-14 16:27:20.307101, 1.54936
2022-12-14 16:27:20.308102, 1.54447
2022-12-14 16:27:20.340779, 1.52981
2022-12-14 16:27:20.341072, 1.53958
2022-12-14 16:27:20.341072, 1.52003
2022-12-14 16:27:20.374334, 1.52003
2022-12-14 16:27:20.374683, 1.51026
2022-12-14 16:27:20.407869, 1.52981
2022-12-14 16:27:20.408116, 1.49560
2022-12-14 16:27:20.408632, 1.50048
2022-12-14 16:27:20.441458, 1.50048
2022-12-14 16:27:20.441801, 1.49560
2022-12-14 16:27:20.442406, 1.50048
2022-12-14 16:27:20.474981, 1.50048
2022-12-14 16:27:20.474981, 1.49560
2022-12-14 16:27:20.507462, 1.49560
2022-12-14 16:27:20.508502, 1.49071
2022-12-14 16:27:20.508502, 1.49560
2022-12-14 16:27:20.541863, 1.49560
2022-12-14 16:27:20.542160, 1.49071
2022-12-14 16:27:20.542160, 1.48582
2022-12-14 16:27:20.575291, 1.49071
2022-12-14 16:27:20.575640, 1.49071
2022-12-14 16:27:20.608968, 1.48093
2022-12-14 16:27:20.609212, 1.51515
2022-12-14 16:27:20.609212, 1.51026
2022-12-14 16:27:20.642463, 1.53470
2022-12-14 16:27:20.642758, 1.57380
2022-12-14 16:27:20.643362, 1.63734
2022-12-14 16:27:20.675999, 1.71554
2022-12-14 16:27:20.676345, 1.78396
2022-12-14 16:27:20.709549, 1.83773
2022-12-14 16:27:20.709797, 1.86705
2022-12-14 16:27:20.710400, 1.89149
2022-12-14 16:27:20.743028, 1.89638
2022-12-14 16:27:20.743028, 1.88172
2022-12-14 16:27:20.744029, 1.86217
2022-12-14 16:27:20.776747, 1.84750
2022-12-14 16:27:20.777093, 1.83773
2022-12-14 16:27:20.810079, 1.83284
2022-12-14 16:27:20.810355, 1.81329
2022-12-14 16:27:20.810355, 1.77419
2022-12-14 16:27:20.843739, 1.76930
2022-12-14 16:27:20.843739, 1.77419
2022-12-14 16:27:20.844740, 1.73020
2022-12-14 16:27:20.877211, 1.72531
2022-12-14 16:27:20.878244, 1.71065
2022-12-14 16:27:20.910216, 1.68621
2022-12-14 16:27:20.910216, 1.68132
2022-12-14 16:27:20.911223, 1.67155
2022-12-14 16:27:20.944134, 1.67644
2022-12-14 16:27:20.944429, 1.66666
2022-12-14 16:27:20.944988, 1.66177
2022-12-14 16:27:20.977793, 1.66666
2022-12-14 16:27:20.978139, 1.66666
2022-12-14 16:27:21.011118, 1.65689
2022-12-14 16:27:21.011118, 1.66666
2022-12-14 16:27:21.012068, 1.64222
2022-12-14 16:27:21.044933, 1.62756
2022-12-14 16:27:21.045230, 1.61779
2022-12-14 16:27:21.045230, 1.59824
2022-12-14 16:27:21.078380, 1.61779
2022-12-14 16:27:21.078380, 1.58357
2022-12-14 16:27:21.111891, 1.57380
2022-12-14 16:27:21.111891, 1.55425
2022-12-14 16:27:21.112912, 1.55913
2022-12-14 16:27:21.145344, 1.54447
2022-12-14 16:27:21.145344, 1.53470
2022-12-14 16:27:21.146346, 1.52492
2022-12-14 16:27:21.179071, 1.51515
2022-12-14 16:27:21.180076, 1.51515
2022-12-14 16:27:21.211983, 1.52981
2022-12-14 16:27:21.211983, 1.50537
2022-12-14 16:27:21.212983, 1.49560
2022-12-14 16:27:21.245972, 1.50537
2022-12-14 16:27:21.246681, 1.50537
2022-12-14 16:27:21.246681, 1.49071
2022-12-14 16:27:21.278328, 1.49071
2022-12-14 16:27:21.279334, 1.52492
2022-12-14 16:27:21.312512, 1.49560
2022-12-14 16:27:21.312512, 1.48093
2022-12-14 16:27:21.313515, 1.48582
2022-12-14 16:27:21.345733, 1.49560
2022-12-14 16:27:21.346745, 1.49071
2022-12-14 16:27:21.346745, 1.48093
2022-12-14 16:27:21.379145, 1.48093
2022-12-14 16:27:21.380149, 1.49071
2022-12-14 16:27:21.412515, 1.48582
2022-12-14 16:27:21.413522, 1.47605
2022-12-14 16:27:21.413967, 1.48093
2022-12-14 16:27:21.445894, 1.48582
2022-12-14 16:27:21.446897, 1.48582
2022-12-14 16:27:21.447509, 1.47605
2022-12-14 16:27:21.480247, 1.48582
2022-12-14 16:27:21.480247, 1.51515
2022-12-14 16:27:21.513650, 1.56402
2022-12-14 16:27:21.513650, 1.61779
2022-12-14 16:27:21.514660, 1.70576
2022-12-14 16:27:21.547280, 1.76441
2022-12-14 16:27:21.547634, 1.81818
2022-12-14 16:27:21.548048, 1.86217
2022-12-14 16:27:21.580948, 1.86705
2022-12-14 16:27:21.581347, 1.87683
2022-12-14 16:27:21.614452, 1.90127
2022-12-14 16:27:21.614778, 1.84261
2022-12-14 16:27:21.614778, 1.81818
2022-12-14 16:27:21.647860, 1.79863
2022-12-14 16:27:21.648235, 1.78396
2022-12-14 16:27:21.648235, 1.75464
2022-12-14 16:27:21.681225, 1.73998
2022-12-14 16:27:21.681651, 1.73020
2022-12-14 16:27:21.714796, 1.72043
2022-12-14 16:27:21.714796, 1.70576
2022-12-14 16:27:21.715797, 1.68621
2022-12-14 16:27:21.748183, 1.67155
2022-12-14 16:27:21.748183, 1.66666
2022-12-14 16:27:21.749199, 1.66177
2022-12-14 16:27:21.781471, 1.63734
2022-12-14 16:27:21.782484, 1.67155
2022-12-14 16:27:21.815914, 1.65689
2022-12-14 16:27:21.816180, 1.65200
2022-12-14 16:27:21.816734, 1.64222
2022-12-14 16:27:21.849130, 1.64711
2022-12-14 16:27:21.849468, 1.64711
2022-12-14 16:27:21.850143, 1.63734
2022-12-14 16:27:21.882476, 1.62756
2022-12-14 16:27:21.883177, 1.62267
2022-12-14 16:27:21.916057, 1.63245
2022-12-14 16:27:21.916304, 1.60801
2022-12-14 16:27:21.916304, 1.59335
2022-12-14 16:27:21.950083, 1.57869
2022-12-14 16:27:21.950380, 1.57869
2022-12-14 16:27:21.950380, 1.56891
2022-12-14 16:27:21.983135, 1.55425
2022-12-14 16:27:21.983135, 1.58357
2022-12-14 16:27:22.016887, 1.55425
2022-12-14 16:27:22.016887, 1.54447
2022-12-14 16:27:22.017778, 1.52981
2022-12-14 16:27:22.050734, 1.52492
2022-12-14 16:27:22.051029, 1.54936
2022-12-14 16:27:22.051508, 1.52981
2022-12-14 16:27:22.083683, 1.50537
2022-12-14 16:27:22.083683, 1.51026
2022-12-14 16:27:22.117125, 1.51515
2022-12-14 16:27:22.117125, 1.51515
2022-12-14 16:27:22.118138, 1.50048
2022-12-14 16:27:22.150751, 1.50537
2022-12-14 16:27:22.150751, 1.50537
2022-12-14 16:27:22.151748, 1.51026
2022-12-14 16:27:22.184829, 1.49560
2022-12-14 16:27:22.185175, 1.49560
2022-12-14 16:27:22.218265, 1.50048
2022-12-14 16:27:22.218537, 1.50537
2022-12-14 16:27:22.219254, 1.49560
2022-12-14 16:27:22.251910, 1.49560
2022-12-14 16:27:22.252245, 1.50048
2022-12-14 16:27:22.252245, 1.50048
2022-12-14 16:27:22.285326, 1.50048
2022-12-14 16:27:22.285673, 1.49560
2022-12-14 16:27:22.318813, 1.49560
2022-12-14 16:27:22.318813, 1.50537
2022-12-14 16:27:22.319634, 1.51026
2022-12-14 16:27:22.352457, 1.53958
2022-12-14 16:27:22.352457, 1.62267
2022-12-14 16:27:22.353457, 1.66666
2022-12-14 16:27:22.385880, 1.71065
2022-12-14 16:27:22.385880, 1.76441
2022-12-14 16:27:22.418824, 1.83773
2022-12-14 16:27:22.418824, 1.84261
2022-12-14 16:27:22.419822, 1.84261
2022-12-14 16:27:22.451991, 1.84750
2022-12-14 16:27:22.453000, 1.84261
2022-12-14 16:27:22.453000, 1.83284
2022-12-14 16:27:22.485386, 1.80351
2022-12-14 16:27:22.486370, 1.78396
2022-12-14 16:27:22.520044, 1.76930
2022-12-14 16:27:22.520289, 1.75464
2022-12-14 16:27:22.520289, 1.73509
2022-12-14 16:27:22.553615, 1.72043
2022-12-14 16:27:22.553913, 1.70576
2022-12-14 16:27:22.553913, 1.71554
2022-12-14 16:27:22.587143, 1.67644
2022-12-14 16:27:22.587487, 1.66177
2022-12-14 16:27:22.620805, 1.65200
2022-12-14 16:27:22.621043, 1.68621
2022-12-14 16:27:22.621504, 1.65200
2022-12-14 16:27:22.654233, 1.66666
2022-12-14 16:27:22.654233, 1.65689
2022-12-14 16:27:22.655248, 1.66666
2022-12-14 16:27:22.687688, 1.66177
2022-12-14 16:27:22.687688, 1.66177
2022-12-14 16:27:22.721175, 1.66177
2022-12-14 16:27:22.721175, 1.66666
2022-12-14 16:27:22.722177, 1.66177
2022-12-14 16:27:22.754751, 1.64222
2022-12-14 16:27:22.755758, 1.64222
2022-12-14 16:27:22.755758, 1.63245
2022-12-14 16:27:22.787567, 1.61779
2022-12-14 16:27:22.788576, 1.60312
2022-12-14 16:27:22.821417, 1.62756
2022-12-14 16:27:22.821417, 1.60312
2022-12-14 16:27:22.821417, 1.58846
2022-12-14 16:27:22.855066, 1.57380
2022-12-14 16:27:22.855361, 1.56402
2022-12-14 16:27:22.855361, 1.56891
2022-12-14 16:27:22.889085, 1.55913
2022-12-14 16:27:22.889429, 1.55913
2022-12-14 16:27:22.922603, 1.54447
2022-12-14 16:27:22.922844, 1.54936
2022-12-14 16:27:22.922844, 1.54936
2022-12-14 16:27:22.956162, 1.54936
2022-12-14 16:27:22.956457, 1.53958
2022-12-14 16:27:22.956457, 1.53958
2022-12-14 16:27:22.989766, 1.53470
2022-12-14 16:27:22.990156, 1.52981
2022-12-14 16:27:23.023118, 1.53470
2022-12-14 16:27:23.023362, 1.52981
2022-12-14 16:27:23.024009, 1.52981
2022-12-14 16:27:23.056637, 1.52492
2022-12-14 16:27:23.056637, 1.52492
2022-12-14 16:27:23.057638, 1.52492
2022-12-14 16:27:23.090064, 1.54447
2022-12-14 16:27:23.090064, 1.52981
2022-12-14 16:27:23.122959, 1.53470
2022-12-14 16:27:23.122959, 1.54447
2022-12-14 16:27:23.123965, 1.57869
2022-12-14 16:27:23.156845, 1.61290
2022-12-14 16:27:23.156845, 1.66666
2022-12-14 16:27:23.156845, 1.72531
2022-12-14 16:27:23.190742, 1.77908
2022-12-14 16:27:23.191095, 1.81329
2022-12-14 16:27:23.224222, 1.83773
2022-12-14 16:27:23.224465, 1.88172
2022-12-14 16:27:23.224465, 1.86217
2022-12-14 16:27:23.257835, 1.84261
2022-12-14 16:27:23.258130, 1.82795
2022-12-14 16:27:23.258130, 1.81329
2022-12-14 16:27:23.291273, 1.79863
2022-12-14 16:27:23.291622, 1.77419
2022-12-14 16:27:23.324995, 1.75464
2022-12-14 16:27:23.325243, 1.76930
2022-12-14 16:27:23.325243, 1.75953
2022-12-14 16:27:23.358406, 1.71065
2022-12-14 16:27:23.358701, 1.69599
2022-12-14 16:27:23.359177, 1.68132
2022-12-14 16:27:23.392149, 1.67644
2022-12-14 16:27:23.392534, 1.66177
2022-12-14 16:27:23.425720, 1.65200
2022-12-14 16:27:23.425963, 1.65200
2022-12-14 16:27:23.425963, 1.66666
2022-12-14 16:27:23.459090, 1.66177
2022-12-14 16:27:23.459090, 1.66177
2022-12-14 16:27:23.460090, 1.68621
2022-12-14 16:27:23.492317, 1.69110
2022-12-14 16:27:23.493326, 1.67155
2022-12-14 16:27:23.524700, 1.65689
2022-12-14 16:27:23.525700, 1.66177
2022-12-14 16:27:23.525700, 1.65689
2022-12-14 16:27:23.558605, 1.64711
2022-12-14 16:27:23.559607, 1.62756
2022-12-14 16:27:23.559607, 1.62267
2022-12-14 16:27:23.593016, 1.61290
2022-12-14 16:27:23.593361, 1.63734
2022-12-14 16:27:23.626611, 1.59335
2022-12-14 16:27:23.626858, 1.58357
2022-12-14 16:27:23.626858, 1.57869
2022-12-14 16:27:23.660177, 1.57380
2022-12-14 16:27:23.660473, 1.55913
2022-12-14 16:27:23.660473, 1.56891
2022-12-14 16:27:23.693726, 1.55425
2022-12-14 16:27:23.694069, 1.54936
2022-12-14 16:27:23.727219, 1.53470
2022-12-14 16:27:23.727219, 1.52981
2022-12-14 16:27:23.728073, 1.53470
2022-12-14 16:27:23.760895, 1.54936
2022-12-14 16:27:23.761218, 1.52492
2022-12-14 16:27:23.761885, 1.52492
2022-12-14 16:27:23.794306, 1.52492
2022-12-14 16:27:23.794306, 1.52981
2022-12-14 16:27:23.827178, 1.52492
2022-12-14 16:27:23.828186, 1.52003
2022-12-14 16:27:23.828186, 1.52003
2022-12-14 16:27:23.860081, 1.52981
2022-12-14 16:27:23.861089, 1.55425
2022-12-14 16:27:23.861089, 1.55425
2022-12-14 16:27:23.894857, 1.59335
2022-12-14 16:27:23.895204, 1.65689
2022-12-14 16:27:23.928287, 1.72043
2022-12-14 16:27:23.928530, 1.79374
2022-12-14 16:27:23.928530, 1.80840
2022-12-14 16:27:23.962154, 1.85239
2022-12-14 16:27:23.962154, 1.88172
2022-12-14 16:27:23.963156, 1.85239
2022-12-14 16:27:23.995603, 1.85239
2022-12-14 16:27:23.995946, 1.85239
2022-12-14 16:27:24.028984, 1.82795
2022-12-14 16:27:24.029227, 1.80840
2022-12-14 16:27:24.029227, 1.78885
2022-12-14 16:27:24.062513, 1.77908
2022-12-14 16:27:24.062513, 1.75953
2022-12-14 16:27:24.063515, 1.74486
2022-12-14 16:27:24.096201, 1.73509
2022-12-14 16:27:24.097199, 1.72531
2022-12-14 16:27:24.129792, 1.70087
2022-12-14 16:27:24.129792, 1.68132
2022-12-14 16:27:24.130793, 1.69599
2022-12-14 16:27:24.163366, 1.67155
2022-12-14 16:27:24.163366, 1.67155
2022-12-14 16:27:24.164372, 1.65689
2022-12-14 16:27:24.195925, 1.65689
2022-12-14 16:27:24.196934, 1.66666
2022-12-14 16:27:24.229425, 1.69599
2022-12-14 16:27:24.229425, 1.66666
2022-12-14 16:27:24.230422, 1.66177
2022-12-14 16:27:24.263499, 1.66666
2022-12-14 16:27:24.264534, 1.65689
2022-12-14 16:27:24.264534, 1.64222
2022-12-14 16:27:24.296890, 1.63734
2022-12-14 16:27:24.297892, 1.63245
2022-12-14 16:27:24.330286, 1.62267
2022-12-14 16:27:24.330286, 1.60312
2022-12-14 16:27:24.331324, 1.62756
2022-12-14 16:27:24.363696, 1.59335
2022-12-14 16:27:24.364699, 1.57869
2022-12-14 16:27:24.364699, 1.56402
2022-12-14 16:27:24.397038, 1.55913
2022-12-14 16:27:24.398040, 1.55425
2022-12-14 16:27:24.430426, 1.55425
2022-12-14 16:27:24.431428, 1.53470
2022-12-14 16:27:24.431428, 1.52981
2022-12-14 16:27:24.463760, 1.52981
2022-12-14 16:27:24.464698, 1.55913
2022-12-14 16:27:24.464698, 1.52003
2022-12-14 16:27:24.497148, 1.51515
2022-12-14 16:27:24.498177, 1.52003
2022-12-14 16:27:24.530624, 1.54936
2022-12-14 16:27:24.531637, 1.50537
2022-12-14 16:27:24.531637, 1.51026
2022-12-14 16:27:24.565260, 1.51515
2022-12-14 16:27:24.565973, 1.52492
2022-12-14 16:27:24.565973, 1.50537
2022-12-14 16:27:24.598126, 1.50537
2022-12-14 16:27:24.598723, 1.51026
2022-12-14 16:27:24.631886, 1.53470
2022-12-14 16:27:24.631886, 1.53470
2022-12-14 16:27:24.632882, 1.57869
2022-12-14 16:27:24.665845, 1.63734
2022-12-14 16:27:24.665845, 1.71065
2022-12-14 16:27:24.666846, 1.76441
2022-12-14 16:27:24.699553, 1.81329
2022-12-14 16:27:24.699553, 1.84750
2022-12-14 16:27:24.732926, 1.87194
2022-12-14 16:27:24.733376, 1.87194
2022-12-14 16:27:24.733376, 1.86705
2022-12-14 16:27:24.766479, 1.85728
2022-12-14 16:27:24.766841, 1.84750
2022-12-14 16:27:24.767466, 1.82306
2022-12-14 16:27:24.800333, 1.80840
2022-12-14 16:27:24.800491, 1.79863
2022-12-14 16:27:24.833521, 1.77419
2022-12-14 16:27:24.833921, 1.75464
2022-12-14 16:27:24.834404, 1.73509
2022-12-14 16:27:24.867243, 1.73020
2022-12-14 16:27:24.867243, 1.74486
2022-12-14 16:27:24.868246, 1.70087
2022-12-14 16:27:24.900723, 1.68621
2022-12-14 16:27:24.901098, 1.71065
2022-12-14 16:27:24.934166, 1.67644
2022-12-14 16:27:24.934166, 1.67644
2022-12-14 16:27:24.935184, 1.66666
2022-12-14 16:27:24.967076, 1.67155
2022-12-14 16:27:24.967076, 1.71554
2022-12-14 16:27:24.968035, 1.68621
2022-12-14 16:27:25.001151, 1.67155
2022-12-14 16:27:25.001572, 1.67644
2022-12-14 16:27:25.034783, 1.67155
2022-12-14 16:27:25.034783, 1.66177
2022-12-14 16:27:25.035785, 1.64711
2022-12-14 16:27:25.067875, 1.63734
2022-12-14 16:27:25.068172, 1.63734
2022-12-14 16:27:25.068172, 1.62756
2022-12-14 16:27:25.101745, 1.61290
2022-12-14 16:27:25.102095, 1.60801
2022-12-14 16:27:25.135362, 1.59335
2022-12-14 16:27:25.135607, 1.58846
2022-12-14 16:27:25.135607, 1.57380
2022-12-14 16:27:25.168857, 1.56891
2022-12-14 16:27:25.169152, 1.59335
2022-12-14 16:27:25.169152, 1.56402
2022-12-14 16:27:25.202245, 1.54936
2022-12-14 16:27:25.203022, 1.54447
2022-12-14 16:27:25.235836, 1.54447
2022-12-14 16:27:25.235836, 1.54936
2022-12-14 16:27:25.236701, 1.53470
2022-12-14 16:27:25.269373, 1.53470
2022-12-14 16:27:25.269671, 1.53958
2022-12-14 16:27:25.270228, 1.54447
2022-12-14 16:27:25.302978, 1.52981
2022-12-14 16:27:25.303331, 1.53470
2022-12-14 16:27:25.336437, 1.56891
2022-12-14 16:27:25.336437, 1.53958
2022-12-14 16:27:25.337437, 1.52981
2022-12-14 16:27:25.370044, 1.53470
2022-12-14 16:27:25.370335, 1.54936
2022-12-14 16:27:25.370851, 1.58357
2022-12-14 16:27:25.403700, 1.61290
2022-12-14 16:27:25.404043, 1.67644
2022-12-14 16:27:25.436235, 1.74486
2022-12-14 16:27:25.437233, 1.80840
2022-12-14 16:27:25.437233, 1.84750
2022-12-14 16:27:25.470144, 1.87683
2022-12-14 16:27:25.470144, 1.90127
2022-12-14 16:27:25.471144, 1.91104
2022-12-14 16:27:25.503058, 1.90127
2022-12-14 16:27:25.504055, 1.91104
2022-12-14 16:27:25.536932, 1.86705
2022-12-14 16:27:25.537484, 1.85239
2022-12-14 16:27:25.537484, 1.82795
2022-12-14 16:27:25.571203, 1.80351
2022-12-14 16:27:25.571494, 1.79374
2022-12-14 16:27:25.572094, 1.78396
2022-12-14 16:27:25.604843, 1.75953
2022-12-14 16:27:25.605193, 1.73998
2022-12-14 16:27:25.638476, 1.75953
2022-12-14 16:27:25.638720, 1.72531
2022-12-14 16:27:25.638720, 1.70576
2022-12-14 16:27:25.671036, 1.69110
2022-12-14 16:27:25.672002, 1.69110
2022-12-14 16:27:25.672002, 1.70087
2022-12-14 16:27:25.705401, 1.73020
2022-12-14 16:27:25.705747, 1.70576
2022-12-14 16:27:25.739358, 1.70576
2022-12-14 16:27:25.739358, 1.71554
2022-12-14 16:27:25.740363, 1.71065
2022-12-14 16:27:25.771644, 1.69599
2022-12-14 16:27:25.772652, 1.69599
2022-12-14 16:27:25.772652, 1.69110
2022-12-14 16:27:25.805583, 1.68132
2022-12-14 16:27:25.805583, 1.66177
2022-12-14 16:27:25.839570, 1.65689
2022-12-14 16:27:25.839813, 1.64711
2022-12-14 16:27:25.840422, 1.63734
2022-12-14 16:27:25.873149, 1.61779
2022-12-14 16:27:25.873445, 1.61290
2022-12-14 16:27:25.874008, 1.61290
2022-12-14 16:27:25.906702, 1.60312
2022-12-14 16:27:25.907047, 1.58846
2022-12-14 16:27:25.940299, 1.58357
2022-12-14 16:27:25.940542, 1.58357
2022-12-14 16:27:25.941144, 1.58357
2022-12-14 16:27:25.973878, 1.56891
2022-12-14 16:27:25.974219, 1.56891
2022-12-14 16:27:25.974739, 1.56891
2022-12-14 16:27:26.007330, 1.57380
2022-12-14 16:27:26.007677, 1.56402
2022-12-14 16:27:26.040860, 1.55913
2022-12-14 16:27:26.040860, 1.55913
2022-12-14 16:27:26.041863, 1.55913
2022-12-14 16:27:26.073785, 1.55425
2022-12-14 16:27:26.074065, 1.55425
2022-12-14 16:27:26.074472, 1.56891
2022-12-14 16:27:26.107666, 1.59335
2022-12-14 16:27:26.108018, 1.63734
2022-12-14 16:27:26.140886, 1.69110
2022-12-14 16:27:26.140886, 1.74975
2022-12-14 16:27:26.140886, 1.81329
2022-12-14 16:27:26.174759, 1.84750
2022-12-14 16:27:26.174759, 1.88172
2022-12-14 16:27:26.175794, 1.90615
2022-12-14 16:27:26.208370, 1.91593
2022-12-14 16:27:26.208718, 1.89638
2022-12-14 16:27:26.241909, 1.88172
2022-12-14 16:27:26.242153, 1.88172
2022-12-14 16:27:26.242153, 1.84750
2022-12-14 16:27:26.275496, 1.81818
2022-12-14 16:27:26.275794, 1.79863
2022-12-14 16:27:26.276396, 1.78396
2022-12-14 16:27:26.308334, 1.77419
2022-12-14 16:27:26.309299, 1.74975
2022-12-14 16:27:26.342599, 1.73509
2022-12-14 16:27:26.342892, 1.71554
2022-12-14 16:27:26.343560, 1.71065
2022-12-14 16:27:26.376141, 1.69599
2022-12-14 16:27:26.376141, 1.71065
2022-12-14 16:27:26.377143, 1.69110
2022-12-14 16:27:26.409974, 1.69599
2022-12-14 16:27:26.410997, 1.69599
2022-12-14 16:27:26.443033, 1.69599
2022-12-14 16:27:26.443033, 1.70087
2022-12-14 16:27:26.444033, 1.71065
2022-12-14 16:27:26.476307, 1.70576
2022-12-14 16:27:26.476307, 1.69599
2022-12-14 16:27:26.476307, 1.70087
2022-12-14 16:27:26.510132, 1.69110
2022-12-14 16:27:26.510480, 1.67644
2022-12-14 16:27:26.543731, 1.65689
2022-12-14 16:27:26.543976, 1.64711
2022-12-14 16:27:26.544547, 1.64711
2022-12-14 16:27:26.577219, 1.63245
2022-12-14 16:27:26.577219, 1.61779
2022-12-14 16:27:26.578220, 1.61779
2022-12-14 16:27:26.610792, 1.61779
2022-12-14 16:27:26.611186, 1.59824
2022-12-14 16:27:26.644258, 1.58357
2022-12-14 16:27:26.644258, 1.57869
2022-12-14 16:27:26.645261, 1.59824
2022-12-14 16:27:26.677952, 1.57380
2022-12-14 16:27:26.678727, 1.56402
2022-12-14 16:27:26.678727, 1.55913
2022-12-14 16:27:26.710256, 1.59824
2022-12-14 16:27:26.711266, 1.56891
2022-12-14 16:27:26.744499, 1.55425
2022-12-14 16:27:26.744499, 1.54936
2022-12-14 16:27:26.745504, 1.55425
2022-12-14 16:27:26.777852, 1.56891
2022-12-14 16:27:26.777852, 1.54447
2022-12-14 16:27:26.778861, 1.55425
2022-12-14 16:27:26.811893, 1.57380
2022-12-14 16:27:26.812242, 1.61779
2022-12-14 16:27:26.845463, 1.67155
2022-12-14 16:27:26.845712, 1.72531
2022-12-14 16:27:26.845712, 1.79374
2022-12-14 16:27:26.878978, 1.87194
2022-12-14 16:27:26.879274, 1.87683
2022-12-14 16:27:26.879274, 1.89638
2022-12-14 16:27:26.912460, 1.90615
2022-12-14 16:27:26.912809, 1.91104
2022-12-14 16:27:26.946020, 1.88172
2022-12-14 16:27:26.946299, 1.86217
2022-12-14 16:27:26.946299, 1.84750
2022-12-14 16:27:26.979565, 1.84261
2022-12-14 16:27:26.979861, 1.80840
2022-12-14 16:27:26.980377, 1.78885
2022-12-14 16:27:27.013026, 1.75953
2022-12-14 16:27:27.013026, 1.75464
2022-12-14 16:27:27.045468, 1.73020
2022-12-14 16:27:27.046472, 1.70576
2022-12-14 16:27:27.046472, 1.69110
2022-12-14 16:27:27.080037, 1.68621
2022-12-14 16:27:27.080360, 1.67155
2022-12-14 16:27:27.081362, 1.66666
2022-12-14 16:27:27.113745, 1.67155
2022-12-14 16:27:27.114093, 1.67644
2022-12-14 16:27:27.147183, 1.68132
2022-12-14 16:27:27.147454, 1.67644
2022-12-14 16:27:27.148455, 1.67644
2022-12-14 16:27:27.180857, 1.67644
2022-12-14 16:27:27.180857, 1.66666
2022-12-14 16:27:27.181891, 1.65689
2022-12-14 16:27:27.214274, 1.65200
2022-12-14 16:27:27.215276, 1.65200
2022-12-14 16:27:27.247796, 1.63734
2022-12-14 16:27:27.247796, 1.61779
2022-12-14 16:27:27.248832, 1.60312
2022-12-14 16:27:27.281216, 1.59824
2022-12-14 16:27:27.282250, 1.58846
2022-12-14 16:27:27.282250, 1.60312
2022-12-14 16:27:27.314740, 1.56402
2022-12-14 16:27:27.315742, 1.55913
2022-12-14 16:27:27.348160, 1.56891
2022-12-14 16:27:27.348160, 1.53958
2022-12-14 16:27:27.349162, 1.52981
2022-12-14 16:27:27.381513, 1.53470
2022-12-14 16:27:27.382546, 1.53470
2022-12-14 16:27:27.382546, 1.51026
2022-12-14 16:27:27.414843, 1.51515
2022-12-14 16:27:27.414843, 1.52492
2022-12-14 16:27:27.448185, 1.52003
2022-12-14 16:27:27.449190, 1.50537
2022-12-14 16:27:27.449190, 1.51026
2022-12-14 16:27:27.481536, 1.51515
2022-12-14 16:27:27.482539, 1.52003
2022-12-14 16:27:27.482539, 1.50537
2022-12-14 16:27:27.514887, 1.50537
2022-12-14 16:27:27.515891, 1.53470
2022-12-14 16:27:27.548853, 1.51515
2022-12-14 16:27:27.548853, 1.52003
2022-12-14 16:27:27.549858, 1.55425
2022-12-14 16:27:27.582670, 1.61290
2022-12-14 16:27:27.583092, 1.68621
2022-12-14 16:27:27.583092, 1.74486
2022-12-14 16:27:27.616149, 1.81329
2022-12-14 16:27:27.616623, 1.86705
2022-12-14 16:27:27.648829, 1.90615
2022-12-14 16:27:27.649826, 1.91593
2022-12-14 16:27:27.650292, 1.94525
2022-12-14 16:27:27.683316, 1.90615
2022-12-14 16:27:27.683695, 1.89638
2022-12-14 16:27:27.683695, 1.86217
2022-12-14 16:27:27.717057, 1.83773
2022-12-14 16:27:27.717403, 1.81818
2022-12-14 16:27:27.750514, 1.80840
2022-12-14 16:27:27.751260, 1.77908
2022-12-14 16:27:27.751480, 1.76930
2022-12-14 16:27:27.783963, 1.74486
2022-12-14 16:27:27.783963, 1.73998
2022-12-14 16:27:27.784970, 1.72043
2022-12-14 16:27:27.817866, 1.71065
2022-12-14 16:27:27.818022, 1.69110
2022-12-14 16:27:27.851307, 1.69110
2022-12-14 16:27:27.851533, 1.68132
2022-12-14 16:27:27.851533, 1.67644
2022-12-14 16:27:27.885010, 1.67644
2022-12-14 16:27:27.885010, 1.68621
2022-12-14 16:27:27.885792, 1.68132
2022-12-14 16:27:27.918441, 1.70576
2022-12-14 16:27:27.918772, 1.70087
2022-12-14 16:27:27.951875, 1.67644
2022-12-14 16:27:27.952108, 1.66177
2022-12-14 16:27:27.952588, 1.65200
2022-12-14 16:27:27.985362, 1.64222
2022-12-14 16:27:27.985362, 1.63245
2022-12-14 16:27:27.986393, 1.61779
2022-12-14 16:27:28.018496, 1.59824
2022-12-14 16:27:28.018496, 1.62267
2022-12-14 16:27:28.052046, 1.58846
2022-12-14 16:27:28.052267, 1.57380
2022-12-14 16:27:28.052673, 1.55913
2022-12-14 16:27:28.085542, 1.55425
2022-12-14 16:27:28.085871, 1.57380
2022-12-14 16:27:28.086468, 1.54447
2022-12-14 16:27:28.119567, 1.52981
2022-12-14 16:27:28.119920, 1.52492
2022-12-14 16:27:28.153060, 1.52981
2022-12-14 16:27:28.153298, 1.52003
2022-12-14 16:27:28.153298, 1.51026
2022-12-14 16:27:28.186493, 1.51515
2022-12-14 16:27:28.186782, 1.51515
2022-12-14 16:27:28.187254, 1.51515
2022-12-14 16:27:28.220146, 1.51026
2022-12-14 16:27:28.220484, 1.51515
2022-12-14 16:27:28.253713, 1.51515
2022-12-14 16:27:28.253951, 1.52003
2022-12-14 16:27:28.253951, 1.51515
2022-12-14 16:27:28.287040, 1.50537
2022-12-14 16:27:28.287040, 1.51026
2022-12-14 16:27:28.288043, 1.51515
2022-12-14 16:27:28.320469, 1.52492
2022-12-14 16:27:28.320469, 1.52981
2022-12-14 16:27:28.354164, 1.56891
2022-12-14 16:27:28.354400, 1.62756
2022-12-14 16:27:28.355402, 1.70576
2022-12-14 16:27:28.387873, 1.76441
2022-12-14 16:27:28.388167, 1.83284
2022-12-14 16:27:28.389168, 1.88660
2022-12-14 16:27:28.421278, 1.92082
2022-12-14 16:27:28.421622, 1.92570
2022-12-14 16:27:28.454933, 1.93059
2022-12-14 16:27:28.455176, 1.92570
2022-12-14 16:27:28.455176, 1.89638
2022-12-14 16:27:28.488310, 1.87194
2022-12-14 16:27:28.488605, 1.85728
2022-12-14 16:27:28.489082, 1.84261
2022-12-14 16:27:28.522018, 1.81329
2022-12-14 16:27:28.522366, 1.79374
2022-12-14 16:27:28.555420, 1.77908
2022-12-14 16:27:28.555663, 1.76441
2022-12-14 16:27:28.556145, 1.73998
2022-12-14 16:27:28.589068, 1.72531
2022-12-14 16:27:28.590072, 1.70576
2022-12-14 16:27:28.590072, 1.70576
2022-12-14 16:27:28.622336, 1.71554
2022-12-14 16:27:28.622336, 1.69110
2022-12-14 16:27:28.655227, 1.69599
2022-12-14 16:27:28.655227, 1.70087
2022-12-14 16:27:28.656303, 1.69599
2022-12-14 16:27:28.689480, 1.69110
2022-12-14 16:27:28.689775, 1.69599
2022-12-14 16:27:28.689775, 1.69599
2022-12-14 16:27:28.723149, 1.69110
2022-12-14 16:27:28.723495, 1.68132
2022-12-14 16:27:28.756756, 1.69110
2022-12-14 16:27:28.757000, 1.67155
2022-12-14 16:27:28.757000, 1.65200
2022-12-14 16:27:28.790292, 1.63734
2022-12-14 16:27:28.790624, 1.62756
2022-12-14 16:27:28.790624, 1.62756
2022-12-14 16:27:28.823744, 1.61290
2022-12-14 16:27:28.824088, 1.59335
2022-12-14 16:27:28.857145, 1.58846
2022-12-14 16:27:28.857145, 1.58846
2022-12-14 16:27:28.858147, 1.57869
2022-12-14 16:27:28.890717, 1.58846
2022-12-14 16:27:28.891457, 1.56402
2022-12-14 16:27:28.891457, 1.55425
2022-12-14 16:27:28.923768, 1.55425
2022-12-14 16:27:28.923768, 1.54447
2022-12-14 16:27:28.956597, 1.54936
2022-12-14 16:27:28.957604, 1.54447
2022-12-14 16:27:28.957604, 1.54447
2022-12-14 16:27:28.990402, 1.56402
2022-12-14 16:27:28.991134, 1.53470
2022-12-14 16:27:28.991134, 1.53958
2022-12-14 16:27:29.024440, 1.53958
2022-12-14 16:27:29.024781, 1.52981
2022-12-14 16:27:29.058351, 1.53958
2022-12-14 16:27:29.058594, 1.53470
2022-12-14 16:27:29.059153, 1.53470
2022-12-14 16:27:29.091887, 1.54447
2022-12-14 16:27:29.092183, 1.54447
2022-12-14 16:27:29.093185, 1.57869
2022-12-14 16:27:29.125492, 1.63245
2022-12-14 16:27:29.125838, 1.68621
2022-12-14 16:27:29.158635, 1.77419
2022-12-14 16:27:29.158635, 1.83773
2022-12-14 16:27:29.159652, 1.88172
2022-12-14 16:27:29.192582, 1.93548
2022-12-14 16:27:29.192879, 1.92570
2022-12-14 16:27:29.193402, 1.93059
2022-12-14 16:27:29.226101, 1.93059
2022-12-14 16:27:29.226101, 1.90615
2022-12-14 16:27:29.259499, 1.88172
2022-12-14 16:27:29.259499, 1.85728
2022-12-14 16:27:29.260501, 1.83773
2022-12-14 16:27:29.292883, 1.80840
2022-12-14 16:27:29.292883, 1.78885
2022-12-14 16:27:29.292883, 1.75953
2022-12-14 16:27:29.326463, 1.76930
2022-12-14 16:27:29.326463, 1.73020
2022-12-14 16:27:29.360082, 1.70576
2022-12-14 16:27:29.360329, 1.69599
2022-12-14 16:27:29.360937, 1.68621
2022-12-14 16:27:29.393735, 1.67644
2022-12-14 16:27:29.394029, 1.67644
2022-12-14 16:27:29.394029, 1.68132
2022-12-14 16:27:29.427213, 1.69599
2022-12-14 16:27:29.427213, 1.69599
2022-12-14 16:27:29.460824, 1.71065
2022-12-14 16:27:29.461067, 1.70576
2022-12-14 16:27:29.461627, 1.70576
2022-12-14 16:27:29.494409, 1.70087
2022-12-14 16:27:29.494731, 1.68621
2022-12-14 16:27:29.494731, 1.68132
2022-12-14 16:27:29.527908, 1.67644
2022-12-14 16:27:29.528383, 1.68621
2022-12-14 16:27:29.561331, 1.65689
2022-12-14 16:27:29.561902, 1.64711
2022-12-14 16:27:29.561902, 1.63245
2022-12-14 16:27:29.594869, 1.61290
2022-12-14 16:27:29.595164, 1.59824
2022-12-14 16:27:29.595164, 1.59335
2022-12-14 16:27:29.627639, 1.62267
2022-12-14 16:27:29.628592, 1.58846
2022-12-14 16:27:29.661102, 1.56891
2022-12-14 16:27:29.661102, 1.55913
2022-12-14 16:27:29.662102, 1.57869
2022-12-14 16:27:29.695567, 1.52492
2022-12-14 16:27:29.696000, 1.49071
2022-12-14 16:27:29.697001, 1.48582
2022-12-14 16:27:29.729100, 1.52003
2022-12-14 16:27:29.729490, 1.50537
2022-12-14 16:27:29.762695, 1.51026
2022-12-14 16:27:29.762969, 1.54447
2022-12-14 16:27:29.762969, 1.54447
2022-12-14 16:27:29.796174, 1.54936
2022-12-14 16:27:29.796174, 1.54936
2022-12-14 16:27:29.797013, 1.57380
2022-12-14 16:27:29.828299, 1.57380
2022-12-14 16:27:29.829306, 1.59335
2022-12-14 16:27:29.863002, 1.62756
2022-12-14 16:27:29.863248, 1.68621
2022-12-14 16:27:29.863248, 1.75953
2022-12-14 16:27:29.896654, 1.85239
2022-12-14 16:27:29.896949, 1.87194
2022-12-14 16:27:29.896949, 1.91104
2022-12-14 16:27:29.930217, 1.93548
2022-12-14 16:27:29.930563, 1.95014
2022-12-14 16:27:29.963793, 1.93059
2022-12-14 16:27:29.964041, 1.91593
2022-12-14 16:27:29.964595, 1.90615
2022-12-14 16:27:29.997317, 1.90615
2022-12-14 16:27:29.997611, 1.84261
2022-12-14 16:27:29.997611, 1.81329
2022-12-14 16:27:30.030883, 1.79374
2022-12-14 16:27:30.031280, 1.78396
2022-12-14 16:27:30.064309, 1.74975
2022-12-14 16:27:30.064683, 1.73020
2022-12-14 16:27:30.065685, 1.72531
2022-12-14 16:27:30.097252, 1.69599
2022-12-14 16:27:30.097252, 1.68132
2022-12-14 16:27:30.098192, 1.69599
2022-12-14 16:27:30.131270, 1.67644
2022-12-14 16:27:30.131616, 1.68132
2022-12-14 16:27:30.165024, 1.67644
2022-12-14 16:27:30.165269, 1.68621
2022-12-14 16:27:30.166270, 1.69599
2022-12-14 16:27:30.198587, 1.72043
2022-12-14 16:27:30.198587, 1.70087
2022-12-14 16:27:30.199619, 1.68621
2022-12-14 16:27:30.232097, 1.68621
2022-12-14 16:27:30.232097, 1.67644
2022-12-14 16:27:30.265581, 1.66666
2022-12-14 16:27:30.266584, 1.64711
2022-12-14 16:27:30.266584, 1.64711
2022-12-14 16:27:30.299142, 1.63734
2022-12-14 16:27:30.299142, 1.61290
2022-12-14 16:27:30.300144, 1.59824
2022-12-14 16:27:30.332681, 1.58846
2022-12-14 16:27:30.333682, 1.60312
2022-12-14 16:27:30.366121, 1.57380
2022-12-14 16:27:30.366639, 1.55913
2022-12-14 16:27:30.367643, 1.55425
2022-12-14 16:27:30.399004, 1.55425
2022-12-14 16:27:30.399004, 1.54447
2022-12-14 16:27:30.400013, 1.53470
2022-12-14 16:27:30.432825, 1.52981
2022-12-14 16:27:30.432825, 1.53958
2022-12-14 16:27:30.465877, 1.52981
2022-12-14 16:27:30.466879, 1.52003
2022-12-14 16:27:30.466879, 1.52981
2022-12-14 16:27:30.499294, 1.52981
2022-12-14 16:27:30.500297, 1.52492
2022-12-14 16:27:30.500297, 1.51515
2022-12-14 16:27:30.533241, 1.51515
2022-12-14 16:27:30.533241, 1.52492
2022-12-14 16:27:30.566070, 1.53470
2022-12-14 16:27:30.567074, 1.54936
2022-12-14 16:27:30.567074, 1.59335
2022-12-14 16:27:30.599446, 1.68132
2022-12-14 16:27:30.600449, 1.74975
2022-12-14 16:27:30.600449, 1.81329
2022-12-14 16:27:30.633817, 1.87194
2022-12-14 16:27:30.633817, 1.92570
2022-12-14 16:27:30.667335, 1.95503
2022-12-14 16:27:30.667565, 1.95992
2022-12-14 16:27:30.667565, 1.96969
2022-12-14 16:27:30.700435, 1.96480
2022-12-14 16:27:30.701433, 1.91593
2022-12-14 16:27:30.701433, 1.87683
2022-12-14 16:27:30.733932, 1.85239
2022-12-14 16:27:30.734927, 1.83284
2022-12-14 16:27:30.767944, 1.81818
2022-12-14 16:27:30.767944, 1.79374
2022-12-14 16:27:30.768946, 1.76930
2022-12-14 16:27:30.801858, 1.75464
2022-12-14 16:27:30.801858, 1.74486
2022-12-14 16:27:30.802956, 1.74486
2022-12-14 16:27:30.835368, 1.69599
2022-12-14 16:27:30.835368, 1.69110
2022-12-14 16:27:30.868894, 1.70087
2022-12-14 16:27:30.868894, 1.67644
2022-12-14 16:27:30.869918, 1.67155
2022-12-14 16:27:30.902544, 1.68132
2022-12-14 16:27:30.902544, 1.69110
2022-12-14 16:27:30.903547, 1.69110
2022-12-14 16:27:30.935958, 1.68621
2022-12-14 16:27:30.935958, 1.70087
2022-12-14 16:27:30.969426, 1.68621
2022-12-14 16:27:30.969426, 1.67155
2022-12-14 16:27:30.970452, 1.66177
2022-12-14 16:27:31.002940, 1.64711
2022-12-14 16:27:31.002940, 1.65689
2022-12-14 16:27:31.003964, 1.62756
2022-12-14 16:27:31.036670, 1.60801
2022-12-14 16:27:31.037012, 1.59824
2022-12-14 16:27:31.069722, 1.61290
2022-12-14 16:27:31.069963, 1.57869
2022-12-14 16:27:31.069963, 1.55913
2022-12-14 16:27:31.103253, 1.55425
2022-12-14 16:27:31.103253, 1.58357
2022-12-14 16:27:31.104262, 1.54447
2022-12-14 16:27:31.136869, 1.52981
2022-12-14 16:27:31.137197, 1.52492
2022-12-14 16:27:31.170784, 1.55425
2022-12-14 16:27:31.171027, 1.51515
2022-12-14 16:27:31.171027, 1.51026
2022-12-14 16:27:31.204252, 1.52003
2022-12-14 16:27:31.204597, 1.50537
2022-12-14 16:27:31.204597, 1.51026
2022-12-14 16:27:31.237824, 1.53470
2022-12-14 16:27:31.238170, 1.50537
2022-12-14 16:27:31.271231, 1.50048
2022-12-14 16:27:31.271475, 1.50537
2022-12-14 16:27:31.272091, 1.49560
2022-12-14 16:27:31.304634, 1.52492
2022-12-14 16:27:31.304929, 1.51515
2022-12-14 16:27:31.305452, 1.53958
2022-12-14 16:27:31.338082, 1.58357
2022-12-14 16:27:31.338082, 1.66666
2022-12-14 16:27:31.371840, 1.74486
2022-12-14 16:27:31.372086, 1.82795
2022-12-14 16:27:31.372086, 1.88172
2022-12-14 16:27:31.405299, 1.92570
2022-12-14 16:27:31.405299, 1.95992
2022-12-14 16:27:31.406300, 1.97458
2022-12-14 16:27:31.438601, 1.95503
2022-12-14 16:27:31.438601, 1.94525
2022-12-14 16:27:31.472024, 1.91593
2022-12-14 16:27:31.472024, 1.91593
2022-12-14 16:27:31.472024, 1.85239
2022-12-14 16:27:31.504860, 1.82306
2022-12-14 16:27:31.505770, 1.80351
2022-12-14 16:27:31.505770, 1.78885
2022-12-14 16:27:31.539417, 1.76441
2022-12-14 16:27:31.539417, 1.74975
2022-12-14 16:27:31.572975, 1.72043
2022-12-14 16:27:31.572975, 1.70576
2022-12-14 16:27:31.573977, 1.68621
2022-12-14 16:27:31.606507, 1.68132
2022-12-14 16:27:31.606507, 1.66666
2022-12-14 16:27:31.607510, 1.66666
2022-12-14 16:27:31.639826, 1.66666
2022-12-14 16:27:31.639826, 1.66666
2022-12-14 16:27:31.673137, 1.69110
2022-12-14 16:27:31.673137, 1.68132
2022-12-14 16:27:31.674138, 1.67155
2022-12-14 16:27:31.707182, 1.66177
2022-12-14 16:27:31.707475, 1.68621
2022-12-14 16:27:31.708034, 1.65689
2022-12-14 16:27:31.740750, 1.64222
2022-12-14 16:27:31.740750, 1.61779
2022-12-14 16:27:31.774085, 1.60801
2022-12-14 16:27:31.774085, 1.60312
2022-12-14 16:27:31.775031, 1.58357
2022-12-14 16:27:31.807643, 1.56402
2022-12-14 16:27:31.808646, 1.54936
2022-12-14 16:27:31.808646, 1.54447
2022-12-14 16:27:31.840054, 1.52981
2022-12-14 16:27:31.841058, 1.51515
2022-12-14 16:27:31.874935, 1.51026
2022-12-14 16:27:31.875179, 1.50048
2022-12-14 16:27:31.875179, 1.48582
2022-12-14 16:27:31.908444, 1.49560
2022-12-14 16:27:31.908743, 1.47116
2022-12-14 16:27:31.909341, 1.47605
2022-12-14 16:27:31.941930, 1.47116
2022-12-14 16:27:31.942870, 1.47116
2022-12-14 16:27:31.975593, 1.46627
2022-12-14 16:27:31.975868, 1.46627
2022-12-14 16:27:31.976871, 1.50048
2022-12-14 16:27:32.009166, 1.45650
2022-12-14 16:27:32.009507, 1.46138
2022-12-14 16:27:32.010064, 1.46627
2022-12-14 16:27:32.042752, 1.47116
2022-12-14 16:27:32.042752, 1.46138
2022-12-14 16:27:32.076003, 1.46138
2022-12-14 16:27:32.076003, 1.47605
2022-12-14 16:27:32.076827, 1.51026
2022-12-14 16:27:32.109596, 1.55425
2022-12-14 16:27:32.110120, 1.62756
2022-12-14 16:27:32.110120, 1.74486
2022-12-14 16:27:32.142768, 1.80840
2022-12-14 16:27:32.142768, 1.87194
2022-12-14 16:27:32.175791, 1.92570
2022-12-14 16:27:32.175791, 1.96969
2022-12-14 16:27:32.176787, 1.98435
2022-12-14 16:27:32.210089, 1.98435
2022-12-14 16:27:32.210384, 1.95014
2022-12-14 16:27:32.210384, 1.93059
2022-12-14 16:27:32.243053, 1.90615
2022-12-14 16:27:32.243510, 1.86217
2022-12-14 16:27:32.277210, 1.83284
2022-12-14 16:27:32.277454, 1.81329
2022-12-14 16:27:32.278070, 1.79374
2022-12-14 16:27:32.310808, 1.76930
2022-12-14 16:27:32.311175, 1.73998
2022-12-14 16:27:32.311781, 1.72531
2022-12-14 16:27:32.344255, 1.72531
2022-12-14 16:27:32.344602, 1.68621
2022-12-14 16:27:32.377855, 1.67155
2022-12-14 16:27:32.378158, 1.67155
2022-12-14 16:27:32.378158, 1.71065
2022-12-14 16:27:32.411407, 1.68132
2022-12-14 16:27:32.411735, 1.68132
2022-12-14 16:27:32.411735, 1.68621
2022-12-14 16:27:32.444890, 1.70087
2022-12-14 16:27:32.444890, 1.73020
2022-12-14 16:27:32.478338, 1.70087
2022-12-14 16:27:32.478338, 1.69110
2022-12-14 16:27:32.479326, 1.68621
2022-12-14 16:27:32.511250, 1.67155
2022-12-14 16:27:32.511250, 1.64711
2022-12-14 16:27:32.512256, 1.63245
2022-12-14 16:27:32.545058, 1.62756
2022-12-14 16:27:32.545382, 1.61779
2022-12-14 16:27:32.577977, 1.58357
2022-12-14 16:27:32.578974, 1.57869
2022-12-14 16:27:32.578974, 1.56891
2022-12-14 16:27:32.612545, 1.55913
2022-12-14 16:27:32.612842, 1.53958
2022-12-14 16:27:32.612842, 1.53470
2022-12-14 16:27:32.645956, 1.56402
2022-12-14 16:27:32.646306, 1.52492
2022-12-14 16:27:32.679684, 1.51515
2022-12-14 16:27:32.679929, 1.50537
2022-12-14 16:27:32.680450, 1.53470
2022-12-14 16:27:32.713092, 1.50537
2022-12-14 16:27:32.713434, 1.49560
2022-12-14 16:27:32.713434, 1.50537
2022-12-14 16:27:32.746546, 1.50048
2022-12-14 16:27:32.747090, 1.49560
2022-12-14 16:27:32.779658, 1.48582
2022-12-14 16:27:32.779658, 1.50048
2022-12-14 16:27:32.779658, 1.49560
2022-12-14 16:27:32.813731, 1.49560
2022-12-14 16:27:32.814027, 1.48582
2022-12-14 16:27:32.814027, 1.51515
2022-12-14 16:27:32.846205, 1.49071
2022-12-14 16:27:32.847227, 1.50048
2022-12-14 16:27:32.880899, 1.51026
2022-12-14 16:27:32.881143, 1.55913
2022-12-14 16:27:32.881788, 1.62756
2022-12-14 16:27:32.914366, 1.71554
2022-12-14 16:27:32.914366, 1.79863
2022-12-14 16:27:32.915273, 1.89638
2022-12-14 16:27:32.947766, 1.94525
2022-12-14 16:27:32.948113, 1.99413
2022-12-14 16:27:32.981512, 1.99902
2022-12-14 16:27:32.981786, 2.00391
2022-12-14 16:27:32.982360, 1.98924
2022-12-14 16:27:33.014934, 1.96969
2022-12-14 16:27:33.015937, 1.92570
2022-12-14 16:27:33.015937, 1.89149
2022-12-14 16:27:33.047993, 1.86217
2022-12-14 16:27:33.047993, 1.84261
2022-12-14 16:27:33.081443, 1.80840
2022-12-14 16:27:33.081443, 1.77908
2022-12-14 16:27:33.081443, 1.75953
2022-12-14 16:27:33.115537, 1.76930
2022-12-14 16:27:33.115833, 1.71065
2022-12-14 16:27:33.115833, 1.69599
2022-12-14 16:27:33.149054, 1.68132
2022-12-14 16:27:33.149054, 1.68621
2022-12-14 16:27:33.182683, 1.69110
2022-12-14 16:27:33.182927, 1.67644
2022-12-14 16:27:33.183928, 1.68621
2022-12-14 16:27:33.216135, 1.70087
2022-12-14 16:27:33.216431, 1.70087
2022-12-14 16:27:33.216431, 1.70576
2022-12-14 16:27:33.249587, 1.70576
2022-12-14 16:27:33.250589, 1.70576
2022-12-14 16:27:33.283297, 1.69599
2022-12-14 16:27:33.283297, 1.68132
2022-12-14 16:27:33.284302, 1.70087
2022-12-14 16:27:33.316839, 1.66666
2022-12-14 16:27:33.317841, 1.64711
2022-12-14 16:27:33.317841, 1.62756
2022-12-14 16:27:33.350090, 1.61779
2022-12-14 16:27:33.351093, 1.61290
2022-12-14 16:27:33.383042, 1.59335
2022-12-14 16:27:33.383042, 1.57380
2022-12-14 16:27:33.384025, 1.57869
2022-12-14 16:27:33.417032, 1.56402
2022-12-14 16:27:33.418066, 1.55425
2022-12-14 16:27:33.418066, 1.53958
2022-12-14 16:27:33.450446, 1.53958
2022-12-14 16:27:33.451448, 1.52981
2022-12-14 16:27:33.483827, 1.53470
2022-12-14 16:27:33.483827, 1.52003
2022-12-14 16:27:33.484862, 1.52492
2022-12-14 16:27:33.517191, 1.52492
2022-12-14 16:27:33.517191, 1.52492
2022-12-14 16:27:33.518194, 1.53958
2022-12-14 16:27:33.550521, 1.52003
2022-12-14 16:27:33.551466, 1.52003
2022-12-14 16:27:33.584043, 1.52003
2022-12-14 16:27:33.585046, 1.52981
2022-12-14 16:27:33.585190, 1.52003
2022-12-14 16:27:33.617395, 1.52003
2022-12-14 16:27:33.618326, 1.53958
2022-12-14 16:27:33.618326, 1.57869
2022-12-14 16:27:33.651823, 1.63245
2022-12-14 16:27:33.652541, 1.71554
2022-12-14 16:27:33.684027, 1.80840
2022-12-14 16:27:33.685033, 1.88660
2022-12-14 16:27:33.685033, 1.93548
2022-12-14 16:27:33.718275, 1.97947
2022-12-14 16:27:33.719242, 2.00391
2022-12-14 16:27:33.719242, 1.99413
2022-12-14 16:27:33.751779, 1.97947
2022-12-14 16:27:33.751779, 1.95992
2022-12-14 16:27:33.785528, 1.93548
2022-12-14 16:27:33.786177, 1.92082
2022-12-14 16:27:33.786334, 1.85239
2022-12-14 16:27:33.819604, 1.82306
2022-12-14 16:27:33.819890, 1.79863
2022-12-14 16:27:33.819890, 1.76441
2022-12-14 16:27:33.853030, 1.74486
2022-12-14 16:27:33.853376, 1.71554
2022-12-14 16:27:33.886567, 1.70087
2022-12-14 16:27:33.886807, 1.67644
2022-12-14 16:27:33.887286, 1.65689
2022-12-14 16:27:33.920047, 1.65689
2022-12-14 16:27:33.920047, 1.66666
2022-12-14 16:27:33.921049, 1.66666
2022-12-14 16:27:33.953636, 1.70576
2022-12-14 16:27:33.954385, 1.68621
2022-12-14 16:27:33.987030, 1.70087
2022-12-14 16:27:33.987030, 1.70087
2022-12-14 16:27:33.988032, 1.70087
2022-12-14 16:27:34.020598, 1.71065
2022-12-14 16:27:34.020967, 1.70087
2022-12-14 16:27:34.020967, 1.68621
2022-12-14 16:27:34.053691, 1.66666
2022-12-14 16:27:34.054180, 1.65689
2022-12-14 16:27:34.087514, 1.64711
2022-12-14 16:27:34.087514, 1.63734
2022-12-14 16:27:34.088521, 1.60312
2022-12-14 16:27:34.121418, 1.59824
2022-12-14 16:27:34.121713, 1.59335
2022-12-14 16:27:34.122723, 1.58357
2022-12-14 16:27:34.154859, 1.56402
2022-12-14 16:27:34.155204, 1.56402
2022-12-14 16:27:34.188450, 1.55425
2022-12-14 16:27:34.188693, 1.55425
2022-12-14 16:27:34.188693, 1.53470
2022-12-14 16:27:34.221974, 1.53470
2022-12-14 16:27:34.222269, 1.53470
2022-12-14 16:27:34.222269, 1.53470
2022-12-14 16:27:34.256113, 1.52003
2022-12-14 16:27:34.256113, 1.52492
2022-12-14 16:27:34.288975, 1.53958
2022-12-14 16:27:34.288975, 1.53470
2022-12-14 16:27:34.289976, 1.52003
2022-12-14 16:27:34.322602, 1.52492
2022-12-14 16:27:34.322897, 1.54936
2022-12-14 16:27:34.322897, 1.56891
2022-12-14 16:27:34.356187, 1.61779
2022-12-14 16:27:34.356580, 1.70087
2022-12-14 16:27:34.389648, 1.79863
2022-12-14 16:27:34.389893, 1.87194
2022-12-14 16:27:34.390502, 1.92570
2022-12-14 16:27:34.423099, 1.97458
2022-12-14 16:27:34.423396, 2.00391
2022-12-14 16:27:34.423960, 2.01368
2022-12-14 16:27:34.456769, 1.99413
2022-12-14 16:27:34.457117, 1.96969
2022-12-14 16:27:34.490158, 1.94037
2022-12-14 16:27:34.490401, 1.91104
2022-12-14 16:27:34.490876, 1.86705
2022-12-14 16:27:34.523713, 1.83284
2022-12-14 16:27:34.523713, 1.80840
2022-12-14 16:27:34.524716, 1.79863
2022-12-14 16:27:34.556823, 1.74975
2022-12-14 16:27:34.557848, 1.72531
2022-12-14 16:27:34.590353, 1.71065
2022-12-14 16:27:34.590353, 1.69110
2022-12-14 16:27:34.590353, 1.66666
2022-12-14 16:27:34.624310, 1.66177
2022-12-14 16:27:34.624603, 1.66177
2022-12-14 16:27:34.624603, 1.68132
2022-12-14 16:27:34.657979, 1.67155
2022-12-14 16:27:34.658324, 1.67644
2022-12-14 16:27:34.691441, 1.69110
2022-12-14 16:27:34.691720, 1.72531
2022-12-14 16:27:34.691720, 1.70576
2022-12-14 16:27:34.724956, 1.70087
2022-12-14 16:27:34.725251, 1.69599
2022-12-14 16:27:34.725251, 1.69599
2022-12-14 16:27:34.758575, 1.68132
2022-12-14 16:27:34.758925, 1.65689
2022-12-14 16:27:34.791985, 1.64222
2022-12-14 16:27:34.792229, 1.63734
2022-12-14 16:27:34.792229, 1.62267
2022-12-14 16:27:34.825516, 1.60312
2022-12-14 16:27:34.825516, 1.58846
2022-12-14 16:27:34.826519, 1.58357
2022-12-14 16:27:34.859069, 1.56891
2022-12-14 16:27:34.860078, 1.55913
2022-12-14 16:27:34.892413, 1.54447
2022-12-14 16:27:34.892413, 1.54447
2022-12-14 16:27:34.893414, 1.53958
2022-12-14 16:27:34.926003, 1.55425
2022-12-14 16:27:34.926296, 1.52492
2022-12-14 16:27:34.926296, 1.52492
2022-12-14 16:27:34.959774, 1.55425
2022-12-14 16:27:34.960119, 1.51515
2022-12-14 16:27:34.993170, 1.51515
2022-12-14 16:27:34.993415, 1.52492
2022-12-14 16:27:34.993979, 1.55425
2022-12-14 16:27:35.026738, 1.60801
2022-12-14 16:27:35.027031, 1.67644
2022-12-14 16:27:35.027556, 1.77908
2022-12-14 16:27:35.060308, 1.87194
2022-12-14 16:27:35.060656, 1.96480
2022-12-14 16:27:35.093765, 2.00879
2022-12-14 16:27:35.094079, 2.04789
2022-12-14 16:27:35.094079, 2.06744
2022-12-14 16:27:35.127213, 2.04789
2022-12-14 16:27:35.127213, 2.02834
2022-12-14 16:27:35.128218, 2.00391
2022-12-14 16:27:35.160770, 1.96969
2022-12-14 16:27:35.160770, 1.91593
2022-12-14 16:27:35.193784, 1.88172
2022-12-14 16:27:35.193784, 1.85728
2022-12-14 16:27:35.194569, 1.83773
2022-12-14 16:27:35.227757, 1.83284
2022-12-14 16:27:35.228054, 1.77419
2022-12-14 16:27:35.228054, 1.75953
2022-12-14 16:27:35.261287, 1.73998
2022-12-14 16:27:35.261634, 1.71554
2022-12-14 16:27:35.294852, 1.71554
2022-12-14 16:27:35.295095, 1.69599
2022-12-14 16:27:35.295095, 1.70087
2022-12-14 16:27:35.328443, 1.69599
2022-12-14 16:27:35.328740, 1.70087
2022-12-14 16:27:35.329341, 1.73509
2022-12-14 16:27:35.361982, 1.72043
2022-12-14 16:27:35.362332, 1.71065
2022-12-14 16:27:35.395546, 1.71554
2022-12-14 16:27:35.395791, 1.71065
2022-12-14 16:27:35.395791, 1.70087
2022-12-14 16:27:35.429071, 1.68621
2022-12-14 16:27:35.429071, 1.66177
2022-12-14 16:27:35.429981, 1.68132
2022-12-14 16:27:35.462659, 1.64222
2022-12-14 16:27:35.463031, 1.62267
2022-12-14 16:27:35.496179, 1.59824
2022-12-14 16:27:35.496471, 1.58846
2022-12-14 16:27:35.496471, 1.58846
2022-12-14 16:27:35.529730, 1.56891
2022-12-14 16:27:35.529730, 1.55425
2022-12-14 16:27:35.530733, 1.54936
2022-12-14 16:27:35.562564, 1.53958
2022-12-14 16:27:35.562986, 1.53958
2022-12-14 16:27:35.596672, 1.52492
2022-12-14 16:27:35.596916, 1.52492
2022-12-14 16:27:35.597918, 1.52003
2022-12-14 16:27:35.630109, 1.51515
2022-12-14 16:27:35.630405, 1.50537
2022-12-14 16:27:35.630405, 1.51026
2022-12-14 16:27:35.663877, 1.51026
2022-12-14 16:27:35.664220, 1.53470
2022-12-14 16:27:35.697285, 1.58357
2022-12-14 16:27:35.697528, 1.65200
2022-12-14 16:27:35.697528, 1.75464
2022-12-14 16:27:35.730159, 1.85728
2022-12-14 16:27:35.730159, 1.94525
2022-12-14 16:27:35.731191, 2.02346
2022-12-14 16:27:35.763909, 2.06744
2022-12-14 16:27:35.763909, 2.09188
2022-12-14 16:27:35.798088, 2.08211
2022-12-14 16:27:35.798333, 2.06256
2022-12-14 16:27:35.798855, 2.03812
2022-12-14 16:27:35.831521, 2.00391
2022-12-14 16:27:35.831521, 1.95992
2022-12-14 16:27:35.832540, 1.92570
2022-12-14 16:27:35.864649, 1.90127
2022-12-14 16:27:35.864649, 1.89149
2022-12-14 16:27:35.898112, 1.83773
2022-12-14 16:27:35.898341, 1.81329
2022-12-14 16:27:35.898341, 1.82306
2022-12-14 16:27:35.932006, 1.77908
2022-12-14 16:27:35.932306, 1.76441
2022-12-14 16:27:35.932306, 1.73509
2022-12-14 16:27:35.965629, 1.72531
2022-12-14 16:27:35.965973, 1.72043
2022-12-14 16:27:35.999051, 1.70576
2022-12-14 16:27:35.999295, 1.70576
2022-12-14 16:27:35.999295, 1.71065
2022-12-14 16:27:36.032708, 1.74975
2022-12-14 16:27:36.033000, 1.71554
2022-12-14 16:27:36.033000, 1.70576
2022-12-14 16:27:36.066214, 1.69599
2022-12-14 16:27:36.066214, 1.70576
2022-12-14 16:27:36.099590, 1.67155
2022-12-14 16:27:36.099834, 1.65689
2022-12-14 16:27:36.100307, 1.63734
2022-12-14 16:27:36.133439, 1.63245
2022-12-14 16:27:36.133778, 1.60312
2022-12-14 16:27:36.133778, 1.58357
2022-12-14 16:27:36.166896, 1.59335
2022-12-14 16:27:36.167243, 1.56402
2022-12-14 16:27:36.200316, 1.54447
2022-12-14 16:27:36.200659, 1.55425
2022-12-14 16:27:36.201663, 1.51515
2022-12-14 16:27:36.233156, 1.51515
2022-12-14 16:27:36.233156, 1.49560
2022-12-14 16:27:36.234164, 1.48582
2022-12-14 16:27:36.266922, 1.48093
2022-12-14 16:27:36.266922, 1.48582
2022-12-14 16:27:36.300719, 1.48093
2022-12-14 16:27:36.300961, 1.46138
2022-12-14 16:27:36.301962, 1.46138
2022-12-14 16:27:36.334274, 1.49560
2022-12-14 16:27:36.334274, 1.46627
2022-12-14 16:27:36.335307, 1.45650
2022-12-14 16:27:36.367912, 1.48093
2022-12-14 16:27:36.368916, 1.54936
2022-12-14 16:27:36.401426, 1.60801
2022-12-14 16:27:36.401426, 1.69599
2022-12-14 16:27:36.402462, 1.80351
2022-12-14 16:27:36.435013, 1.90127
2022-12-14 16:27:36.436016, 1.95992
2022-12-14 16:27:36.436016, 1.99413
2022-12-14 16:27:36.468392, 2.04301
2022-12-14 16:27:36.468392, 2.00879
2022-12-14 16:27:36.501786, 1.98435
2022-12-14 16:27:36.502799, 1.94037
2022-12-14 16:27:36.502799, 1.90127
2022-12-14 16:27:36.535470, 1.86705
2022-12-14 16:27:36.535470, 1.82795
2022-12-14 16:27:36.536473, 1.78885
2022-12-14 16:27:36.568515, 1.76441
2022-12-14 16:27:36.568515, 1.74486
2022-12-14 16:27:36.601568, 1.73509
2022-12-14 16:27:36.602569, 1.69599
2022-12-14 16:27:36.602569, 1.70087
2022-12-14 16:27:36.635601, 1.65689
2022-12-14 16:27:36.635601, 1.64222
2022-12-14 16:27:36.636598, 1.61779
2022-12-14 16:27:36.669377, 1.61290
2022-12-14 16:27:36.669377, 1.64222
2022-12-14 16:27:36.702733, 1.62756
2022-12-14 16:27:36.702733, 1.61290
2022-12-14 16:27:36.703730, 1.61290
2022-12-14 16:27:36.736217, 1.64222
2022-12-14 16:27:36.736497, 1.62267
2022-12-14 16:27:36.736497, 1.60312
2022-12-14 16:27:36.770017, 1.59335
2022-12-14 16:27:36.770017, 1.61779
2022-12-14 16:27:36.803496, 1.58357
2022-12-14 16:27:36.804273, 1.56402
2022-12-14 16:27:36.804507, 1.54447
2022-12-14 16:27:36.837004, 1.53958
2022-12-14 16:27:36.837652, 1.52492
2022-12-14 16:27:36.837652, 1.51026
2022-12-14 16:27:36.870573, 1.49560
2022-12-14 16:27:36.871025, 1.49560
2022-12-14 16:27:36.903787, 1.48582
2022-12-14 16:27:36.903787, 1.47116
2022-12-14 16:27:36.903787, 1.48093
2022-12-14 16:27:36.937200, 1.45650
2022-12-14 16:27:36.937863, 1.45650
2022-12-14 16:27:36.938296, 1.44672
2022-12-14 16:27:36.971274, 1.44672
2022-12-14 16:27:36.971681, 1.44183
2022-12-14 16:27:37.004851, 1.44183
2022-12-14 16:27:37.004851, 1.45650
2022-12-14 16:27:37.005875, 1.43206
2022-12-14 16:27:37.038412, 1.42717
2022-12-14 16:27:37.038710, 1.43206
2022-12-14 16:27:37.039353, 1.42228
2022-12-14 16:27:37.071511, 1.45161
2022-12-14 16:27:37.071511, 1.42717
2022-12-14 16:27:37.105396, 1.47116
2022-12-14 16:27:37.105640, 1.52492
2022-12-14 16:27:37.106121, 1.62756
2022-12-14 16:27:37.138493, 1.69599
2022-12-14 16:27:37.138493, 1.79374
2022-12-14 16:27:37.139483, 1.86705
2022-12-14 16:27:37.172502, 1.90615
2022-12-14 16:27:37.172881, 1.94037
2022-12-14 16:27:37.205880, 1.94525
2022-12-14 16:27:37.205880, 1.92570
2022-12-14 16:27:37.206820, 1.89149
2022-12-14 16:27:37.239488, 1.87194
2022-12-14 16:27:37.239783, 1.82795
2022-12-14 16:27:37.239783, 1.79374
2022-12-14 16:27:37.273033, 1.75464
2022-12-14 16:27:37.273382, 1.73020
2022-12-14 16:27:37.306771, 1.71554
2022-12-14 16:27:37.307014, 1.69599
2022-12-14 16:27:37.307014, 1.66666
2022-12-14 16:27:37.340117, 1.65689
2022-12-14 16:27:37.340412, 1.63245
2022-12-14 16:27:37.340975, 1.62267
2022-12-14 16:27:37.373675, 1.60312
2022-12-14 16:27:37.374020, 1.59824
2022-12-14 16:27:37.407207, 1.61779
2022-12-14 16:27:37.407450, 1.61290
2022-12-14 16:27:37.408051, 1.60312
2022-12-14 16:27:37.440779, 1.60801
2022-12-14 16:27:37.440779, 1.60801
2022-12-14 16:27:37.441782, 1.64222
2022-12-14 16:27:37.473579, 1.59824
2022-12-14 16:27:37.474576, 1.58846
2022-12-14 16:27:37.507947, 1.57869
2022-12-14 16:27:37.508188, 1.57380
2022-12-14 16:27:37.508796, 1.54936
2022-12-14 16:27:37.541584, 1.53470
2022-12-14 16:27:37.541881, 1.52003
2022-12-14 16:27:37.541881, 1.51515
2022-12-14 16:27:37.574913, 1.51515
2022-12-14 16:27:37.575422, 1.48582
2022-12-14 16:27:37.608463, 1.47605
2022-12-14 16:27:37.608710, 1.47116
2022-12-14 16:27:37.609177, 1.46627
2022-12-14 16:27:37.642007, 1.45161
2022-12-14 16:27:37.642007, 1.44672
2022-12-14 16:27:37.642956, 1.45161
2022-12-14 16:27:37.675514, 1.44183
2022-12-14 16:27:37.675863, 1.44183
2022-12-14 16:27:37.709069, 1.43695
2022-12-14 16:27:37.709477, 1.44183
2022-12-14 16:27:37.710482, 1.43206
2022-12-14 16:27:37.741674, 1.43206
2022-12-14 16:27:37.742681, 1.42228
2022-12-14 16:27:37.742681, 1.43206
2022-12-14 16:27:37.775550, 1.43695
2022-12-14 16:27:37.775550, 1.42228
2022-12-14 16:27:37.808282, 1.42228
2022-12-14 16:27:37.809278, 1.43206
2022-12-14 16:27:37.810276, 1.48093
2022-12-14 16:27:37.843028, 1.48582
2022-12-14 16:27:37.843028, 1.55425
2022-12-14 16:27:37.844046, 1.63734
2022-12-14 16:27:37.876852, 1.72043
2022-12-14 16:27:37.877201, 1.77908
2022-12-14 16:27:37.910383, 1.83284
2022-12-14 16:27:37.910672, 1.87194
2022-12-14 16:27:37.910672, 1.88172
2022-12-14 16:27:37.943795, 1.87194
2022-12-14 16:27:37.944091, 1.88660
2022-12-14 16:27:37.944564, 1.82795
2022-12-14 16:27:37.977351, 1.79863
2022-12-14 16:27:37.977698, 1.75953
2022-12-14 16:27:38.010778, 1.73020
2022-12-14 16:27:38.010778, 1.70576
2022-12-14 16:27:38.011779, 1.69110
2022-12-14 16:27:38.043780, 1.65689
2022-12-14 16:27:38.043780, 1.64222
2022-12-14 16:27:38.044805, 1.63245
2022-12-14 16:27:38.077686, 1.60801
2022-12-14 16:27:38.077686, 1.59335
2022-12-14 16:27:38.111266, 1.57869
2022-12-14 16:27:38.111266, 1.57869
2022-12-14 16:27:38.112131, 1.57869
2022-12-14 16:27:38.144892, 1.57869
2022-12-14 16:27:38.145189, 1.58357
2022-12-14 16:27:38.145794, 1.60801
2022-12-14 16:27:38.178406, 1.59335
2022-12-14 16:27:38.178406, 1.58846
2022-12-14 16:27:38.212059, 1.58357
2022-12-14 16:27:38.212306, 1.57869
2022-12-14 16:27:38.212306, 1.60801
2022-12-14 16:27:38.245556, 1.55913
2022-12-14 16:27:38.245852, 1.53958
2022-12-14 16:27:38.246377, 1.52003
2022-12-14 16:27:38.279095, 1.52003
2022-12-14 16:27:38.279484, 1.50537
2022-12-14 16:27:38.312641, 1.49560
2022-12-14 16:27:38.312923, 1.48093
2022-12-14 16:27:38.312923, 1.47605
2022-12-14 16:27:38.346205, 1.46138
2022-12-14 16:27:38.346205, 1.48093
2022-12-14 16:27:38.347208, 1.45161
2022-12-14 16:27:38.378862, 1.44183
2022-12-14 16:27:38.379870, 1.43206
2022-12-14 16:27:38.412601, 1.42717
2022-12-14 16:27:38.412601, 1.43206
2022-12-14 16:27:38.413300, 1.43206
2022-12-14 16:27:38.446767, 1.42228
2022-12-14 16:27:38.447061, 1.42228
2022-12-14 16:27:38.447657, 1.41739
2022-12-14 16:27:38.480248, 1.42717
2022-12-14 16:27:38.480591, 1.41251
2022-12-14 16:27:38.513884, 1.41251
2022-12-14 16:27:38.514128, 1.41739
2022-12-14 16:27:38.514128, 1.43206
2022-12-14 16:27:38.547336, 1.41739
2022-12-14 16:27:38.547631, 1.41251
2022-12-14 16:27:38.547631, 1.40762
2022-12-14 16:27:38.580976, 1.41739
2022-12-14 16:27:38.581327, 1.42717
2022-12-14 16:27:38.614438, 1.45161
2022-12-14 16:27:38.614680, 1.51026
2022-12-14 16:27:38.615236, 1.57380
2022-12-14 16:27:38.648107, 1.65200
2022-12-14 16:27:38.648401, 1.72043
2022-12-14 16:27:38.648952, 1.78885
2022-12-14 16:27:38.681428, 1.84750
2022-12-14 16:27:38.681428, 1.88172
2022-12-14 16:27:38.714713, 1.87683
2022-12-14 16:27:38.714713, 1.87683
2022-12-14 16:27:38.715720, 1.88660
2022-12-14 16:27:38.747435, 1.83284
2022-12-14 16:27:38.748441, 1.79374
2022-12-14 16:27:38.748441, 1.77419
2022-12-14 16:27:38.781977, 1.74975
2022-12-14 16:27:38.782327, 1.73020
2022-12-14 16:27:38.815594, 1.70576
2022-12-14 16:27:38.815839, 1.69110
2022-12-14 16:27:38.816487, 1.67644
2022-12-14 16:27:38.849199, 1.66177
2022-12-14 16:27:38.849494, 1.63734
2022-12-14 16:27:38.849494, 1.65200
2022-12-14 16:27:38.882754, 1.61779
2022-12-14 16:27:38.883101, 1.60801
2022-12-14 16:27:38.916303, 1.59824
2022-12-14 16:27:38.916548, 1.60312
2022-12-14 16:27:38.916548, 1.61290
2022-12-14 16:27:38.949799, 1.63734
2022-12-14 16:27:38.949799, 1.62756
2022-12-14 16:27:38.950631, 1.61290
2022-12-14 16:27:38.983378, 1.60801
2022-12-14 16:27:38.983729, 1.60312
2022-12-14 16:27:39.017045, 1.58846
2022-12-14 16:27:39.017291, 1.57380
2022-12-14 16:27:39.017291, 1.59824
2022-12-14 16:27:39.050280, 1.56402
2022-12-14 16:27:39.050280, 1.53958
2022-12-14 16:27:39.051287, 1.52492
2022-12-14 16:27:39.083138, 1.52003
2022-12-14 16:27:39.083138, 1.53958
2022-12-14 16:27:39.117246, 1.49560
2022-12-14 16:27:39.117519, 1.48093
2022-12-14 16:27:39.118192, 1.47605
2022-12-14 16:27:39.150788, 1.48093
2022-12-14 16:27:39.151084, 1.46627
2022-12-14 16:27:39.151084, 1.45650
2022-12-14 16:27:39.184348, 1.45161
2022-12-14 16:27:39.184693, 1.45650
2022-12-14 16:27:39.217970, 1.47116
2022-12-14 16:27:39.217970, 1.44183
2022-12-14 16:27:39.218972, 1.43695
2022-12-14 16:27:39.251594, 1.44183
2022-12-14 16:27:39.251882, 1.43695
2022-12-14 16:27:39.252883, 1.43206
2022-12-14 16:27:39.285144, 1.43206
2022-12-14 16:27:39.285486, 1.44183
2022-12-14 16:27:39.318731, 1.43206
2022-12-14 16:27:39.318731, 1.42717
2022-12-14 16:27:39.319731, 1.43206
2022-12-14 16:27:39.352242, 1.43695
2022-12-14 16:27:39.352242, 1.45650
2022-12-14 16:27:39.353222, 1.42717
2022-12-14 16:27:39.385715, 1.42717
2022-12-14 16:27:39.386717, 1.43695
2022-12-14 16:27:39.418494, 1.44672
2022-12-14 16:27:39.418494, 1.46627
2022-12-14 16:27:39.419502, 1.52003
2022-12-14 16:27:39.452548, 1.58357
2022-12-14 16:27:39.453550, 1.66177
2022-12-14 16:27:39.453550, 1.73020
2022-12-14 16:27:39.486023, 1.79863
2022-12-14 16:27:39.487025, 1.85239
2022-12-14 16:27:39.519491, 1.88172
2022-12-14 16:27:39.519491, 1.88660
2022-12-14 16:27:39.520527, 1.88660
2022-12-14 16:27:39.552850, 1.86705
2022-12-14 16:27:39.553884, 1.84750
2022-12-14 16:27:39.553884, 1.81329
2022-12-14 16:27:39.586216, 1.78885
2022-12-14 16:27:39.587218, 1.76930
2022-12-14 16:27:39.619586, 1.77908
2022-12-14 16:27:39.619586, 1.71554
2022-12-14 16:27:39.620589, 1.70087
2022-12-14 16:27:39.652953, 1.69110
2022-12-14 16:27:39.653955, 1.68132
2022-12-14 16:27:39.653955, 1.68621
2022-12-14 16:27:39.686323, 1.63734
2022-12-14 16:27:39.687329, 1.63734
2022-12-14 16:27:39.720144, 1.63245
2022-12-14 16:27:39.721148, 1.62267
2022-12-14 16:27:39.721148, 1.62267
2022-12-14 16:27:39.753934, 1.62756
2022-12-14 16:27:39.753934, 1.63734
2022-12-14 16:27:39.753934, 1.63245
2022-12-14 16:27:39.787406, 1.63734
2022-12-14 16:27:39.787406, 1.63245
2022-12-14 16:27:39.821017, 1.62756
2022-12-14 16:27:39.821315, 1.61290
2022-12-14 16:27:39.821315, 1.60312
2022-12-14 16:27:39.854633, 1.59335
2022-12-14 16:27:39.854633, 1.58357
2022-12-14 16:27:39.855634, 1.57380
2022-12-14 16:27:39.888085, 1.55425
2022-12-14 16:27:39.888577, 1.54936
2022-12-14 16:27:39.921421, 1.54447
2022-12-14 16:27:39.921991, 1.52981
2022-12-14 16:27:39.921991, 1.53470
2022-12-14 16:27:39.954837, 1.51026
2022-12-14 16:27:39.955410, 1.51026
2022-12-14 16:27:39.955410, 1.49560
2022-12-14 16:27:39.988835, 1.50048
2022-12-14 16:27:39.988835, 1.49560
2022-12-14 16:27:40.021804, 1.49071
2022-12-14 16:27:40.021804, 1.48582
2022-12-14 16:27:40.022791, 1.51026
2022-12-14 16:27:40.056051, 1.48582
2022-12-14 16:27:40.056434, 1.48582
2022-12-14 16:27:40.056434, 1.48093
2022-12-14 16:27:40.089734, 1.47605
2022-12-14 16:27:40.090083, 1.49071
2022-12-14 16:27:40.122682, 1.48582
2022-12-14 16:27:40.123324, 1.48582
2022-12-14 16:27:40.123324, 1.47605
2022-12-14 16:27:40.156694, 1.48093
2022-12-14 16:27:40.156990, 1.51026
2022-12-14 16:27:40.156990, 1.49071
2022-12-14 16:27:40.190077, 1.48582
2022-12-14 16:27:40.190077, 1.48093
2022-12-14 16:27:40.223838, 1.49071
2022-12-14 16:27:40.224081, 1.50048
2022-12-14 16:27:40.224081, 1.48582
2022-12-14 16:27:40.257211, 1.51026
2022-12-14 16:27:40.257211, 1.54936
2022-12-14 16:27:40.258207, 1.60801
2022-12-14 16:27:40.290823, 1.67155
2022-12-14 16:27:40.290823, 1.73509
2022-12-14 16:27:40.324286, 1.81818
2022-12-14 16:27:40.324532, 1.84750
2022-12-14 16:27:40.324532, 1.86705
2022-12-14 16:27:40.357895, 1.88660
2022-12-14 16:27:40.357895, 1.89149
2022-12-14 16:27:40.358851, 1.89149
2022-12-14 16:27:40.391449, 1.87194
2022-12-14 16:27:40.391794, 1.83773
2022-12-14 16:27:40.424909, 1.81818
2022-12-14 16:27:40.425192, 1.79374
2022-12-14 16:27:40.425757, 1.76441
2022-12-14 16:27:40.458432, 1.74486
2022-12-14 16:27:40.458728, 1.73020
2022-12-14 16:27:40.458728, 1.72531
2022-12-14 16:27:40.491843, 1.69599
2022-12-14 16:27:40.492394, 1.68132
2022-12-14 16:27:40.524572, 1.69599
2022-12-14 16:27:40.525579, 1.66666
2022-12-14 16:27:40.525579, 1.68621
2022-12-14 16:27:40.557909, 1.65200
2022-12-14 16:27:40.558823, 1.65689
2022-12-14 16:27:40.558823, 1.66666
2022-12-14 16:27:40.592481, 1.66666
2022-12-14 16:27:40.592481, 1.66666
2022-12-14 16:27:40.626104, 1.67155
2022-12-14 16:27:40.626349, 1.67644
2022-12-14 16:27:40.627351, 1.70087
2022-12-14 16:27:40.659789, 1.67155
2022-12-14 16:27:40.660085, 1.65689
2022-12-14 16:27:40.661087, 1.65200
2022-12-14 16:27:40.692714, 1.63734
2022-12-14 16:27:40.692714, 1.62267
2022-12-14 16:27:40.726858, 1.61779
2022-12-14 16:27:40.727104, 1.61290
2022-12-14 16:27:40.727104, 1.59824
2022-12-14 16:27:40.760239, 1.58357
2022-12-14 16:27:40.760534, 1.60312
2022-12-14 16:27:40.761088, 1.58357
2022-12-14 16:27:40.793826, 1.56402
2022-12-14 16:27:40.794856, 1.55425
2022-12-14 16:27:40.826791, 1.54936
2022-12-14 16:27:40.826791, 1.56402
2022-12-14 16:27:40.826791, 1.54936
2022-12-14 16:27:40.860877, 1.53470
2022-12-14 16:27:40.861173, 1.53470
2022-12-14 16:27:40.861173, 1.56891
2022-12-14 16:27:40.894546, 1.54447
2022-12-14 16:27:40.894937, 1.52492
2022-12-14 16:27:40.928047, 1.52492
2022-12-14 16:27:40.928290, 1.53470
2022-12-14 16:27:40.928897, 1.53958
2022-12-14 16:27:40.961591, 1.52492
2022-12-14 16:27:40.961885, 1.52492
2022-12-14 16:27:40.961885, 1.52981
2022-12-14 16:27:40.994974, 1.52492
2022-12-14 16:27:40.995323, 1.52003
2022-12-14 16:27:41.028640, 1.55425
2022-12-14 16:27:41.028885, 1.53470
2022-12-14 16:27:41.029445, 1.53958
2022-12-14 16:27:41.062008, 1.55425
2022-12-14 16:27:41.062008, 1.59824
2022-12-14 16:27:41.063009, 1.66177
2022-12-14 16:27:41.095709, 1.73509
2022-12-14 16:27:41.096712, 1.78396
2022-12-14 16:27:41.127813, 1.82795
2022-12-14 16:27:41.128849, 1.87194
2022-12-14 16:27:41.128849, 1.89638
2022-12-14 16:27:41.161594, 1.89149
2022-12-14 16:27:41.162391, 1.88660
2022-12-14 16:27:41.162391, 1.87683
2022-12-14 16:27:41.195242, 1.86705
2022-12-14 16:27:41.196240, 1.84261
2022-12-14 16:27:41.229750, 1.80351
2022-12-14 16:27:41.229993, 1.78885
2022-12-14 16:27:41.229993, 1.76930
2022-12-14 16:27:41.263265, 1.73998
2022-12-14 16:27:41.263265, 1.72531
2022-12-14 16:27:41.264203, 1.71065
2022-12-14 16:27:41.296853, 1.69599
2022-12-14 16:27:41.296853, 1.67155
2022-12-14 16:27:41.330209, 1.67155
2022-12-14 16:27:41.330209, 1.65689
2022-12-14 16:27:41.331211, 1.66177
2022-12-14 16:27:41.363915, 1.65200
2022-12-14 16:27:41.363915, 1.65689
2022-12-14 16:27:41.364938, 1.66666
2022-12-14 16:27:41.397288, 1.67644
2022-12-14 16:27:41.397288, 1.70576
2022-12-14 16:27:41.430726, 1.68621
2022-12-14 16:27:41.431733, 1.68621
2022-12-14 16:27:41.431733, 1.67644
2022-12-14 16:27:41.463470, 1.66177
2022-12-14 16:27:41.464476, 1.65200
2022-12-14 16:27:41.464476, 1.64222
2022-12-14 16:27:41.497787, 1.63734
2022-12-14 16:27:41.497787, 1.61779
2022-12-14 16:27:41.531357, 1.60801
2022-12-14 16:27:41.531600, 1.62756
2022-12-14 16:27:41.531600, 1.59824
2022-12-14 16:27:41.564860, 1.57869
2022-12-14 16:27:41.565155, 1.56891
2022-12-14 16:27:41.565155, 1.56402
2022-12-14 16:27:41.598361, 1.56402
2022-12-14 16:27:41.598706, 1.56402
2022-12-14 16:27:41.631991, 1.53470
2022-12-14 16:27:41.632290, 1.53470
2022-12-14 16:27:41.632799, 1.53470
2022-12-14 16:27:41.665499, 1.54447
2022-12-14 16:27:41.665842, 1.52003
2022-12-14 16:27:41.666511, 1.52003
2022-12-14 16:27:41.698936, 1.52492
2022-12-14 16:27:41.698936, 1.52492
2022-12-14 16:27:41.732568, 1.52003
2022-12-14 16:27:41.733574, 1.51026
2022-12-14 16:27:41.733574, 1.51515
2022-12-14 16:27:41.766132, 1.51515
2022-12-14 16:27:41.766431, 1.50537
2022-12-14 16:27:41.766431, 1.50537
2022-12-14 16:27:41.798984, 1.52003
2022-12-14 16:27:41.799981, 1.52492
2022-12-14 16:27:41.832532, 1.53958
2022-12-14 16:27:41.832532, 1.58357
2022-12-14 16:27:41.833531, 1.64711
2022-12-14 16:27:41.865736, 1.71554
2022-12-14 16:27:41.866735, 1.77419
2022-12-14 16:27:41.866735, 1.81818
2022-12-14 16:27:41.900247, 1.86705
2022-12-14 16:27:41.900593, 1.89638
2022-12-14 16:27:41.933782, 1.89149
2022-12-14 16:27:41.934076, 1.88660
2022-12-14 16:27:41.934076, 1.88172
2022-12-14 16:27:41.967203, 1.87683
2022-12-14 16:27:41.967203, 1.83284
2022-12-14 16:27:41.968244, 1.80840
2022-12-14 16:27:42.000323, 1.78885
2022-12-14 16:27:42.000323, 1.76930
2022-12-14 16:27:42.033485, 1.74486
2022-12-14 16:27:42.033485, 1.72531
2022-12-14 16:27:42.034494, 1.71065
2022-12-14 16:27:42.068017, 1.70087
2022-12-14 16:27:42.068310, 1.67644
2022-12-14 16:27:42.068310, 1.65689
2022-12-14 16:27:42.101370, 1.67644
2022-12-14 16:27:42.101716, 1.65689
2022-12-14 16:27:42.135004, 1.64222
2022-12-14 16:27:42.135243, 1.63734
2022-12-14 16:27:42.136245, 1.64222
2022-12-14 16:27:42.168541, 1.65200
2022-12-14 16:27:42.168830, 1.64711
2022-12-14 16:27:42.169345, 1.64222
2022-12-14 16:27:42.201997, 1.65689
2022-12-14 16:27:42.203001, 1.65200
2022-12-14 16:27:42.235512, 1.64222
2022-12-14 16:27:42.235830, 1.62267
2022-12-14 16:27:42.236833, 1.61779
2022-12-14 16:27:42.268724, 1.61290
2022-12-14 16:27:42.268724, 1.60312
2022-12-14 16:27:42.268724, 1.58357
2022-12-14 16:27:42.302628, 1.60801
2022-12-14 16:27:42.302972, 1.57869
2022-12-14 16:27:42.336098, 1.56402
2022-12-14 16:27:42.336098, 1.54447
2022-12-14 16:27:42.337101, 1.53958
2022-12-14 16:27:42.369689, 1.54936
2022-12-14 16:27:42.369985, 1.52492
2022-12-14 16:27:42.370986, 1.51515
2022-12-14 16:27:42.403323, 1.51026
2022-12-14 16:27:42.404324, 1.52492
2022-12-14 16:27:42.436846, 1.50537
2022-12-14 16:27:42.436846, 1.48582
2022-12-14 16:27:42.437847, 1.48093
2022-12-14 16:27:42.470219, 1.49071
2022-12-14 16:27:42.471221, 1.49560
2022-12-14 16:27:42.471221, 1.48582
2022-12-14 16:27:42.503891, 1.48093
2022-12-14 16:27:42.503891, 1.49071
2022-12-14 16:27:42.537294, 1.49560
2022-12-14 16:27:42.538302, 1.48093
2022-12-14 16:27:42.538302, 1.48093
2022-12-14 16:27:42.570078, 1.48582
2022-12-14 16:27:42.570078, 1.50048
2022-12-14 16:27:42.571106, 1.54447
2022-12-14 16:27:42.603908, 1.57380
2022-12-14 16:27:42.604910, 1.64222
2022-12-14 16:27:42.637322, 1.71554
2022-12-14 16:27:42.637322, 1.77419
2022-12-14 16:27:42.638360, 1.82795
2022-12-14 16:27:42.670685, 1.87194
2022-12-14 16:27:42.671687, 1.89638
2022-12-14 16:27:42.671687, 1.89149
2022-12-14 16:27:42.703965, 1.89149
2022-12-14 16:27:42.704968, 1.88172
2022-12-14 16:27:42.737347, 1.85239
2022-12-14 16:27:42.738351, 1.82306
2022-12-14 16:27:42.738351, 1.79374
2022-12-14 16:27:42.770798, 1.77419
2022-12-14 16:27:42.771802, 1.75953
2022-12-14 16:27:42.772797, 1.73020
2022-12-14 16:27:42.805133, 1.70576
2022-12-14 16:27:42.805133, 1.69599
2022-12-14 16:27:42.838441, 1.68621
2022-12-14 16:27:42.838441, 1.65689
2022-12-14 16:27:42.839438, 1.64711
2022-12-14 16:27:42.872007, 1.63734
2022-12-14 16:27:42.872715, 1.64222
2022-12-14 16:27:42.872715, 1.63245
2022-12-14 16:27:42.905010, 1.66666
2022-12-14 16:27:42.905989, 1.64222
2022-12-14 16:27:42.938431, 1.65200
2022-12-14 16:27:42.939410, 1.65200
2022-12-14 16:27:42.939818, 1.64711
2022-12-14 16:27:42.972776, 1.64711
2022-12-14 16:27:42.972776, 1.66666
2022-12-14 16:27:42.973775, 1.63734
2022-12-14 16:27:43.006529, 1.62267
2022-12-14 16:27:43.007169, 1.61779
2022-12-14 16:27:43.040029, 1.60801
2022-12-14 16:27:43.040029, 1.59335
2022-12-14 16:27:43.041049, 1.57869
2022-12-14 16:27:43.073681, 1.56891
2022-12-14 16:27:43.073681, 1.56891
2022-12-14 16:27:43.074596, 1.55425
2022-12-14 16:27:43.107099, 1.53958
2022-12-14 16:27:43.107099, 1.52981
2022-12-14 16:27:43.140504, 1.52492
2022-12-14 16:27:43.140753, 1.52981
2022-12-14 16:27:43.141195, 1.50537
2022-12-14 16:27:43.174006, 1.50048
2022-12-14 16:27:43.174307, 1.50537
2022-12-14 16:27:43.174307, 1.52492
2022-12-14 16:27:43.207922, 1.50048
2022-12-14 16:27:43.208270, 1.48582
2022-12-14 16:27:43.241439, 1.49560
2022-12-14 16:27:43.241683, 1.49560
2022-12-14 16:27:43.241683, 1.51026
2022-12-14 16:27:43.274923, 1.48582
2022-12-14 16:27:43.275214, 1.48582
2022-12-14 16:27:43.275214, 1.48582
2022-12-14 16:27:43.308465, 1.48093
2022-12-14 16:27:43.308810, 1.50537
2022-12-14 16:27:43.342044, 1.51515
2022-12-14 16:27:43.342044, 1.55425
2022-12-14 16:27:43.343046, 1.61290
2022-12-14 16:27:43.375584, 1.68621
2022-12-14 16:27:43.376080, 1.76441
2022-12-14 16:27:43.377083, 1.83284
2022-12-14 16:27:43.409120, 1.87683
2022-12-14 16:27:43.409472, 1.91104
2022-12-14 16:27:43.442657, 1.93059
2022-12-14 16:27:43.442901, 1.93548
2022-12-14 16:27:43.442901, 1.91593
2022-12-14 16:27:43.476238, 1.92570
2022-12-14 16:27:43.476564, 1.86705
2022-12-14 16:27:43.476564, 1.84750
2022-12-14 16:27:43.509787, 1.80840
2022-12-14 16:27:43.510133, 1.78396
2022-12-14 16:27:43.543175, 1.76441
2022-12-14 16:27:43.543420, 1.74975
2022-12-14 16:27:43.543899, 1.72531
2022-12-14 16:27:43.576826, 1.73509
2022-12-14 16:27:43.577122, 1.69110
2022-12-14 16:27:43.577122, 1.68132
2022-12-14 16:27:43.610241, 1.65689
2022-12-14 16:27:43.610589, 1.64711
2022-12-14 16:27:43.642954, 1.65200
2022-12-14 16:27:43.642954, 1.66177
2022-12-14 16:27:43.643963, 1.67155
2022-12-14 16:27:43.677288, 1.66666
2022-12-14 16:27:43.677594, 1.66666
2022-12-14 16:27:43.677594, 1.67644
2022-12-14 16:27:43.710844, 1.67155
2022-12-14 16:27:43.711192, 1.66666
2022-12-14 16:27:43.744390, 1.66177
2022-12-14 16:27:43.744635, 1.66177
2022-12-14 16:27:43.744635, 1.67155
2022-12-14 16:27:43.778049, 1.63734
2022-12-14 16:27:43.778348, 1.62267
2022-12-14 16:27:43.778348, 1.61779
2022-12-14 16:27:43.811478, 1.60312
2022-12-14 16:27:43.811837, 1.58846
2022-12-14 16:27:43.845048, 1.61290
2022-12-14 16:27:43.845291, 1.57869
2022-12-14 16:27:43.845853, 1.56891
2022-12-14 16:27:43.878482, 1.55425
2022-12-14 16:27:43.878482, 1.54936
2022-12-14 16:27:43.879483, 1.54936
2022-12-14 16:27:43.911923, 1.57380
2022-12-14 16:27:43.912308, 1.54936
2022-12-14 16:27:43.944804, 1.52981
2022-12-14 16:27:43.945258, 1.52981
2022-12-14 16:27:43.945258, 1.53470
2022-12-14 16:27:43.978993, 1.52003
2022-12-14 16:27:43.979294, 1.52981
2022-12-14 16:27:43.979294, 1.52981
2022-12-14 16:27:44.012648, 1.52981
2022-12-14 16:27:44.012994, 1.52003
2022-12-14 16:27:44.046115, 1.55425
2022-12-14 16:27:44.046115, 1.54447
2022-12-14 16:27:44.047116, 1.57380
2022-12-14 16:27:44.079583, 1.61290
2022-12-14 16:27:44.079583, 1.68621
2022-12-14 16:27:44.080454, 1.76930
2022-12-14 16:27:44.113287, 1.85728
2022-12-14 16:27:44.113633, 1.89149
2022-12-14 16:27:44.146780, 1.95014
2022-12-14 16:27:44.147023, 1.96480
2022-12-14 16:27:44.147546, 1.97458
2022-12-14 16:27:44.180310, 1.95503
2022-12-14 16:27:44.180310, 1.93548
2022-12-14 16:27:44.181311, 1.91593
2022-12-14 16:27:44.213745, 1.91593
2022-12-14 16:27:44.214786, 1.84750
2022-12-14 16:27:44.246738, 1.81818
2022-12-14 16:27:44.246738, 1.79374
2022-12-14 16:27:44.247735, 1.78396
2022-12-14 16:27:44.280967, 1.75464
2022-12-14 16:27:44.281261, 1.74975
2022-12-14 16:27:44.281261, 1.71554
2022-12-14 16:27:44.314532, 1.71065
2022-12-14 16:27:44.314880, 1.68621
2022-12-14 16:27:44.348119, 1.68132
2022-12-14 16:27:44.348363, 1.68132
2022-12-14 16:27:44.348363, 1.69110
2022-12-14 16:27:44.381654, 1.69110
2022-12-14 16:27:44.381654, 1.69599
2022-12-14 16:27:44.382655, 1.70576
2022-12-14 16:27:44.415234, 1.71065
2022-12-14 16:27:44.415615, 1.69599
2022-12-14 16:27:44.448616, 1.69599
2022-12-14 16:27:44.448898, 1.69110
2022-12-14 16:27:44.449423, 1.72043
2022-12-14 16:27:44.482002, 1.68621
2022-12-14 16:27:44.483032, 1.66177
2022-12-14 16:27:44.483032, 1.64711
2022-12-14 16:27:44.514657, 1.64711
2022-12-14 16:27:44.515378, 1.63245
2022-12-14 16:27:44.549149, 1.61290
2022-12-14 16:27:44.549149, 1.61779
2022-12-14 16:27:44.550053, 1.60312
2022-12-14 16:27:44.582695, 1.58846
2022-12-14 16:27:44.582695, 1.57869
2022-12-14 16:27:44.583714, 1.57380
2022-12-14 16:27:44.616359, 1.57869
2022-12-14 16:27:44.616744, 1.56402
2022-12-14 16:27:44.649917, 1.55425
2022-12-14 16:27:44.650159, 1.55425
2022-12-14 16:27:44.650631, 1.55425
2022-12-14 16:27:44.683356, 1.55913
2022-12-14 16:27:44.683652, 1.54447
2022-12-14 16:27:44.683652, 1.54447
2022-12-14 16:27:44.716854, 1.55425
2022-12-14 16:27:44.716854, 1.58846
2022-12-14 16:27:44.749024, 1.57869
2022-12-14 16:27:44.750023, 1.62756
2022-12-14 16:27:44.750023, 1.69599
2022-12-14 16:27:44.782845, 1.77419
2022-12-14 16:27:44.783852, 1.83284
2022-12-14 16:27:44.783852, 1.89638
2022-12-14 16:27:44.817206, 1.94037
2022-12-14 16:27:44.817548, 1.95992
2022-12-14 16:27:44.850890, 1.95992
2022-12-14 16:27:44.851129, 1.95503
2022-12-14 16:27:44.851129, 1.95503
2022-12-14 16:27:44.884474, 1.93059
2022-12-14 16:27:44.884765, 1.87194
2022-12-14 16:27:44.884765, 1.84750
2022-12-14 16:27:44.917981, 1.82795
2022-12-14 16:27:44.918322, 1.80351
2022-12-14 16:27:44.951532, 1.77419
2022-12-14 16:27:44.951769, 1.75953
2022-12-14 16:27:44.952284, 1.75953
2022-12-14 16:27:44.985187, 1.72043
2022-12-14 16:27:44.985477, 1.69599
2022-12-14 16:27:44.985477, 1.68621
2022-12-14 16:27:45.018702, 1.68621
2022-12-14 16:27:45.019091, 1.69110
2022-12-14 16:27:45.052116, 1.68621
2022-12-14 16:27:45.053070, 1.70576
2022-12-14 16:27:45.053070, 1.70087
2022-12-14 16:27:45.085430, 1.70576
2022-12-14 16:27:45.085430, 1.70087
2022-12-14 16:27:45.086439, 1.70087
2022-12-14 16:27:45.117806, 1.70087
2022-12-14 16:27:45.118814, 1.71065
2022-12-14 16:27:45.152709, 1.68621
2022-12-14 16:27:45.152949, 1.67155
2022-12-14 16:27:45.152949, 1.66177
2022-12-14 16:27:45.186157, 1.64711
2022-12-14 16:27:45.186451, 1.62756
2022-12-14 16:27:45.186451, 1.61290
2022-12-14 16:27:45.219881, 1.60801
2022-12-14 16:27:45.220231, 1.61779
2022-12-14 16:27:45.253297, 1.58846
2022-12-14 16:27:45.253540, 1.57380
2022-12-14 16:27:45.254016, 1.56891
2022-12-14 16:27:45.286890, 1.56891
2022-12-14 16:27:45.287185, 1.55425
2022-12-14 16:27:45.288186, 1.54936
2022-12-14 16:27:45.320525, 1.54447
2022-12-14 16:27:45.320525, 1.54447
2022-12-14 16:27:45.352903, 1.53470
2022-12-14 16:27:45.353909, 1.55425
2022-12-14 16:27:45.353909, 1.53958
2022-12-14 16:27:45.387382, 1.55913
2022-12-14 16:27:45.387678, 1.58357
2022-12-14 16:27:45.388679, 1.66666
2022-12-14 16:27:45.420965, 1.71065
2022-12-14 16:27:45.420965, 1.79374
2022-12-14 16:27:45.454561, 1.86705
2022-12-14 16:27:45.454561, 1.94525
2022-12-14 16:27:45.455562, 1.95503
2022-12-14 16:27:45.487997, 1.98924
2022-12-14 16:27:45.489005, 2.01857
2022-12-14 16:27:45.489005, 1.96480
2022-12-14 16:27:45.521549, 1.94037
2022-12-14 16:27:45.521549, 1.91593
2022-12-14 16:27:45.555123, 1.88660
2022-12-14 16:27:45.556127, 1.84750
2022-12-14 16:27:45.556127, 1.82306
2022-12-14 16:27:45.588591, 1.82795
2022-12-14 16:27:45.588591, 1.78396
2022-12-14 16:27:45.589594, 1.74486
2022-12-14 16:27:45.621835, 1.73020
2022-12-14 16:27:45.622842, 1.71554
2022-12-14 16:27:45.654478, 1.70087
2022-12-14 16:27:45.655486, 1.67644
2022-12-14 16:27:45.655486, 1.70087
2022-12-14 16:27:45.687894, 1.67644
2022-12-14 16:27:45.688890, 1.68132
2022-12-14 16:27:45.688890, 1.67644
2022-12-14 16:27:45.721758, 1.67644
2022-12-14 16:27:45.722761, 1.70576
2022-12-14 16:27:45.755162, 1.69110
2022-12-14 16:27:45.756166, 1.67644
2022-12-14 16:27:45.756166, 1.67155
2022-12-14 16:27:45.788552, 1.66666
2022-12-14 16:27:45.789554, 1.65689
2022-12-14 16:27:45.789554, 1.64222
2022-12-14 16:27:45.822830, 1.62267
2022-12-14 16:27:45.822830, 1.60801
2022-12-14 16:27:45.856636, 1.60312
2022-12-14 16:27:45.856636, 1.58357
2022-12-14 16:27:45.857386, 1.57869
2022-12-14 16:27:45.890159, 1.56402
2022-12-14 16:27:45.890683, 1.55913
2022-12-14 16:27:45.890683, 1.54447
2022-12-14 16:27:45.922689, 1.52981
2022-12-14 16:27:45.923692, 1.54936
2022-12-14 16:27:45.957153, 1.52492
2022-12-14 16:27:45.957430, 1.51515
2022-12-14 16:27:45.957986, 1.51026
2022-12-14 16:27:45.990844, 1.52003
2022-12-14 16:27:45.991176, 1.51515
2022-12-14 16:27:45.991176, 1.50048
2022-12-14 16:27:46.024293, 1.50048
2022-12-14 16:27:46.024617, 1.53470
2022-12-14 16:27:46.057538, 1.52003
2022-12-14 16:27:46.058276, 1.53958
2022-12-14 16:27:46.058417, 1.59335
2022-12-14 16:27:46.090926, 1.70087
2022-12-14 16:27:46.091663, 1.77419
2022-12-14 16:27:46.091865, 1.85239
2022-12-14 16:27:46.124501, 1.91593
2022-12-14 16:27:46.124890, 1.96480
2022-12-14 16:27:46.158161, 2.00391
2022-12-14 16:27:46.158404, 2.00391
2022-12-14 16:27:46.159106, 1.98435
2022-12-14 16:27:46.191903, 1.96480
2022-12-14 16:27:46.191903, 1.94525
2022-12-14 16:27:46.192938, 1.90615
2022-12-14 16:27:46.225233, 1.86705
2022-12-14 16:27:46.225233, 1.84261
2022-12-14 16:27:46.258911, 1.84750
2022-12-14 16:27:46.258911, 1.80351
2022-12-14 16:27:46.259913, 1.80840
2022-12-14 16:27:46.292563, 1.75953
2022-12-14 16:27:46.292563, 1.74975
2022-12-14 16:27:46.293564, 1.72531
2022-12-14 16:27:46.325871, 1.70087
2022-12-14 16:27:46.325871, 1.68621
2022-12-14 16:27:46.359071, 1.68621
2022-12-14 16:27:46.359071, 1.68621
2022-12-14 16:27:46.360072, 1.67644
2022-12-14 16:27:46.392933, 1.71065
2022-12-14 16:27:46.392933, 1.70087
2022-12-14 16:27:46.393962, 1.69110
2022-12-14 16:27:46.426674, 1.68132
2022-12-14 16:27:46.427020, 1.67644
2022-12-14 16:27:46.460130, 1.67644
2022-12-14 16:27:46.460130, 1.68621
2022-12-14 16:27:46.461131, 1.64222
2022-12-14 16:27:46.493634, 1.62267
2022-12-14 16:27:46.493634, 1.61779
2022-12-14 16:27:46.494642, 1.60312
2022-12-14 16:27:46.527147, 1.57869
2022-12-14 16:27:46.527631, 1.56891
2022-12-14 16:27:46.560488, 1.55913
2022-12-14 16:27:46.560712, 1.54936
2022-12-14 16:27:46.561119, 1.52981
2022-12-14 16:27:46.594295, 1.52981
2022-12-14 16:27:46.594591, 1.52003
2022-12-14 16:27:46.594591, 1.52003
2022-12-14 16:27:46.627928, 1.51026
2022-12-14 16:27:46.628272, 1.50537
2022-12-14 16:27:46.661569, 1.49560
2022-12-14 16:27:46.661812, 1.50537
2022-12-14 16:27:46.661812, 1.52003
2022-12-14 16:27:46.695007, 1.49560
2022-12-14 16:27:46.695301, 1.49071
2022-12-14 16:27:46.695301, 1.49560
2022-12-14 16:27:46.728537, 1.50048
2022-12-14 16:27:46.728885, 1.49560
2022-12-14 16:27:46.762078, 1.52981
2022-12-14 16:27:46.762322, 1.58846
2022-12-14 16:27:46.762930, 1.66666
2022-12-14 16:27:46.795610, 1.74486
2022-12-14 16:27:46.795915, 1.84261
2022-12-14 16:27:46.796441, 1.92570
2022-12-14 16:27:46.828874, 1.97947
2022-12-14 16:27:46.829898, 1.99902
2022-12-14 16:27:46.862688, 2.00391
2022-12-14 16:27:46.862929, 1.99902
2022-12-14 16:27:46.862929, 1.96969
2022-12-14 16:27:46.896278, 1.93059
2022-12-14 16:27:46.896573, 1.90127
2022-12-14 16:27:46.896573, 1.87194
2022-12-14 16:27:46.929859, 1.84261
2022-12-14 16:27:46.930211, 1.81329
2022-12-14 16:27:46.963250, 1.79374
2022-12-14 16:27:46.963495, 1.78396
2022-12-14 16:27:46.963972, 1.76930
2022-12-14 16:27:46.996957, 1.73509
2022-12-14 16:27:46.997252, 1.72043
2022-12-14 16:27:46.997252, 1.70576
2022-12-14 16:27:47.030338, 1.69599
2022-12-14 16:27:47.030686, 1.68132
2022-12-14 16:27:47.063881, 1.68132
2022-12-14 16:27:47.063881, 1.69110
2022-12-14 16:27:47.064884, 1.70087
2022-12-14 16:27:47.096218, 1.68621
2022-12-14 16:27:47.097243, 1.68621
2022-12-14 16:27:47.097243, 1.69110
2022-12-14 16:27:47.129999, 1.68132
2022-12-14 16:27:47.129999, 1.66666
2022-12-14 16:27:47.164491, 1.67155
2022-12-14 16:27:47.164734, 1.64711
2022-12-14 16:27:47.165736, 1.62756
2022-12-14 16:27:47.198056, 1.60801
2022-12-14 16:27:47.198351, 1.62267
2022-12-14 16:27:47.199352, 1.58846
2022-12-14 16:27:47.231649, 1.57380
2022-12-14 16:27:47.231994, 1.54936
2022-12-14 16:27:47.265266, 1.53958
2022-12-14 16:27:47.265555, 1.55913
2022-12-14 16:27:47.266159, 1.52981
2022-12-14 16:27:47.298794, 1.51515
2022-12-14 16:27:47.299120, 1.51026
2022-12-14 16:27:47.299120, 1.53470
2022-12-14 16:27:47.332161, 1.51026
2022-12-14 16:27:47.332510, 1.50048
2022-12-14 16:27:47.365683, 1.52003
2022-12-14 16:27:47.365926, 1.50537
2022-12-14 16:27:47.365926, 1.50048
2022-12-14 16:27:47.399236, 1.50048
2022-12-14 16:27:47.399236, 1.49560
2022-12-14 16:27:47.400197, 1.50048
2022-12-14 16:27:47.432151, 1.49560
2022-12-14 16:27:47.432151, 1.49071
2022-12-14 16:27:47.465992, 1.49071
2022-12-14 16:27:47.465992, 1.51515
2022-12-14 16:27:47.466895, 1.55913
2022-12-14 16:27:47.499722, 1.61779
2022-12-14 16:27:47.500020, 1.70576
2022-12-14 16:27:47.500618, 1.80840
2022-12-14 16:27:47.533316, 1.90127
2022-12-14 16:27:47.533662, 1.95992
2022-12-14 16:27:47.566875, 1.99902
2022-12-14 16:27:47.567120, 2.02346
2022-12-14 16:27:47.567645, 2.02834
2022-12-14 16:27:47.600468, 2.00391
2022-12-14 16:27:47.600789, 1.96969
2022-12-14 16:27:47.600789, 1.94525
2022-12-14 16:27:47.633939, 1.90615
2022-12-14 16:27:47.634325, 1.87194
2022-12-14 16:27:47.667497, 1.83284
2022-12-14 16:27:47.668255, 1.81329
2022-12-14 16:27:47.668255, 1.79863
2022-12-14 16:27:47.700797, 1.77419
2022-12-14 16:27:47.700797, 1.74975
2022-12-14 16:27:47.701804, 1.74975
2022-12-14 16:27:47.733988, 1.71554
2022-12-14 16:27:47.734306, 1.70087
2022-12-14 16:27:47.767964, 1.68621
2022-12-14 16:27:47.768203, 1.69110
2022-12-14 16:27:47.768203, 1.72043
2022-12-14 16:27:47.801521, 1.70576
2022-12-14 16:27:47.801813, 1.70087
2022-12-14 16:27:47.802408, 1.70087
2022-12-14 16:27:47.834949, 1.70576
2022-12-14 16:27:47.835298, 1.72531
2022-12-14 16:27:47.868563, 1.69110
2022-12-14 16:27:47.868563, 1.68132
2022-12-14 16:27:47.869563, 1.67155
2022-12-14 16:27:47.902230, 1.66177
2022-12-14 16:27:47.902527, 1.63734
2022-12-14 16:27:47.903046, 1.62267
2022-12-14 16:27:47.935724, 1.60801
2022-12-14 16:27:47.936069, 1.59335
2022-12-14 16:27:47.969347, 1.57380
2022-12-14 16:27:47.969618, 1.55913
2022-12-14 16:27:47.970124, 1.56402
2022-12-14 16:27:48.002837, 1.55425
2022-12-14 16:27:48.002837, 1.53470
2022-12-14 16:27:48.003839, 1.52492
2022-12-14 16:27:48.036203, 1.53470
2022-12-14 16:27:48.037210, 1.52492
2022-12-14 16:27:48.068981, 1.51515
2022-12-14 16:27:48.068981, 1.51026
2022-12-14 16:27:48.069788, 1.53470
2022-12-14 16:27:48.102615, 1.52003
2022-12-14 16:27:48.102615, 1.51026
2022-12-14 16:27:48.103572, 1.50537
2022-12-14 16:27:48.135873, 1.53958
2022-12-14 16:27:48.136873, 1.51515
2022-12-14 16:27:48.170405, 1.50048
2022-12-14 16:27:48.170649, 1.50048
2022-12-14 16:27:48.171255, 1.52003
2022-12-14 16:27:48.203956, 1.52492
2022-12-14 16:27:48.204254, 1.53958
2022-12-14 16:27:48.204254, 1.58357
2022-12-14 16:27:48.237580, 1.65689
2022-12-14 16:27:48.237980, 1.74975
2022-12-14 16:27:48.270970, 1.83284
2022-12-14 16:27:48.271676, 1.92082
2022-12-14 16:27:48.272679, 1.96480
2022-12-14 16:27:48.304493, 2.00391
2022-12-14 16:27:48.305503, 2.00391
2022-12-14 16:27:48.305503, 1.98435
2022-12-14 16:27:48.337843, 1.96969
2022-12-14 16:27:48.337843, 1.94037
2022-12-14 16:27:48.370941, 1.92082
2022-12-14 16:27:48.370941, 1.85239
2022-12-14 16:27:48.371562, 1.82306
2022-12-14 16:27:48.405072, 1.80351
2022-12-14 16:27:48.405072, 1.78885
2022-12-14 16:27:48.406073, 1.74975
2022-12-14 16:27:48.438664, 1.73998
2022-12-14 16:27:48.439012, 1.71554
2022-12-14 16:27:48.472115, 1.70087
2022-12-14 16:27:48.472359, 1.67155
2022-12-14 16:27:48.472359, 1.66666
2022-12-14 16:27:48.505778, 1.67644
2022-12-14 16:27:48.505778, 1.67644
2022-12-14 16:27:48.506812, 1.69110
2022-12-14 16:27:48.539106, 1.69599
2022-12-14 16:27:48.540108, 1.70087
2022-12-14 16:27:48.572626, 1.70087
2022-12-14 16:27:48.572626, 1.69599
2022-12-14 16:27:48.573632, 1.69599
2022-12-14 16:27:48.606171, 1.69110
2022-12-14 16:27:48.607207, 1.68621
2022-12-14 16:27:48.607207, 1.66177
2022-12-14 16:27:48.639730, 1.63734
2022-12-14 16:27:48.640737, 1.62756
2022-12-14 16:27:48.673113, 1.61779
2022-12-14 16:27:48.674149, 1.61290
2022-12-14 16:27:48.674149, 1.58357
2022-12-14 16:27:48.706461, 1.56891
2022-12-14 16:27:48.707471, 1.56891
2022-12-14 16:27:48.708465, 1.54936
2022-12-14 16:27:48.740007, 1.55913
2022-12-14 16:27:48.740007, 1.53470
2022-12-14 16:27:48.772918, 1.53470
2022-12-14 16:27:48.773920, 1.52003
2022-12-14 16:27:48.773920, 1.52981
2022-12-14 16:27:48.806563, 1.51515
2022-12-14 16:27:48.806563, 1.52003
2022-12-14 16:27:48.807583, 1.51515
2022-12-14 16:27:48.840590, 1.52981
2022-12-14 16:27:48.840590, 1.51515
2022-12-14 16:27:48.873071, 1.51515
2022-12-14 16:27:48.874073, 1.50537
2022-12-14 16:27:48.874073, 1.50048
2022-12-14 16:27:48.907464, 1.50537
2022-12-14 16:27:48.907464, 1.51026
2022-12-14 16:27:48.908462, 1.52003
2022-12-14 16:27:48.941143, 1.54936
2022-12-14 16:27:48.941665, 1.64222
2022-12-14 16:27:48.974211, 1.70576
2022-12-14 16:27:48.975209, 1.78396
2022-12-14 16:27:48.975209, 1.86705
2022-12-14 16:27:49.008547, 1.93548
2022-12-14 16:27:49.008547, 1.99413
2022-12-14 16:27:49.008547, 2.00391
2022-12-14 16:27:49.041913, 2.00879
2022-12-14 16:27:49.041913, 2.00879
2022-12-14 16:27:49.074441, 1.95503
2022-12-14 16:27:49.075437, 1.91593
2022-12-14 16:27:49.075437, 1.87194
2022-12-14 16:27:49.108686, 1.84261
2022-12-14 16:27:49.109427, 1.81818
2022-12-14 16:27:49.109427, 1.78885
2022-12-14 16:27:49.142531, 1.76441
2022-12-14 16:27:49.142879, 1.73998
2022-12-14 16:27:49.176202, 1.72531
2022-12-14 16:27:49.176446, 1.73020
2022-12-14 16:27:49.177058, 1.70087
2022-12-14 16:27:49.209750, 1.66666
2022-12-14 16:27:49.210047, 1.66177
2022-12-14 16:27:49.210047, 1.65689
2022-12-14 16:27:49.243151, 1.65200
2022-12-14 16:27:49.243502, 1.66177
2022-12-14 16:27:49.276691, 1.69110
2022-12-14 16:27:49.276937, 1.67644
2022-12-14 16:27:49.276937, 1.67155
2022-12-14 16:27:49.310210, 1.66177
2022-12-14 16:27:49.310506, 1.66177
2022-12-14 16:27:49.310971, 1.65689
2022-12-14 16:27:49.343763, 1.63245
2022-12-14 16:27:49.343763, 1.62267
2022-12-14 16:27:49.377199, 1.60801
2022-12-14 16:27:49.377805, 1.59335
2022-12-14 16:27:49.377805, 1.56891
2022-12-14 16:27:49.410642, 1.56402
2022-12-14 16:27:49.410937, 1.53958
2022-12-14 16:27:49.411940, 1.53470
2022-12-14 16:27:49.444346, 1.52003
2022-12-14 16:27:49.444346, 1.51026
2022-12-14 16:27:49.477995, 1.50048
2022-12-14 16:27:49.478240, 1.49560
2022-12-14 16:27:49.478240, 1.48093
2022-12-14 16:27:49.511365, 1.48093
2022-12-14 16:27:49.511665, 1.47116
2022-12-14 16:27:49.511665, 1.47116
2022-12-14 16:27:49.544949, 1.46138
2022-12-14 16:27:49.545325, 1.46138
2022-12-14 16:27:49.578545, 1.46138
2022-12-14 16:27:49.578790, 1.46627
2022-12-14 16:27:49.579253, 1.47605
2022-12-14 16:27:49.612109, 1.45650
2022-12-14 16:27:49.612406, 1.45161
2022-12-14 16:27:49.612406, 1.45161
2022-12-14 16:27:49.645634, 1.44672
2022-12-14 16:27:49.645978, 1.46138
2022-12-14 16:27:49.679241, 1.47605
2022-12-14 16:27:49.679483, 1.53958
2022-12-14 16:27:49.679483, 1.61290
2022-12-14 16:27:49.712455, 1.70576
2022-12-14 16:27:49.713109, 1.81329
2022-12-14 16:27:49.713109, 1.90127
2022-12-14 16:27:49.745604, 1.95503
2022-12-14 16:27:49.746612, 1.98435
2022-12-14 16:27:49.778955, 2.00391
2022-12-14 16:27:49.778955, 1.99413
2022-12-14 16:27:49.779914, 1.96480
2022-12-14 16:27:49.813158, 1.95014
2022-12-14 16:27:49.813451, 1.88660
2022-12-14 16:27:49.814051, 1.85728
2022-12-14 16:27:49.846467, 1.82306
2022-12-14 16:27:49.846864, 1.78885
2022-12-14 16:27:49.880476, 1.76930
2022-12-14 16:27:49.880720, 1.74975
2022-12-14 16:27:49.880720, 1.73509
2022-12-14 16:27:49.913816, 1.70087
2022-12-14 16:27:49.914114, 1.68132
2022-12-14 16:27:49.914579, 1.67155
2022-12-14 16:27:49.947429, 1.65689
2022-12-14 16:27:49.947772, 1.63734
2022-12-14 16:27:49.980981, 1.63734
2022-12-14 16:27:49.981224, 1.64711
2022-12-14 16:27:49.981776, 1.65689
2022-12-14 16:27:50.014473, 1.65200
2022-12-14 16:27:50.014473, 1.65200
2022-12-14 16:27:50.015476, 1.65689
2022-12-14 16:27:50.047704, 1.65200
2022-12-14 16:27:50.048711, 1.63245
2022-12-14 16:27:50.081076, 1.62267
2022-12-14 16:27:50.081076, 1.62267
2022-12-14 16:27:50.081076, 1.60312
2022-12-14 16:27:50.115068, 1.57869
2022-12-14 16:27:50.115364, 1.56402
2022-12-14 16:27:50.115968, 1.55425
2022-12-14 16:27:50.148676, 1.54936
2022-12-14 16:27:50.149022, 1.52003
2022-12-14 16:27:50.182294, 1.51026
2022-12-14 16:27:50.182537, 1.50048
2022-12-14 16:27:50.183098, 1.51026
2022-12-14 16:27:50.215838, 1.47605
2022-12-14 16:27:50.216169, 1.46627
2022-12-14 16:27:50.216643, 1.46627
2022-12-14 16:27:50.249310, 1.47605
2022-12-14 16:27:50.249654, 1.45161
2022-12-14 16:27:50.282786, 1.44672
2022-12-14 16:27:50.282786, 1.44672
2022-12-14 16:27:50.283787, 1.44672
2022-12-14 16:27:50.316424, 1.45161
2022-12-14 16:27:50.317427, 1.43695
2022-12-14 16:27:50.317427, 1.44183
2022-12-14 16:27:50.348876, 1.44672
2022-12-14 16:27:50.349575, 1.44672
2022-12-14 16:27:50.383159, 1.44183
2022-12-14 16:27:50.383399, 1.44183
2022-12-14 16:27:50.383399, 1.44672
2022-12-14 16:27:50.416947, 1.46627
2022-12-14 16:27:50.417237, 1.46138
2022-12-14 16:27:50.417237, 1.50537
2022-12-14 16:27:50.450516, 1.57869
2022-12-14 16:27:50.450885, 1.67155
2022-12-14 16:27:50.484105, 1.77419
2022-12-14 16:27:50.484382, 1.86705
2022-12-14 16:27:50.484850, 1.96969
2022-12-14 16:27:50.517623, 1.99413
2022-12-14 16:27:50.517955, 2.01368
2022-12-14 16:27:50.517955, 2.01368
2022-12-14 16:27:50.551041, 2.00879
2022-12-14 16:27:50.551412, 1.97458
2022-12-14 16:27:50.584223, 1.91104
2022-12-14 16:27:50.585233, 1.87683
2022-12-14 16:27:50.585233, 1.84261
2022-12-14 16:27:50.617552, 1.80840
2022-12-14 16:27:50.617823, 1.77419
2022-12-14 16:27:50.617823, 1.75464
2022-12-14 16:27:50.651613, 1.73998
2022-12-14 16:27:50.651961, 1.71554
2022-12-14 16:27:50.685179, 1.71554
2022-12-14 16:27:50.685424, 1.68621
2022-12-14 16:27:50.685424, 1.66666
2022-12-14 16:27:50.718760, 1.65200
2022-12-14 16:27:50.719090, 1.64222
2022-12-14 16:27:50.719765, 1.64711
2022-12-14 16:27:50.752161, 1.65689
2022-12-14 16:27:50.752523, 1.66177
2022-12-14 16:27:50.785597, 1.69110
2022-12-14 16:27:50.785597, 1.66177
2022-12-14 16:27:50.786374, 1.66177
2022-12-14 16:27:50.819210, 1.65689
2022-12-14 16:27:50.819533, 1.63734
2022-12-14 16:27:50.820536, 1.66177
2022-12-14 16:27:50.852802, 1.62267
2022-12-14 16:27:50.852802, 1.60801
2022-12-14 16:27:50.886377, 1.58357
2022-12-14 16:27:50.886619, 1.56891
2022-12-14 16:27:50.886619, 1.57869
2022-12-14 16:27:50.919720, 1.54936
2022-12-14 16:27:50.919720, 1.52492
2022-12-14 16:27:50.920741, 1.51026
2022-12-14 16:27:50.953279, 1.50537
2022-12-14 16:27:50.953279, 1.51515
2022-12-14 16:27:50.986742, 1.48582
2022-12-14 16:27:50.986988, 1.47116
2022-12-14 16:27:50.986988, 1.47116
2022-12-14 16:27:51.020284, 1.50537
2022-12-14 16:27:51.020585, 1.46138
2022-12-14 16:27:51.021587, 1.45650
2022-12-14 16:27:51.053899, 1.45650
2022-12-14 16:27:51.054245, 1.49071
2022-12-14 16:27:51.087445, 1.45650
2022-12-14 16:27:51.087751, 1.45161
2022-12-14 16:27:51.087751, 1.45650
2022-12-14 16:27:51.121023, 1.47605
2022-12-14 16:27:51.121023, 1.44672
2022-12-14 16:27:51.122024, 1.44183
2022-12-14 16:27:51.154656, 1.45161
2022-12-14 16:27:51.154656, 1.46138
2022-12-14 16:27:51.188152, 1.49071
2022-12-14 16:27:51.188849, 1.53470
2022-12-14 16:27:51.188849, 1.62267
2022-12-14 16:27:51.221250, 1.73020
2022-12-14 16:27:51.222258, 1.82795
2022-12-14 16:27:51.222258, 1.91593
2022-12-14 16:27:51.254139, 1.97947
2022-12-14 16:27:51.254802, 2.02834
2022-12-14 16:27:51.287865, 2.02834
2022-12-14 16:27:51.288863, 2.01368
2022-12-14 16:27:51.288863, 1.98924
2022-12-14 16:27:51.322170, 1.95503
2022-12-14 16:27:51.322466, 1.91593
2022-12-14 16:27:51.322466, 1.87194
2022-12-14 16:27:51.355663, 1.82795
2022-12-14 16:27:51.356011, 1.80351
2022-12-14 16:27:51.389054, 1.77908
2022-12-14 16:27:51.389297, 1.74486
2022-12-14 16:27:51.389860, 1.72043
2022-12-14 16:27:51.422460, 1.70576
2022-12-14 16:27:51.422460, 1.68132
2022-12-14 16:27:51.423422, 1.65689
2022-12-14 16:27:51.456115, 1.64222
2022-12-14 16:27:51.457117, 1.64711
2022-12-14 16:27:51.488771, 1.64711
2022-12-14 16:27:51.489774, 1.66666
2022-12-14 16:27:51.489774, 1.65689
2022-12-14 16:27:51.523222, 1.66666
2022-12-14 16:27:51.523544, 1.67155
2022-12-14 16:27:51.524545, 1.66177
2022-12-14 16:27:51.556886, 1.66666
2022-12-14 16:27:51.557887, 1.66177
2022-12-14 16:27:51.590336, 1.65200
2022-12-14 16:27:51.590336, 1.62756
2022-12-14 16:27:51.591370, 1.61779
2022-12-14 16:27:51.623866, 1.61290
2022-12-14 16:27:51.624867, 1.59335
2022-12-14 16:27:51.624867, 1.57380
2022-12-14 16:27:51.657403, 1.58846
2022-12-14 16:27:51.658404, 1.54936
2022-12-14 16:27:51.690765, 1.53470
2022-12-14 16:27:51.690765, 1.51515
2022-12-14 16:27:51.691773, 1.52003
2022-12-14 16:27:51.724110, 1.50537
2022-12-14 16:27:51.725112, 1.49560
2022-12-14 16:27:51.725112, 1.48093
2022-12-14 16:27:51.757467, 1.50537
2022-12-14 16:27:51.758468, 1.47605
2022-12-14 16:27:51.790883, 1.47605
2022-12-14 16:27:51.791886, 1.46138
2022-12-14 16:27:51.791886, 1.49560
2022-12-14 16:27:51.824144, 1.46627
2022-12-14 16:27:51.825150, 1.47116
2022-12-14 16:27:51.825150, 1.46627
2022-12-14 16:27:51.857675, 1.46627
2022-12-14 16:27:51.858673, 1.46627
2022-12-14 16:27:51.891615, 1.47116
2022-12-14 16:27:51.891615, 1.46627
2022-12-14 16:27:51.892609, 1.46627
2022-12-14 16:27:51.925162, 1.47605
2022-12-14 16:27:51.925162, 1.49560
2022-12-14 16:27:51.926158, 1.53470
2022-12-14 16:27:51.958567, 1.60801
2022-12-14 16:27:51.958567, 1.70576
2022-12-14 16:27:51.991914, 1.81329
2022-12-14 16:27:51.992898, 1.89149
2022-12-14 16:27:51.992898, 1.95992
2022-12-14 16:27:52.026045, 2.01368
2022-12-14 16:27:52.026380, 2.04301
2022-12-14 16:27:52.026380, 2.04789
2022-12-14 16:27:52.059388, 1.99902
2022-12-14 16:27:52.059737, 1.96480
2022-12-14 16:27:52.093163, 1.93548
2022-12-14 16:27:52.093163, 1.89149
2022-12-14 16:27:52.094165, 1.84261
2022-12-14 16:27:52.126273, 1.81329
2022-12-14 16:27:52.126273, 1.78885
2022-12-14 16:27:52.127271, 1.76441
2022-12-14 16:27:52.159907, 1.73020
2022-12-14 16:27:52.160251, 1.70576
2022-12-14 16:27:52.193850, 1.69110
2022-12-14 16:27:52.194093, 1.67155
2022-12-14 16:27:52.194093, 1.65200
2022-12-14 16:27:52.227495, 1.65200
2022-12-14 16:27:52.227792, 1.66666
2022-12-14 16:27:52.228392, 1.66666
2022-12-14 16:27:52.260925, 1.67155
2022-12-14 16:27:52.260925, 1.68132
2022-12-14 16:27:52.294385, 1.69110
2022-12-14 16:27:52.294630, 1.69599
2022-12-14 16:27:52.295089, 1.71554
2022-12-14 16:27:52.327897, 1.69110
2022-12-14 16:27:52.328191, 1.68621
2022-12-14 16:27:52.328795, 1.67644
2022-12-14 16:27:52.361423, 1.65200
2022-12-14 16:27:52.361769, 1.63734
2022-12-14 16:27:52.394872, 1.65689
2022-12-14 16:27:52.395550, 1.61779
2022-12-14 16:27:52.395550, 1.58846
2022-12-14 16:27:52.427509, 1.57380
2022-12-14 16:27:52.428505, 1.56891
2022-12-14 16:27:52.428764, 1.56402
2022-12-14 16:27:52.462074, 1.54447
2022-12-14 16:27:52.462450, 1.53470
2022-12-14 16:27:52.495681, 1.52981
2022-12-14 16:27:52.495927, 1.53470
2022-12-14 16:27:52.496533, 1.51026
2022-12-14 16:27:52.529204, 1.51026
2022-12-14 16:27:52.529499, 1.51026
2022-12-14 16:27:52.529499, 1.54936
2022-12-14 16:27:52.562698, 1.50537
2022-12-14 16:27:52.563046, 1.50048
2022-12-14 16:27:52.596216, 1.50537
2022-12-14 16:27:52.596459, 1.51026
2022-12-14 16:27:52.596459, 1.51026
2022-12-14 16:27:52.629738, 1.51515
2022-12-14 16:27:52.630037, 1.55425
2022-12-14 16:27:52.630510, 1.62267
2022-12-14 16:27:52.663326, 1.70576
2022-12-14 16:27:52.663326, 1.79374
2022-12-14 16:27:52.696690, 1.87683
2022-12-14 16:27:52.696933, 1.95503
2022-12-14 16:27:52.696933, 1.99902
2022-12-14 16:27:52.730334, 2.04301
2022-12-14 16:27:52.730632, 2.01368
2022-12-14 16:27:52.730632, 2.00391
2022-12-14 16:27:52.763917, 1.96480
2022-12-14 16:27:52.764262, 1.92082
2022-12-14 16:27:52.797561, 1.88660
2022-12-14 16:27:52.797805, 1.86705
2022-12-14 16:27:52.797805, 1.81818
2022-12-14 16:27:52.830984, 1.78885
2022-12-14 16:27:52.831282, 1.75953
2022-12-14 16:27:52.831761, 1.73998
2022-12-14 16:27:52.864103, 1.71065
2022-12-14 16:27:52.864103, 1.68621
2022-12-14 16:27:52.898099, 1.67155
2022-12-14 16:27:52.898344, 1.66177
2022-12-14 16:27:52.898344, 1.65689
2022-12-14 16:27:52.931463, 1.65200
2022-12-14 16:27:52.932063, 1.66177
2022-12-14 16:27:52.933066, 1.68621
2022-12-14 16:27:52.964931, 1.69110
2022-12-14 16:27:52.964931, 1.68621
2022-12-14 16:27:52.998499, 1.69599
2022-12-14 16:27:52.998743, 1.70576
2022-12-14 16:27:52.999347, 1.70576
2022-12-14 16:27:53.032054, 1.68132
2022-12-14 16:27:53.032350, 1.67155
2022-12-14 16:27:53.032350, 1.66666
2022-12-14 16:27:53.065663, 1.64711
2022-12-14 16:27:53.066009, 1.64222
2022-12-14 16:27:53.098275, 1.61290
2022-12-14 16:27:53.098996, 1.59335
2022-12-14 16:27:53.098996, 1.58846
2022-12-14 16:27:53.132881, 1.56402
2022-12-14 16:27:53.133179, 1.56402
2022-12-14 16:27:53.133731, 1.55425
2022-12-14 16:27:53.166264, 1.53958
2022-12-14 16:27:53.166606, 1.52492
2022-12-14 16:27:53.199884, 1.55425
2022-12-14 16:27:53.199884, 1.52492
2022-12-14 16:27:53.200885, 1.51515
2022-12-14 16:27:53.233260, 1.50048
2022-12-14 16:27:53.233842, 1.50048
2022-12-14 16:27:53.234846, 1.51026
2022-12-14 16:27:53.265601, 1.50537
2022-12-14 16:27:53.266607, 1.52003
2022-12-14 16:27:53.300390, 1.57380
2022-12-14 16:27:53.300628, 1.67155
2022-12-14 16:27:53.301630, 1.73998
2022-12-14 16:27:53.333982, 1.81329
2022-12-14 16:27:53.334270, 1.88660
2022-12-14 16:27:53.334270, 1.94037
2022-12-14 16:27:53.367582, 1.97947
2022-12-14 16:27:53.367965, 2.00391
2022-12-14 16:27:53.401100, 1.95503
2022-12-14 16:27:53.401342, 1.93548
2022-12-14 16:27:53.401342, 1.90615
2022-12-14 16:27:53.434734, 1.86217
2022-12-14 16:27:53.435064, 1.82795
2022-12-14 16:27:53.435064, 1.82306
2022-12-14 16:27:53.468199, 1.79863
2022-12-14 16:27:53.468544, 1.73509
2022-12-14 16:27:53.501735, 1.71065
2022-12-14 16:27:53.501979, 1.68621
2022-12-14 16:27:53.501979, 1.67155
2022-12-14 16:27:53.535046, 1.64222
2022-12-14 16:27:53.535046, 1.61779
2022-12-14 16:27:53.536030, 1.61290
2022-12-14 16:27:53.567944, 1.61779
2022-12-14 16:27:53.568958, 1.63245
2022-12-14 16:27:53.602053, 1.61779
2022-12-14 16:27:53.602296, 1.62267
2022-12-14 16:27:53.603298, 1.63245
