83.77027711598745
86.93467632023147
90.69886360894006
90.69886360894006
86.18570408813301
81.0727564828614
78.66269890710382
78.2421177331218
76.2666607038123
73.14776266459661
71.23317672333518
71.98631971575944
75.5545505233367
78.32431818502823
79.98123276836156
80.92719649122806
82.82081315789472
82.82081315789472
80.57033494623654
78.2421177331218
79.15627750323674
80.9256189937818
81.36021954022988
80.01145922366685
77.83488834244079
77.83488834244079
80.16310555555555
84.92692106918237
87.87254699510831
88.92455625436757
86.33731162196679
84.3058454661558
80.50503781979977
77.55159856250535
73.86767113069885
73.46044174001784
75.06512068074926
77.40028779599271
78.66269890710382
80.49259594477996
83.87282241715398
87.95138139151295
90.0574893028006
89.52192095263226
86.35752174838822
83.77027711598745
82.27437931034481
82.27437931034481
80.9256189937818
80.46079199202842
79.54663222191348
81.87484943502824
86.10386372549019
91.40599039215685
93.01377812800591
89.73072756041044
84.42860089374378
80.92719649122806
79.98123276836156
80.43056553672315
79.16815442561204
76.67954217007097
75.37502768127929
77.55159856250535
80.50503781979978
82.27437931034481
81.36021954022988
80.44605977011494
79.98123276836156
82.9268586942875
86.42826309680322
88.38898790419921
87.85341955403086
85.7473116427432
85.7473116427432
85.7473116427432
84.35201515151513
84.35201515151513
83.33725406698562
84.73255055821369
84.73255055821369
85.2308707336523
84.28490701078582
81.44024888858016
79.54663222191348
80.99091612021857
83.31913333333331
84.23329310344826
81.9050758903335
80.01145922366685
79.0972994535519
80.44605977011494
81.36021954022988
80.9256189937818
78.74904811255573
75.7956088552613
75.37502768127929
77.55159856250535
80.0402108180464
80.46079199202842
78.69145050148337
76.58520314978847
74.98052420905707
74.98052420905707
77.55159856250535
79.15627750323674
80.46079199202842
79.99596499027507
81.82586202795122
80.94192871314155
79.63741422434987
75.83206015736423
73.85660312805473
73.85660312805473
73.85660312805473
75.0042495927012
75.0042495927012
78.80960365968684
82.48207234655553
85.2308707336523
84.28490701078582
81.44024888858016
78.28422111080238
77.40028779599271
79.23018483366886
81.88789243600803
119.43737964912279
141.2388873245614
140.75775060344827
104.55702370689656
83.25383620689654
86.41823541114057
89.58263461538459
90.0990755244755
86.93467632023147
82.42151679942441
80.46079199202842
79.1120316754654
77.88971763858015
74.67061720852703
73.06593826779563
74.72285285112896
78.88791700404857
81.37652925958963
80.94192871314155
79.99596499027507
80.46079199202842
83.30545011423408
86.93467632023147
90.69886360894006
94.24017269984915
93.6630181280059
90.87828773584904
84.92692106918238
79.76860208333332
76.21807083333333
75.36288911290322
75.75739258512544
76.15189605734767
76.15189605734766
78.32846693857371
82.0009356254424
84.74973401253916
85.2308707336523
84.21610964912279
82.7718257508177
82.7718257508177
82.29068902970458
81.40675571489491
80.01145922366685
79.54663222191348
81.87484943502824
84.28490701078582
86.2456318181818
85.7473116427432
82.48207234655553
78.80960365968684
75.75739258512544
73.84280664386401
71.98631971575942
70.87346663740122
72.38082318798165
74.23731011608623
77.45641054613935
80.11411814847852
83.78658683534721
87.41581304134459
88.4305741258741
86.02051655011653
80.67954646464645
77.00707777777777
74.59702020202019
72.40152261747913
70.89416606689869
71.64730905932294
76.01937752509005
80.68276185344827
84.23329310344826
84.23329310344826
82.3396764367816
80.89539253847651
81.37652925958963
81.82586202795122
80.94192871314155
79.54663222191348
80.99091612021857
83.31913333333331
84.71442982456139
84.21610964912279
83.71778947368419
85.26811890838205
87.95138139151295
88.96614247604245
86.46984931847811
80.35201085693966
75.53189570542452
73.82015182595183
75.0042495927012
75.37502768127929
73.86767113069885
72.68357336394948
75.17218561949053
77.507352734734
79.54663222191348
78.2421177331218
79.59087804968482
80.9861745409129
82.29068902970458
82.29068902970458
82.29068902970458
84.25141383710057
84.25141383710057
82.42151679942441
79.15627750323674
78.2421177331218
80.07201477079795
81.37652925958963
81.37652925958963
79.12605104793147
79.12605104793147
80.0402108180464
82.29068902970458
83.73497292800967
84.71442982456138
85.21274999999999
86.82053773584904
88.4283254716981
87.93000529625951
84.42860089374378
79.66478538011694
79.18364865900382
80.57894515023189
81.40675571489491
79.63741422434987
78.2421177331218
80.07201477079795
82.32249298245613
83.23665275257108
81.84135626134301
81.84135626134301
83.87282241715398
86.28287999291155
85.80174327179844
83.77027711598745
82.27437931034481
83.77027711598745
85.80174327179843
88.38898790419921
90.0574893028006
91.19042235123365
92.9911446153846
94.8639523076923
96.08751999999998
96.08751999999998
93.08177925925925
90.18971016835016
87.29764107744106
86.24563181818179
84.74973401253916
82.3396764367816
80.44605977011494
82.47752592592592
85.97893032844163
88.92455625436757
88.92455625436757
88.36877777777778
89.50171082621083
91.2344319591084
93.59093269984916
94.19072078431371
93.01377812800591
90.65727738726517
89.48033473095737
89.48033473095737
86.98404157339301
83.04803662442922
77.1365746461559
75.83206015736423
73.49689304212076
73.1371829561868
71.95308518943742
73.86767113069885
77.55159856250535
79.59087804968483
80.44605977011494
79.98123276836156
82.39129034411914
85.33691627004507
88.38898790419921
88.38898790419921
86.35752174838822
83.77027711598745
84.8616239427456
88.02602314698963
89.52192095263226
85.58591600366844
81.50735702930947
79.0972994535519
79.98123276836156
78.71882165725046
77.06190707391713
76.61257430555554
79.27028190789473
82.82081315789472
84.21610964912279
83.73497292800965
83.73497292800967
83.73497292800967
83.73497292800965
82.29068902970458
81.34472530683809
81.82586202795122
84.32215518551557
86.28287999291155
86.78120016835015
84.28490701078582
81.87484943502824
80.43056553672315
79.98123276836156
78.71882165725046
77.83488834244079
77.83488834244079
80.49259594477996
84.42860089374378
87.9300052962595
90.03611320754716
89.48033473095737
86.42826309680322
83.84101846440245
81.80955230859146
80.09780842911877
76.77359108324625
73.82015182595183
74.22738121663282
74.98052420905707
74.98052420905707
72.71680789027148
71.96366489784724
73.14776266459661
75.83206015736423
77.38693601269169
76.9797066220107
76.9797066220107
77.40028779599271
80.55631557377048
84.49232052273429
86.82053773584904
84.92692106918238
80.16310555555555
104.78012222222222
122.45387777777776
121.6770094017094
92.04747802916037
70.91581377795264
70.18532560344059
72.44904192222617
75.05176889744824
76.55912544802867
76.55912544802867
77.41430716845878
79.59087804968482
80.89539253847651
80.0402108180464
78.69145050148339
78.69145050148339
80.46079199202842
81.34472530683809
79.23847795514318
75.20542014581255
71.63718933823527
70.17520588235293
72.85950337512052
75.12321969390611
76.20283824594232
74.59815930521091
73.79642644230769
75.4011053830391
79.33400153688524
81.9050758903335
83.25383620689655
81.36021954022988
80.89539253847651
81.37652925958963
84.32215518551557
85.76643908382064
85.28530236270753
82.78900920514317
80.46079199202842
80.46079199202842
82.42151679942441
84.74973401253916
85.2308707336523
83.73497292800965
82.75551603145794
82.75551603145794
84.25141383710057
84.73255055821369
84.25141383710057
82.29068902970458
81.80955230859146
82.78900920514317
84.23329310344826
84.23329310344826
82.78900920514317
81.34472530683809
81.82586202795122
83.78658683534721
85.2308707336523
85.2308707336523
84.21610964912279
83.71778947368419
84.21610964912279
85.76643908382064
85.76643908382064
84.78698218726893
83.23665275257108
84.78698218726893
86.81844834307991
87.83320942760942
86.28287999291156
85.2308707336523
85.76643908382064
86.26475925925925
86.26475925925925
84.23329310344826
83.25383620689655
83.77027711598745
85.26617492163007
86.24563181818179
85.2308707336523
83.73497292800965
83.73497292800967
85.28530236270753
87.31676851851851
87.31676851851851
83.9365420461445
79.72850500910747
77.40028779599271
76.97970662201068
76.58520314978847
74.98052420905707
74.57329481837607
76.2302094017094
78.71882165725046
80.43056553672315
80.87989830508474
82.32418220338981
84.28490701078582
86.78120016835015
85.80174327179844
82.95708514959279
78.74904811255573
77.83488834244079
78.26948888888887
79.0972994535519
78.66269890710382
79.1120316754654
81.44024888858014
82.78900920514317
82.78900920514317
81.34472530683809
81.82586202795122
82.7718257508177
83.23665275257108
82.29068902970458
82.29068902970458
84.32215518551557
85.26811890838205
85.26811890838205
83.23665275257108
83.23665275257108
83.73497292800967
83.73497292800965
83.25383620689655
81.80955230859146
82.78900920514317
84.28490701078582
84.74973401253916
82.8561173458725
80.44605977011494
81.42551666666665
84.92692106918237
87.87254699510831
85.97893032844163
80.43824643874643
75.08256293706293
73.04328344988345
74.22738121663282
74.98052420905707
74.60974612047897
72.34602980169339
71.23317672333518
72.78805257866266
77.30224710910642
82.48207234655553
85.2308707336523
84.74973401253916
82.78900920514317
81.80955230859146
81.80955230859146
82.27437931034481
81.80955230859146
80.46079199202842
78.69145050148337
77.38693601269169
78.73569632925472
82.0009356254424
85.26617492163007
85.26617492163007
83.77027711598745
81.80955230859146
81.80955230859146
81.80955230859146
81.36021954022988
80.01145922366685
78.66269890710382
78.66269890710382
80.99091612021857
83.83557424242423
85.72919090909089
85.2308707336523
83.2701459262563
80.52134753915954
79.57538381629305
80.52134753915954
81.82586202795122
80.94192871314155
79.54663222191348
79.54663222191348
82.39129034411914
86.46984931847811
90.0990755244755
90.63464387464386
89.50171082621081
87.83320942760942
87.83320942760942
86.78120016835015
85.28530236270753
81.9050758903335
80.01145922366685
80.49259594477996
82.82081315789472
84.21610964912279
84.71442982456138
84.71442982456138
85.72919090909089
85.72919090909089
83.83557424242423
80.99091612021857
78.2421177331218
78.69145050148339
80.0402108180464
81.34472530683809
80.89539253847651
79.54663222191348
78.66269890710382
79.57685867721875
81.9050758903335
83.73497292800967
83.2701459262563
81.37652925958963
79.98123276836156
79.98123276836156
79.12605104793147
78.69145050148339
78.2421177331218
80.99091612021857
82.33967643678159
83.25383620689655
82.27437931034481
83.25383620689654
83.73497292800967
83.2701459262563
82.29068902970458
81.80955230859146
84.3058454661558
87.47024467039984
89.50171082621081
87.95138139151295
84.32215518551556
82.7718257508177
81.37652925958963
80.49259594477996
78.66269890710382
78.66269890710382
80.49259594477996
82.32249298245613
83.23665275257108
83.73497292800967
84.74973401253916
88.51392130124776
91.92243130124776
93.59093269984916
90.80620230769229
85.06947509457754
80.13573439978846
78.2421177331218
78.2421177331218
77.83488834244079
75.42483076668321
73.82015182595183
74.22738121663282
75.78225707196029
76.96635483870968
77.38693601269169
78.2421177331218
80.01145922366685
83.39168569604087
85.80174327179844
86.28287999291156
83.78658683534721
81.37652925958963
79.98123276836156
78.67671827956988
77.01980369623655
74.98052420905707
74.98052420905707
75.78225707196029
76.96635483870968
76.55912544802867
76.9797066220107
79.23018483366886
81.40675571489491
81.40675571489491
79.57685867721875
78.66269890710382
79.54663222191348
81.87484943502824
83.2701459262563
84.21610964912279
82.7718257508177
82.29068902970458
82.78900920514317
85.28530236270753
85.28530236270753
82.53650397561076
77.55159856250535
75.37502768127928
76.2302094017094
79.18364865900382
81.36021954022988
82.27437931034481
81.80955230859146
82.78900920514317
84.28490701078582
85.72919090909089
84.74973401253916
82.3396764367816
80.01145922366685
79.54663222191348
80.46079199202842
80.89539253847651
80.44605977011494
80.44605977011494
82.3396764367816
83.25383620689655
83.25383620689655
81.36021954022988
80.89539253847651
80.89539253847651
82.78900920514317
83.25383620689655
82.78900920514317
80.46079199202842
79.99596499027507
81.44024888858014
83.7684661016949
84.71442982456139
83.2701459262563
81.82586202795122
80.87989830508474
78.77365095338982
75.5545505233367
71.98631971575942
71.60395481191327
74.37372247360481
77.05801996637243
77.83488834244079
77.40028779599271
77.83488834244079
77.83488834244079
77.00707777777777
77.45641054613935
80.11411814847852
83.2701459262563
85.2308707336523
83.83557424242423
79.90267808857809
73.70538717948718
70.247478483835
69.8767003952569
72.0070191452569
73.05487026515151
72.34602980169339
72.74053327391562
75.59992361803478
79.6329814273654
82.78900920514317
82.78900920514317
82.78900920514317
82.29068902970458
85.34276066385873
87.3742268196697
87.3742268196697
84.78698218726893
81.84135626134301
81.36021954022988
82.8561173458725
86.35752174838822
88.38898790419921
87.87254699510831
86.26475925925925
85.72919090909089
86.78120016835015
87.83320942760942
86.81844834307992
85.26811890838205
83.71778947368419
84.73255055821369
86.28287999291156
87.83320942760942
86.33731162196679
83.84101846440245
81.80955230859146
81.80955230859146
82.27437931034481
80.50503781979977
77.55159856250535
75.37502768127928
75.7956088552613
78.28422111080238
79.1120316754654
78.69145050148337
77.38693601269169
78.73569632925472
80.0402108180464
80.0402108180464
77.46913646459814
74.98052420905707
74.98052420905707
74.59815930521091
74.59815930521091
73.79642644230769
74.98052420905707
77.01980369623655
77.41430716845878
75.49972122719734
73.08966365143976
71.9420171867933
73.85660312805473
75.83206015736423
78.2421177331218
79.54663222191348
81.87484943502824
84.28490701078582
84.74973401253916
81.59370623476138
77.9212375478927
77.45641054613935
77.86363993682035
78.27086932750136
76.55912544802867
77.41430716845878
79.66478538011694
81.84135626134301
81.84135626134301
81.36021954022988
82.3396764367816
85.84108083929732
88.4283254716981
89.48033473095737
87.87254699510831
86.26475925925925
86.82053773584904
87.87254699510831
86.89309009855658
82.12927458492976
77.52673407567049
75.35016319444443
77.52673407567049
79.18364865900382
80.01145922366685
77.83488834244079
78.74904811255573
82.68505306151954
88.02602314698963
90.6132677793904
89.00548004354134
86.82053773584904
85.21274999999999
86.26475925925925
86.78120016835015
86.28287999291156
84.25141383710057
83.23665275257108
83.73497292800967
83.73497292800965
82.78900920514317
80.46079199202842
79.54663222191348
80.01145922366685
80.44605977011494
80.01145922366685
79.0972994535519
80.01145922366685
82.3396764367816
82.3396764367816
79.76860208333332
75.10521775497511
72.33545009328357
69.88508345595963
73.56901088776613
74.29949906227817
77.97217973648736
77.97217973648736
80.46079199202842
80.89539253847651
78.71882165725046
77.83488834244079
77.40028779599271
77.40028779599271
76.57247723132969
76.57247723132969
79.72850500910745
82.88453278688523
84.23329310344826
83.73497292800967
82.75551603145794
84.25141383710057
84.25141383710057
83.78658683534721
81.37652925958963
79.98123276836156
80.92719649122806
83.87282241715398
86.28287999291155
87.83320942760942
86.78120016835015
86.26475925925925
86.26475925925925
85.76643908382064
83.43822187070589
79.23018483366886
76.97970662201068
76.9797066220107
79.63741422434987
82.90265352053754
85.7473116427432
85.26617492163007
83.77027711598745
82.75551603145794
85.34276066385873
87.3742268196697
85.97893032844163
80.82061134259258
75.46492784090908
73.4256483537296
75.53189570542452
78.85611305129703
82.78900920514317
84.74973401253916
87.33697864493995
89.52192095263226
92.41399004354135
94.8639523076923
96.73675999999998
96.11298039215686
93.6630181280059
90.12170903709682
88.38898790419921
87.83320942760942
87.83320942760942
86.78120016835015
86.2456318181818
86.2456318181818
87.29764107744106
89.56593056050701
92.45799965141612
94.81450039215684
94.81450039215684
94.19072078431371
92.38999852016276
91.79021043569821
91.19042235123365
91.19042235123365
89.00548004354134
87.33697864493995
88.51392130124776
89.56593056050701
90.65727738726517
90.0574893028006
92.41399004354135
92.9911446153846
92.41399004354135
89.52192095263226
87.33697864493995
86.2456318181818
87.33697864493995
87.85341955403086
86.83865846950135
84.25141383710057
82.75551603145794
83.25383620689654
83.73497292800967
83.73497292800965
82.29068902970458
81.80955230859146
83.30545011423408
85.80174327179843
86.78120016835015
85.28530236270753
82.3396764367816
81.36021954022988
81.36021954022988
81.80955230859146
80.46079199202842
79.1120316754654
79.57685867721875
81.9050758903335
85.28530236270753
86.26475925925925
85.28530236270753
81.9050758903335
79.57685867721875
79.57685867721875
80.9256189937818
80.9256189937818
79.15627750323674
77.38693601269169
78.27086932750136
80.52134753915954
82.7718257508177
83.23665275257108
82.75551603145794
81.36021954022988
80.44605977011494
80.92719649122806
83.33725406698562
84.25141383710057
82.8561173458725
79.18364865900382
77.41430716845878
77.41430716845878
77.41430716845878
76.61257430555554
75.75739258512544
77.93396346635149
80.0402108180464
80.89539253847651
80.43056553672315
80.89539253847651
81.34472530683809
80.46079199202842
79.1120316754654
79.1120316754654
80.94192871314155
82.29068902970458
81.84135626134301
80.01145922366685
80.49259594477996
82.38621261144664
83.73497292800965
82.78900920514317
80.46079199202842
79.99596499027507
80.94192871314155
82.29068902970458
83.23665275257108
83.23665275257108
84.21610964912279
85.2308707336523
85.2308707336523
84.25141383710057
82.75551603145794
82.75551603145794
83.23665275257108
82.7718257508177
82.29068902970458
82.29068902970458
84.25141383710057
85.2308707336523
85.72919090909089
85.72919090909089
86.78120016835015
88.38898790419921
87.87254699510831
84.92692106918238
80.57033494623654
78.2421177331218
78.69145050148339
79.99596499027507
80.87989830508474
80.43056553672315
79.98123276836156
81.42551666666665
86.10386372549019
89.6052681280059
91.79021043569821
89.52192095263226
87.9141332167832
86.78120016835015
87.87254699510831
88.92455625436757
87.3742268196697
85.26811890838205
83.71778947368419
85.82389738497184
87.9300052962595
90.61326777939041
89.00548004354134
87.39769230769228
85.21274999999999
86.26475925925925
86.78120016835015
86.28287999291156
85.2308707336523
86.32221756041044
89.00548004354135
91.79021043569821
92.36736500754145
91.23443195910842
89.50171082621081
88.36877777777778
87.83320942760942
85.80174327179844
82.8561173458725
80.01145922366685
80.49259594477996
82.90265352053754
85.7473116427432
86.24563181818179
86.2456318181818
86.78120016835015
89.56593056050701
91.83422004357297
91.83422004357297
89.04948965141611
87.31676851851851
87.31676851851851
88.36877777777778
86.81844834307992
85.26811890838205
83.23665275257108
84.78698218726893
88.0700327548644
91.23443195910842
91.79021043569821
89.52192095263226
87.85341955403086
87.85341955403085
89.52192095263226
90.0574893028006
89.50171082621081
86.81844834307992
86.28287999291155
87.41581304134459
89.52192095263226
89.52192095263226
87.33697864493995
84.74973401253916
84.23329310344826
85.28530236270753
87.31676851851851
88.36877777777778
87.31676851851851
86.26475925925925
86.26475925925925
88.44970156695155
90.63464387464386
90.63464387464386
89.50171082621081
87.83320942760942
87.83320942760942
88.38898790419921
88.38898790419921
86.35752174838822
83.30545011423408
81.34472530683809
82.32418220338981
84.82047536095416
85.76643908382064
84.78698218726893
82.75551603145794
81.80955230859146
82.29068902970458
82.7718257508177
83.71778947368419
83.71778947368419
84.21610964912279
85.2308707336523
84.74973401253916
84.25141383710057
83.23665275257108
84.73255055821369
85.7473116427432
85.26617492163007
83.30545011423408
81.80955230859146
82.29068902970458
84.25141383710057
84.73255055821369
84.25141383710057
83.23665275257108
84.78698218726893
87.95138139151295
90.0574893028006
90.6132677793904
88.4283254716981
88.4283254716981
88.4283254716981
89.48033473095737
88.38898790419921
85.80174327179844
83.77027711598745
83.77027711598745
84.74973401253916
84.74973401253916
83.25383620689655
81.80955230859146
82.29068902970458
84.32215518551557
87.3742268196697
89.48033473095737
89.48033473095737
87.87254699510831
86.78120016835015
86.78120016835015
86.78120016835015
85.76643908382064
83.73497292800965
84.25141383710057
84.74973401253916
85.2308707336523
83.73497292800965
82.29068902970458
81.34472530683809
81.34472530683809
80.89539253847651
80.44605977011494
80.92719649122806
82.32249298245613
82.7718257508177
81.37652925958963
80.43056553672315
81.37652925958963
84.32215518551557
85.76643908382064
83.9365420461445
78.95163663303909
74.64796239061485
74.22738121663282
74.22738121663282
74.22738121663282
73.04328344988345
73.82015182595183
77.14436917182434
80.57894515023189
83.23665275257108
82.32249298245613
81.84135626134301
81.84135626134301
83.73497292800967
83.2701459262563
81.87484943502824
78.32431818502823
77.44038487021857
78.83568136144663
81.40675571489491
82.75551603145794
81.80955230859146
82.29068902970458
83.78658683534721
86.28287999291156
86.28287999291156
85.26811890838205
82.32249298245613
81.84135626134301
81.36021954022988
80.9256189937818
79.57685867721875
77.8075171866737
78.69145050148339
81.01966771459813
85.95340840938721
89.00548004354134
89.00548004354134
84.07173934875227
78.16027737047898
73.85660312805473
73.44937373737372
73.82015182595183
74.57329481837607
73.4256483537296
74.20251672979796
76.30876408149288
80.61243832391712
83.7684661016949
84.71442982456139
83.2701459262563
80.94192871314155
79.99596499027507
80.46079199202842
80.46079199202842
80.01145922366685
79.0972994535519
80.92719649122806
83.33725406698562
85.2308707336523
85.2308707336523
83.2701459262563
80.94192871314155
80.46079199202842
82.95708514959277
86.33731162196679
87.83320942760942
86.28287999291156
84.73255055821369
83.71778947368419
84.73255055821369
85.7473116427432
85.26617492163007
82.8561173458725
80.01145922366685
79.54663222191348
80.46079199202842
80.89539253847651
80.01145922366685
78.66269890710382
79.57685867721875
81.9050758903335
82.78900920514317
82.32418220338982
80.43056553672315
79.98123276836156
79.0972994535519
77.83488834244079
76.57247723132969
76.15189605734766
77.41430716845878
78.67671827956988
80.44605977011494
82.3396764367816
85.28530236270753
86.26475925925925
84.82047536095416
80.61243832391713
76.67954217007097
74.1909299145299
74.59815930521091
74.59815930521091
73.5185407531747
71.60395481191327
72.78805257866266
74.64453950676723
76.15189605734767
75.74466666666666
75.74466666666666
77.45641054613935
78.28422111080238
79.1120316754654
78.22809836065574
78.22809836065574
80.05799539833188
82.38621261144664
83.73497292800965
81.48449471635149
77.9339634663515
76.16462197580644
75.36288911290322
74.98052420905707
73.79642644230769
74.59815930521091
77.55159856250535
80.50503781979978
83.25383620689654
83.73497292800967
85.76643908382064
86.28287999291155
85.80174327179844
82.8561173458725
79.59087804968483
78.2421177331218
77.38693601269169
76.9797066220107
76.55912544802867
76.15189605734767
79.30792383512544
81.07726532567048
83.25383620689655
81.36021954022988
79.59087804968483
79.12605104793147
80.52134753915954
81.82586202795122
80.94192871314155
78.69145050148337
78.2421177331218
77.01980369623655
75.83570592948718
73.79642644230769
74.59815930521091
77.08677156075197
78.69145050148339
79.1120316754654
78.66269890710382
80.01145922366685
80.01145922366685
78.35454464033351
74.67061720852703
72.69516017921754
73.08966365143976
75.0042495927012
76.55912544802867
77.82153655913979
79.59087804968482
81.84135626134301
81.84135626134301
77.80829845201237
72.62576862745097
68.83853529411763
70.30051875
72.04847259615384
73.79642644230769
73.04328344988345
73.04328344988345
73.4256483537296
77.23100242071524
82.21590783382065
87.3742268196697
88.38898790419921
86.83865846950135
84.25141383710057
83.23665275257108
83.73497292800967
83.73497292800965
81.07726532567048
78.32846693857371
76.55912544802867
78.27086932750136
81.53610862368905
82.84062311248073
83.30545011423408
80.46079199202842
79.15627750323674
78.2421177331218
80.07201477079795
81.84135626134301
81.84135626134301
79.59087804968483
77.01980369623655
75.75739258512544
77.06190707391713
80.11411814847852
82.7718257508177
82.7718257508177
80.94192871314155
79.1120316754654
78.66269890710382
79.54663222191348
79.12605104793147
77.46913646459814
74.98052420905707
74.98052420905707
78.03273528361846
81.46731126202602
83.71778947368419
82.7718257508177
80.94192871314155
79.99596499027507
80.46079199202842
81.34472530683809
80.46079199202842
78.69145050148337
78.2421177331218
80.07201477079795
82.82081315789472
84.21610964912279
82.82081315789472
81.84135626134301
81.84135626134301
84.25141383710057
84.73255055821369
83.78658683534721
81.37652925958963
81.37652925958963
83.33725406698562
84.73255055821369
84.25141383710057
82.29068902970458
81.80955230859146
83.30545011423408
83.77027711598745
83.77027711598745
82.75551603145794
82.75551603145794
84.25141383710057
85.26617492163007
85.7473116427432
83.78658683534721
81.37652925958963
80.43056553672315
81.37652925958963
81.82586202795122
81.37652925958963
80.89539253847651
82.3396764367816
84.74973401253916
86.2456318181818
86.24563181818179
86.2456318181818
86.2456318181818
85.7473116427432
83.78658683534721
81.37652925958963
79.54663222191348
80.99091612021857
81.9050758903335
82.3396764367816
80.89539253847651
81.87484943502824
84.82047536095416
88.44970156695155
88.96614247604245
88.4305741258741
86.76207272727271
88.4305741258741
88.96614247604246
87.95138139151295
83.87282241715398
81.37652925958963
80.89539253847651
80.89539253847651
80.01145922366685
78.66269890710382
79.1120316754654
80.46079199202842
81.34472530683809
81.80955230859146
81.80955230859146
82.27437931034481
83.25383620689654
83.25383620689655
82.3396764367816
80.01145922366685
79.0972994535519
77.83488834244079
77.41430716845878
77.86363993682036
80.52134753915954
83.2701459262563
84.71442982456138
83.7684661016949
82.32418220338982
82.84062311248073
85.33691627004507
85.80174327179844
82.12927458492976
76.77359108324625
74.59702020202019
75.42483076668321
76.57247723132969
75.7956088552613
75.7956088552613
78.4533164576005
83.9940003472957
86.32221756041044
85.84108083929732
81.9050758903335
79.15627750323674
78.69145050148339
77.86363993682036
77.06190707391713
76.17797375910746
78.83568136144663
80.94192871314155
81.82586202795122
80.87989830508474
81.82586202795122
82.29068902970458
81.84135626134301
79.59087804968483
71.80359111907606
87.15185252258483
89.40233073424301
97.18961766485177
81.84135626134301
80.44605977011494
79.98123276836156
80.89539253847651
80.89539253847651
77.6762921084234
72.97489900497511
69.18766567164178
69.54737575757575
72.900008544461
77.1365746461559
78.28422111080238
78.28422111080238
77.40028779599271
79.57685867721875
81.9050758903335
83.25383620689655
82.78900920514317
80.46079199202842
77.88971763858015
77.00578432377048
77.88971763858015
78.69145050148337
79.12605104793147
77.82153655913977
77.82153655913977
77.82153655913979
79.12605104793147
79.98123276836156
78.32431818502823
75.83570592948718
74.17879134615384
74.98052420905707
77.93396346635149
79.15627750323674
79.15627750323674
76.9797066220107
76.55912544802867
76.9797066220107
78.2421177331218
79.54663222191348
79.54663222191348
79.1120316754654
78.22809836065574
79.57685867721875
81.9050758903335
83.25383620689655
82.78900920514317
80.0402108180464
79.12605104793147
79.12605104793147
79.98123276836156
79.98123276836156
78.67671827956988
79.12605104793147
81.01966771459813
83.2701459262563
84.21610964912279
83.71778947368419
82.7718257508177
83.78658683534721
84.2849070107858
84.74973401253916
82.3396764367816
80.89539253847651
80.89539253847651
83.30545011423408
84.25141383710057
83.78658683534721
82.29068902970458
81.80955230859146
83.77027711598745
84.74973401253916
84.28490701078582
82.32418220338982
80.87989830508474
81.82586202795122
82.29068902970458
81.40675571489491
79.15627750323674
78.69145050148339
81.01966771459813
84.28490701078582
85.72919090909089
85.2308707336523
83.73497292800965
83.73497292800967
84.23329310344826
83.31913333333333
80.99091612021857
79.0972994535519
79.54663222191348
80.89539253847651
80.89539253847651
80.89539253847651
80.43056553672315
81.82586202795122
82.7718257508177
84.21610964912279
84.21610964912279
83.73497292800965
83.23665275257108
84.25141383710057
84.73255055821369
84.25141383710057
81.84135626134301
80.44605977011494
79.5319
78.67671827956988
77.41430716845878
76.15189605734767
77.00707777777777
78.71882165725046
80.89539253847651
82.29068902970458
82.75551603145794
83.23665275257108
84.78698218726893
87.3742268196697
89.48033473095737
