1.64222
1.64222
1.68132
1.69599
1.72531
1.73020
1.73509
1.69599
1.68621
1.66666
1.64222
1.61779
1.60312
1.57869
1.53958
1.52003
1.50048
1.49071
1.46627
1.45650
1.45161
1.44672
1.43206
1.45650
1.43206
1.42717
1.43695
1.42228
1.42228
1.42717
1.44183
1.42228
1.42717
1.43206
1.43206
1.42717
1.43206
1.46627
1.47116
1.50537
1.57380
1.66666
1.74975
1.81329
1.87194
1.91593
1.92570
1.91593
1.90127
1.88172
1.85239
1.83773
1.77908
1.77419
1.76441
1.70576
1.68621
1.67644
1.65689
1.63245
1.62756
1.63734
1.63734
1.63245
1.63734
1.65200
1.65689
1.64711
1.64711
1.64711
1.63734
1.61779
1.61290
1.59335
1.58846
1.56402
1.57380
1.54936
1.53958
1.52492
1.54936
1.51515
1.51026
1.50048
1.50048
1.52492
1.49560
1.49071
1.49071
1.50048
1.49071
1.49071
1.49560
1.49071
1.49560
1.50537
1.52492
1.59335
1.65200
1.72531
1.79374
1.85728
1.90615
1.92570
1.92570
1.92082
1.91104
1.87683
1.84750
1.80840
1.78885
1.75953
1.73509
1.74975
1.70576
1.68132
1.65689
1.65689
1.65200
1.65200
1.65200
1.65689
1.67644
1.67155
1.66666
1.67155
1.67155
1.68132
1.65200
1.64222
1.63245
1.61779
1.62267
1.59335
1.58357
1.57380
1.55425
1.57869
1.55425
1.54447
1.53470
1.53958
1.52981
1.53470
1.52492
1.52981
1.52492
1.52981
1.52981
1.52981
1.53958
1.57869
1.63245
1.69110
1.76930
1.84750
1.89638
1.92570
1.95014
1.95503
1.93548
1.91104
1.88660
1.86217
1.82795
1.79863
1.77419
1.75953
1.73509
1.71065
1.72043
1.68621
1.67155
1.66177
1.66666
1.69110
1.68132
1.68132
1.68621
1.69599
1.69599
1.68132
1.67155
1.67155
1.65200
1.63245
1.62267
1.60801
1.59824
1.57869
1.57869
1.56402
1.56402
1.54447
1.54447
1.53958
1.53470
1.52492
1.52492
1.52003
1.52492
1.52492
1.53958
1.57380
1.63734
1.70576
1.78885
1.86705
1.93548
1.95992
1.97458
1.97947
1.96969
1.94037
1.90615
1.88660
1.86705
1.85728
1.82795
1.78885
1.78396
1.78396
1.73509
1.72043
1.71065
1.69599
1.70087
1.69110
1.69599
1.70087
1.69110
1.71065
1.70087
1.68621
1.67155
1.66666
1.65689
1.63245
1.61779
1.60312
1.60312
1.58357
1.56891
1.55913
1.55913
1.54936
1.53470
1.53958
1.52981
1.52492
1.53470
1.51026
1.51515
1.52981
1.53958
1.58846
1.67155
1.74975
1.82306
1.89638
1.95992
1.99413
1.98924
1.98435
1.96480
1.95014
1.91104
1.88660
1.86217
1.84750
1.82306
1.80351
1.78885
1.77908
1.75953
1.72531
1.73509
1.71065
1.70087
1.69110
1.69110
1.69599
1.68621
1.67644
1.67644
1.66666
1.64711
1.66177
1.62267
1.60801
1.58846
1.57869
1.56402
1.55425
1.56891
1.52492
1.51515
1.52003
1.50537
1.49071
1.48582
1.49071
1.48093
1.48093
1.47605
1.47605
1.47116
1.47605
1.47605
1.49560
1.56891
1.59824
1.68132
1.76930
1.85239
1.90127
1.93548
1.95992
1.97458
1.91104
1.88660
1.86217
1.83773
1.80351
1.79374
1.77908
1.76930
1.74486
1.72531
1.70576
1.69110
1.66666
1.68132
1.65200
1.65689
1.64711
1.67155
1.64222
1.64222
1.62756
1.61779
1.60801
1.59824
1.57869
1.55913
1.54936
1.53958
1.52492
1.52981
1.50537
1.50048
1.49071
1.48093
1.47116
1.47605
1.48582
1.46138
1.45650
1.47605
1.45650
1.45161
1.45161
1.47116
1.45161
1.44672
1.44183
1.44672
1.44672
1.43695
1.44672
1.49560
1.53470
1.60312
1.69110
1.78396
1.84261
1.88172
1.91104
1.91593
1.92570
1.87194
1.84750
1.82795
1.80840
1.77908
1.76930
1.75953
1.74975
1.75464
1.70576
1.69110
1.69599
1.66666
1.66177
1.66666
1.69110
1.66177
1.65689
1.66177
1.66177
1.68132
1.66666
1.63245
1.61290
1.59824
1.58357
1.57380
1.57869
1.55425
1.53958
1.53470
1.54447
1.52981
1.51515
1.51515
1.51515
1.51026
1.53470
1.51026
1.50537
1.50537
1.52003
1.49560
1.50048
1.50537
1.49071
1.49071
1.49071
1.49071
1.49071
1.49071
1.51515
1.57869
1.59824
1.66666
1.73998
1.80840
1.84261
1.87194
1.88660
1.88660
1.86217
1.84261
1.82795
1.80840
1.78396
1.75953
1.74975
1.74486
1.72531
1.70576
1.69110
1.68132
1.67644
1.66666
1.68132
1.68132
1.69110
1.67644
1.67644
1.68132
1.67155
1.65689
1.64222
1.64222
1.61779
1.59824
1.59335
1.61779
1.57380
1.56402
1.55913
1.55913
1.55913
1.53958
1.53470
1.53958
1.55425
1.52492
1.52981
1.53470
1.52981
1.53958
1.52981
1.52492
1.52003
1.51026
1.52003
1.51515
1.51515
1.51515
1.53470
1.56891
1.61779
1.67155
1.73509
1.82306
1.84261
1.85239
1.86705
1.87194
1.86217
1.82795
1.80840
1.79863
1.80840
1.74975
1.73509
1.73020
1.72043
1.69599
1.67644
1.66666
1.68132
1.65200
1.66177
1.68132
1.67155
1.66177
1.66177
1.65689
1.65689
1.63734
1.62756
1.61779
1.64222
1.59824
1.57869
1.57380
1.56891
1.55425
1.56402
1.53958
1.53958
1.52981
1.52492
1.51515
1.52492
1.51515
1.51026
1.52003
1.51515
1.51026
1.50048
1.52003
1.51026
1.50537
1.49560
1.49560
1.52492
1.50537
1.49560
1.51026
1.54447
1.58357
1.63734
1.70576
1.77419
1.83284
1.85728
1.88172
1.89149
1.88660
1.86217
1.84750
1.83284
1.84750
1.78396
1.77419
1.76441
1.75464
1.73998
1.72043
1.71065
1.70576
1.68132
1.66666
1.67155
1.68132
1.67155
1.66666
1.66666
1.68132
1.65200
1.64222
1.63245
1.62756
1.60801
1.62267
1.58846
1.57869
1.55913
1.54936
1.54936
1.54447
1.52981
1.53958
1.52003
1.52003
1.51026
1.52981
1.49560
1.50048
1.50048
1.49560
1.50048
1.50048
1.49560
1.49560
1.49071
1.49560
1.49560
1.49071
1.48582
1.49071
1.49071
1.48093
1.51515
1.51026
1.53470
1.57380
1.63734
1.71554
1.78396
1.83773
1.86705
1.89149
1.89638
1.88172
1.86217
1.84750
1.83773
1.83284
1.81329
1.77419
1.76930
1.77419
1.73020
1.72531
1.71065
1.68621
1.68132
1.67155
1.67644
1.66666
1.66177
1.66666
1.66666
1.65689
1.66666
1.64222
1.62756
1.61779
1.59824
1.61779
1.58357
1.57380
1.55425
1.55913
1.54447
1.53470
1.52492
1.51515
1.51515
1.52981
1.50537
1.49560
1.50537
1.50537
1.49071
1.49071
1.52492
1.49560
1.48093
1.48582
1.49560
1.49071
1.48093
1.48093
1.49071
1.48582
1.47605
1.48093
1.48582
1.48582
1.47605
1.48582
1.51515
1.56402
1.61779
1.70576
1.76441
1.81818
1.86217
1.86705
1.87683
1.90127
1.84261
1.81818
1.79863
1.78396
1.75464
1.73998
1.73020
1.72043
1.70576
1.68621
1.67155
1.66666
1.66177
1.63734
1.67155
1.65689
1.65200
1.64222
1.64711
1.64711
1.63734
1.62756
1.62267
1.63245
1.60801
1.59335
1.57869
1.57869
1.56891
1.55425
1.58357
1.55425
1.54447
1.52981
1.52492
1.54936
1.52981
1.50537
1.51026
1.51515
1.51515
1.50048
1.50537
1.50537
1.51026
1.49560
1.49560
1.50048
1.50537
1.49560
1.49560
1.50048
1.50048
1.50048
1.49560
1.49560
1.50537
1.51026
1.53958
1.62267
1.66666
1.71065
1.76441
1.83773
1.84261
1.84261
1.84750
1.84261
1.83284
1.80351
1.78396
1.76930
1.75464
1.73509
1.72043
1.70576
1.71554
1.67644
1.66177
1.65200
1.68621
1.65200
1.66666
1.65689
1.66666
1.66177
1.66177
1.66177
1.66666
1.66177
1.64222
1.64222
1.63245
1.61779
1.60312
1.62756
1.60312
1.58846
1.57380
1.56402
1.56891
1.55913
1.55913
1.54447
1.54936
1.54936
1.54936
1.53958
1.53958
1.53470
1.52981
1.53470
1.52981
1.52981
1.52492
1.52492
1.52492
1.54447
1.52981
1.53470
1.54447
1.57869
1.61290
1.66666
1.72531
1.77908
1.81329
1.83773
1.88172
1.86217
1.84261
1.82795
1.81329
1.79863
1.77419
1.75464
1.76930
1.75953
1.71065
1.69599
1.68132
1.67644
1.66177
1.65200
1.65200
1.66666
1.66177
1.66177
1.68621
1.69110
1.67155
1.65689
1.66177
1.65689
1.64711
1.62756
1.62267
1.61290
1.63734
1.59335
1.58357
1.57869
1.57380
1.55913
1.56891
1.55425
1.54936
1.53470
1.52981
1.53470
1.54936
1.52492
1.52492
1.52492
1.52981
1.52492
1.52003
1.52003
1.52981
1.55425
1.55425
1.59335
1.65689
1.72043
1.79374
1.80840
1.85239
1.88172
1.85239
1.85239
1.85239
1.82795
1.80840
1.78885
1.77908
1.75953
1.74486
1.73509
1.72531
1.70087
1.68132
1.69599
1.67155
1.67155
1.65689
1.65689
1.66666
1.69599
1.66666
1.66177
1.66666
1.65689
1.64222
1.63734
1.63245
1.62267
1.60312
1.62756
1.59335
1.57869
1.56402
1.55913
1.55425
1.55425
1.53470
1.52981
1.52981
1.55913
1.52003
1.51515
1.52003
1.54936
1.50537
1.51026
1.51515
1.52492
1.50537
1.50537
1.51026
1.53470
1.53470
1.57869
1.63734
1.71065
1.76441
1.81329
1.84750
1.87194
1.87194
1.86705
1.85728
1.84750
1.82306
1.80840
1.79863
1.77419
1.75464
1.73509
1.73020
1.74486
1.70087
1.68621
1.71065
1.67644
1.67644
1.66666
1.67155
1.71554
1.68621
1.67155
1.67644
1.67155
1.66177
1.64711
1.63734
1.63734
1.62756
1.61290
1.60801
1.59335
1.58846
1.57380
1.56891
1.59335
1.56402
1.54936
1.54447
1.54447
1.54936
1.53470
1.53470
1.53958
1.54447
1.52981
1.53470
1.56891
1.53958
1.52981
1.53470
1.54936
1.58357
1.61290
1.67644
1.74486
1.80840
1.84750
1.87683
1.90127
1.91104
1.90127
1.91104
1.86705
1.85239
1.82795
1.80351
1.79374
1.78396
1.75953
1.73998
1.75953
1.72531
1.70576
1.69110
1.69110
1.70087
1.73020
1.70576
1.70576
1.71554
1.71065
1.69599
1.69599
1.69110
1.68132
1.66177
1.65689
1.64711
1.63734
1.61779
1.61290
1.61290
1.60312
1.58846
1.58357
1.58357
1.58357
1.56891
1.56891
1.56891
1.57380
1.56402
1.55913
1.55913
1.55913
1.55425
1.55425
1.56891
1.59335
1.63734
1.69110
1.74975
1.81329
1.84750
1.88172
1.90615
1.91593
1.89638
1.88172
1.88172
1.84750
1.81818
1.79863
1.78396
1.77419
1.74975
1.73509
1.71554
1.71065
1.69599
1.71065
1.69110
1.69599
1.69599
1.69599
1.70087
1.71065
1.70576
1.69599
1.70087
1.69110
1.67644
1.65689
1.64711
1.64711
1.63245
1.61779
1.61779
1.61779
1.59824
1.58357
1.57869
1.59824
1.57380
1.56402
1.55913
1.59824
1.56891
1.55425
1.54936
1.55425
1.56891
1.54447
1.55425
1.57380
1.61779
1.67155
1.72531
1.79374
1.87194
1.87683
1.89638
1.90615
1.91104
1.88172
1.86217
1.84750
1.84261
1.80840
1.78885
1.75953
1.75464
1.73020
1.70576
1.69110
1.68621
1.67155
1.66666
1.67155
1.67644
1.68132
1.67644
1.67644
1.67644
1.66666
1.65689
1.65200
1.65200
1.63734
1.61779
1.60312
1.59824
1.58846
1.60312
1.56402
1.55913
1.56891
1.53958
1.52981
1.53470
1.53470
1.51026
1.51515
1.52492
1.52003
1.50537
1.51026
1.51515
1.52003
1.50537
1.50537
1.53470
1.51515
1.52003
1.55425
1.61290
1.68621
1.74486
1.81329
1.86705
1.90615
1.91593
1.94525
1.90615
1.89638
1.86217
1.83773
1.81818
1.80840
1.77908
1.76930
1.74486
1.73998
1.72043
1.71065
1.69110
1.69110
1.68132
1.67644
1.67644
1.68621
1.68132
1.70576
1.70087
1.67644
1.66177
1.65200
1.64222
1.63245
1.61779
1.59824
1.62267
1.58846
1.57380
1.55913
1.55425
1.57380
1.54447
1.52981
1.52492
1.52981
1.52003
1.51026
1.51515
1.51515
1.51515
1.51026
1.51515
1.51515
1.52003
1.51515
1.50537
1.51026
1.51515
1.52492
1.52981
1.56891
1.62756
1.70576
1.76441
1.83284
1.88660
1.92082
1.92570
1.93059
1.92570
1.89638
1.87194
1.85728
1.84261
1.81329
1.79374
1.77908
1.76441
1.73998
1.72531
1.70576
1.70576
1.71554
1.69110
1.69599
1.70087
1.69599
1.69110
1.69599
1.69599
1.69110
1.68132
1.69110
1.67155
1.65200
1.63734
1.62756
1.62756
1.61290
1.59335
1.58846
1.58846
1.57869
1.58846
1.56402
1.55425
1.55425
1.54447
1.54936
1.54447
1.54447
1.56402
1.53470
1.53958
1.53958
1.52981
1.53958
1.53470
1.53470
1.54447
1.54447
1.57869
1.63245
1.68621
1.77419
1.83773
1.88172
1.93548
1.92570
1.93059
1.93059
1.90615
1.88172
1.85728
1.83773
1.80840
1.78885
1.75953
1.76930
1.73020
1.70576
1.69599
1.68621
1.67644
1.67644
1.68132
1.69599
1.69599
1.71065
1.70576
1.70576
1.70087
1.68621
1.68132
1.67644
1.68621
1.65689
1.64711
1.63245
1.61290
1.59824
1.59335
1.62267
1.58846
1.56891
1.55913
1.57869
1.52492
1.49071
1.48582
1.52003
1.50537
1.51026
1.54447
1.54447
1.54936
1.54936
1.57380
1.57380
1.59335
1.62756
1.68621
1.75953
1.85239
1.87194
1.91104
1.93548
1.95014
1.93059
1.91593
1.90615
1.90615
1.84261
1.81329
1.79374
1.78396
1.74975
1.73020
1.72531
1.69599
1.68132
1.69599
1.67644
1.68132
1.67644
1.68621
1.69599
1.72043
1.70087
1.68621
1.68621
1.67644
1.66666
1.64711
1.64711
1.63734
1.61290
1.59824
1.58846
1.60312
1.57380
1.55913
1.55425
1.55425
1.54447
1.53470
1.52981
1.53958
1.52981
1.52003
1.52981
1.52981
1.52492
1.51515
1.51515
1.52492
1.53470
1.54936
1.59335
1.68132
1.74975
1.81329
1.87194
1.92570
1.95503
1.95992
1.96969
1.96480
1.91593
1.87683
1.85239
1.83284
1.81818
1.79374
1.76930
1.75464
1.74486
1.74486
1.69599
1.69110
1.70087
1.67644
1.67155
1.68132
1.69110
1.69110
1.68621
1.70087
1.68621
1.67155
1.66177
1.64711
1.65689
1.62756
1.60801
1.59824
1.61290
1.57869
1.55913
1.55425
1.58357
1.54447
1.52981
1.52492
1.55425
1.51515
1.51026
1.52003
1.50537
1.51026
1.53470
1.50537
1.50048
1.50537
1.49560
1.52492
1.51515
1.53958
1.58357
1.66666
1.74486
1.82795
1.88172
1.92570
1.95992
1.97458
1.95503
1.94525
1.91593
1.91593
1.85239
1.82306
1.80351
1.78885
1.76441
1.74975
1.72043
1.70576
1.68621
1.68132
1.66666
1.66666
1.66666
1.66666
1.69110
1.68132
1.67155
1.66177
1.68621
1.65689
1.64222
1.61779
1.60801
1.60312
1.58357
1.56402
1.54936
1.54447
1.52981
1.51515
1.51026
1.50048
1.48582
1.49560
1.47116
1.47605
1.47116
1.47116
1.46627
1.46627
1.50048
1.45650
1.46138
1.46627
1.47116
1.46138
1.46138
1.47605
1.51026
1.55425
1.62756
1.74486
1.80840
1.87194
1.92570
1.96969
1.98435
1.98435
1.95014
1.93059
1.90615
1.86217
1.83284
1.81329
1.79374
1.76930
1.73998
1.72531
1.72531
1.68621
1.67155
1.67155
1.71065
1.68132
1.68132
1.68621
1.70087
1.73020
1.70087
1.69110
1.68621
1.67155
1.64711
1.63245
1.62756
1.61779
1.58357
1.57869
1.56891
1.55913
1.53958
1.53470
1.56402
1.52492
1.51515
1.50537
1.53470
1.50537
1.49560
1.50537
1.50048
1.49560
1.48582
1.50048
1.49560
1.49560
1.48582
1.51515
1.49071
1.50048
1.51026
1.55913
1.62756
1.71554
1.79863
1.89638
1.94525
1.99413
1.99902
2.00391
1.98924
1.96969
1.92570
1.89149
1.86217
1.84261
1.80840
1.77908
1.75953
1.76930
1.71065
1.69599
1.68132
1.68621
1.69110
1.67644
1.68621
1.70087
1.70087
1.70576
1.70576
1.70576
1.69599
1.68132
1.70087
1.66666
1.64711
1.62756
1.61779
1.61290
1.59335
1.57380
1.57869
1.56402
1.55425
1.53958
1.53958
1.52981
1.53470
1.52003
1.52492
1.52492
1.52492
1.53958
1.52003
1.52003
1.52003
1.52981
1.52003
1.52003
1.53958
1.57869
1.63245
1.71554
1.80840
1.88660
1.93548
1.97947
2.00391
1.99413
1.97947
1.95992
1.93548
1.92082
1.85239
1.82306
1.79863
1.76441
1.74486
1.71554
1.70087
1.67644
1.65689
1.65689
1.66666
1.66666
1.70576
1.68621
1.70087
1.70087
1.70087
1.71065
1.70087
1.68621
1.66666
1.65689
1.64711
1.63734
1.60312
1.59824
1.59335
1.58357
1.56402
1.56402
1.55425
1.55425
1.53470
1.53470
1.53470
1.53470
1.52003
1.52492
1.53958
1.53470
1.52003
1.52492
1.54936
1.56891
1.61779
1.70087
1.79863
1.87194
1.92570
1.97458
2.00391
2.01368
1.99413
1.96969
1.94037
1.91104
1.86705
1.83284
1.80840
1.79863
1.74975
1.72531
1.71065
1.69110
1.66666
1.66177
1.66177
1.68132
1.67155
1.67644
1.69110
1.72531
1.70576
1.70087
1.69599
1.69599
1.68132
1.65689
1.64222
1.63734
1.62267
1.60312
1.58846
1.58357
1.56891
1.55913
1.54447
1.54447
1.53958
1.55425
1.52492
1.52492
1.55425
1.51515
1.51515
1.52492
1.55425
1.60801
1.67644
1.77908
1.87194
1.96480
2.00879
2.04789
2.06744
2.04789
2.02834
2.00391
1.96969
1.91593
1.88172
1.85728
1.83773
1.83284
1.77419
1.75953
1.73998
1.71554
1.71554
1.69599
1.70087
1.69599
1.70087
1.73509
1.72043
1.71065
1.71554
1.71065
1.70087
1.68621
1.66177
1.68132
1.64222
1.62267
1.59824
1.58846
1.58846
1.56891
1.55425
1.54936
1.53958
1.53958
1.52492
1.52492
1.52003
1.51515
1.50537
1.51026
1.51026
1.53470
1.58357
1.65200
1.75464
1.85728
1.94525
2.02346
2.06744
2.09188
2.08211
2.06256
2.03812
2.00391
1.95992
1.92570
1.90127
1.89149
1.83773
1.81329
1.82306
1.77908
1.76441
1.73509
1.72531
1.72043
1.70576
1.70576
1.71065
1.74975
1.71554
1.70576
1.69599
1.70576
1.67155
1.65689
1.63734
1.63245
1.60312
1.58357
1.59335
1.56402
1.54447
1.55425
1.51515
1.51515
1.49560
1.48582
1.48093
1.48582
1.48093
1.46138
1.46138
1.49560
1.46627
1.45650
1.48093
1.54936
1.60801
1.69599
1.80351
1.90127
1.95992
1.99413
2.04301
2.00879
1.98435
1.94037
1.90127
1.86705
1.82795
1.78885
1.76441
1.74486
1.73509
1.69599
1.70087
1.65689
1.64222
1.61779
1.61290
1.64222
1.62756
1.61290
1.61290
1.64222
1.62267
1.60312
1.59335
1.61779
1.58357
1.56402
1.54447
1.53958
1.52492
1.51026
1.49560
1.49560
1.48582
1.47116
1.48093
1.45650
1.45650
1.44672
1.44672
1.44183
1.44183
1.45650
1.43206
1.42717
1.43206
1.42228
1.45161
1.42717
1.47116
1.52492
1.62756
1.69599
1.79374
1.86705
1.90615
1.94037
1.94525
1.92570
1.89149
1.87194
1.82795
1.79374
1.75464
1.73020
1.71554
1.69599
1.66666
1.65689
1.63245
1.62267
1.60312
1.59824
1.61779
1.61290
1.60312
1.60801
1.60801
1.64222
1.59824
1.58846
1.57869
1.57380
1.54936
1.53470
1.52003
1.51515
1.51515
1.48582
1.47605
1.47116
1.46627
1.45161
1.44672
1.45161
1.44183
1.44183
1.43695
1.44183
1.43206
1.43206
1.42228
1.43206
1.43695
1.42228
1.42228
1.43206
1.48093
1.48582
1.55425
1.63734
1.72043
1.77908
1.83284
1.87194
1.88172
1.87194
1.88660
1.82795
1.79863
1.75953
1.73020
1.70576
1.69110
1.65689
1.64222
1.63245
1.60801
1.59335
1.57869
1.57869
1.57869
1.57869
1.58357
1.60801
1.59335
1.58846
1.58357
1.57869
1.60801
1.55913
1.53958
1.52003
1.52003
1.50537
1.49560
1.48093
1.47605
1.46138
1.48093
1.45161
1.44183
1.43206
1.42717
1.43206
1.43206
1.42228
1.42228
1.41739
1.42717
1.41251
1.41251
1.41739
1.43206
1.41739
1.41251
1.40762
1.41739
1.42717
1.45161
1.51026
1.57380
1.65200
1.72043
1.78885
1.84750
1.88172
1.87683
1.87683
1.88660
1.83284
1.79374
1.77419
1.74975
1.73020
1.70576
1.69110
1.67644
1.66177
1.63734
1.65200
1.61779
1.60801
1.59824
1.60312
1.61290
1.63734
1.62756
1.61290
1.60801
1.60312
1.58846
1.57380
1.59824
1.56402
1.53958
1.52492
1.52003
1.53958
1.49560
1.48093
1.47605
1.48093
1.46627
1.45650
1.45161
1.45650
1.47116
1.44183
1.43695
1.44183
1.43695
1.43206
1.43206
1.44183
1.43206
1.42717
1.43206
1.43695
1.45650
1.42717
1.42717
1.43695
1.44672
1.46627
1.52003
1.58357
1.66177
1.73020
1.79863
1.85239
1.88172
1.88660
1.88660
1.86705
1.84750
1.81329
1.78885
1.76930
1.77908
1.71554
1.70087
1.69110
1.68132
1.68621
1.63734
1.63734
1.63245
1.62267
1.62267
1.62756
1.63734
1.63245
1.63734
1.63245
1.62756
1.61290
1.60312
1.59335
1.58357
1.57380
1.55425
1.54936
1.54447
1.52981
1.53470
1.51026
1.51026
1.49560
1.50048
1.49560
1.49071
1.48582
1.51026
1.48582
1.48582
1.48093
1.47605
1.49071
1.48582
1.48582
1.47605
1.48093
1.51026
1.49071
1.48582
1.48093
1.49071
1.50048
1.48582
1.51026
1.54936
1.60801
1.67155
1.73509
1.81818
1.84750
1.86705
1.88660
1.89149
1.89149
1.87194
1.83773
1.81818
1.79374
1.76441
1.74486
1.73020
1.72531
1.69599
1.68132
1.69599
1.66666
1.68621
1.65200
1.65689
1.66666
1.66666
1.66666
1.67155
1.67644
1.70087
1.67155
1.65689
1.65200
1.63734
1.62267
1.61779
1.61290
1.59824
1.58357
1.60312
1.58357
1.56402
1.55425
1.54936
1.56402
1.54936
1.53470
1.53470
1.56891
1.54447
1.52492
1.52492
1.53470
1.53958
1.52492
1.52492
1.52981
1.52492
1.52003
1.55425
1.53470
1.53958
1.55425
1.59824
1.66177
1.73509
1.78396
1.82795
1.87194
1.89638
1.89149
1.88660
1.87683
1.86705
1.84261
1.80351
1.78885
1.76930
1.73998
1.72531
1.71065
1.69599
1.67155
1.67155
1.65689
1.66177
1.65200
1.65689
1.66666
1.67644
1.70576
1.68621
1.68621
1.67644
1.66177
1.65200
1.64222
1.63734
1.61779
1.60801
1.62756
1.59824
1.57869
1.56891
1.56402
1.56402
1.56402
1.53470
1.53470
1.53470
1.54447
1.52003
1.52003
1.52492
1.52492
1.52003
1.51026
1.51515
1.51515
1.50537
1.50537
1.52003
1.52492
1.53958
1.58357
1.64711
1.71554
1.77419
1.81818
1.86705
1.89638
1.89149
1.88660
1.88172
1.87683
1.83284
1.80840
1.78885
1.76930
1.74486
1.72531
1.71065
1.70087
1.67644
1.65689
1.67644
1.65689
1.64222
1.63734
1.64222
1.65200
1.64711
1.64222
1.65689
1.65200
1.64222
1.62267
1.61779
1.61290
1.60312
1.58357
1.60801
1.57869
1.56402
1.54447
1.53958
1.54936
1.52492
1.51515
1.51026
1.52492
1.50537
1.48582
1.48093
1.49071
1.49560
1.48582
1.48093
1.49071
1.49560
1.48093
1.48093
1.48582
1.50048
1.54447
1.57380
1.64222
1.71554
1.77419
1.82795
1.87194
1.89638
1.89149
1.89149
1.88172
1.85239
1.82306
1.79374
1.77419
1.75953
1.73020
1.70576
1.69599
1.68621
1.65689
1.64711
1.63734
1.64222
1.63245
1.66666
1.64222
1.65200
1.65200
1.64711
1.64711
1.66666
1.63734
1.62267
1.61779
1.60801
1.59335
1.57869
1.56891
1.56891
1.55425
1.53958
1.52981
1.52492
1.52981
1.50537
1.50048
1.50537
1.52492
1.50048
1.48582
1.49560
1.49560
1.51026
1.48582
1.48582
1.48582
1.48093
1.50537
1.51515
1.55425
1.61290
1.68621
1.76441
1.83284
1.87683
1.91104
1.93059
1.93548
1.91593
1.92570
1.86705
1.84750
1.80840
1.78396
1.76441
1.74975
1.72531
1.73509
1.69110
1.68132
1.65689
1.64711
1.65200
1.66177
1.67155
1.66666
1.66666
1.67644
1.67155
1.66666
1.66177
1.66177
1.67155
1.63734
1.62267
1.61779
1.60312
1.58846
1.61290
1.57869
1.56891
1.55425
1.54936
1.54936
1.57380
1.54936
1.52981
1.52981
1.53470
1.52003
1.52981
1.52981
1.52981
1.52003
1.55425
1.54447
1.57380
1.61290
1.68621
1.76930
1.85728
1.89149
1.95014
1.96480
1.97458
1.95503
1.93548
1.91593
1.91593
1.84750
1.81818
1.79374
1.78396
1.75464
1.74975
1.71554
1.71065
1.68621
1.68132
1.68132
1.69110
1.69110
1.69599
1.70576
1.71065
1.69599
1.69599
1.69110
1.72043
1.68621
1.66177
1.64711
1.64711
1.63245
1.61290
1.61779
1.60312
1.58846
1.57869
1.57380
1.57869
1.56402
1.55425
1.55425
1.55425
1.55913
1.54447
1.54447
1.55425
1.58846
1.57869
1.62756
1.69599
1.77419
1.83284
1.89638
1.94037
1.95992
1.95992
1.95503
1.95503
1.93059
1.87194
1.84750
1.82795
1.80351
1.77419
1.75953
1.75953
1.72043
1.69599
1.68621
1.68621
1.69110
1.68621
1.70576
1.70087
1.70576
1.70087
1.70087
1.70087
1.71065
1.68621
1.67155
1.66177
1.64711
1.62756
1.61290
1.60801
1.61779
1.58846
1.57380
1.56891
1.56891
1.55425
1.54936
1.54447
1.54447
1.53470
1.55425
1.53958
1.55913
1.58357
1.66666
1.71065
1.79374
1.86705
1.94525
1.95503
1.98924
2.01857
1.96480
1.94037
1.91593
1.88660
1.84750
1.82306
1.82795
1.78396
1.74486
1.73020
1.71554
1.70087
1.67644
1.70087
1.67644
1.68132
1.67644
1.67644
1.70576
1.69110
1.67644
1.67155
1.66666
1.65689
1.64222
1.62267
1.60801
1.60312
1.58357
1.57869
1.56402
1.55913
1.54447
1.52981
1.54936
1.52492
1.51515
1.51026
1.52003
1.51515
1.50048
1.50048
1.53470
1.52003
1.53958
1.59335
1.70087
1.77419
1.85239
1.91593
1.96480
2.00391
2.00391
1.98435
1.96480
1.94525
1.90615
1.86705
1.84261
1.84750
1.80351
1.80840
1.75953
1.74975
1.72531
1.70087
1.68621
1.68621
1.68621
1.67644
1.71065
1.70087
1.69110
1.68132
1.67644
1.67644
1.68621
1.64222
1.62267
1.61779
1.60312
1.57869
1.56891
1.55913
1.54936
1.52981
1.52981
1.52003
1.52003
1.51026
1.50537
1.49560
1.50537
1.52003
1.49560
1.49071
1.49560
1.50048
1.49560
1.52981
1.58846
1.66666
1.74486
1.84261
1.92570
1.97947
1.99902
2.00391
1.99902
1.96969
1.93059
1.90127
1.87194
1.84261
1.81329
1.79374
1.78396
1.76930
1.73509
1.72043
1.70576
1.69599
1.68132
1.68132
1.69110
1.70087
1.68621
1.68621
1.69110
1.68132
1.66666
1.67155
1.64711
1.62756
1.60801
1.62267
1.58846
1.57380
1.54936
1.53958
1.55913
1.52981
1.51515
1.51026
1.53470
1.51026
1.50048
1.52003
1.50537
1.50048
1.50048
1.49560
1.50048
1.49560
1.49071
1.49071
1.51515
1.55913
1.61779
1.70576
1.80840
1.90127
1.95992
1.99902
2.02346
2.02834
2.00391
1.96969
1.94525
1.90615
1.87194
1.83284
1.81329
1.79863
1.77419
1.74975
1.74975
1.71554
1.70087
1.68621
1.69110
1.72043
1.70576
1.70087
1.70087
1.70576
1.72531
1.69110
1.68132
1.67155
1.66177
1.63734
1.62267
1.60801
1.59335
1.57380
1.55913
1.56402
1.55425
1.53470
1.52492
1.53470
1.52492
1.51515
1.51026
1.53470
1.52003
1.51026
1.50537
1.53958
1.51515
1.50048
1.50048
1.52003
1.52492
1.53958
1.58357
1.65689
1.74975
1.83284
1.92082
1.96480
2.00391
2.00391
1.98435
1.96969
1.94037
1.92082
1.85239
1.82306
1.80351
1.78885
1.74975
1.73998
1.71554
1.70087
1.67155
1.66666
1.67644
1.67644
1.69110
1.69599
1.70087
1.70087
1.69599
1.69599
1.69110
1.68621
1.66177
1.63734
1.62756
1.61779
1.61290
1.58357
1.56891
1.56891
1.54936
1.55913
1.53470
1.53470
1.52003
1.52981
1.51515
1.52003
1.51515
1.52981
1.51515
1.51515
1.50537
1.50048
1.50537
1.51026
1.52003
1.54936
1.64222
1.70576
1.78396
1.86705
1.93548
1.99413
2.00391
2.00879
2.00879
1.95503
1.91593
1.87194
1.84261
1.81818
1.78885
1.76441
1.73998
1.72531
1.73020
1.70087
1.66666
1.66177
1.65689
1.65200
1.66177
1.69110
1.67644
1.67155
1.66177
1.66177
1.65689
1.63245
1.62267
1.60801
1.59335
1.56891
1.56402
1.53958
1.53470
1.52003
1.51026
1.50048
1.49560
1.48093
1.48093
1.47116
1.47116
1.46138
1.46138
1.46138
1.46627
1.47605
1.45650
1.45161
1.45161
1.44672
1.46138
1.47605
1.53958
1.61290
1.70576
1.81329
1.90127
1.95503
1.98435
2.00391
1.99413
1.96480
1.95014
1.88660
1.85728
1.82306
1.78885
1.76930
1.74975
1.73509
1.70087
1.68132
1.67155
1.65689
1.63734
1.63734
1.64711
1.65689
1.65200
1.65200
1.65689
1.65200
1.63245
1.62267
1.62267
1.60312
1.57869
1.56402
1.55425
1.54936
1.52003
1.51026
1.50048
1.51026
1.47605
1.46627
1.46627
1.47605
1.45161
1.44672
1.44672
1.44672
1.45161
1.43695
1.44183
1.44672
1.44672
1.44183
1.44183
1.44672
1.46627
1.46138
1.50537
1.57869
1.67155
1.77419
1.86705
1.96969
1.99413
2.01368
2.01368
2.00879
1.97458
1.91104
1.87683
1.84261
1.80840
1.77419
1.75464
1.73998
1.71554
1.71554
1.68621
1.66666
1.65200
1.64222
1.64711
1.65689
1.66177
1.69110
1.66177
1.66177
1.65689
1.63734
1.66177
1.62267
1.60801
1.58357
1.56891
1.57869
1.54936
1.52492
1.51026
1.50537
1.51515
1.48582
1.47116
1.47116
1.50537
1.46138
1.45650
1.45650
1.49071
1.45650
1.45161
1.45650
1.47605
1.44672
1.44183
1.45161
1.46138
1.49071
1.53470
1.62267
1.73020
1.82795
1.91593
1.97947
2.02834
2.02834
2.01368
1.98924
1.95503
1.91593
1.87194
1.82795
1.80351
1.77908
1.74486
1.72043
1.70576
1.68132
1.65689
1.64222
1.64711
1.64711
1.66666
1.65689
1.66666
1.67155
1.66177
1.66666
1.66177
1.65200
1.62756
1.61779
1.61290
1.59335
1.57380
1.58846
1.54936
1.53470
1.51515
1.52003
1.50537
1.49560
1.48093
1.50537
1.47605
1.47605
1.46138
1.49560
1.46627
1.47116
1.46627
1.46627
1.46627
1.47116
1.46627
1.46627
1.47605
1.49560
1.53470
1.60801
1.70576
1.81329
1.89149
1.95992
2.01368
2.04301
2.04789
1.99902
1.96480
1.93548
1.89149
1.84261
1.81329
1.78885
1.76441
1.73020
1.70576
1.69110
1.67155
1.65200
1.65200
1.66666
1.66666
1.67155
1.68132
1.69110
1.69599
1.71554
1.69110
1.68621
1.67644
1.65200
1.63734
1.65689
1.61779
1.58846
1.57380
1.56891
1.56402
1.54447
1.53470
1.52981
1.53470
1.51026
1.51026
1.51026
1.54936
1.50537
1.50048
1.50537
1.51026
1.51026
1.51515
1.55425
1.62267
1.70576
1.79374
1.87683
1.95503
1.99902
2.04301
2.01368
2.00391
1.96480
1.92082
1.88660
1.86705
1.81818
1.78885
1.75953
1.73998
1.71065
1.68621
1.67155
1.66177
1.65689
1.65200
1.66177
1.68621
1.69110
1.68621
1.69599
1.70576
1.70576
1.68132
1.67155
1.66666
1.64711
1.64222
1.61290
1.59335
1.58846
1.56402
1.56402
1.55425
1.53958
1.52492
1.55425
1.52492
1.51515
1.50048
1.50048
1.51026
1.50537
1.52003
1.57380
1.67155
1.73998
1.81329
1.88660
1.94037
1.97947
2.00391
1.95503
1.93548
1.90615
1.86217
1.82795
1.82306
1.79863
1.73509
1.71065
1.68621
1.67155
1.64222
1.61779
1.61290
1.61779
1.63245
1.61779
1.62267
1.63245
1.62756
1.63734
1.61290
1.60801
1.59335
1.57869
1.55425
1.54936
1.56402
1.50537
1.49560
1.50537
1.48093
1.46138
1.45650
1.45161
1.44183
1.42717
1.41739
1.41739
1.41739
1.41251
1.42717
1.47605
1.56891
1.61290
1.69599
1.76930
1.82306
1.87194
1.85239
1.84261
1.83773
1.78885
1.75953
1.73020
1.71065
1.68132
1.65689
1.64711
1.62756
1.60312
1.60801
1.56891
1.55913
1.54447
1.53958
1.53958
1.54447
1.57380
1.56402
1.54447
1.53470
1.52003
1.50537
1.49560
1.49071
1.47116
1.45161
1.44183
1.43695
1.43206
1.41251
1.39784
1.40273
1.39296
1.37829
1.38807
1.38318
1.37341
1.36363
1.36363
1.36363
1.35874
1.39296
1.38318
1.42228
1.47605
1.52492
1.59335
1.65689
1.70087
1.71554
1.72043
1.73509
1.70576
1.68132
1.65200
1.62756
1.62756
1.59335
1.58357
1.57869
1.56891
1.57380
1.53470
1.52492
1.51515
1.50048
1.49560
1.49071
1.50048
1.49071
1.48582
1.48582
1.48582
1.47116
1.46138
1.45161
1.45161
1.43695
1.42717
1.41739
1.43206
1.40762
1.39296
1.38807
1.39296
1.37829
1.36852
1.36852
1.37341
1.36852
1.35386
1.35386
1.35386
1.35874
1.34897
1.34897
1.34897
1.35386
1.35874
1.37341
1.41251
1.45650
1.49560
1.54447
1.58357
1.63245
1.60801
1.62267
1.60312
1.59824
1.57869
1.56402
1.56891
1.55425
1.53958
1.53470
1.52981
1.53958
1.51515
1.50537
1.50048
1.50048
1.50048
1.49071
1.49560
1.50048
1.49071
1.49560
1.49071
1.49560
1.48093
1.47116
1.47116
1.47116
1.45161
1.47605
1.44183
1.45161
1.43695
1.43206
1.43206
1.43206
1.42717
1.43695
1.41739
1.42717
1.42228
1.41251
1.41739
1.41739
1.41739
1.41251
1.41251
1.41739
1.42717
1.40273
1.41251
1.41251
1.41251
1.41739
1.43206
1.48093
1.52003
1.54936
1.59335
1.62267
1.64711
1.62756
1.62756
1.62267
1.64222
1.60312
1.59824
1.59335
1.59824
1.58846
1.58846
1.58846
1.58846
1.57380
1.57869
1.57380
1.57869
1.56891
1.56891
1.57869
1.58357
1.58357
1.58357
1.58357
1.59824
1.59824
1.55913
1.55913
1.56402
1.54936
1.53958
1.54447
1.53958
1.52981
1.53958
1.52981
1.54447
1.52981
1.51515
1.52003
1.52003
1.52981
1.51515
1.51515
1.52981
1.52003
1.51026
1.54447
1.52003
1.51515
1.51026
1.51026
1.53470
1.52492
1.52492
1.54936
1.59335
1.64222
1.66666
1.69110
1.71065
1.72043
1.70576
1.69599
1.68621
1.68132
1.68621
1.65689
1.65200
1.65200
1.64222
1.65200
1.64222
1.64222
1.62756
1.62267
1.62756
1.63734
1.62756
1.66177
1.63734
1.64222
1.63734
1.63734
1.63245
1.63734
1.62267
1.61290
1.63245
1.61290
1.60312
1.62756
1.59824
1.60312
1.59335
1.58846
1.60312
1.59335
1.58846
1.57869
1.58357
1.60801
1.58357
1.57380
1.60801
1.58357
1.58846
1.56891
1.57380
1.57380
1.57380
1.56402
1.57380
1.58846
1.61290
1.64222
1.67644
1.71065
1.73509
1.73020
1.73020
1.72043
1.71554
1.69110
1.68621
1.69110
1.68621
1.66177
1.65689
1.66177
1.66177
1.64711
1.63734
1.64222
1.64711
1.63245
1.62756
1.66177
1.64222
1.63245
1.63734
1.63734
1.65689
1.62756
1.61779
1.61290
1.61290
1.63245
1.58846
1.58357
1.58846
1.57869
1.60312
1.56891
1.60801
1.56891
1.56402
1.56402
1.55913
1.56402
1.55425
1.56402
1.55425
1.55425
1.54447
1.54447
1.58357
1.54447
1.53470
1.56402
1.54447
1.53958
1.53958
1.54936
1.58846
1.61290
1.66177
1.67155
1.70087
1.70087
1.69110
1.67644
1.67155
1.66177
1.64222
1.65689
1.63734
1.63734
1.62756
1.62756
1.63245
1.63734
1.62267
1.61779
1.61779
1.62267
1.61290
1.61290
1.61290
1.62267
1.61779
1.61290
1.61290
1.62756
1.60312
1.59335
1.59824
1.59335
1.58357
1.57380
1.57380
1.59824
1.56891
1.56402
1.55913
1.56402
1.55913
1.54936
1.54936
1.54936
1.54447
1.54447
1.53958
1.54447
1.54447
1.53958
1.53470
1.53958
1.53958
1.53470
1.53470
1.54447
1.53470
1.55425
1.52492
1.53470
1.54936
1.56891
1.59824
1.64222
1.68132
1.68132
1.71554
1.68621
1.68132
1.66177
1.64711
1.64711
1.65689
1.62756
1.62267
1.62756
1.63734
1.62756
1.62756
1.63245
1.63245
1.61779
1.61290
1.61290
1.63245
1.61290
1.61779
1.63734
1.62756
1.61779
1.62267
1.60801
1.61290
1.61779
1.59335
1.58846
1.60312
1.58846
1.57869
1.61290
1.58357
1.57869
1.56891
1.56891
1.57380
1.56891
1.56402
1.55913
1.56891
1.56402
1.55425
1.58846
1.55913
1.56402
1.54447
1.54936
1.54936
1.54936
1.54447
1.54447
1.54936
1.54936
1.56402
1.54936
1.56402
1.59335
1.61779
1.66177
1.69110
1.73509
1.70576
1.70087
1.70087
1.69110
1.69599
1.66666
1.66177
1.66177
1.65200
1.65689
1.65200
1.66177
1.65200
1.64711
1.64711
1.65200
1.64222
1.63734
1.64222
1.64711
1.64711
1.64222
1.64711
1.65689
1.64222
1.63734
1.64222
1.63734
1.62756
1.63734
1.61779
1.62267
1.63245
1.61290
1.60801
1.61779
1.63734
1.60801
1.60801
1.61290
1.60801
1.60312
1.59824
1.59824
1.60801
1.59335
1.58846
1.60801
1.59335
1.58846
1.58357
1.58357
1.59335
1.57869
1.60801
1.58846
1.60801
1.61290
1.64711
1.68132
1.71554
1.73020
1.74486
1.73020
1.73020
1.71554
1.70576
1.70087
1.70087
1.68621
1.68132
1.68132
1.68621
1.67644
1.67644
1.69110
1.66666
1.65689
1.66177
1.66177
1.66666
1.67155
1.66666
1.67155
1.69110
1.67644
1.67155
1.67644
1.67155
1.66177
1.65200
1.65200
1.65689
1.65200
1.63734
1.63734
1.63734
1.63734
1.65200
1.62267
1.63734
1.62756
1.61779
1.61779
1.62267
1.61779
1.60312
1.61290
1.60801
1.61290
1.59824
1.59824
1.60312
1.60801
1.64222
1.63245
1.67644
1.70576
1.72531
1.74486
1.75464
1.75953
1.76930
1.73509
1.72531
1.72531
1.72531
1.70087
1.70087
1.70087
1.69110
1.69110
1.69110
1.68132
1.68621
1.66177
1.66177
1.67155
1.66666
1.66177
1.68132
1.67644
1.67155
1.67155
1.66666
1.66666
1.65689
1.64222
1.66177
1.63734
1.62756
1.62267
1.62267
1.61779
1.61779
1.61779
1.60312
1.63734
1.59824
1.58846
1.58357
1.60312
1.58357
1.57869
1.57380
1.57869
1.57869
1.56891
1.56402
1.56891
1.57380
1.56402
1.57380
1.59824
1.66666
1.67155
1.69599
1.72043
1.76441
1.72531
1.71554
1.71554
1.71554
1.73020
1.69110
1.69110
1.69110
1.67644
1.67644
1.67644
1.68132
1.67155
1.67155
1.66177
1.69110
1.65200
1.64711
1.65689
1.66177
1.65689
1.66666
1.65200
1.65689
1.64711
1.63734
1.63734
1.63245
1.62267
1.61779
1.60801
1.61290
1.60312
1.58846
1.59335
1.58846
1.59335
1.57380
1.58357
1.56891
1.56891
1.57380
1.56402
1.56402
1.56402
1.54936
1.54447
1.55425
1.55913
1.54447
1.55425
1.56402
1.58846
1.61290
1.66177
1.69110
1.72043
1.72531
1.73020
1.75464
1.72043
1.70087
1.69110
1.69110
1.69599
1.68621
1.69110
1.67644
1.67644
1.66666
1.65689
1.65689
1.65689
1.64222
1.63734
1.64222
1.65689
1.64711
1.64711
1.67644
1.65200
1.64222
1.65200
1.63734
1.63734
1.62756
1.61290
1.61779
1.61779
1.60801
1.60312
1.59335
1.59824
1.59335
1.58357
1.57869
1.57869
1.57869
1.56402
1.56891
1.57380
1.56891
1.56402
1.55425
1.55913
1.56402
1.54936
1.56891
1.55425
1.55913
1.55425
1.56891
1.59335
1.64222
1.66666
1.70576
1.75464
1.76441
1.73998
1.73020
1.72531
1.72531
1.71065
1.70087
1.70087
1.70087
1.69599
1.72043
1.68132
1.68621
1.67155
1.66177
1.68132
1.66177
1.65689
1.66666
1.66177
1.67644
1.69110
1.67155
1.66666
1.67644
1.66666
1.66177
1.65689
1.65689
1.66666
1.63734
1.64222
1.65200
1.63245
1.62756
1.62267
1.62756
1.63734
1.60801
1.63245
1.61290
1.61290
1.59335
1.59824
1.59824
1.59335
1.58357
1.58846
1.58846
1.59824
1.58357
1.59335
1.58846
1.58846
1.59335
1.60801
1.65689
1.69110
1.72043
1.74486
1.76441
1.76441
1.76441
1.74486
1.74486
1.73998
1.73509
1.71554
1.71065
1.71554
1.70087
1.70087
1.69110
1.69599
1.67644
1.67644
1.67155
1.67644
1.69110
1.66666
1.67155
1.71065
1.67644
1.67644
1.67155
1.67644
1.70087
1.65689
1.65689
1.66177
1.64711
1.65689
1.63734
1.63734
1.63245
1.61779
1.61779
1.61779
1.61290
1.60312
1.63734
1.60801
1.60801
1.59335
1.59335
1.60312
1.59824
1.58846
1.58846
1.58846
1.59335
1.59335
1.60312
1.63734
1.67644
1.70087
1.73509
1.76441
1.77908
1.77419
1.77908
1.76930
1.77419
1.75464
1.75464
1.73998
1.73998
1.72531
1.71554
1.72531
1.74486
1.69599
1.68621
1.68621
1.69599
1.68621
1.68132
1.71065
1.69599
1.70087
1.69110
1.70576
1.69599
1.68621
1.69110
1.68132
1.68621
1.67155
1.65689
1.68132
1.66177
1.66177
1.65200
1.68132
1.65200
1.65200
1.63734
1.64222
1.64222
1.64222
1.63245
1.63245
1.66177
1.64222
1.63245
1.63734
1.67155
1.66666
1.70087
1.73020
1.77908
1.80840
1.81329
1.82306
1.82795
1.83284
1.83284
1.80351
1.79863
1.79374
1.78396
1.76930
1.75953
1.75464
1.73998
1.73020
1.71554
1.71554
1.70576
1.70087
1.70087
1.71065
1.70576
1.73509
1.70576
1.73509
1.70087
1.70576
1.69599
1.70087
1.68621
1.67644
1.70576
1.67155
1.67155
1.65200
1.68132
1.64711
1.64222
1.63245
1.64711
1.66177
1.62756
1.61290
1.61290
1.61290
1.60801
1.60312
1.60312
1.61290
1.62756
1.65200
1.69599
1.73998
1.77908
1.81329
1.80840
1.81818
1.81818
1.80351
1.80351
1.79863
1.78885
1.76930
1.76441
1.77908
1.78396
1.73509
1.75953
1.72531
1.72043
1.71065
1.69599
1.70087
1.71554
1.69599
1.69599
1.70087
1.70087
1.70087
1.68621
1.70087
1.68621
1.68621
1.66666
1.66666
1.66177
1.65200
1.63734
1.64711
1.63734
1.62756
1.61779
1.60801
1.61290
1.60312
1.59824
1.59824
1.59824
1.59824
1.58846
1.58357
1.59335
1.61779
1.62756
1.65689
1.68621
1.72531
1.75953
1.79863
1.81818
1.82795
1.81818
1.81818
1.83773
1.79863
1.77908
1.76930
1.76441
1.75953
1.73998
1.73998
1.73509
1.72531
1.70576
1.71065
1.69599
1.70087
1.69110
1.69599
1.69599
1.70576
1.70576
1.69110
1.69599
1.69110
1.67644
1.66666
1.66177
1.66177
1.65200
1.63734
1.64222
1.63734
1.62756
1.61779
1.61290
1.61290
1.60312
1.59335
1.59335
1.59335
1.58846
1.57869
1.61290
1.58846
1.57380
1.56891
1.57869
1.59824
1.62756
1.66666
1.71554
1.76930
1.79374
1.83773
1.81818
1.82795
1.82795
1.81818
1.80840
1.78885
1.78396
1.76441
1.75464
1.74975
1.74486
1.73020
1.71554
1.71065
1.71065
1.69110
1.68621
1.69599
1.70087
1.69599
1.69110
1.69599
1.72531
1.68621
1.69599
1.67644
1.69599
1.66666
1.66666
1.65200
1.66177
1.63734
1.62756
1.62267
1.62267
1.60801
1.59824
1.62267
1.63245
1.62267
1.60312
1.59824
1.58846
1.57869
1.57380
1.57380
1.57869
1.57380
1.57380
1.57869
1.59335
1.64222
1.66666
1.72043
1.76441
1.80351
1.81329
1.82306
1.83773
1.83284
1.81329
1.80351
1.80351
1.79863
1.75953
1.75464
1.74975
1.73998
1.72043
1.71554
1.70576
1.70087
1.71554
1.69110
1.72531
1.70087
1.69599
1.69110
1.70087
1.70087
1.69110
1.67644
1.65689
1.66666
1.58357
1.52003
1.45161
1.39296
1.33431
1.33919
1.32453
1.36363
1.42228
1.50048
1.61290
1.65200
1.68621
1.71554
1.74975
1.77908
1.78885
1.78396
1.81818
1.78885
1.78396
1.75953
1.76930
1.79374
1.82306
1.86217
1.88660
1.91593
1.93059
1.92082
1.92082
1.94525
1.89638
1.86705
1.84750
1.83773
1.81329
1.78396
1.76441
1.74486
1.73020
1.72531
1.71554
1.71065
1.72043
1.73509
1.75464
1.75464
1.75953
1.76441
1.76930
1.76930
1.74975
1.71554
1.71065
1.69599
1.68621
1.67155
1.65689
1.65689
1.65689
1.63734
1.62756
1.63245
1.62756
1.60801
1.61290
1.62756
1.65200
1.66177
1.67644
1.71065
1.72043
1.70576
1.69599
1.69110
1.69599
1.72531
1.73509
1.80840
1.82306
1.85239
1.86217
1.87683
1.88660
1.90127
1.85728
1.84261
1.83284
1.81329
1.78396
1.76930
1.75953
1.73998
1.72043
1.70087
1.69110
1.67644
1.65689
1.65200
1.65200
1.65200
1.64222
1.64711
1.64711
1.66666
1.64711
1.64222
1.63245
1.63245
1.60801
1.60312
1.59824
1.59824
1.57869
1.57869
1.56402
1.55913
1.54447
1.54447
1.57869
1.55425
1.52492
1.52003
1.51515
1.52981
1.51515
1.51026
1.51515
1.51515
1.52492
1.52003
1.52492
1.54447
1.55913
1.58357
1.63734
1.68132
1.73020
1.77908
1.81329
1.86217
1.91593
1.88660
1.88660
1.89149
1.88660
1.87194
1.87194
1.87683
1.87683
1.87683
1.84750
1.83284
1.81818
1.79374
1.77908
1.76930
1.76441
1.73509
1.72531
1.74486
1.70087
1.67644
1.66666
1.65689
1.65689
1.64222
1.66666
1.65200
1.63734
1.62267
1.61779
1.61779
1.61779
1.60312
1.59824
1.59335
1.59335
1.57869
1.57869
1.56891
1.56402
1.54936
1.53958
1.52981
1.52981
1.50537
1.49071
1.50048
1.52003
1.57869
1.59335
1.65689
1.72043
1.76441
1.79374
1.81818
1.83284
1.82306
1.80840
1.80351
1.79863
1.78396
1.76441
1.75464
1.74975
1.73509
1.72043
1.70576
1.70087
1.69599
1.67644
1.67155
1.67155
1.67155
1.66177
1.66666
1.67155
1.67155
1.65200
1.65200
1.61290
1.59335
1.56402
1.54447
1.52981
1.52492
1.51515
1.52003
1.55913
1.55425
1.56402
1.57869
1.59824
1.62267
1.62267
1.64711
1.62756
1.66177
1.62756
1.62267
1.62267
1.62267
1.60801
1.59824
1.59335
1.59824
1.59824
1.61779
1.66177
1.71065
1.75464
1.78396
1.81329
1.83284
1.83284
1.82306
1.82795
1.80840
1.79374
1.77419
1.76930
1.78396
1.75464
1.74486
1.73509
1.73998
1.73509
1.72531
1.71554
1.72043
1.75953
1.72043
1.73509
1.73020
1.72531
1.71554
1.71554
1.72043
1.70087
1.68132
1.66177
1.64711
1.63734
1.61290
1.60312
1.58846
1.58357
1.55913
1.54936
1.54447
1.57380
1.54447
1.53470
1.52003
1.51515
1.51026
1.50537
1.51026
1.54447
1.51026
1.50537
1.52492
1.53958
1.55913
1.59824
1.65689
1.74486
1.76441
1.80840
1.82306
1.86217
1.83284
1.82306
1.81818
1.83284
1.79374
1.76930
1.75953
1.75464
1.73998
1.72531
1.71065
1.72531
1.69110
1.68132
1.68132
1.69110
1.69110
1.68621
1.69110
1.70087
1.70087
1.68621
1.71065
1.68621
1.68132
1.66177
1.65200
1.64711
1.64222
1.62267
1.62267
1.61290
1.60801
1.58846
1.58357
1.58357
1.58357
1.56402
1.56402
1.56402
1.55913
1.54936
1.54936
1.54936
1.55913
1.58357
1.59824
1.61779
1.66177
1.70576
1.74975
1.79374
1.83284
1.84261
1.84750
1.84750
1.84261
1.82306
1.81818
1.79374
1.78396
1.76930
1.74975
1.74486
1.74486
1.72531
1.70576
1.70087
1.70087
1.69110
1.70087
1.68621
1.72531
1.69599
1.69110
1.68621
1.72043
1.68621
1.66666
1.66177
1.65689
1.65200
1.63245
1.62756
1.62756
1.61779
1.60312
1.59824
1.59824
1.62267
1.58846
1.57869
1.57869
1.57380
1.56402
1.56402
1.56402
1.56891
1.58357
1.56402
1.55913
1.55425
1.54936
1.55913
1.59335
1.67155
1.69599
1.74486
1.78885
1.85728
1.84750
1.84750
1.84750
1.84261
1.82306
1.80840
1.79863
1.80840
1.80351
1.78885
1.78885
1.78885
1.77908
1.75953
1.74486
1.74486
1.71554
1.70576
1.73509
1.71554
1.71065
1.69599
1.69599
1.68621
1.68621
1.66666
1.65689
1.66177
1.65200
1.63734
1.63245
1.62756
1.62267
1.61779
1.61290
1.60312
1.59335
1.58846
1.58357
1.58357
1.58357
1.57380
1.58357
1.60312
1.63734
1.65689
1.69110
1.71065
1.70576
1.67155
1.65200
1.64711
1.66177
1.67155
1.71065
1.78396
1.80840
1.83773
1.87683
1.89149
1.90127
1.89149
1.88660
1.86705
1.86217
1.83773
1.81818
1.81329
1.80351
1.79374
1.74975
1.73509
1.71554
1.70576
1.68621
1.69110
1.69599
1.69599
1.70087
1.70576
1.71065
1.70087
1.68132
1.66177
1.64222
1.61290
1.58357
1.55913
1.55425
1.54936
1.53470
1.52492
1.52981
1.52003
1.51026
1.53958
1.51515
1.50537
1.49560
1.49560
1.50048
1.51026
1.49560
1.49071
1.49560
1.49560
1.52003
1.49071
1.49560
1.49560
1.48582
1.49560
1.49560
1.50537
1.52492
1.56891
1.63245
1.69599
1.73998
1.77908
1.80351
1.81818
1.81329
1.80351
1.79374
1.78396
1.75953
1.73998
1.73509
1.73020
1.73020
1.75464
1.73020
1.74486
1.74486
1.73509
1.73509
1.73998
1.74486
1.74486
1.76930
1.76930
1.75464
1.73998
1.73509
1.73998
1.73020
1.74486
1.71065
1.71065
1.69599
1.67644
1.68621
1.65200
1.63245
1.59824
1.57869
1.56402
1.55425
1.53470
1.52492
1.54447
1.52003
1.50537
1.49071
1.49071
1.48582
1.49071
1.46627
1.46138
1.46138
1.46138
1.47605
1.51515
1.59335
1.61779
1.67644
1.72531
1.76441
1.77419
1.79374
1.78396
1.78396
1.76441
1.74486
1.75953
1.72043
1.70576
1.69110
1.68132
1.67644
1.65689
1.64222
1.63245
1.63734
1.63734
1.62756
1.63734
1.64711
1.65200
1.64711
1.65200
1.67644
1.65200
1.65689
1.63245
1.65689
1.61779
1.60312
1.59824
1.59335
1.59335
1.57380
1.56891
1.56891
1.58846
1.57869
1.54936
1.54936
1.57869
1.56891
1.55913
1.55425
1.54936
1.53470
1.53470
1.53958
1.54447
1.53958
1.56402
1.60312
1.66666
1.71554
1.77419
1.81818
1.85239
1.85239
1.86217
1.85239
1.84750
1.82795
1.79863
1.78396
1.76930
1.74975
1.73020
1.72043
1.73020
1.69110
1.67644
1.66666
1.67155
1.66177
1.68621
1.68132
1.68621
1.68132
1.68132
1.67644
1.71065
1.67155
1.65689
1.67644
1.65200
1.64222
1.63734
1.61290
1.61290
1.60312
1.58846
1.57869
1.57380
1.56891
1.56402
1.55425
1.55913
1.55425
1.54447
1.54447
1.57380
1.54936
1.53470
1.53470
1.53958
1.55425
1.56402
1.60312
1.66177
1.75953
1.79863
1.82306
1.86217
1.89149
1.87194
1.86705
1.86217
1.86217
1.83284
1.80351
1.78885
1.77908
1.75953
1.74975
1.73509
1.73020
1.71065
1.69110
1.68621
1.69110
1.68621
1.68621
1.69110
1.73020
1.69110
1.68621
1.69110
1.68621
1.67155
1.65689
1.68132
1.67644
1.64222
1.62756
1.63245
1.61779
1.59824
1.58357
1.57380
1.57869
1.57380
1.55913
1.55425
1.55913
1.55425
1.57380
1.55425
1.55425
1.54447
1.53958
1.53958
1.53958
1.54447
1.54447
1.58357
1.61779
1.67155
1.72531
1.78885
1.83773
1.87683
1.88172
1.88172
1.87683
1.86705
1.84750
1.82306
1.80840
1.79863
1.77908
1.76441
1.75953
1.74486
1.72531
1.72531
1.70087
1.73020
1.69110
1.68621
1.69599
1.69599
1.69599
1.68621
1.69110
1.70087
1.67644
1.66177
1.64711
1.64222
1.63245
1.61290
1.60801
1.60312
1.58846
1.57380
1.56891
1.56891
1.55913
1.57380
1.54447
1.54447
1.53958
1.52981
1.52981
1.52492
1.52492
1.52981
1.52003
1.52003
1.51515
1.50537
1.50537
1.51026
1.53958
1.52981
1.55425
1.60312
1.66666
1.71554
1.76930
1.80840
1.83773
1.83284
1.83284
1.85239
1.81329
1.78396
1.76930
1.76930
1.73998
1.72043
1.71065
1.70087
1.70087
1.68132
1.66177
1.65200
1.65200
1.64711
1.64222
1.64711
1.65200
1.64222
1.63734
1.63245
1.62756
1.61779
1.60312
1.59824
1.62267
1.58846
1.56891
1.56891
1.55425
1.53958
1.52492
1.52003
1.52492
1.51515
1.50048
1.50048
1.50048
1.49560
1.49560
1.49560
1.49071
1.48582
1.47605
1.47605
1.48093
1.48093
1.47116
1.46627
1.47116
1.49560
1.50537
1.52492
1.56402
1.62267
1.65689
1.69599
1.73020
1.75464
1.74486
1.74486
1.75464
1.73020
1.70576
1.69110
1.68621
1.69599
1.66177
1.65200
1.64711
1.63734
1.62756
1.60801
1.60801
1.64711
1.60801
1.63245
1.60801
1.64711
1.61290
1.61290
1.59824
1.62267
1.58846
1.59335
1.57380
1.56891
1.56402
1.54936
1.54447
1.53958
1.52981
1.52003
1.51515
1.51515
1.51026
1.50048
1.49560
1.50048
1.49560
1.48093
1.48093
1.48582
1.48582
1.47605
1.47605
1.51026
1.48093
1.47116
1.47116
1.48093
1.51515
1.49560
1.53470
1.57869
1.65689
1.65200
1.68621
1.70087
1.70576
1.69110
1.69110
1.68132
1.67644
1.66177
1.65200
1.64222
1.63734
1.62267
1.63734
1.60801
1.63245
1.58846
1.58357
1.58357
1.59335
1.60312
1.59335
1.59824
1.60312
1.59824
1.59335
1.58846
1.59335
1.57380
1.56891
1.55913
1.55425
1.54936
1.53958
1.53470
1.54447
1.53470
1.53958
1.52003
1.52981
1.51515
1.51026
1.51515
1.51515
1.53958
1.50048
1.50048
1.50537
1.50537
1.50537
1.50048
1.52981
1.50048
1.53470
1.52003
1.58357
1.58846
1.62756
1.66177
1.68621
1.70087
1.68621
1.68621
1.68621
1.67644
1.65689
1.64711
1.65200
1.67644
1.63245
1.62756
1.62267
1.62756
1.60801
1.59824
1.59335
1.60312
1.59335
1.59824
1.61779
1.60801
1.60312
1.59824
1.59335
1.60801
1.58846
1.57869
1.57380
1.56891
1.59335
1.54936
1.54936
1.55425
1.54447
1.53958
1.53470
1.56402
1.52492
1.52003
1.51515
1.52492
1.51515
1.51026
1.51026
1.51026
1.51026
1.50048
1.50537
1.50537
1.50537
1.49560
1.50537
1.52003
1.54936
1.57380
1.61290
1.65689
1.68132
1.67644
1.67644
1.67644
1.66666
1.66177
1.65200
1.65200
1.64711
1.63734
1.63245
1.63734
1.63734
1.62267
1.62267
1.65200
1.61779
1.60801
1.63245
1.60801
1.61779
1.60801
1.60801
1.61779
1.61290
1.60312
1.58846
1.58846
1.59335
1.57869
1.57380
1.56402
1.56402
1.55913
1.55425
1.55425
1.54936
1.54936
1.53958
1.53470
1.53958
1.53470
1.52492
1.52492
1.52981
1.53470
1.52003
1.53958
1.52003
1.52981
1.51515
1.52003
1.51515
1.53470
1.50537
1.51515
1.52492
1.55425
1.57380
1.61290
1.64711
1.67155
1.67155
1.70087
1.67155
1.67155
1.65200
1.64222
1.66666
1.64222
1.63245
1.63734
1.65689
1.63734
1.62756
1.62267
1.62267
1.62756
1.62756
1.60801
1.61779
1.61290
1.60801
1.61290
1.60801
1.60801
1.62756
1.59335
1.59335
1.59335
1.57869
1.59335
1.56891
1.57869
1.56402
1.55913
1.54936
1.55425
1.54447
1.54447
1.53470
1.53958
1.53470
1.52492
1.52492
1.52492
1.55425
1.51026
1.51515
1.52003
1.51515
1.51515
1.50537
1.52492
1.50537
1.50048
1.50048
1.50537
1.51026
1.51026
1.53470
1.55913
1.62756
1.61779
1.65200
1.66177
1.66666
1.65689
1.65200
1.64711
1.68132
1.63734
1.63245
1.63245
1.64222
1.65689
1.62756
1.62756
1.63734
1.64222
1.61290
1.61290
1.61290
1.60801
1.60801
1.61779
1.62756
1.61290
1.60801
1.61290
1.61290
1.59824
1.59824
1.59335
1.58846
1.61779
1.57869
1.60312
1.57869
1.57869
1.55913
1.56402
1.55913
1.55425
1.56402
1.54936
1.56891
1.54447
1.55913
1.53958
1.54447
1.53958
1.52492
1.52981
1.53470
1.53470
1.52492
1.52492
1.52492
1.52981
1.52003
1.52492
1.52981
1.56891
1.53958
1.60312
1.60801
1.65200
1.67155
1.69110
1.71554
1.70576
1.69110
1.69110
1.68621
1.68132
1.67155
1.66666
1.66666
1.67155
1.66666
1.66177
1.65689
1.65689
1.64711
1.64222
1.64711
1.68132
1.64711
1.64222
1.65200
1.65689
1.65200
1.64711
1.65200
1.65200
1.64711
1.63245
1.62756
1.63734
1.62756
1.61290
1.62756
1.61779
1.61779
1.60312
1.60312
1.60312
1.60312
1.59335
1.59335
1.59824
1.59335
1.61779
1.58846
1.58846
1.58846
1.57869
1.57869
1.58846
1.58846
1.60312
1.57869
1.60312
1.58846
1.61779
1.60801
1.66177
1.68132
1.70087
1.73020
1.74975
1.78885
1.74975
1.74486
1.74975
1.73998
1.72531
1.72043
1.74486
1.71554
1.71065
1.70087
1.70087
1.70576
1.69110
1.71065
1.68132
1.70087
1.69110
1.69110
1.69110
1.70087
1.70087
1.69110
1.69599
1.70576
1.69110
1.68132
1.67644
1.67644
1.67155
1.65689
1.65689
1.69110
1.65200
1.65689
1.63734
1.65200
1.63734
1.62756
1.62267
1.63245
1.62267
1.61779
1.61290
1.64222
1.61779
1.62267
1.60801
1.60801
1.61779
1.60801
1.61779
1.64222
1.68132
1.71065
1.73998
1.78885
1.78396
1.77908
1.77908
1.78396
1.76930
1.75464
1.74486
1.76930
1.73998
1.72531
1.71554
1.71554
1.71554
1.70087
1.69599
1.68621
1.68621
1.68132
1.67644
1.68132
1.69110
1.68621
1.68621
1.68621
1.70576
1.67644
1.67644
1.66666
1.67155
1.65689
1.64711
1.63734
1.64222
1.62756
1.62756
1.61779
1.61779
1.61290
1.60312
1.59824
1.59824
1.59335
1.58357
1.58357
1.58357
1.58357
1.57380
1.57380
1.57869
1.57380
1.56402
1.56402
1.57380
1.58846
1.59824
1.64222
1.68621
1.72531
1.73998
1.75953
1.77908
1.79863
1.75464
1.74486
1.77419
1.74486
1.72531
1.72043
1.72043
1.73509
1.70087
1.69599
1.69599
1.69110
1.67644
1.67155
1.66666
1.67155
1.68621
1.66177
1.67644
1.67155
1.66177
1.65689
1.65200
1.65689
1.64711
1.65200
1.63245
1.65689
1.62267
1.62267
1.60801
1.60801
1.60312
1.58846
1.58846
1.58846
1.58357
1.59335
1.59824
1.57869
1.58846
1.58357
1.55425
1.55425
1.54936
1.54447
1.54447
1.54936
1.55425
1.53958
1.53958
1.55425
1.57380
1.59824
1.63734
1.68132
1.72043
1.73998
1.74486
1.75464
1.75464
1.76441
1.73020
1.73020
1.73020
1.71065
1.70576
1.70087
1.70576
1.69110
1.67644
1.67644
1.67155
1.66177
1.66177
1.65689
1.66177
1.67644
1.65689
1.66177
1.66666
1.66177
1.65200
1.65200
1.67155
1.64222
1.64222
1.62756
1.63734
1.61779
1.61290
1.60312
1.60312
1.59824
1.58846
1.58357
1.58846
1.57869
1.56891
1.56891
1.57380
1.56891
1.55913
1.55913
1.56402
1.56402
1.55425
1.55425
1.55913
1.55913
1.55425
1.55425
1.57380
1.58357
1.59335
1.59824
1.64222
1.68621
1.74486
1.74975
1.76930
1.78396
1.77419
1.76930
1.76441
1.76930
1.74486
1.73509
1.73020
1.73509
1.73509
1.70576
1.70576
1.70576
1.68621
1.68132
1.67644
1.67644
1.68132
1.67155
1.68132
1.68621
1.68132
1.67644
1.67644
1.68132
1.66666
1.66177
1.65689
1.65689
1.66177
1.63245
1.63734
1.63245
1.62756
1.61290
1.63734
1.60801
1.59824
1.60801
1.59335
1.59824
1.59824
1.60801
1.57869
1.61290
1.58846
1.58357
1.57869
1.57869
1.57869
1.56891
1.57380
1.57869
1.57380
1.56402
1.56891
1.57869
1.60312
1.64222
1.66666
1.71065
1.75953
1.77419
1.79374
1.80351
1.81329
1.79374
1.78396
1.79374
1.77908
1.75464
1.74975
1.76930
1.73998
1.72531
1.72043
1.71065
1.73998
1.69599
1.69599
1.69599
1.70576
1.70576
1.70087
1.71065
1.71554
1.71065
1.71065
1.69599
1.70087
1.69110
1.68132
1.67155
1.67155
1.66666
1.65200
1.65689
1.65200
1.65689
1.62756
1.64222
1.61779
1.61779
1.60801
1.60312
1.60801
1.60312
1.59335
1.59335
1.59335
1.59335
1.58357
1.58357
1.57869
1.58357
1.57380
1.56891
1.57869
1.57869
1.56891
1.56891
1.58357
1.60312
1.62756
1.66666
1.73998
1.76930
1.78396
1.82795
1.81329
1.82306
1.80840
1.79374
1.78885
1.78396
1.78885
1.74975
1.74486
1.73998
1.72043
1.70576
1.71065
1.70087
1.69110
1.68132
1.68621
1.69110
1.69110
1.69110
1.69599
1.70087
1.69599
1.69110
1.68621
1.69599
1.68621
1.70576
1.67155
1.67644
1.66177
1.65200
1.64711
1.65689
1.63734
1.64711
1.62267
1.62267
1.61779
1.60312
1.59824
1.60312
1.59824
1.58846
1.58846
1.59335
1.59335
1.58357
1.58357
1.58846
1.58846
1.57869
1.58357
1.59335
1.60801
1.62267
1.65689
1.73998
1.75464
1.77908
1.80840
1.82795
1.84261
1.83284
1.82306
1.81818
1.81818
1.80351
1.77908
1.76930
1.76441
1.75953
1.73020
1.72531
1.73020
1.70576
1.69110
1.69599
1.70087
1.70087
1.70087
1.70576
1.71065
1.71065
1.70087
1.70087
1.71065
1.69599
1.68132
1.68132
1.68132
1.66666
1.65689
1.64711
1.65689
1.64222
1.62756
1.61779
1.61779
1.61290
1.59824
1.59335
1.59824
1.59335
1.58357
1.58357
1.58846
1.58357
1.57869
1.57380
1.58846
1.58357
1.57869
1.58357
1.61779
1.66177
1.70087
1.74486
1.81818
1.82306
1.82795
1.84261
1.82795
1.82795
1.81329
1.80351
1.78885
1.78396
1.76930
1.74975
1.74486
1.73998
1.73509
1.71065
1.70087
1.70087
1.68621
1.68132
1.68621
1.69599
1.69110
1.69110
1.70087
1.70087
1.70087
1.68621
1.68621
1.68132
1.67644
1.65689
1.65689
1.64711
1.66666
1.62267
1.62267
1.62267
1.61779
1.60312
1.59335
1.59824
1.59335
1.57869
1.57380
1.57869
1.57380
1.56402
1.56402
1.56402
1.56891
1.55913
1.55913
1.58357
1.59824
1.57869
1.62756
1.63734
1.69110
1.73509
1.77908
1.81329
1.83284
1.83284
1.82795
1.83284
1.82306
1.80351
1.78885
1.80351
1.77419
1.75464
1.74486
1.73998
1.73509
1.72043
1.70087
1.69599
1.72531
1.69599
1.69599
1.69599
1.71065
1.70576
1.70576
1.69599
1.73020
1.69599
1.69599
1.67644
1.68621
1.66666
1.68132
1.64222
1.64711
1.65689
1.62267
1.61779
1.61290
1.60801
1.59335
1.58846
1.58846
1.58357
1.57380
1.57380
1.57869
1.57869
1.57380
1.57380
1.57869
1.57869
1.56891
1.57380
1.58846
1.65200
1.66177
1.73020
1.76441
1.80351
1.81818
1.86217
1.85239
1.86217
1.84750
1.83284
1.82306
1.81818
1.80840
1.77419
1.76930
1.76441
1.74975
1.73509
1.72531
1.72531
1.73998
1.70576
1.73020
1.71554
1.71065
1.71065
1.71554
1.72531
1.71554
1.71065
1.70576
1.70576
1.69599
1.68132
1.68132
1.68132
1.66666
1.66177
1.64711
1.64711
1.67155
1.62756
1.62756
1.62267
1.63734
1.63245
1.62267
1.62756
1.62267
1.61779
1.62267
1.59335
1.59824
1.61779
1.60312
1.58846
1.58357
1.58357
1.59335
1.63245
1.67644
1.72043
1.77419
1.82306
1.85728
1.86217
1.87194
1.87683
1.87194
1.85239
1.83773
1.83284
1.82795
1.79863
1.78396
1.77908
1.77419
1.75464
1.73998
1.73020
1.73020
1.74486
1.72043
1.73020
1.73998
1.76441
1.73509
1.74486
1.74486
1.76930
1.72531
1.75464
1.72531
1.71554
1.70087
1.71554
1.69110
1.68132
1.66666
1.65689
1.66666
1.65200
1.64222
1.64222
1.64222
1.63245
1.62267
1.62267
1.62267
1.62267
1.61290
1.61290
1.61290
1.61290
1.60312
1.60801
1.64222
1.67155
1.70576
1.75464
1.82306
1.81818
1.81329
1.81818
1.82306
1.81818
1.78396
1.76441
1.75953
1.77419
1.73020
1.71554
1.72531
1.71554
1.71065
1.69599
1.69110
1.71065
1.69110
1.72043
1.70087
1.72531
1.72043
1.72531
1.72531
1.73020
1.72531
1.71554
1.73020
1.71065
1.70087
1.68621
1.68132
1.68621
1.66666
1.65200
1.64222
1.64711
1.63734
1.63245
1.61779
1.62267
1.61779
1.60801
1.60801
1.60801
1.60312
1.59335
1.59335
1.59824
1.59824
1.58846
1.58357
1.58846
1.58846
1.58846
1.61290
1.65689
1.71065
1.75953
1.81329
1.85728
1.88660
1.89149
1.89149
1.88660
1.89149
1.85728
1.84261
1.82795
1.83773
1.80351
1.78885
1.77908
1.77908
1.78885
1.73998
1.73998
1.73509
1.73998
1.72043
1.73509
1.73020
1.73020
1.73020
1.72043
1.73020
1.71065
1.69599
1.69110
1.69110
1.67644
1.66177
1.65200
1.65200
1.64222
1.62756
1.61779
1.61779
1.60801
1.59335
1.59335
1.59335
1.60801
1.58357
1.57869
1.58357
1.57869
1.56891
1.56891
1.57380
1.57380
1.55913
1.55913
1.59335
1.57380
1.55913
1.56891
1.59335
1.63245
1.67644
1.73509
1.78885
1.84261
1.86217
1.88660
1.88172
1.88172
1.86217
1.83773
1.82795
1.81818
1.79374
1.77419
1.76441
1.76441
1.74486
1.73020
1.72043
1.72043
1.70087
1.71065
1.70087
1.71065
1.71065
1.70576
1.71554
1.71065
1.70576
1.69110
1.68132
1.68621
1.67155
1.65200
1.64711
1.64222
1.63245
1.61290
1.60801
1.60312
1.59335
1.58357
1.58357
1.58357
1.61290
1.57869
1.57869
1.57380
1.56891
1.56402
1.56891
1.56891
1.57380
1.55913
1.55913
1.57869
1.58357
1.56891
1.57380
1.57380
1.56891
1.54936
1.55425
1.57380
1.60312
1.63245
1.68621
1.75464
1.81329
1.84750
1.87683
1.90127
1.90127
1.88660
1.87194
1.87194
1.84261
1.81818
1.80351
1.78396
1.77908
1.78396
1.73998
1.73509
1.72531
1.71554
1.70576
1.70576
1.71065
1.71065
1.71554
1.71065
1.72043
1.71554
1.70576
1.72043
1.70087
1.69110
1.67644
1.66666
1.66177
1.65200
1.63734
1.62756
1.62267
1.62267
1.60312
1.59824
1.59824
1.58846
1.57869
1.57869
1.58357
1.58357
1.57380
1.57380
1.57869
1.57869
1.57869
1.57869
1.57380
1.57380
1.56402
1.56402
1.56402
1.56891
1.54936
1.55425
1.55913
1.58357
1.60801
1.68621
1.73020
1.77908
1.81329
1.84261
1.87194
1.89638
1.90615
1.87683
1.86705
1.86217
1.83284
1.81329
1.79863
1.81818
1.76441
1.74975
1.73509
1.72531
1.73998
1.70087
1.70087
1.72531
1.71065
1.71554
1.73020
1.73020
1.72531
1.72043
1.71554
1.74486
1.70576
1.72043
1.68132
1.67644
1.67155
1.64711
1.64711
1.64711
1.64711
1.63734
1.62267
1.60801
1.60312
1.58846
1.58357
1.58846
1.59335
1.58357
1.57869
1.58357
1.57869
1.57380
1.57380
1.57380
1.57869
1.56402
1.55913
1.57869
1.57380
1.56402
1.57869
1.61290
1.67155
1.72531
1.77908
1.82795
1.88660
1.88172
1.88172
1.88660
1.88172
1.85239
1.83284
1.80840
1.79374
1.77419
1.75464
1.73998
1.73509
1.71065
1.68621
1.67155
1.67644
1.66666
1.66666
1.67155
1.68621
1.69599
1.67644
1.68132
1.68621
1.68621
1.68621
1.68621
1.65689
1.67644
1.62756
1.64711
1.63734
1.63245
1.59335
1.58357
1.58357
1.57869
1.56402
1.55425
1.55425
1.55425
1.53958
1.53958
1.53958
1.57380
1.53470
1.53470
1.53470
1.53470
1.52492
1.52003
1.52981
1.53470
1.52492
1.52003
1.52492
1.52981
1.55425
1.56402
1.60312
1.65200
1.70576
1.77908
1.82795
1.89149
1.89638
1.90127
1.90615
1.93059
1.87683
1.85239
1.83284
1.83284
1.79374
1.76930
1.75464
1.74975
1.73509
1.71554
1.70087
1.70087
1.69110
1.68621
1.69110
1.70087
1.70087
1.69599
1.70087
1.70087
1.70087
1.68621
1.68132
1.67644
1.67155
1.64711
1.64222
1.63734
1.62756
1.61290
1.60312
1.60312
1.58846
1.57869
1.56891
1.57380
1.57869
1.56402
1.56402
1.56402
1.56402
1.55425
1.54936
1.55425
1.58357
1.57380
1.56402
1.55425
1.55425
1.54936
1.54447
1.54936
1.55913
1.56891
1.59824
1.65200
1.72531
1.79374
1.87683
1.89638
1.93059
1.94037
1.93548
1.93059
1.91593
1.89149
1.85728
1.84261
1.84750
1.79863
1.77419
1.76441
1.75464
1.73509
1.72043
1.70576
1.70576
1.70576
1.69599
1.70576
1.71554
1.71554
1.71065
1.71554
1.71554
1.71554
1.70087
1.68621
1.68621
1.67644
1.65689
1.64222
1.63734
1.63245
1.61290
1.59824
1.59824
1.59824
1.57869
1.57380
1.57380
1.60801
1.56891
1.56402
1.56402
1.56402
1.55425
1.54936
1.55425
1.55913
1.55913
1.55425
1.57380
1.58357
1.57380
1.60312
1.65689
1.72531
1.78885
1.84750
1.89638
1.93548
1.95014
1.94525
1.94525
1.93059
1.90615
1.87194
1.85239
1.85728
1.80840
1.78396
1.77419
1.77419
1.73998
1.74486
1.70576
1.70576
1.71065
1.70576
1.71554
1.72531
1.73509
1.72531
1.73020
1.73509
1.73020
1.71065
1.71065
1.72043
1.68621
1.66177
1.65200
1.64711
1.63734
1.61779
1.61290
1.60801
1.60312
1.58846
1.58357
1.58846
1.61779
1.60312
1.57380
1.57869
1.57380
1.56891
1.56891
1.56891
1.57869
1.58846
1.61779
1.66666
1.73998
1.83284
1.87194
1.92082
1.95992
1.97947
1.97458
1.96480
1.95992
1.93548
1.89638
1.87194
1.85728
1.86217
1.81329
1.78885
1.77908
1.75464
1.75953
1.72043
1.72043
1.72043
1.71554
1.72043
1.73509
1.73998
1.73509
1.73509
1.73998
1.73020
1.71065
1.70087
1.69110
1.68132
1.65689
1.64222
1.63245
1.65689
1.63734
1.61779
1.59335
1.58846
1.57380
1.56402
1.56891
1.56891
1.55425
1.55425
1.58357
1.55913
1.54447
1.54936
1.57380
1.61290
1.66666
1.76441
1.83284
1.90615
1.94525
1.97458
1.99413
2.01368
1.98435
1.95992
1.93059
1.91593
1.90615
1.85239
1.83284
1.85728
1.80351
1.78396
1.76930
1.75953
1.73509
1.72043
1.71554
1.72043
1.72531
1.71554
1.72043
1.72531
1.72531
1.71065
1.70576
1.69599
1.68132
1.66177
1.64711
1.63734
1.63245
1.61290
1.59824
1.58846
1.57380
1.55913
1.55425
1.55425
1.54447
1.52981
1.56402
1.53958
1.52981
1.52492
1.52003
1.52003
1.52003
1.51515
1.52492
1.54936
1.59335
1.65200
1.73509
1.82795
1.91104
1.95503
2.00391
2.00391
2.00391
1.97947
1.95014
1.92082
1.89638
1.87194
1.83773
1.82306
1.83773
1.79374
1.79374
1.75464
1.77908
1.73020
1.71554
1.71065
1.72043
1.71554
1.71554
1.71554
1.72043
1.71065
1.69599
1.68621
1.68132
1.66177
1.64222
1.62756
1.61779
1.62756
1.59824
1.56891
1.56402
1.55425
1.53958
1.52981
1.54936
1.52492
1.50537
1.51026
1.51026
1.52981
1.50537
1.49560
1.50048
1.50537
1.49071
1.48582
1.51515
1.51026
1.52492
1.57869
1.66177
1.75953
1.83284
1.90615
1.97458
2.00391
1.99413
1.98435
1.95992
1.94037
1.92082
1.86217
1.83773
1.82306
1.79863
1.78396
1.75953
1.75464
1.72531
1.72531
1.72531
1.70087
1.69110
1.69110
1.69599
1.70576
1.70087
1.69110
1.68132
1.68132
1.66666
1.64711
1.63245
1.62267
1.60801
1.58357
1.57380
1.57869
1.55425
1.52981
1.52492
1.52003
1.51515
1.50048
1.52492
1.50537
1.49560
1.49071
1.48582
1.49071
1.49071
1.48093
1.49071
1.48582
1.49071
1.47116
1.47116
1.48093
1.49071
1.51515
1.57380
1.65689
1.75953
1.85728
1.91104
1.96969
2.00879
2.01368
1.98924
1.96969
1.94525
1.90127
1.87194
1.85728
1.82306
1.81818
1.77419
1.74975
1.74486
1.72043
1.70087
1.69110
1.69599
1.69110
1.69110
1.69599
1.70576
1.72531
1.71065
1.70576
1.70087
1.67644
1.65689
1.64222
1.62756
1.61290
1.58846
1.57869
1.56891
1.55913
1.56402
1.56402
1.53958
1.52003
1.50537
1.50048
1.50048
1.50048
1.48582
1.48582
1.52003
1.50537
1.48582
1.48093
1.48582
1.48093
1.47605
1.47605
1.51026
1.48582
1.47605
1.49071
1.52981
1.59824
1.68132
1.77419
1.86217
1.94037
1.97458
2.00391
1.99902
1.98924
1.95503
1.94037
1.88660
1.85239
1.82306
1.80351
1.76930
1.76930
1.73020
1.73020
1.69599
1.68621
1.67155
1.66177
1.67155
1.68132
1.68621
1.68621
1.69110
1.69599
1.69110
1.67155
1.66177
1.66177
1.64222
1.61779
1.59824
1.59335
1.57869
1.58846
1.57380
1.54936
1.53958
1.51515
1.51026
1.51515
1.51026
1.50048
1.50048
1.50048
1.51515
1.49560
1.49560
1.49560
1.50048
1.49071
1.49071
1.49071
1.49560
1.49071
1.50048
1.53470
1.59824
1.66666
1.74975
1.83773
1.90615
1.94525
1.96969
1.97458
1.96969
1.95992
1.89638
1.86705
1.86217
1.79863
1.76441
1.74486
1.73509
1.73998
1.68132
1.66666
1.66177
1.65200
1.64711
1.65689
1.67155
1.67644
1.67644
1.68621
1.69599
1.69110
1.68132
1.67155
1.66666
1.65200
1.62756
1.61290
1.61779
1.61290
1.58846
1.56891
1.56402
1.54936
1.53470
1.53470
1.52981
1.52981
1.52003
1.54936
1.53470
1.52492
1.51026
1.50537
1.50537
1.51026
1.50537
1.51515
1.53958
1.59824
1.65689
1.76930
1.84261
1.91104
1.94525
1.97458
2.01857
1.98924
1.95503
1.92082
1.88660
1.85239
1.81329
1.78885
1.76441
1.74975
1.72043
1.69599
1.69599
1.70087
1.66177
1.65200
1.65200
1.66177
1.66177
1.65689
1.67155
1.68132
1.67644
1.66177
1.65200
1.67155
1.66177
1.60801
1.63245
1.59335
1.57380
1.54936
1.53958
1.53470
1.52003
1.50048
1.50537
1.49071
1.48582
1.48582
1.50048
1.52003
1.53958
1.54447
1.55425
1.58846
1.58846
1.57380
1.57869
1.61779
1.68132
1.75464
1.84750
1.94525
2.01857
2.05767
2.08211
2.10654
2.06744
2.03323
2.00879
2.00879
1.96480
1.92570
1.89638
1.87194
1.87683
1.82795
1.80351
1.77419
1.76441
1.74486
1.74975
1.78885
1.84750
1.89149
1.92570
1.97947
2.06256
2.13098
2.19452
2.24340
2.25806
2.22385
2.12609
2.03812
1.94525
1.85728
1.71065
1.60801
1.49071
1.37341
1.24633
1.13391
1.06060
1.01173
0.99706
1.01173
1.05571
1.08993
1.13880
1.14858
1.17790
1.20723
1.23655
1.29032
1.40273
1.47605
1.57380
1.69110
1.79374
1.87194
1.91104
1.96480
1.95992
1.94037
1.90615
1.87683
1.85728
1.83284
1.80840
1.78885
1.77419
1.76441
1.73998
1.72043
1.70576
1.69599
1.68132
1.67644
1.67644
1.69110
1.68621
1.68132
1.68132
1.68621
1.67155
1.65200
1.64711
1.63734
1.63245
1.60312
1.58846
1.57869
1.56402
1.54447
1.53958
1.53470
1.52003
1.51026
1.50537
1.52981
1.50048
1.48582
1.49071
1.49560
1.49560
1.48582
1.48582
1.49071
1.49560
1.48093
1.49071
1.50537
1.54936
1.60801
1.69110
1.78885
1.87194
1.92570
1.96969
1.99902
1.98924
1.95992
1.93548
1.90127
1.87194
1.83773
1.81818
1.78885
1.77908
1.74486
1.73020
1.71065
1.70087
1.68132
1.66177
1.66666
1.67155
1.66666
1.67155
1.67155
1.67155
1.66666
1.65200
1.64711
1.64222
1.62267
1.60312
1.58846
1.58357
1.56402
1.54936
1.53470
1.55425
1.52492
1.50537
1.50537
1.50048
1.50048
1.51515
1.48582
1.49071
1.48582
1.47605
1.48093
1.48093
1.48093
1.47116
1.47116
1.48582
1.49560
1.51515
1.57380
1.65200
1.73998
1.80840
1.87194
1.93059
1.95503
1.94525
1.93059
1.91104
1.88172
1.85239
1.80351
1.77908
1.76441
1.75464
1.71554
1.71065
1.69110
1.68621
1.64711
1.64222
1.64711
1.67155
1.66177
1.69110
1.67155
1.68621
1.67644
1.68132
1.65689
1.63734
1.62267
1.60801
1.59335
1.57380
1.55913
1.54936
1.54447
1.52981
1.51515
1.52003
1.51515
1.50537
1.49071
1.49071
1.49071
1.48582
1.48093
1.51026
1.48582
1.48093
1.47605
1.47605
1.49560
1.52003
1.56402
1.65689
1.73020
1.80351
1.84261
1.88660
1.90615
1.91104
1.88660
1.86217
1.84261
1.84261
1.77419
1.74975
1.73020
1.72043
1.69599
1.67155
1.68621
1.64711
1.62756
1.62267
1.62756
1.63734
1.63245
1.63734
1.64711
1.65689
1.64711
1.63734
1.63245
1.64222
1.63734
1.61779
1.58357
1.57380
1.54936
1.53958
1.52981
1.52003
1.50537
1.49560
1.49071
1.49560
1.49560
1.47116
1.47116
1.47116
1.48093
1.49560
1.50048
1.51515
1.56402
1.62267
1.69110
1.76930
1.82306
1.85239
1.86705
1.87683
1.86217
1.84261
1.80840
1.77908
1.76441
1.72531
1.70576
1.69599
1.68132
1.65200
1.63734
1.62267
1.61290
1.59824
1.59824
1.60312
1.61290
1.60312
1.60801
1.61290
1.61290
1.59824
1.58846
1.58357
1.57380
1.55425
1.53958
1.52981
1.52981
1.53470
1.52003
1.49560
1.49071
1.47116
1.46138
1.46138
1.45650
1.44672
1.43695
1.43206
1.44672
1.43695
1.43695
1.46138
1.50048
1.56891
1.63245
1.70576
1.77908
1.81818
1.83284
1.84261
1.84750
1.82306
1.79863
1.77419
1.75464
1.73998
1.70087
1.69110
1.68132
1.70087
1.64222
1.64222
1.61779
1.60801
1.58846
1.58846
1.58846
1.58846
1.58357
1.57869
1.57869
1.57380
1.55425
1.54447
1.53958
1.52492
1.50537
1.49071
1.48582
1.47605
1.46138
1.44672
1.44183
1.44183
1.45161
1.44672
1.42228
1.42717
1.41251
1.40273
1.40273
1.39784
1.38807
1.38318
1.38807
1.40762
1.42717
1.46627
1.52003
1.59335
1.66666
1.68621
1.72043
1.77419
1.73998
1.71554
1.70576
1.69599
1.67155
1.64711
1.63734
1.62267
1.61779
1.60312
1.58846
1.58357
1.59824
1.53958
1.53958
1.53470
1.53470
1.54447
1.52492
1.52003
1.52492
1.51515
1.53470
1.50048
1.49071
1.47116
1.46627
1.46138
1.45650
1.43695
1.43695
1.45650
1.44672
1.44183
1.40762
1.40273
1.40762
1.38807
1.38807
1.38318
1.38807
1.41251
1.37829
1.37341
1.38318
1.39296
1.36852
1.37341
1.39784
1.37341
1.38318
1.43206
1.45161
1.50048
1.55425
1.58846
1.62756
1.63734
1.62756
1.63734
1.62756
1.61779
1.59335
1.60312
1.58357
1.57869
1.56402
1.56402
1.57869
1.55425
1.54936
1.53470
1.54447
1.52981
1.52492
1.52492
1.53470
1.52981
1.52003
1.52003
1.52492
1.52003
1.50048
1.50048
1.49560
1.52492
1.47116
1.47605
1.46627
1.47116
1.46138
1.45650
1.45650
1.45161
1.44672
1.44183
1.44183
1.44183
1.43695
1.43695
1.45650
1.44183
1.43695
1.43206
1.43695
1.43695
1.42717
1.42228
1.42717
1.43206
1.42228
1.46138
1.45161
1.49560
1.52981
1.56891
1.60312
1.62756
1.62756
1.61779
1.61290
1.63734
1.59824
1.58846
1.57869
1.57869
1.56891
1.56891
1.56891
1.56891
1.55913
1.54936
1.54447
1.54936
1.55425
1.54447
1.55425
1.55913
1.56402
1.56891
1.54936
1.55913
1.54936
1.53470
1.53470
1.53470
1.52981
1.51515
1.53470
1.51026
1.51515
1.50537
1.50537
1.50537
1.51026
1.50048
1.50537
1.50537
1.50048
1.50048
1.49560
1.52981
1.50048
1.50048
1.49071
1.50048
1.50048
1.49560
1.49071
1.49071
1.51515
1.50048
1.50537
1.53958
1.57869
1.62756
1.64222
1.67155
1.67155
1.66177
1.65200
1.64222
1.63734
1.62756
1.62756
1.60801
1.61290
1.62267
1.60312
1.60312
1.60801
1.62267
1.58357
1.57869
1.58846
1.60801
1.60801
1.59335
1.59824
1.59824
1.59335
1.58846
1.59335
1.58357
1.56891
1.56402
1.56402
1.56891
1.54936
1.54447
1.54936
1.54447
1.53958
1.53470
1.53958
1.53958
1.52492
1.52492
1.52492
1.53470
1.52003
1.52492
1.52003
1.52492
1.51515
1.51515
1.51515
1.52003
1.54447
1.51026
1.52981
1.52003
1.55425
1.53470
1.56891
1.60801
1.66666
1.64711
1.66177
1.66666
1.65200
1.65200
1.63245
1.62756
1.62267
1.60801
1.60801
1.61779
1.61290
1.61779
1.60801
1.60801
1.61290
1.59335
1.59335
1.59824
1.60312
1.58846
1.59335
1.60312
1.60312
1.58846
1.61779
1.58846
1.60801
1.57380
1.57869
1.56891
1.57380
1.55425
1.55425
1.55425
1.54936
1.54447
1.54447
1.54447
1.54447
1.53470
1.53470
1.53470
1.53470
1.52981
1.52492
1.52981
1.53470
1.52003
1.52003
1.51515
1.52492
1.51515
1.51026
1.52003
1.52003
1.53470
1.51026
1.54936
1.53470
1.54936
1.56891
1.60801
1.64222
1.65200
1.65689
1.65689
1.65689
1.65200
1.62267
1.61779
1.62267
1.64711
1.60801
1.60801
1.62267
1.64222
1.60801
1.60801
1.61779
1.63245
1.59824
1.59824
1.60801
1.60312
1.60312
1.60312
1.61290
1.61290
1.60312
1.60801
1.59335
1.59824
1.57869
1.58357
1.57869
1.57869
1.58357
1.56891
1.59335
1.56891
1.56402
1.55913
1.58846
1.56402
1.56402
1.53958
1.57869
1.54936
1.54447
1.54447
1.54447
1.54936
1.53958
1.54447
1.53958
1.55913
1.53470
1.56402
1.53958
1.54447
1.53958
1.55425
1.53958
1.55913
1.53958
1.55913
1.55913
1.59824
1.62267
1.64711
1.66666
1.68621
1.68132
1.66666
1.65689
1.65200
1.64711
1.63245
1.62756
1.63245
1.63245
1.62756
1.62267
1.65200
1.63734
1.62267
1.62756
1.65200
1.62756
1.61779
1.62267
1.63245
1.63734
1.62756
1.62756
1.62756
1.63245
1.64222
1.61290
1.60801
1.61290
1.60312
1.63245
1.59824
1.62267
1.59335
1.60312
1.59824
1.60312
1.59335
1.58846
1.58846
1.59824
1.58846
1.57869
1.61779
1.58846
1.59335
1.57869
1.58846
1.58357
1.58357
1.57380
1.57869
1.58357
1.58357
1.57380
1.57869
1.58357
1.58357
1.58357
1.60312
1.63245
1.65689
1.68132
1.70087
1.72043
1.71554
1.69599
1.69599
1.68621
1.67644
1.67155
1.66666
1.66666
1.66666
1.67644
1.66666
1.66666
1.66666
1.67155
1.64711
1.65689
1.65689
1.65200
1.65689
1.66666
1.67155
1.66177
1.66666
1.69599
1.66177
1.65200
1.64711
1.64711
1.65689
1.63734
1.63734
1.63734
1.64222
1.62756
1.62756
1.63245
1.63734
1.62756
1.62756
1.62756
1.63245
1.62267
1.63734
1.62267
1.63245
1.62267
1.62267
1.61779
1.63245
1.62267
1.62267
1.62267
1.66177
1.63245
1.64222
1.66177
1.70087
1.72043
1.73998
1.74975
1.75953
1.75464
1.73998
1.73020
1.73509
1.72531
1.71065
1.70576
1.71554
1.71065
1.70087
1.69599
1.70087
1.69599
1.68132
1.68132
1.68621
1.68621
1.68621
1.68621
1.70087
1.69599
1.69110
1.68621
1.68132
1.68621
1.67155
1.66666
1.66666
1.70087
1.65200
1.65689
1.64711
1.65200
1.64222
1.64222
1.63734
1.64222
1.63245
1.63245
1.62756
1.63734
1.62267
1.64222
1.61779
1.61779
1.62267
1.60801
1.60801
1.61779
1.61290
1.61779
1.65200
1.68132
1.71554
1.72043
1.73509
1.73998
1.73509
1.72043
1.71065
1.71065
1.70576
1.69599
1.69110
1.69599
1.69110
1.68132
1.70576
1.71554
1.68621
1.67155
1.66666
1.66666
1.69110
1.66666
1.67644
1.67644
1.68132
1.66666
1.66666
1.68621
1.66177
1.68132
1.64222
1.65689
1.64222
1.63245
1.62267
1.63245
1.62756
1.61779
1.60801
1.63734
1.60801
1.62756
1.59335
1.59335
1.60801
1.58846
1.58846
1.59824
1.59335
1.58357
1.57869
1.59824
1.58846
1.57869
1.57380
1.58357
1.60312
1.61779
1.66177
1.67644
1.73998
1.71554
1.71065
1.71065
1.73998
1.70087
1.68621
1.68621
1.68621
1.68132
1.67155
1.68621
1.67644
1.67644
1.66666
1.67155
1.68621
1.66666
1.65200
1.65200
1.66666
1.66177
1.65689
1.66666
1.65689
1.67644
1.64711
1.64222
1.67644
1.64711
1.65200
1.62756
1.65689
1.62756
1.64222
1.61290
1.61290
1.61290
1.60312
1.60312
1.60312
1.61290
1.59335
1.60312
1.58846
1.60801
1.58357
1.57869
1.58357
1.58846
1.58357
1.57380
1.57380
1.57869
1.57380
1.57869
1.58846
1.62267
1.64711
1.68621
1.69599
1.72043
1.73020
1.70576
1.70576
1.71065
1.69599
1.68621
1.68621
1.72043
1.68621
1.67155
1.70087
1.68132
1.68132
1.67155
1.67155
1.66666
1.66666
1.65689
1.66177
1.66666
1.66666
1.68132
1.66177
1.67155
1.66666
1.65200
1.64711
1.64711
1.66177
1.63734
1.63734
1.63245
1.65689
1.62267
1.62756
1.61779
1.62756
1.61290
1.61290
1.60801
1.63245
1.59824
1.62756
1.60312
1.60312
1.59335
1.59335
1.59335
1.60312
1.59824
1.58846
1.58846
1.59824
1.59824
1.61779
1.63734
1.69599
1.70576
1.73020
1.73020
1.73998
1.73998
1.72043
1.71554
1.72043
1.71065
1.70087
1.70087
1.70576
1.72531
1.69110
1.69110
1.70087
1.72043
1.67644
1.67644
1.68621
1.68132
1.67155
1.67644
1.68132
1.71554
1.67644
1.68621
1.67155
1.67155
1.66177
1.65689
1.66177
1.65689
1.64222
1.63734
1.64222
1.64222
1.63245
1.62267
1.62756
1.62756
1.61779
1.60801
1.60801
1.61290
1.59824
1.60801
1.59824
1.60312
1.59335
1.59335
1.61290
1.59335
1.59335
1.60801
1.62267
1.69110
1.68621
1.71554
1.73509
1.75464
1.76441
1.74486
1.73509
1.73998
1.75464
1.71554
1.71065
1.72531
1.70576
1.69599
1.69110
1.70576
1.69110
1.68132
1.67155
1.68132
1.67644
1.67644
1.68132
1.68621
1.68621
1.67644
1.67644
1.70087
1.67644
1.69110
1.66177
1.66177
1.65689
1.65200
1.63734
1.64711
1.64222
1.63245
1.62756
1.63245
1.62756
1.64222
1.61290
1.61290
1.62267
1.60801
1.61779
1.60312
1.60801
1.60312
1.59824
1.62756
1.61779
1.63245
1.66666
1.69599
1.72531
1.73509
1.73998
1.78396
1.75464
1.74486
1.73020
1.72531
1.72531
1.73998
1.70087
1.69599
1.70576
1.72043
1.68132
1.68621
1.67644
1.67155
1.66666
1.66666
1.69599
1.67644
1.70576
1.67644
1.71065
1.68621
1.68621
1.67155
1.70087
1.67155
1.66666
1.64711
1.67644
1.64711
1.65200
1.62756
1.66177
1.63245
1.65200
1.62267
1.62267
1.62267
1.61779
1.64222
1.61779
1.62756
1.62756
1.62756
1.64222
1.66666
1.69110
1.72043
1.75464
1.79374
1.77908
1.77908
1.78885
1.78396
1.76930
1.75953
1.75464
1.75464
1.74486
1.73998
1.73998
1.73998
1.73020
1.72531
1.71554
1.71554
1.71065
1.70087
1.73509
1.72043
1.72531
1.71554
1.72043
1.72043
1.71554
1.70576
1.70087
1.70576
1.69599
1.69599
1.67644
1.68621
1.67644
1.68132
1.66177
1.67155
1.66177
1.64711
1.64711
1.65200
1.64711
1.63245
1.63734
1.64711
1.65200
1.66666
1.69599
1.73998
1.76930
1.77908
1.78885
1.79863
1.81818
1.77908
1.76930
1.79374
1.76930
1.74975
1.74975
1.74486
1.74975
1.73998
1.73998
1.73020
1.72531
1.71554
1.73998
1.71065
1.72043
1.71065
1.71065
1.71065
1.72043
1.70576
1.70576
1.69599
1.71065
1.68621
1.70576
1.67644
1.70087
1.66666
1.65689
1.66177
1.65689
1.67644
1.64711
1.65200
1.64222
1.64222
1.65200
1.63245
1.63245
1.63734
1.64222
1.67155
1.70576
1.73509
1.75953
1.77419
1.78396
1.79374
1.79863
1.76930
1.76441
1.77419
1.74975
1.74486
1.74975
1.75953
1.75464
1.73509
1.73509
1.73509
1.72043
1.71554
1.71065
1.71554
1.70576
1.70087
1.71065
1.70576
1.70087
1.68621
1.71554
1.68621
1.68132
1.66177
1.68621
1.66177
1.64711
1.67155
1.63734
1.63734
1.65200
1.62756
1.62267
1.64711
1.61290
1.60312
1.60312
1.60312
1.59824
1.58846
1.58846
1.58846
1.58846
1.59335
1.62267
1.65689
1.68621
1.70576
1.72043
1.73020
1.73020
1.71065
1.70576
1.70576
1.69599
1.68132
1.68132
1.68621
1.68621
1.67155
1.67155
1.67644
1.67155
1.65689
1.65200
1.65200
1.65689
1.64711
1.64222
1.64711
1.65200
1.64222
1.64222
1.63734
1.63734
1.62267
1.61290
1.61779
1.61290
1.60801
1.60312
1.59824
1.60801
1.59335
1.58846
1.58846
1.59335
1.61290
1.57869
1.59824
1.58357
1.57380
1.57380
1.56402
1.57380
1.56402
1.58357
1.56402
1.56402
1.56891
1.57869
1.60312
1.63734
1.67644
1.67644
1.70087
1.69110
1.68621
1.66666
1.66666
1.66177
1.65689
1.64711
1.64711
1.68621
1.65200
1.64711
1.64711
1.65200
1.68132
1.63734
1.63245
1.63734
1.64222
1.63245
1.63245
1.64222
1.65200
1.63245
1.66177
1.62756
1.65689
1.61779
1.61290
1.61779
1.61779
1.60312
1.60312
1.60312
1.60801
1.59335
1.59335
1.59335
1.59824
1.59335
1.58357
1.58846
1.59335
1.58846
1.57869
1.57869
1.58357
1.57869
1.57869
1.57869
1.58846
1.57869
1.58357
1.57380
1.58357
1.59335
1.59824
1.62756
1.66666
1.67644
1.68132
1.68621
1.68621
1.68132
1.65689
1.64711
1.65200
1.67644
1.63734
1.63734
1.64711
1.64711
1.63734
1.63734
1.64222
1.63734
1.62756
1.62756
1.64222
1.63245
1.62756
1.62756
1.63245
1.63245
1.62267
1.61779
1.62267
1.63734
1.60312
1.62756
1.60312
1.61779
1.59824
1.59335
1.59824
1.60312
1.59335
1.59824
1.59335
1.59824
1.58357
1.59824
1.58357
1.59335
1.57869
1.57869
1.58357
1.58357
1.58357
1.57380
1.57869
1.58357
1.57869
1.57380
1.59824
1.57869
1.59824
1.56891
1.57869
1.59335
1.61290
1.63245
1.65689
1.68132
1.68132
1.69599
1.66666
1.66177
1.65689
1.63245
1.62756
1.63245
1.63245
1.62267
1.62267
1.62756
1.62756
1.62267
1.61290
1.61779
1.61779
1.62756
1.61290
1.64222
1.62267
1.61779
1.61779
1.62267
1.62267
1.60312
1.60312
1.59824
1.61290
1.59335
1.60312
1.59335
1.59824
1.58846
1.58846
1.58846
1.59824
1.57869
1.60312
1.58357
1.58357
1.57380
1.57380
1.57380
1.57869
1.57380
1.56891
1.57380
1.57380
1.57380
1.56402
1.57380
1.56891
1.57380
1.56402
1.58357
1.56891
1.59335
1.56402
1.57869
1.60312
1.62267
1.64222
1.66177
1.67155
1.67155
1.65200
1.67155
1.63734
1.62756
1.62267
1.61290
1.61779
1.61779
1.61290
1.61290
1.61779
1.61779
1.60801
1.61290
1.61290
1.63734
1.61290
1.61290
1.62267
1.64222
1.65689
1.62267
1.62267
1.62756
1.61290
1.63245
1.61290
1.61779
1.64222
1.60801
1.63734
1.61290
1.60801
1.60312
1.60801
1.61290
1.60312
1.59824
1.60312
1.60801
1.59824
1.62756
1.59824
1.63734
1.59824
1.59824
1.59335
1.60312
1.59335
1.58846
1.58846
1.59335
1.59335
1.58357
1.59335
1.60312
1.61779
1.62756
1.65689
1.67644
1.68621
1.69599
1.67155
1.66666
1.66177
1.65689
1.63734
1.63734
1.63734
1.63245
1.62756
1.63245
1.63245
1.62267
1.62267
1.62756
1.62756
1.61290
1.62267
1.62756
1.65200
1.62756
1.63734
1.63245
1.63734
1.61779
1.61290
1.64711
1.61779
1.61290
1.60312
1.60312
1.62756
1.59824
1.59335
1.59335
1.60312
1.59335
1.58846
1.59335
1.59824
1.58357
1.58357
1.58846
1.58846
1.59335
1.57869
1.59335
1.58357
1.59824
1.57380
1.57869
1.57869
1.57869
1.57380
1.56891
1.60312
1.57869
1.60312
1.58846
1.61779
1.64222
1.65200
1.66666
1.68132
1.67155
1.65689
1.64711
1.66177
1.64222
1.63245
1.63245
1.67155
1.64222
1.63245
1.63245
1.64222
1.64222
1.63245
1.62756
1.66177
1.63734
1.63245
1.63734
1.64222
1.67644
1.63734
1.63734
1.64222
1.64711
1.65689
1.62756
1.62756
1.65200
1.62267
1.61779
1.61779
1.62756
1.61779
1.61290
1.61779
1.62267
1.61290
1.60801
1.62267
1.61779
1.61779
1.60312
1.60801
1.61290
1.60801
1.62267
1.60312
1.60801
1.60312
1.59824
1.60312
1.61290
1.60801
1.59824
1.60312
1.61290
1.63245
1.64222
1.67644
1.69599
1.73509
1.70576
1.70576
1.71065
1.69599
1.67644
1.68132
1.67644
1.68132
1.67155
1.70576
1.67644
1.68132
1.67155
1.67155
1.68132
1.71065
1.66666
1.66666
1.67155
1.69110
1.67644
1.67644
1.68132
1.69110
1.71065
1.67155
1.67644
1.68132
1.67155
1.66177
1.69110
1.67155
1.67155
1.65689
1.66177
1.69599
1.65689
1.65200
1.65200
1.65200
1.64711
1.64222
1.64222
1.65200
1.64222
1.63734
1.63734
1.64711
1.63734
1.63734
1.62756
1.64711
1.63245
1.65689
1.62756
1.66666
1.65200
1.66177
1.68621
1.72043
1.74975
1.73509
1.73509
1.73020
1.73998
1.71065
1.70576
1.71554
1.70576
1.69599
1.69110
1.71554
1.70576
1.69110
1.69110
1.68621
1.69110
1.70576
1.68132
1.69110
1.69599
1.69110
1.69110
1.69110
1.73509
1.69110
1.69110
1.68621
1.68621
1.67644
1.66666
1.67155
1.67155
1.66666
1.66177
1.67155
1.66666
1.69599
1.65689
1.69110
1.66666
1.67644
1.65200
1.67155
1.65689
1.65200
1.64711
1.64711
1.65200
1.64711
1.63734
1.64711
1.65200
1.66177
1.66177
1.68621
1.71554
1.73998
1.74486
1.75464
1.76441
1.77908
1.74486
1.74486
1.74486
1.74486
1.73020
1.73020
1.73998
1.76441
1.72531
1.72531
1.72531
1.72043
1.71554
1.71065
1.73509
1.72531
1.72043
1.71554
1.72043
1.73020
1.72043
1.72043
1.72043
1.72043
1.73020
1.70576
1.70576
1.70087
1.69110
1.68621
1.68132
1.69110
1.68621
1.69110
1.67155
1.67644
1.67155
1.65689
1.66666
1.66666
1.68621
1.65200
1.64711
1.65689
1.65200
1.65200
1.65689
1.69110
1.69599
1.73998
1.73509
1.76441
1.77419
1.76930
1.75953
1.75464
1.75464
1.75953
1.73998
1.73998
1.74975
1.73020
1.72531
1.72531
1.72531
1.71065
1.71065
1.71065
1.71065
1.70087
1.73020
1.70576
1.73020
1.70576
1.70576
1.70576
1.71065
1.69599
1.69599
1.68621
1.69599
1.67644
1.67644
1.67155
1.68132
1.66666
1.66177
1.65689
1.67155
1.65200
1.66666
1.64222
1.64711
1.63734
1.63245
1.63734
1.63734
1.63734
1.62267
1.62756
1.62756
1.63245
1.64222
1.65689
1.69110
1.72043
1.75464
1.74486
1.75953
1.76930
1.74486
1.73998
1.76930
1.73509
1.72531
1.72043
1.73020
1.75464
1.71554
1.71065
1.72043
1.73509
1.69599
1.69599
1.69599
1.69599
1.71065
1.68621
1.70087
1.70087
1.69599
1.68621
1.68621
1.69110
1.70087
1.66666
1.66666
1.67155
1.68621
1.65200
1.66177
1.65689
1.66666
1.63734
1.63734
1.64222
1.63245
1.65200
1.62267
1.62267
1.63245
1.60801
1.61290
1.61290
1.61290
1.60312
1.61779
1.60801
1.61779
1.65689
1.65200
1.68621
1.72043
1.73020
1.73998
1.75464
1.74975
1.73998
1.73020
1.73020
1.73509
1.71554
1.71065
1.72043
1.71065
1.70087
1.70087
1.70576
1.73020
1.69110
1.68132
1.68621
1.69110
1.68132
1.68132
1.68621
1.70087
1.68132
1.68621
1.67644
1.67644
1.66666
1.68621
1.65689
1.69599
1.65200
1.67644
1.64222
1.64711
1.63245
1.62756
1.63245
1.63245
1.62267
1.61779
1.62756
1.61779
1.61290
1.60801
1.60801
1.61290
1.61290
1.60312
1.60312
1.61290
1.61290
1.64222
1.64222
1.67644
1.70576
1.72531
1.75464
1.75953
1.75464
1.74975
1.74486
1.74486
1.74486
1.73020
1.72531
1.73020
1.74486
1.71554
1.71554
1.72043
1.73998
1.69599
1.70576
1.69599
1.70087
1.68621
1.69110
1.69599
1.70087
1.69110
1.68621
1.68621
1.68621
1.70087
1.67155
1.69599
1.67155
1.65689
1.64711
1.68132
1.64711
1.63734
1.63245
1.63245
1.63245
1.62267
1.63734
1.61290
1.62267
1.61779
1.60312
1.60312
1.63734
1.60312
1.59335
1.59335
1.59824
1.59335
1.59335
1.59824
1.61779
1.63734
1.65689
1.69110
1.72043
1.73509
1.73509
1.73998
1.73998
1.73020
1.71554
1.71554
1.71554
1.72043
1.70087
1.69599
1.70087
1.71554
1.68132
1.68132
1.67644
1.68132
1.68621
1.67155
1.67644
1.68132
1.68621
1.67644
1.68621
1.67644
1.66666
1.65689
1.66666
1.66666
1.66177
1.64711
1.67644
1.64222
1.62756
1.62267
1.62267
1.62267
1.61779
1.61779
1.60801
1.63734
1.60312
1.59335
1.59824
1.59824
1.62267
1.58846
1.58846
1.60801
1.58846
1.58357
1.59335
1.62267
1.63734
1.69110
1.69110
1.72043
1.73020
1.72531
1.73020
1.72531
1.71554
1.71065
1.71065
1.70576
1.70576
1.69110
1.69110
1.68621
1.70087
1.67155
1.67155
1.68132
1.66666
1.66177
1.65689
1.69110
1.67644
1.69110
1.66666
1.67155
1.66666
1.65689
1.65200
1.65200
1.64711
1.63245
1.62756
1.63245
1.62756
1.63734
1.60801
1.61290
1.61290
1.59824
1.59824
1.59335
1.59824
1.59824
1.57869
1.58357
1.60801
1.57869
1.57869
1.57380
1.58357
1.57869
1.57380
1.57380
1.58846
1.59335
1.61290
1.64222
1.68132
1.71065
1.71554
1.73020
1.73509
1.74975
1.72043
1.71554
1.72043
1.71554
1.69599
1.70087
1.69599
1.69599
1.68621
1.68621
1.67644
1.67644
1.66177
1.66666
1.66666
1.67155
1.66177
1.66666
1.67155
1.67644
1.66177
1.65689
1.66177
1.65689
1.64711
1.64222
1.65200
1.64222
1.65689
1.62267
1.62267
1.62267
1.61290
1.60801
1.60801
1.61290
1.59824
1.59335
1.59335
1.59824
1.58846
1.58357
1.58357
1.60801
1.58357
1.57869
1.57869
1.58846
1.57869
1.57380
1.60801
1.60312
1.62267
1.64711
1.68132
1.71554
1.73509
1.73509
1.73509
1.74486
1.76441
1.71554
1.71554
1.73020
1.71554
1.69599
1.70087
1.70087
1.69599
1.68621
1.69110
1.67644
1.67644
1.66177
1.66666
1.67644
1.67644
1.69110
1.67155
1.71065
1.67644
1.66666
1.66177
1.66177
1.67644
1.64711
1.64711
1.64222
1.67644
1.62756
1.62267
1.63245
1.62756
1.61779
1.60312
1.60801
1.61779
1.59824
1.59824
1.59824
1.59824
1.59335
1.58846
1.58846
1.59335
1.58357
1.58357
1.57869
1.58846
1.59335
1.57380
1.59335
1.61779
1.65200
1.67644
1.72531
1.73509
1.74975
1.75464
1.74486
1.74486
1.75953
1.71554
1.71554
1.72531
1.71065
1.69599
1.70087
1.69599
1.69110
1.67644
1.67155
1.67155
1.67155
1.66177
1.66177
1.67155
1.68132
1.67155
1.66666
1.67644
1.68132
1.66177
1.66177
1.65689
1.66177
1.64222
1.64222
1.64222
1.64222
1.62756
1.62267
1.61779
1.62756
1.61290
1.60312
1.60312
1.60312
1.59824
1.58846
1.58846
1.59335
1.58357
1.57869
1.58357
1.58846
1.60312
1.57869
1.57380
1.57869
1.58846
1.59824
1.63734
1.66666
1.70087
1.72043
1.73998
1.75464
1.75464
1.76930
1.73998
1.73998
1.73020
1.72043
1.71065
1.73020
1.70576
1.68621
1.69110
1.68621
1.69110
1.66177
1.66666
1.67155
1.67644
1.66666
1.66666
1.67644
1.68132
1.68621
1.67644
1.69110
1.68132
1.67155
1.66177
1.66177
1.65689
1.64711
1.64222
1.64222
1.64222
1.63734
1.62756
1.66177
1.62756
1.62267
1.61290
1.61779
1.62756
1.60801
1.60801
1.61290
1.61290
1.63734
1.60312
1.60801
1.64711
1.63734
1.66177
1.70087
1.73998
1.76930
1.77419
1.78885
1.79863
1.78885
1.77419
1.77908
1.76930
1.76441
1.75464
1.73998
1.73998
1.73020
1.73020
1.73509
1.71065
1.71554
1.69599
1.70087
1.69599
1.73020
1.70087
1.72043
1.71065
1.73020
1.70576
1.71065
1.70087
1.71065
1.68621
1.68132
1.67644
1.68132
1.66666
1.66177
1.65689
1.66666
1.64711
1.64222
1.64222
1.63734
1.64711
1.62267
1.62267
1.62756
1.62756
1.61779
1.61290
1.62267
1.61779
1.62756
1.65200
1.69599
1.72531
1.76930
1.78885
1.81818
1.81818
1.81329
1.82306
1.80840
1.80351
1.79374
1.78396
1.77908
1.77908
1.75953
1.75464
1.75953
1.75464
1.73998
1.73020
1.73509
1.74975
1.72531
1.73020
1.73509
1.73998
1.72531
1.73020
1.72531
1.73509
1.71065
1.72043
1.69599
1.70087
1.68132
1.67644
1.67155
1.67155
1.66177
1.65200
1.65689
1.66177
1.64222
1.63245
1.64222
1.64222
1.64222
1.64222
1.63734
1.62267
1.61779
1.61290
1.61779
1.63245
1.64711
1.68132
1.72043
1.77419
1.79374
1.80840
1.82306
1.83773
1.82306
1.80840
1.80351
1.80351
1.79863
1.81329
1.77908
1.78396
1.77908
1.75953
1.75464
1.75464
1.74975
1.73020
1.73020
1.73509
1.73998
1.73020
1.73020
1.73509
1.73020
1.71554
1.71554
1.71065
1.71065
1.69110
1.68621
1.68132
1.68132
1.66177
1.65689
1.65200
1.67644
1.63734
1.63245
1.62756
1.62756
1.61779
1.60801
1.61290
1.61779
1.60801
1.60801
1.61290
1.62756
1.59335
1.58846
1.59824
1.61779
1.63245
1.66666
1.71065
1.75464
1.79374
1.79374
1.80840
1.81329
1.80840
1.79374
1.78885
1.78396
1.77908
1.76930
1.75953
1.76441
1.75953
1.74486
1.73509
1.73998
1.73020
1.71554
1.72043
1.72531
1.73020
1.71554
1.72531
1.71554
1.72043
1.70576
1.70087
1.70087
1.69599
1.68132
1.67644
1.67155
1.67644
1.64711
1.64711
1.67155
1.64711
1.62267
1.63734
1.64222
1.63734
1.62267
1.60312
1.60312
1.60801
1.59335
1.58846
1.59335
1.59335
1.57869
1.57380
1.56891
1.57869
1.56891
1.56402
1.56891
1.58357
1.60312
1.61779
1.66177
1.71065
1.74486
1.77419
1.78885
1.79863
1.81818
1.78396
1.78396
1.78885
1.76930
1.74975
1.75464
1.74486
1.73998
1.73020
1.75953
1.72531
1.71554
1.69599
1.70087
1.70087
1.70087
1.69599
1.69599
1.70087
1.70087
1.69110
1.68132
1.68621
1.67644
1.66666
1.65689
1.66177
1.64711
1.63245
1.62756
1.62756
1.62756
1.61290
1.60801
1.60312
1.60801
1.60312
1.58846
1.59335
1.59335
1.57869
1.57869
1.57869
1.58357
1.57380
1.56402
1.56891
1.57380
1.56402
1.56402
1.56891
1.58357
1.57869
1.60312
1.59335
1.63245
1.67155
1.71065
1.74486
1.77908
1.78885
1.78396
1.78396
1.81818
1.77419
1.75953
1.75953
1.74975
1.74486
1.73020
1.74486
1.72531
1.72043
1.70087
1.69599
1.69110
1.69599
1.68132
1.69110
1.69110
1.69599
1.68621
1.69599
1.68621
1.68621
1.66177
1.65689
1.65689
1.65689
1.63245
1.62756
1.62267
1.62756
1.60312
1.59824
1.59824
1.60312
1.59335
1.60801
1.57869
1.59824
1.57380
1.56891
1.56891
1.57380
1.56402
1.55913
1.55913
1.56402
1.55425
1.55425
1.55425
1.55913
1.55425
1.54936
1.55425
1.58357
1.56891
1.55913
1.58846
1.63245
1.67644
1.71065
1.75464
1.76930
1.77419
1.77419
1.76441
1.76930
1.75464
1.73998
1.75953
1.73020
1.72531
1.71554
1.71554
1.70576
1.70576
1.69599
1.68132
1.71065
1.67644
1.68621
1.67644
1.67644
1.68132
1.67155
1.68621
1.66666
1.66177
1.64711
1.63734
1.64222
1.63734
1.63734
1.60801
1.60801
1.61779
1.59335
1.58357
1.59335
1.61779
1.60312
1.56891
1.56402
1.56891
1.55913
1.55425
1.54936
1.55425
1.54447
1.54936
1.55425
1.57869
1.54447
1.53470
1.53470
1.53958
1.53958
1.52981
1.53470
1.53958
1.53958
1.52981
1.55913
1.54936
1.57380
1.60312
1.65200
1.70576
1.73998
1.75464
1.76930
1.78396
1.76930
1.75464
1.74486
1.73998
1.76930
1.71554
1.71065
1.73509
1.71065
1.69110
1.69110
1.69110
1.68132
1.66666
1.67155
1.67155
1.67155
1.67155
1.67644
1.67644
1.67644
1.66177
1.66177
1.65689
1.65689
1.63734
1.63245
1.62756
1.63245
1.61779
1.62267
1.60312
1.60312
1.60312
1.58846
1.59335
1.58357
1.57869
1.56891
1.56891
1.57869
1.57380
1.58846
1.55913
1.56402
1.55913
1.55425
1.55425
1.56402
1.55913
1.55425
1.56891
1.55425
1.55425
1.54447
1.54447
1.54936
1.54936
1.54447
1.55913
1.60801
1.61779
1.64711
1.70087
1.74486
1.77419
1.80840
1.78396
1.78885
1.80840
1.76441
1.75953
1.74975
1.74486
1.73020
1.72043
1.72043
1.74975
1.70087
1.69110
1.69599
1.68621
1.68132
1.67155
1.70576
1.68621
1.71554
1.68132
1.68621
1.68621
1.67644
1.66666
1.66177
1.66666
1.65200
1.67155
1.63245
1.63245
1.62267
1.61290
1.62756
1.60801
1.59335
1.58846
1.58357
1.58846
1.60801
1.56402
1.56402
1.56891
1.56402
1.55425
1.54936
1.55425
1.55425
1.54447
1.54936
1.55425
1.55425
1.56402
1.56891
1.57380
1.54936
1.54936
1.54447
1.56891
1.56402
1.58846
1.63245
1.68132
1.75464
1.74975
1.76930
1.78396
1.79374
1.77419
1.76441
1.79374
1.75953
1.73998
1.72531
1.72043
1.72043
1.72043
1.69599
1.69110
1.69110
1.67155
1.67155
1.66666
1.69599
1.67644
1.69599
1.68132
1.68621
1.68132
1.67644
1.68132
1.67644
1.67155
1.65689
1.65689
1.64711
1.64711
1.62267
1.62267
1.62267
1.60801
1.59824
1.59824
1.59335
1.59335
1.58357
1.59824
1.60801
1.60801
1.56402
1.56402
1.56891
1.56402
1.55913
1.55913
1.55913
1.55913
1.54936
1.54936
1.55425
1.55425
1.54936
1.56891
1.59335
1.64222
1.68132
1.72531
1.75953
1.78396
1.78396
1.78885
1.78396
1.81329
1.76441
1.75953
1.75953
1.74975
1.73020
1.74486
1.71554
1.71554
1.69599
1.69599
1.67644
1.71065
1.67155
1.69110
1.67644
1.68621
1.68621
1.68132
1.71554
1.68621
1.67644
1.66666
1.66666
1.66666
1.67644
1.64222
1.63734
1.63734
1.62756
1.64222
1.61290
1.60801
1.59824
1.58846
1.58357
1.58357
1.58846
1.60312
1.59335
1.57380
1.56891
1.55913
1.55913
1.56402
1.55913
1.55425
1.55913
1.56402
1.56891
1.55913
1.55425
1.56891
1.59335
1.61779
1.66666
1.71554
1.76930
1.77908
1.79863
1.80351
1.80840
1.80351
1.78396
1.77908
1.80351
1.75464
1.74486
1.73998
1.73998
1.72531
1.71554
1.71065
1.70576
1.69599
1.68621
1.69599
1.69599
1.71554
1.69110
1.70087
1.70576
1.72043
1.68621
1.70576
1.68621
1.67644
1.66177
1.66177
1.66177
1.64711
1.64222
1.62756
1.62756
1.64222
1.60801
1.60801
1.61290
1.59824
1.58846
1.58846
1.58846
1.58846
1.57869
1.57380
1.57869
1.58357
1.57380
1.57380
1.57869
1.58357
1.57869
1.58846
1.62267
1.68621
1.73020
1.73998
1.77908
1.80840
1.81329
1.81818
1.81329
1.81329
1.80840
1.78396
1.77419
1.77419
1.75464
1.74486
1.73998
1.74486
1.72531
1.71065
1.72531
1.70576
1.70087
1.69599
1.71065
1.71065
1.73020
1.69599
1.73509
1.70576
1.69599
1.68621
1.69110
1.68132
1.67155
1.66177
1.65689
1.68621
1.64222
1.62756
1.62267
1.63245
1.62756
1.60801
1.60312
1.60312
1.59824
1.58846
1.58846
1.58846
1.58846
1.57380
1.57869
1.58846
1.58357
1.58357
1.59335
1.63734
1.68621
1.69110
1.74975
1.77908
1.84261
1.81329
1.81818
1.81818
1.81818
1.80351
1.78885
1.77419
1.77908
1.77908
1.74486
1.73998
1.73998
1.72531
1.72043
1.71065
1.71554
1.70087
1.73020
1.70087
1.71065
1.70576
1.70576
1.71065
1.71065
1.70576
1.69110
1.69110
1.69110
1.68132
1.66177
1.67155
1.65689
1.64711
1.64222
1.62756
1.63245
1.62267
1.60801
1.60801
1.60801
1.60801
1.59824
1.60801
1.62756
1.60312
1.60312
1.61290
1.60312
1.61779
1.63734
1.68621
1.73509
1.80840
1.80351
1.82795
1.87683
1.84750
1.83284
1.82306
1.82306
1.81818
1.79374
1.78396
1.77908
1.78396
1.76441
1.75464
1.77419
1.74486
1.74486
1.73020
1.76441
1.74486
1.75464
1.73998
1.77908
1.74486
1.73998
1.73998
1.73020
1.73020
1.71554
1.70576
1.69599
1.69599
1.67644
1.66666
1.66177
1.65689
1.64711
1.63734
1.63245
1.63245
1.62756
1.61779
1.61290
1.61779
1.61290
1.60312
1.61290
1.62756
1.65689
1.69110
1.73509
1.78885
1.84261
1.84261
1.88172
1.86217
1.85728
1.83773
1.82795
1.82306
1.84750
1.79374
1.78396
1.78885
1.80840
1.76441
1.74975
1.74486
1.73509
1.74486
1.72043
1.72531
1.73020
1.72043
1.72531
1.72043
1.72043
1.71065
1.69599
1.69110
1.70087
1.67155
1.66177
1.65689
1.65689
1.63734
1.63245
1.62756
1.62267
1.61779
1.61290
1.61779
1.61779
1.61290
1.58846
1.60312
1.59335
1.58357
1.57380
1.57869
1.58357
1.58357
1.59335
1.62267
1.67644
1.72531
1.76441
1.82795
1.84750
1.86217
1.88172
1.86217
1.85728
1.84750
1.82306
1.83773
1.81329
1.80840
1.80840
1.78885
1.78396
1.78396
1.75953
1.74975
1.74486
1.77419
1.72531
1.73020
1.73509
1.73998
1.72531
1.71554
1.72043
1.70576
1.69110
1.68621
1.67644
1.67155
1.65689
1.64222
1.64222
1.64222
1.63245
1.61290
1.60801
1.60801
1.59824
1.60312
1.59335
1.59335
1.57869
1.57380
1.57869
1.58357
1.57869
1.56891
1.56891
1.56891
1.56891
1.55913
1.56402
1.57380
1.58846
1.61779
1.67155
1.73020
1.78396
1.82795
1.84750
1.87194
1.86705
1.85239
1.85728
1.84261
1.83284
1.84261
1.80351
1.79863
1.80840
1.77908
1.77419
1.76930
1.77908
1.73998
1.73509
1.73509
1.74486
1.72531
1.72531
1.72531
1.73020
1.71065
1.70576
1.71554
1.69599
1.67644
1.67155
1.66666
1.66177
1.65200
1.63245
1.62267
1.62267
1.60801
1.59824
1.59824
1.59824
1.58846
1.57869
1.57869
1.58357
1.57869
1.56891
1.57380
1.57380
1.56402
1.56402
1.56402
1.56402
1.56402
1.54936
1.54936
1.55913
1.55425
1.54936
1.56402
1.59824
1.64222
1.68621
1.74975
1.80351
1.84261
1.86217
1.86705
1.87194
1.86217
1.83773
1.83284
1.81818
1.80351
1.81329
1.77908
1.77419
1.78885
1.76441
1.73509
1.72531
1.72531
1.71065
1.71065
1.71554
1.72531
1.71554
1.71065
1.71065
1.71065
1.69110
1.68132
1.70087
1.67644
1.65200
1.64222
1.62756
1.63245
1.61779
1.61779
1.60312
1.59824
1.58846
1.57869
1.57869
1.57869
1.57380
1.56891
1.56891
1.56891
1.56402
1.56402
1.56402
1.56402
1.56402
1.55425
1.55425
1.55913
1.55913
1.54936
1.55425
1.56891
1.58357
1.60801
1.65689
1.72043
1.77419
1.84261
1.84261
1.87683
1.87194
1.85728
1.88660
1.84750
1.83284
1.80351
1.78885
1.78396
1.77908
1.74975
1.73998
1.73509
1.74975
1.70576
1.70087
1.72043
1.70576
1.70576
1.71065
1.70576
1.70576
1.70087
1.68621
1.67644
1.67644
1.66177
1.64222
1.64222
1.63734
1.62756
1.61290
1.59335
1.61779
1.60312
1.56891
1.56891
1.59824
1.57380
1.55913
1.55425
1.55425
1.54447
1.53958
1.53958
1.53958
1.53470
1.52981
1.52492
1.53470
1.52981
1.52003
1.52003
1.52492
1.52003
1.51026
1.51515
1.52003
1.52981
1.53958
1.58357
1.65200
1.71554
1.75953
1.80840
1.86217
1.86217
1.85728
1.86217
1.84750
1.83773
1.81818
1.79863
1.78885
1.80840
1.75464
1.74486
1.74975
1.73998
1.72531
1.70087
1.71554
1.70087
1.69110
1.68621
1.69599
1.70087
1.72043
1.68621
1.68132
1.71065
1.66177
1.64711
1.64222
1.63245
1.62267
1.60801
1.60312
1.59824
1.59335
1.59335
1.59335
1.58846
1.56891
1.54447
1.56891
1.54447
1.54447
1.52981
1.53470
1.53470
1.54936
1.52492
1.52492
1.53470
1.52492
1.51026
1.51515
1.52492
1.51515
1.51515
1.51515
1.51515
1.51515
1.51515
1.51515
1.52003
1.52981
1.54447
1.58846
1.64711
1.72043
1.76441
1.81818
1.88172
1.87194
1.87194
1.85728
1.85239
1.84750
1.81818
1.79863
1.80840
1.77908
1.75953
1.77908
1.73998
1.73509
1.74975
1.70087
1.72531
1.70087
1.69110
1.69110
1.69599
1.71554
1.70087
1.69599
1.70087
1.68621
1.67155
1.67155
1.65200
1.64711
1.63734
1.61779
1.61290
1.61290
1.60801
1.61290
1.57380
1.57380
1.56891
1.55425
1.55425
1.55425
1.54936
1.54447
1.53958
1.54447
1.54447
1.53958
1.53958
1.54447
1.55913
1.55913
1.55425
1.53470
1.53958
1.52981
1.52981
1.52981
1.53470
1.52981
1.53470
1.56402
1.60312
1.65200
1.71065
1.77908
1.82795
1.85728
1.86705
1.88172
1.87194
1.85728
1.85728
1.82306
1.81818
1.79374
1.76930
1.75464
1.75464
1.73509
1.74975
1.70576
1.73020
1.69110
1.68132
1.69110
1.69599
1.69599
1.70087
1.69110
1.69599
1.69110
1.70576
1.67155
1.67644
1.66177
1.64222
1.63245
1.62756
1.61779
1.59824
1.58846
1.58846
1.58357
1.56402
1.56402
1.56402
1.56402
1.55913
1.54936
1.54936
1.54936
1.53470
1.53958
1.53958
1.53470
1.52981
1.52981
1.52981
1.53470
1.52003
1.52003
1.52492
1.53470
1.53958
1.57380
1.62756
1.69110
1.73998
1.79374
1.83284
1.85728
1.87683
1.86217
1.86217
1.84750
1.82306
1.81329
1.78396
1.76930
1.75464
1.73020
1.72531
1.71065
1.70087
1.67644
1.67155
1.67155
1.67644
1.67155
1.70087
1.69599
1.69599
1.68621
1.69110
1.69110
1.69110
1.67155
1.66177
1.66666
1.64711
1.62756
1.62267
1.62267
1.61290
1.61779
1.58846
1.58846
1.58357
1.57380
1.56891
1.56891
1.56891
1.55913
1.56402
1.56402
1.56402
1.55425
1.55425
1.55913
1.55913
1.55425
1.56891
1.59824
1.64711
1.69599
1.75953
1.81329
1.86217
1.87194
1.88660
1.89638
1.89149
1.86705
1.84750
1.82795
1.81329
1.78885
1.79863
1.75464
1.74486
1.74975
1.70087
1.69110
1.69110
1.68132
1.67155
1.68132
1.69110
1.70087
1.68621
1.69110
1.69599
1.69110
1.67644
1.67644
1.67155
1.68621
1.63734
1.62756
1.62267
1.61290
1.58846
1.58846
1.58357
1.57380
1.55913
1.55425
1.55425
1.55425
1.53958
1.53958
1.53958
1.53958
1.53470
1.52981
1.53470
1.53958
1.53958
1.56891
1.62267
1.69110
1.74975
1.82306
1.86705
1.89638
1.90615
1.90615
1.90615
1.91593
1.87194
1.85239
1.83773
1.84261
1.80351
1.78396
1.76930
1.76441
1.74486
1.72043
1.72043
1.71065
1.70087
1.70576
1.69599
1.70576
1.70576
1.70087
1.70087
1.70576
1.69599
1.69599
1.66177
1.66177
1.64711
1.62756
1.61779
1.60801
1.59824
1.57869
1.57380
1.56891
1.56402
1.54447
1.54447
1.54447
1.54447
1.53470
1.53470
1.53470
1.53470
1.52492
1.52492
1.55913
1.54447
1.55425
1.59824
1.67644
1.76441
1.79374
1.85239
1.90127
1.94525
1.92570
1.92570
1.93548
1.90127
1.86705
1.86217
1.82795
1.81818
1.80351
1.79863
1.76930
1.76441
1.73998
1.72531
1.71554
1.71554
1.71065
1.70087
1.70087
1.73509
1.73509
1.70087
1.69599
1.69599
1.68132
1.67155
1.66177
1.65689
1.64222
1.63245
1.63734
1.63245
1.60801
1.58357
1.57869
1.58846
1.56402
1.55425
1.56891
1.55425
1.54447
1.52981
1.52981
1.52981
1.52981
1.52003
1.52003
1.52003
1.52981
1.52492
1.54936
1.59335
1.67155
1.74975
1.79863
1.86705
1.92082
1.94037
1.94525
1.94525
1.95503
1.90615
1.88660
1.86217
1.84750
1.81818
1.80351
1.79374
1.78885
1.76441
1.74975
1.73998
1.73509
1.72043
1.71554
1.71554
1.72531
1.72531
1.72043
1.72043
1.72043
1.71065
1.72043
1.67644
1.67644
1.65689
1.64222
1.62267
1.61290
1.60312
1.59335
1.57380
1.57380
1.56402
1.54936
1.53958
1.53958
1.53958
1.52981
1.52492
1.52981
1.52981
1.52003
1.52003
1.54936
1.54936
1.52492
1.53958
1.53470
1.52981
1.53958
1.57869
1.65200
1.75953
1.78885
1.85728
1.91104
1.94525
1.97458
1.94037
1.93059
1.92570
1.88172
1.85239
1.83773
1.81329
1.78885
1.76930
1.75953
1.74486
1.72043
1.70576
1.70087
1.70087
1.69599
1.70087
1.70087
1.71065
1.70576
1.69599
1.70087
1.70087
1.68621
1.68621
1.65200
1.63734
1.62756
1.60801
1.59335
1.58846
1.57869
1.55913
1.55425
1.55425
1.54447
1.53470
1.52981
1.56402
1.53470
1.52492
1.52492
1.52981
1.52492
1.51515
1.51026
1.51026
1.51515
1.51026
1.52003
1.54936
1.59824
1.65689
1.73509
1.81329
1.88172
1.92570
1.93548
1.95014
1.94525
1.95014
1.89638
1.87194
1.85239
1.81329
1.79374
1.77908
1.76441
1.73020
1.71554
1.70576
1.69599
1.68132
1.67644
1.68621
1.69599
1.70087
1.70087
1.70087
1.70576
1.69599
1.68132
1.67155
1.66666
1.64711
1.63245
1.64222
1.60312
1.58846
1.56891
1.55913
1.55425
1.53958
1.55913
1.52003
1.52003
1.53470
1.52003
1.52003
1.52003
1.51026
1.50048
1.50048
1.51026
1.52981
1.51026
1.51515
1.54447
1.59335
1.66177
1.74486
1.85239
1.89149
1.92570
1.95503
1.95503
1.95503
1.92082
1.89149
1.86705
1.84750
1.81329
1.78885
1.77908
1.75953
1.75953
1.72043
1.70087
1.69599
1.68132
1.70087
1.67644
1.68132
1.68132
1.67644
1.68621
1.68621
1.67644
1.66177
1.65200
1.65200
1.63245
1.61290
1.59824
1.59335
1.57380
1.55425
1.54447
1.53958
1.52981
1.51026
1.51026
1.50537
1.50048
1.49071
1.49071
1.49560
1.49560
1.48093
1.48093
1.48582
1.48582
1.47605
1.47605
1.48093
1.49071
1.50537
1.55913
1.63734
1.73020
1.80351
1.87683
1.94525
1.99902
1.96480
1.95992
1.93548
1.91104
1.90127
1.84261
1.81818
1.80840
1.77419
1.75464
1.73998
1.73020
1.70576
1.69599
1.69599
1.68132
1.67644
1.67644
1.68621
1.69599
1.69110
1.68621
1.68132
1.68132
1.66666
1.65200
1.63734
1.63734
1.61779
1.60801
1.57869
1.57380
1.55425
1.53958
1.52981
1.52981
1.52003
1.50537
1.50537
1.50537
1.50537
1.49560
1.49560
1.49560
1.48582
1.48582
1.48582
1.48582
1.48582
1.48093
1.48093
1.48582
1.49560
1.52003
1.57380
1.65689
1.75464
1.83284
1.90127
1.96969
1.97947
1.97458
1.97947
1.94037
1.91593
1.88172
1.84261
1.81818
1.80351
1.77419
1.77908
1.73509
1.74975
1.70087
1.68621
1.68132
1.71065
1.69599
1.67644
1.69110
1.70087
1.69599
1.69110
1.68621
1.69110
1.67155
1.65689
1.64711
1.63734
1.61779
1.60312
1.58846
1.58357
1.56402
1.54447
1.53958
1.53958
1.52492
1.51026
1.51026
1.51026
1.50537
1.49560
1.49071
1.49560
1.49560
1.48582
1.48582
1.48582
1.49071
1.48093
1.48582
1.50048
1.53470
1.58846
1.66666
1.75953
1.84261
1.89149
1.93548
1.96480
1.96969
1.94525
1.92082
1.89638
1.88660
1.82306
1.79374
1.77419
1.75464
1.73020
1.70087
1.68621
1.68132
1.65200
1.64711
1.64711
1.66177
1.66177
1.66666
1.68132
1.69110
1.68132
1.68132
1.69599
1.66177
1.64711
1.62756
1.61290
1.60801
1.58846
1.56891
1.55913
1.55425
1.53958
1.52492
1.52003
1.52003
1.51026
1.50048
1.50048
1.50048
1.53470
1.52492
1.52003
1.51026
1.52003
1.51515
1.52981
1.52492
1.59335
1.65689
1.74486
1.81818
1.87194
1.92570
1.94037
1.95503
1.95503
1.93548
1.89638
1.87194
1.84750
1.80351
1.77419
1.75464
1.73998
1.70576
1.68621
1.66666
1.66177
1.64711
1.64711
1.65200
1.66177
1.66666
1.68132
1.70087
1.71065
1.67644
1.66666
1.65689
1.65200
1.63245
1.61290
1.60312
1.59824
1.58357
1.56402
1.54936
1.54447
1.53470
1.52003
1.51515
1.51515
1.50537
1.49560
1.49560
1.49560
1.49560
1.48582
1.48582
1.49071
1.49071
1.49560
1.52003
1.59335
1.68132
1.73509
1.82795
1.89149
1.94525
1.97947
1.95992
1.95503
1.93548
1.89638
1.86705
1.86705
1.80840
1.77419
1.74975
1.73509
1.74975
1.69110
1.67155
1.66177
1.66177
1.64711
1.64711
1.65689
1.67644
1.67155
1.67155
1.67644
1.67644
1.66177
1.65200
1.64222
1.63734
1.61290
1.59824
1.58357
1.57380
1.56402
1.54447
1.53958
1.53470
1.52492
1.50537
1.50537
1.50537
1.50048
1.48582
1.49071
1.49071
1.49071
1.48582
1.48582
1.48582
1.48582
1.48093
1.50048
1.54936
1.61290
1.69110
1.77908
1.86217
1.92570
1.95503
1.96969
1.96969
1.96480
1.91593
1.89149
1.86705
1.84261
1.80351
1.77908
1.76441
1.77419
1.72531
1.70576
1.70576
1.69110
1.67644
1.67644
1.69110
1.70087
1.69599
1.71065
1.72531
1.69599
1.70576
1.66666
1.65689
1.64711
1.62756
1.60801
1.59824
1.58846
1.56891
1.55913
1.54936
1.54447
1.52981
1.52003
1.51026
1.51026
1.50048
1.49560
1.49560
1.50537
1.49560
1.49071
1.48582
1.49071
1.49071
1.49071
1.51026
1.55913
1.62756
1.70087
1.77908
1.85728
1.90615
1.94037
1.93548
1.93548
1.94525
1.87683
1.85728
1.82795
1.80840
1.77908
1.77908
1.74486
1.73020
1.70576
1.68621
1.67155
1.66666
1.65200
1.64711
1.65200
1.65689
1.65200
1.64711
1.64711
1.64222
1.62756
1.61290
1.60312
1.59335
1.56402
1.54936
1.53958
1.53470
1.51515
1.49560
1.49560
1.49071
1.47605
1.46627
1.46627
1.46627
1.45161
1.44672
1.44183
1.44672
1.44183
1.42717
1.43206
1.43206
1.43206
1.43695
1.46627
1.52492
1.58357
1.64222
1.70087
1.75464
1.78885
1.80840
1.78885
1.77908
1.78885
1.73020
1.71065
1.69599
1.67644
1.65200
1.64222
1.63245
1.61779
1.59335
1.58357
1.57869
1.57380
1.56402
1.57869
1.57869
1.58846
1.57380
1.57380
1.56891
1.57380
1.55913
1.54936
1.54936
1.53958
1.52003
1.50048
1.49560
1.49071
1.48093
1.47116
1.46627
1.46627
1.45650
1.45650
1.47605
1.45161
1.44183
1.43695
1.43695
1.44183
1.43695
1.43695
1.45161
1.49560
1.50537
1.54936
1.59824
1.65200
1.69110
1.71065
1.72531
1.73020
1.72531
1.70087
1.72531
1.68132
1.66666
1.64222
1.63734
1.63245
1.63734
1.60312
1.60312
1.58846
1.58846
1.57869
1.57869
1.58846
1.59335
1.59335
1.59335
1.61779
1.59824
1.58357
1.58357
1.57380
1.57869
1.54936
1.53958
1.54447
1.52981
1.52003
1.51026
1.52003
1.51026
1.50048
1.49560
1.51515
1.50048
1.48582
1.48582
1.48093
1.52003
1.48582
1.48093
1.49071
1.52492
1.56402
1.59824
1.64711
1.69110
1.72531
1.72531
1.73509
1.73998
1.72531
1.70576
1.69599
1.69110
1.68132
1.66177
1.65689
1.65689
1.68132
1.62756
1.61779
1.61779
1.60801
1.60312
1.60801
1.60801
1.61779
1.60312
1.63245
1.60801
1.60801
1.59335
1.58357
1.58357
1.57869
1.58357
1.54936
1.54447
1.56891
1.52492
1.52492
1.52492
1.52492
1.52003
1.52492
1.51026
1.51026
1.50048
1.50048
1.50537
1.50537
1.49560
1.49071
1.49560
1.51026
1.52003
1.55425
1.58846
1.64222
1.68132
1.70576
1.72531
1.73998
1.73998
1.72531
1.72043
1.72531
1.71065
1.69599
1.72531
1.69599
1.69110
1.67644
1.66666
1.68132
1.66177
1.64222
1.63734
1.63734
1.63734
1.62267
1.62756
1.63245
1.62756
1.63734
1.60801
1.60801
1.60801
1.58846
1.60801
1.57380
1.57380
1.55425
1.54936
1.54936
1.54936
1.52981
1.52981
1.52492
1.53470
1.52981
1.51515
1.51515
1.52003
1.50537
1.50537
1.50537
1.51515
1.52492
1.49560
1.49560
1.50048
1.49071
1.49071
1.50537
1.56402
1.56402
1.59824
1.64222
1.68132
1.70087
1.70576
1.71065
1.74486
1.70576
1.69599
1.68132
1.68621
1.70087
1.66666
1.66177
1.67155
1.66177
1.64711
1.67155
1.63734
1.62756
1.61779
1.61779
1.61779
1.63734
1.61290
1.61290
1.60801
1.60801
1.59824
1.57869
1.58357
1.58357
1.56402
1.58357
1.54936
1.55425
1.56891
1.53958
1.53470
1.53470
1.52003
1.51515
1.51026
1.52492
1.51026
1.50537
1.50048
1.50537
1.50048
1.52981
1.50048
1.50048
1.49560
1.49071
1.49560
1.50048
1.49071
1.48093
1.48582
1.50048
1.49071
1.48582
1.49560
1.52003
1.57380
1.58357
1.61779
1.69599
1.68132
1.68621
1.69110
1.70576
1.69110
1.68132
1.67644
1.67644
1.67644
1.66177
1.66177
1.66666
1.66177
1.65200
1.65200
1.67155
1.64222
1.62756
1.63734
1.64222
1.64222
1.63245
1.63245
1.63245
1.63734
1.62267
1.61779
1.62267
1.61779
1.60312
1.59824
1.60312
1.59335
1.60312
1.57869
1.57380
1.57380
1.55913
1.58357
1.55425
1.55913
1.57380
1.53958
1.53958
1.56891
1.53470
1.53470
1.53470
1.56891
1.52981
1.52492
1.52981
1.53470
1.52981
1.52003
1.52003
1.52981
1.52981
1.52003
1.52003
1.53470
1.55425
1.57380
1.61779
1.67644
1.71065
1.73509
1.73998
1.74486
1.77908
1.73509
1.73509
1.73020
1.73020
1.71065
1.70576
1.71065
1.70576
1.69110
1.68621
1.69110
1.68132
1.66666
1.66666
1.66666
1.67644
1.67155
1.67155
1.67155
1.68132
1.67155
1.66666
1.66177
1.66177
1.64711
1.64222
1.63734
1.63734
1.62267
1.61779
1.62756
1.61779
1.60801
1.60801
1.60312
1.60312
1.59824
1.58846
1.58846
1.59335
1.60312
1.58357
1.57380
1.57869
1.57869
1.56891
1.56891
1.57380
1.57380
1.56402
1.56402
1.57380
1.57869
1.58846
1.63245
1.66177
1.70576
1.73020
1.75464
1.77908
1.79863
1.76930
1.76930
1.76441
1.75953
1.74486
1.73509
1.73509
1.73998
1.71554
1.71065
1.71065
1.73509
1.68621
1.67644
1.68621
1.68132
1.68621
1.67644
1.69599
1.68621
1.67644
1.67155
1.66666
1.67155
1.65689
1.67644
1.64222
1.63734
1.64222
1.61290
1.61290
1.61290
1.62756
1.60312
1.58846
1.59335
1.58357
1.56891
1.57380
1.57380
1.56891
1.58846
1.55913
1.56402
1.55913
1.54936
1.54936
1.55425
1.55425
1.56402
1.55425
1.54447
1.54447
1.54447
1.55913
1.59335
1.62756
1.66666
1.70087
1.73509
1.75464
1.74975
1.76930
1.75464
1.75953
1.73998
1.73998
1.73509
1.73509
1.72531
1.71554
1.71554
1.71554
1.72531
1.69110
1.68621
1.68621
1.67644
1.67155
1.67644
1.68132
1.67644
1.67155
1.67644
1.67155
1.66666
1.65200
1.64711
1.64222
1.63245
1.62756
1.61779
1.61779
1.61290
1.59335
1.59335
1.59335
1.58357
1.56891
1.56891
1.57380
1.56891
1.56402
1.58846
1.55913
1.55425
1.54447
1.54447
1.54936
1.54447
1.53958
1.54936
1.55425
1.55425
1.53470
1.53470
1.53470
1.53958
1.52981
1.53470
1.55913
1.60312
1.62267
1.66666
1.72531
1.74486
1.77908
1.74486
1.74486
1.74486
1.71554
1.71554
1.71554
1.71554
1.72531
1.68132
1.67155
1.67155
1.63734
1.61779
1.61290
1.62267
1.61779
1.62756
1.63734
1.68132
1.65200
1.65689
1.66666
1.67155
1.67155
1.67155
1.68132
1.68621
1.68621
1.67155
1.67155
1.67155
1.66177
1.64711
1.65689
1.65689
1.66177
1.63734
1.64711
1.62756
1.62267
1.58846
1.58357
1.57380
1.55913
1.54447
1.56891
1.55425
1.55425
1.54447
1.54936
1.55425
1.55913
1.54447
1.54447
1.54936
1.55425
1.54936
1.55913
1.55425
1.56891
1.57869
1.60312
1.64711
1.70576
1.71065
1.73020
1.74486
1.74486
1.72531
1.71554
1.71065
1.71065
1.72531
1.68621
1.68132
1.69599
1.67644
1.67155
1.67644
1.71065
1.67155
1.66666
1.67644
1.67644
1.67644
1.67155
1.68132
1.68621
1.68621
1.67644
1.68132
1.68621
1.68621
1.67155
1.66177
1.68621
1.65200
1.63734
1.63734
1.63245
1.65200
1.60801
1.60312
1.61290
1.59824
1.58357
1.57869
1.58357
1.57869
1.56891
1.56891
1.56891
1.57380
1.55913
1.56402
1.58357
1.56891
1.55425
1.55425
1.55425
1.55425
1.55425
1.57869
1.56891
1.59335
1.62756
1.67155
1.73020
1.76441
1.77419
1.79374
1.79863
1.80351
1.82306
1.78396
1.78396
1.76930
1.75464
1.74486
1.73509
1.73020
1.72531
1.72531
1.69110
1.69110
1.68132
1.67155
1.69110
1.68621
1.68621
1.68132
1.69110
1.70576
1.69599
1.71554
1.68621
1.69110
1.68132
1.66666
1.66666
1.66177
1.68621
1.64222
1.63734
1.63245
1.63245
1.61779
1.61779
1.61290
1.60801
1.59335
1.58846
1.58846
1.59335
1.60312
1.60312
1.57869
1.58357
1.56891
1.56402
1.56891
1.58357
1.59335
1.59824
1.63734
1.69110
1.72531
1.76930
1.78885
1.81818
1.80840
1.80840
1.79863
1.79863
1.78885
1.76930
1.75953
1.76930
1.73509
1.72043
1.72043
1.71065
1.70087
1.67644
1.69599
1.67644
1.67155
1.66177
1.67155
1.68132
1.68621
1.67155
1.67155
1.68132
1.66666
1.69110
1.65689
1.65200
1.64222
1.62756
1.61779
1.61779
1.60801
1.59824
1.59824
1.58846
1.58846
1.57380
1.56402
1.56891
1.57380
1.56891
1.54936
1.54936
1.55425
1.54447
1.54447
1.54447
1.55425
1.54447
1.54447
1.56891
1.54936
1.55425
1.57869
1.62267
1.68132
1.72531
1.75464
1.79374
1.81329
1.81329
1.81329
1.80351
1.80840
1.78885
1.77908
1.76441
1.75953
1.77419
1.73020
1.72043
1.72043
1.70087
1.68621
1.67644
1.68621
1.67644
1.67644
1.67644
1.68621
1.69599
1.67644
1.71065
1.68132
1.67644
1.67155
1.66177
1.68132
1.65200
1.63734
1.63245
1.63245
1.62267
1.60312
1.60312
1.62267
1.62267
1.57869
1.57380
1.57380
1.57869
1.56402
1.56402
1.56402
1.56891
1.55425
1.58357
1.55425
1.55913
1.54936
1.54936
1.54936
1.56402
1.56891
1.59824
1.65200
1.72043
1.74975
1.78396
1.81818
1.83773
1.86705
1.83284
1.84261
1.82795
1.81818
1.78885
1.78396
1.78396
1.75953
1.74486
1.73509
1.73020
1.73020
1.69599
1.69599
1.70087
1.69599
1.69599
1.69599
1.70576
1.70576
1.69599
1.69599
1.70087
1.69110
1.70576
1.67155
1.67155
1.67155
1.64711
1.63734
1.63734
1.63245
1.61290
1.60801
1.60801
1.60801
1.59335
1.60312
1.58357
1.58357
1.56891
1.56891
1.56891
1.57380
1.56402
1.55913
1.56402
1.56402
1.55913
1.55913
1.56402
1.59335
1.57869
1.59335
1.63734
1.69110
1.73509
1.77908
1.81818
1.85239
1.84261
1.84261
1.83773
1.83773
1.84261
1.79863
1.78885
1.80840
1.76441
1.74486
1.73998
1.73020
1.72043
1.69599
1.72531
1.69599
1.69110
1.69599
1.69599
1.70576
1.73509
1.70087
1.70087
1.70576
1.70087
1.68621
1.68621
1.68132
1.70087
1.65689
1.65200
1.64711
1.65689
1.65689
1.61779
1.61779
1.61290
1.59824
1.59335
1.60801
1.60801
1.57869
1.57869
1.58357
1.58357
1.57869
1.57380
1.57869
1.59824
1.60801
1.58357
1.60801
1.65200
1.69599
1.74486
1.81329
1.84261
1.86217
1.86705
1.87194
1.88172
1.86217
1.84261
1.83284
1.81818
1.79863
1.77908
1.78885
1.76441
1.73998
1.72043
1.70087
1.73020
1.69110
1.68621
1.68621
1.72531
1.70087
1.69599
1.69599
1.70576
1.70576
1.69110
1.69599
1.68132
1.67644
1.66177
1.65200
1.64711
1.64222
1.63245
1.63734
1.64711
1.64222
1.59335
1.58357
1.58357
1.58357
1.56891
1.56402
1.56402
1.56891
1.55913
1.55913
1.55913
1.55913
1.55425
1.55913
1.57869
1.62267
1.66666
1.72531
1.78396
1.83284
1.85728
1.86705
1.89149
1.88172
1.87194
1.87683
1.84261
1.82795
1.80840
1.78885
1.77908
1.77908
1.75464
1.73998
1.72043
1.71554
1.70576
1.69599
1.70087
1.70576
1.70576
1.70087
1.72531
1.71065
1.70576
1.69599
1.72043
1.69110
1.68621
1.66666
1.65689
1.64711
1.64222
1.62267
1.62267
1.61779
1.63245
1.59824
1.58357
1.58357
1.57869
1.56402
1.56402
1.56402
1.56402
1.55913
1.56402
1.56891
1.58357
1.56402
1.57869
1.55425
1.57380
1.59824
1.64711
1.71554
1.78396
1.84750
1.86217
1.89638
1.91104
1.90127
1.91104
1.88172
1.87194
1.84261
1.82306
1.81329
1.79863
1.77908
1.75953
1.74975
1.73998
1.72531
1.71065
1.73509
1.71554
1.71554
1.71554
1.72043
1.73509
1.72531
1.71554
1.71065
1.74486
1.70087
1.68621
1.67644
1.70087
1.68132
1.64222
1.63734
1.63245
1.62756
1.60801
1.60312
1.60312
1.59824
1.58357
1.58846
1.57380
1.60801
1.56402
1.55913
1.56891
1.56891
1.55913
1.55425
1.55913
1.56402
1.56402
1.58846
1.63245
1.70087
1.75953
1.82306
1.86705
1.91104
1.91593
1.93548
1.92082
1.91593
1.89149
1.86705
1.87194
1.83284
1.80840
1.79863
1.77419
1.76930
1.74486
1.73020
1.72043
1.72043
1.72531
1.72043
1.72043
1.73020
1.73509
1.73020
1.73020
1.73509
1.73509
1.71065
1.70576
1.70087
1.69599
1.69110
1.66177
1.65689
1.65200
1.62756
1.62756
1.63245
1.62267
1.60801
1.60312
1.60312
1.60312
1.60312
1.61290
1.58357
1.58846
1.57869
1.57380
1.57869
1.58846
1.59335
1.62267
1.67644
1.73998
1.79863
1.85239
1.90615
1.94037
1.95014
1.94525
1.94037
1.93548
1.90615
1.87683
1.86217
1.84750
1.82306
1.79863
1.81329
1.77419
1.76441
1.73509
1.72531
1.73020
1.73509
1.73020
1.73998
1.74975
1.74975
1.74486
1.74486
1.74486
1.73998
1.71554
1.71554
1.70087
1.69110
1.66666
1.65689
1.64711
1.64222
1.62267
1.61290
1.61290
1.61290
1.59335
1.58846
1.58846
1.58846
1.57380
1.57380
1.57380
1.57869
1.57380
1.56891
1.58357
1.61779
1.66666
1.73020
1.81818
1.87194
1.92082
1.96480
1.96480
1.97458
1.97458
1.93059
1.91593
1.92570
1.86217
1.83773
1.82306
1.80840
1.79374
1.76441
1.75464
1.73998
1.72531
1.71065
1.71065
1.72043
1.72043
1.73998
1.72043
1.73020
1.72531
1.71554
1.70576
1.70087
1.69110
1.67644
1.66666
1.66177
1.65689
1.64711
1.64222
1.63245
1.59335
1.57380
1.56891
1.59335
1.56891
1.55913
1.56402
1.56402
1.55425
1.54447
1.54447
1.54447
1.56402
1.54447
1.55913
1.55425
1.55913
1.59335
1.62756
1.70576
1.79374
1.86217
1.92082
1.95503
1.99413
1.96969
1.95503
1.95014
1.92082
1.88660
1.86217
1.83284
1.82306
1.79863
1.77908
1.76441
1.75953
1.73509
1.73509
1.71554
1.73509
1.71554
1.71065
1.72043
1.73020
1.72531
1.72043
1.71554
1.71554
1.71065
1.67644
1.66666
1.65689
1.64222
1.61779
1.61290
1.60312
1.59335
1.57380
1.56402
1.56891
1.56402
1.55425
1.55913
1.56891
1.57380
1.55913
1.55913
1.54447
1.55425
1.52492
1.52492
1.53470
1.52981
1.52492
1.53958
1.52003
1.53470
1.55913
1.63734
1.69110
1.77908
1.84750
1.91104
1.98435
1.98924
1.98435
1.98924
1.95014
1.93548
1.90127
1.86705
1.84261
1.84261
1.80840
1.78885
1.77419
1.76930
1.73998
1.72043
1.72043
1.73998
1.72043
1.71554
1.73020
1.73998
1.73509
1.72531
1.72043
1.72043
1.73020
1.68621
1.67155
1.66666
1.65200
1.63245
1.61779
1.61290
1.60312
1.58357
1.57380
1.56891
1.56402
1.54447
1.54447
1.54447
1.53470
1.52492
1.52492
1.52492
1.52981
1.51515
1.52003
1.51515
1.52492
1.51026
1.51026
1.51515
1.52492
1.52981
1.56891
1.63245
1.71065
1.78396
1.86705
1.92570
1.96969
1.97947
1.97458
1.96480
1.96969
1.91104
1.87683
1.86217
1.82795
1.79863
1.76930
1.75464
1.73998
1.72043
1.69599
1.70576
1.68621
1.68132
1.68132
1.69110
1.70576
1.71065
1.70087
1.70576
1.70576
1.69110
1.68132
1.66666
1.66177
1.65200
1.65200
1.61290
1.60312
1.59335
1.57869
1.56402
1.55913
1.55425
1.54447
1.53470
1.53470
1.53470
1.54447
1.53470
1.52492
1.52981
1.51515
1.52003
1.52003
1.54936
1.52492
1.51515
1.54936
1.55425
1.56402
1.62267
1.70087
1.79863
1.85728
1.90127
1.94037
1.97947
1.96480
1.95503
1.96480
1.91104
1.87683
1.84261
1.81329
1.79374
1.76441
1.74486
1.72043
1.71065
1.69110
1.68621
1.70576
1.68132
1.68621
1.69110
1.70576
1.72043
1.72531
1.71065
1.71554
1.72043
1.70576
1.68132
1.67155
1.66177
1.64711
1.62756
1.62267
1.62756
1.60312
1.58357
1.57380
1.59335
1.59335
1.54936
1.56891
1.56402
1.56891
1.53470
1.52492
1.52981
1.52492
1.52003
1.52003
1.52981
1.54447
1.56402
1.61290
1.69110
1.77908
1.84750
1.91104
1.95992
1.99413
1.99413
1.97458
1.95503
1.94037
1.89149
1.85728
1.84750
1.81329
1.78396
1.75953
1.73998
1.72531
1.69599
1.68132
1.70576
1.67644
1.67644
1.68132
1.68621
1.70087
1.70087
1.69599
1.69599
1.70576
1.68621
1.67155
1.64711
1.63734
1.62267
1.60312
1.58846
1.57869
1.56891
1.54936
1.54447
1.53958
1.52981
1.51515
1.51026
1.51026
1.50537
1.49560
1.49560
1.52981
1.52492
1.51515
1.52492
1.52003
1.52003
1.51026
1.52492
1.55913
1.59824
1.66666
1.75953
1.88172
1.93059
1.97458
2.01368
2.01857
2.01368
2.00879
1.95014
1.92570
1.90127
1.85728
1.84750
1.80840
1.79374
1.76930
1.73998
1.72531
1.71065
1.69599
1.68621
1.69110
1.70576
1.70576
1.70576
1.70576
1.72531
1.70576
1.68621
1.67644
1.67155
1.65200
1.62756
1.61779
1.60312
1.58846
1.56891
1.55425
1.54936
1.53958
1.52003
1.51515
1.51515
1.50537
1.49071
1.49071
1.49560
1.49071
1.48582
1.48582
1.48582
1.49071
1.48093
1.47605
1.47605
1.48093
1.47605
1.50048
1.55425
1.63245
1.71554
1.81329
1.90127
1.96969
2.00391
2.00391
2.00879
1.98924
1.95014
1.91593
1.90615
1.85728
1.82306
1.80840
1.77908
1.76930
1.73998
1.71554
1.70576
1.70087
1.69110
1.68621
1.70087
1.73020
1.73020
1.71554
1.72531
1.72531
1.71554
1.70087
1.69110
1.68132
1.65689
1.63245
1.62267
1.61290
1.59335
1.56891
1.55913
1.54936
1.53470
1.52003
1.51026
1.51026
1.50048
1.48582
1.48093
1.48582
1.48582
1.47116
1.47116
1.47605
1.48093
1.47116
1.47116
1.47605
1.47605
1.47116
1.48582
1.52003
1.58846
1.66666
1.76441
1.85728
1.94037
1.98435
2.01368
2.02834
2.01857
1.97947
1.95014
1.90615
1.87683
1.83284
1.79863
1.77908
1.75953
1.73020
1.70576
1.68621
1.68132
1.66666
1.65689
1.66666
1.68132
1.68621
1.69599
1.70576
1.72043
1.71554
1.67155
1.66666
1.65689
1.64222
1.61290
1.60312
1.58846
1.57380
1.55425
1.53958
1.53958
1.52981
1.51026
1.50537
1.50048
1.50048
1.51026
1.49560
1.49071
1.49071
1.48093
1.48093
1.48582
1.48582
1.47116
1.47116
1.47605
1.49560
1.52003
1.56891
1.64711
1.74486
1.82306
1.89149
1.94525
1.97947
1.97947
1.96480
1.94525
1.92082
1.87683
1.83773
1.80840
1.78885
1.74975
1.73020
1.70576
1.70087
1.68132
1.64222
1.64222
1.66177
1.65689
1.65200
1.66666
1.68132
1.68132
1.68132
1.68132
1.67644
1.66177
1.64711
1.63245
1.62267
1.60312
1.58846
1.57380
1.56891
1.55425
1.53470
1.53470
1.52981
1.51515
1.50537
1.50048
1.50537
1.49560
1.49071
1.49071
1.49071
1.49560
1.48093
1.48582
1.48582
1.49071
1.49560
1.53470
1.59335
1.68132
1.75953
1.85239
1.92082
1.97458
1.98435
1.98435
1.97947
1.95503
1.91104
1.88172
1.84261
1.81329
1.77419
1.74486
1.72043
1.70576
1.68132
1.67155
1.64222
1.64222
1.63734
1.63734
1.65200
1.66666
1.66666
1.67155
1.67644
1.67644
1.66666
1.64711
1.63734
1.62756
1.60312
1.58357
1.56402
1.56402
1.55913
1.53958
1.52492
1.52003
1.50537
1.49560
1.48582
1.49071
1.48582
1.48582
1.50048
1.50537
1.48093
1.47605
1.47605
1.48093
1.48093
1.48582
1.52492
1.60312
1.69110
1.77908
1.88660
1.94037
1.99413
2.00391
2.00879
1.99902
1.99902
1.93548
1.90127
1.86705
1.84261
1.80351
1.78396
1.78396
1.74975
1.71554
1.69599
1.68132
1.67644
1.67155
1.66666
1.68132
1.70087
1.70087
1.69110
1.69110
1.69110
1.67644
1.66177
1.65200
1.63734
1.61779
1.59335
1.58357
1.57380
1.55425
1.53958
1.52981
1.52492
1.52003
1.50048
1.49560
1.49560
1.49071
1.48093
1.48093
1.48582
1.48582
1.47116
1.47605
1.47605
1.48582
1.49560
1.54936
1.64222
1.73020
1.81818
1.90127
1.97947
2.00879
2.04301
2.00879
1.99413
1.99413
1.92082
1.89149
1.86217
1.84261
1.80351
1.78885
1.77908
1.75953
1.75464
1.72531
1.69110
1.69110
1.67644
1.67644
1.68132
1.69599
1.68621
1.67644
1.67644
1.67155
1.65200
1.65200
1.64222
1.62756
1.58357
1.55913
1.53470
1.52981
1.51026
1.49560
1.48582
1.47605
1.46138
1.44672
1.44183
1.44183
1.43206
1.42228
1.41739
1.41739
1.41251
1.40273
1.39784
1.40762
1.41739
1.47605
1.52492
1.62267
1.69110
1.74486
1.81329
1.85239
1.85239
1.85239
1.80840
1.78885
1.75953
1.74486
1.69110
1.68132
1.65689
1.63734
1.61290
1.59335
1.58357
1.55913
1.55913
1.54936
1.53470
1.52492
1.52003
1.52492
1.52981
1.51026
1.50537
1.49560
1.49071
1.46627
1.45650
1.44183
1.43206
1.41251
1.40273
1.40762
1.37829
1.36363
1.35386
1.34897
1.34897
1.33431
1.32942
1.32942
1.32942
1.32453
1.31964
1.31476
1.31964
1.31964
1.33431
1.31964
1.34408
1.37829
1.42717
1.48582
1.54936
1.59335
1.62756
1.62267
1.62756
1.62267
1.59335
1.57380
1.57869
1.57380
1.53470
1.52003
1.52003
1.51026
1.50537
1.49071
1.47605
1.47116
1.46138
1.45650
1.47605
1.47605
1.46627
1.46138
1.47116
1.47116
1.45650
1.45161
1.44672
1.44672
1.45650
1.42228
1.41251
1.41739
1.42228
1.40762
1.40273
1.40762
1.42228
1.38807
1.39296
1.39784
1.41739
1.38807
1.38807
1.39784
1.39296
1.39296
1.39784
1.40762
1.45161
1.43695
1.48093
1.54447
1.55425
1.57380
1.59335
1.60312
1.59824
1.58846
1.58357
1.58357
1.56891
1.57380
1.55425
1.55913
1.55425
1.54447
1.54447
1.52981
1.52981
1.52003
1.51515
1.52981
1.52981
1.53470
1.52492
1.53958
1.52981
1.52981
1.51515
1.51515
1.51515
1.50048
1.51515
1.49071
1.49071
1.48582
1.48093
1.49560
1.48582
1.47605
1.47605
1.47116
1.47605
1.46627
1.46627
1.47116
1.47116
1.47116
1.46138
1.47116
1.47605
1.48093
1.50048
1.52981
1.58846
1.58846
1.60801
1.62267
1.62756
1.62756
1.64711
1.60801
1.60801
1.60801
1.59335
1.59824
1.60312
1.60801
1.59335
1.59824
1.60801
1.59335
1.58357
1.58846
1.58357
1.58846
1.58846
1.58846
1.59335
1.59824
1.59824
1.57869
1.57869
1.58357
1.59335
1.58357
1.56891
1.56402
1.55425
1.54936
1.55425
1.58846
1.54447
1.55425
1.55425
1.55425
1.54936
1.54447
1.56402
1.54936
1.53958
1.53470
1.54447
1.54936
1.53958
1.55425
1.53958
1.57380
1.54447
1.55425
1.60801
1.61290
1.65689
1.65689
1.66177
1.67155
1.66177
1.64711
1.64222
1.65689
1.63245
1.62267
1.62756
1.63734
1.63734
1.62756
1.62756
1.63245
1.63245
1.61290
1.63734
1.61779
1.61779
1.61290
1.61290
1.61779
1.64222
1.63245
1.60312
1.60312
1.60312
1.58846
1.58357
1.58846
1.58846
1.57380
1.57869
1.57869
1.57869
1.56891
1.56402
1.57380
1.57380
1.59335
1.55425
1.55913
1.57380
1.55425
1.55425
1.55913
1.56402
1.57869
1.54936
1.55425
1.56402
1.55425
1.54447
1.55425
1.55913
1.55913
1.56891
1.59335
1.62756
1.64711
1.66177
1.66666
1.66177
1.64711
1.64222
1.62267
1.62267
1.62267
1.61779
1.62267
1.62756
1.62267
1.62267
1.64711
1.62756
1.62267
1.62267
1.60801
1.60801
1.64222
1.60801
1.60801
1.61290
1.61290
1.60312
1.60312
1.60312
1.59824
1.58357
1.58846
1.58846
1.58357
1.58846
1.56891
1.57869
1.57380
1.56402
1.56891
1.56891
1.57869
1.56402
1.55913
1.56402
1.56402
1.55913
1.54936
1.55425
1.55913
1.54936
1.54447
1.54936
1.55425
1.55425
1.53958
1.53958
1.54936
1.53958
1.55913
1.56402
1.60312
1.62267
1.64222
1.66666
1.68132
1.67155
1.65689
1.64711
1.64222
1.62756
1.61779
1.61290
1.61779
1.61779
1.60801
1.61779
1.62267
1.61779
1.62756
1.60312
1.60801
1.60801
1.60312
1.60312
1.61779
1.61290
1.61779
1.59824
1.62756
1.59824
1.58357
1.58357
1.57869
1.58357
1.56891
1.56891
1.56891
1.57380
1.56402
1.56891
1.56402
1.56891
1.56402
1.56402
1.56402
1.57380
1.55913
1.58357
1.55425
1.55913
1.55913
1.55425
1.56891
1.56402
1.56402
1.56402
1.56402
1.58357
1.58846
1.60801
1.64222
1.66666
1.67644
1.67644
1.67155
1.66666
1.67644
1.63734
1.63734
1.63245
1.62756
1.62267
1.65689
1.63245
1.63245
1.64711
1.61779
1.61290
1.62756
1.60801
1.60801
1.62756
1.61779
1.61779
1.61290
1.61779
1.61290
1.59335
1.59335
1.59335
1.59335
1.58357
1.57380
1.59335
1.57869
1.56891
1.56891
1.56891
1.58846
1.56402
1.55913
1.56402
1.56402
1.55425
1.55913
1.55425
1.55913
1.55425
1.54936
1.54936
1.55913
1.54447
1.54447
1.54936
1.55913
1.56402
1.58357
1.60801
1.67155
1.65200
1.66177
1.65689
1.65200
1.64222
1.61779
1.61290
1.62267
1.61290
1.60312
1.61779
1.61779
1.61779
1.62267
1.60801
1.61290
1.62756
1.59824
1.59824
1.60801
1.60312
1.59335
1.59824
1.60801
1.60312
1.59335
1.58357
1.58846
1.58357
1.57380
1.56891
1.57380
1.57380
1.59335
1.56402
1.55913
1.56891
1.55425
1.54936
1.54936
1.55913
1.55425
1.54936
1.56402
1.55425
1.57869
1.54447
1.54447
1.55913
1.53958
1.56891
1.54447
1.54447
1.53958
1.53958
1.54447
1.56402
1.57380
1.60312
1.62756
1.65200
1.65200
1.65200
1.64222
1.63734
1.62267
1.60801
1.60312
1.60801
1.63734
