2022-12-14 16:27:12.862692
2022-12-14 16:27:12.863655
2022-12-14 16:27:12.863655
2022-12-14 16:27:12.896566
2022-12-14 16:27:12.897563
2022-12-14 16:27:12.897563
2022-12-14 16:27:12.929477
2022-12-14 16:27:12.930475
2022-12-14 16:27:12.963427
2022-12-14 16:27:12.963427
2022-12-14 16:27:12.964384
2022-12-14 16:27:12.997296
2022-12-14 16:27:12.997296
2022-12-14 16:27:12.998295
2022-12-14 16:27:13.030209
2022-12-14 16:27:13.031206
2022-12-14 16:27:13.064116
2022-12-14 16:27:13.064116
2022-12-14 16:27:13.065115
2022-12-14 16:27:13.098067
2022-12-14 16:27:13.098067
2022-12-14 16:27:13.099024
2022-12-14 16:27:13.130978
2022-12-14 16:27:13.131953
2022-12-14 16:27:13.164848
2022-12-14 16:27:13.164848
2022-12-14 16:27:13.165882
2022-12-14 16:27:13.197760
2022-12-14 16:27:13.198757
2022-12-14 16:27:13.198757
2022-12-14 16:27:13.231706
2022-12-14 16:27:13.232667
2022-12-14 16:27:13.264581
2022-12-14 16:27:13.265578
2022-12-14 16:27:13.266577
2022-12-14 16:27:13.298491
2022-12-14 16:27:13.299488
2022-12-14 16:27:13.299488
2022-12-14 16:27:13.332399
2022-12-14 16:27:13.333410
2022-12-14 16:27:13.365348
2022-12-14 16:27:13.366315
2022-12-14 16:27:13.367308
2022-12-14 16:27:13.399258
2022-12-14 16:27:13.400221
2022-12-14 16:27:13.400221
2022-12-14 16:27:13.433132
2022-12-14 16:27:13.433132
2022-12-14 16:27:13.466085
2022-12-14 16:27:13.467039
2022-12-14 16:27:13.467039
2022-12-14 16:27:13.499990
2022-12-14 16:27:13.500952
2022-12-14 16:27:13.500952
2022-12-14 16:27:13.532863
2022-12-14 16:27:13.533861
2022-12-14 16:27:13.566773
2022-12-14 16:27:13.567770
2022-12-14 16:27:13.567770
2022-12-14 16:27:13.600687
2022-12-14 16:27:13.601683
2022-12-14 16:27:13.601683
2022-12-14 16:27:13.633594
2022-12-14 16:27:13.634592
2022-12-14 16:27:13.667503
2022-12-14 16:27:13.667503
2022-12-14 16:27:13.668502
2022-12-14 16:27:13.701413
2022-12-14 16:27:13.701413
2022-12-14 16:27:13.702411
2022-12-14 16:27:13.734357
2022-12-14 16:27:13.735354
2022-12-14 16:27:13.768271
2022-12-14 16:27:13.768271
2022-12-14 16:27:13.769232
2022-12-14 16:27:13.801147
2022-12-14 16:27:13.802146
2022-12-14 16:27:13.802146
2022-12-14 16:27:13.835100
2022-12-14 16:27:13.836055
2022-12-14 16:27:13.868966
2022-12-14 16:27:13.868966
2022-12-14 16:27:13.869964
2022-12-14 16:27:13.901915
2022-12-14 16:27:13.902910
2022-12-14 16:27:13.902910
2022-12-14 16:27:13.935786
2022-12-14 16:27:13.935786
2022-12-14 16:27:13.969210
2022-12-14 16:27:13.969210
2022-12-14 16:27:13.970217
2022-12-14 16:27:14.003560
2022-12-14 16:27:14.003855
2022-12-14 16:27:14.004323
2022-12-14 16:27:14.037222
2022-12-14 16:27:14.037595
2022-12-14 16:27:14.070606
2022-12-14 16:27:14.070606
2022-12-14 16:27:14.071623
2022-12-14 16:27:14.103089
2022-12-14 16:27:14.104096
2022-12-14 16:27:14.104096
2022-12-14 16:27:14.137569
2022-12-14 16:27:14.137912
2022-12-14 16:27:14.171148
2022-12-14 16:27:14.171393
2022-12-14 16:27:14.171393
2022-12-14 16:27:14.204658
2022-12-14 16:27:14.204658
2022-12-14 16:27:14.205676
2022-12-14 16:27:14.238237
2022-12-14 16:27:14.238237
2022-12-14 16:27:14.271844
2022-12-14 16:27:14.272082
2022-12-14 16:27:14.272082
2022-12-14 16:27:14.304159
2022-12-14 16:27:14.305157
2022-12-14 16:27:14.305157
2022-12-14 16:27:14.339008
2022-12-14 16:27:14.339352
2022-12-14 16:27:14.371974
2022-12-14 16:27:14.372492
2022-12-14 16:27:14.373083
2022-12-14 16:27:14.405376
2022-12-14 16:27:14.405376
2022-12-14 16:27:14.406376
2022-12-14 16:27:14.439009
2022-12-14 16:27:14.439009
2022-12-14 16:27:14.472096
2022-12-14 16:27:14.472096
2022-12-14 16:27:14.473096
2022-12-14 16:27:14.505903
2022-12-14 16:27:14.505903
2022-12-14 16:27:14.506904
2022-12-14 16:27:14.539865
2022-12-14 16:27:14.540210
2022-12-14 16:27:14.573397
2022-12-14 16:27:14.573681
2022-12-14 16:27:14.574237
2022-12-14 16:27:14.607305
2022-12-14 16:27:14.607628
2022-12-14 16:27:14.607628
2022-12-14 16:27:14.640725
2022-12-14 16:27:14.640725
2022-12-14 16:27:14.673048
2022-12-14 16:27:14.674055
2022-12-14 16:27:14.674055
2022-12-14 16:27:14.706997
2022-12-14 16:27:14.706997
2022-12-14 16:27:14.707993
2022-12-14 16:27:14.741115
2022-12-14 16:27:14.741459
2022-12-14 16:27:14.774774
2022-12-14 16:27:14.774774
2022-12-14 16:27:14.775775
2022-12-14 16:27:14.808289
2022-12-14 16:27:14.808584
2022-12-14 16:27:14.808584
2022-12-14 16:27:14.841797
2022-12-14 16:27:14.842146
2022-12-14 16:27:14.875393
2022-12-14 16:27:14.875638
2022-12-14 16:27:14.875638
2022-12-14 16:27:14.909069
2022-12-14 16:27:14.909362
2022-12-14 16:27:14.909362
2022-12-14 16:27:14.942663
2022-12-14 16:27:14.942663
2022-12-14 16:27:14.976195
2022-12-14 16:27:14.976195
2022-12-14 16:27:14.977196
2022-12-14 16:27:15.009633
2022-12-14 16:27:15.009633
2022-12-14 16:27:15.010638
2022-12-14 16:27:15.042250
2022-12-14 16:27:15.042250
2022-12-14 16:27:15.076456
2022-12-14 16:27:15.076456
2022-12-14 16:27:15.077492
2022-12-14 16:27:15.109968
2022-12-14 16:27:15.110970
2022-12-14 16:27:15.110970
2022-12-14 16:27:15.143512
2022-12-14 16:27:15.144514
2022-12-14 16:27:15.176881
2022-12-14 16:27:15.176881
2022-12-14 16:27:15.177916
2022-12-14 16:27:15.210235
2022-12-14 16:27:15.211238
2022-12-14 16:27:15.211238
2022-12-14 16:27:15.243628
2022-12-14 16:27:15.244630
2022-12-14 16:27:15.277051
2022-12-14 16:27:15.277051
2022-12-14 16:27:15.278054
2022-12-14 16:27:15.310421
2022-12-14 16:27:15.311424
2022-12-14 16:27:15.311424
2022-12-14 16:27:15.343786
2022-12-14 16:27:15.344757
2022-12-14 16:27:15.377120
2022-12-14 16:27:15.378121
2022-12-14 16:27:15.378121
2022-12-14 16:27:15.411353
2022-12-14 16:27:15.411639
2022-12-14 16:27:15.412004
2022-12-14 16:27:15.445303
2022-12-14 16:27:15.445303
2022-12-14 16:27:15.478548
2022-12-14 16:27:15.479156
2022-12-14 16:27:15.479156
2022-12-14 16:27:15.511434
2022-12-14 16:27:15.512433
2022-12-14 16:27:15.512433
2022-12-14 16:27:15.545874
2022-12-14 16:27:15.546220
2022-12-14 16:27:15.579436
2022-12-14 16:27:15.579680
2022-12-14 16:27:15.579680
2022-12-14 16:27:15.612913
2022-12-14 16:27:15.612913
2022-12-14 16:27:15.613914
2022-12-14 16:27:15.646548
2022-12-14 16:27:15.646548
2022-12-14 16:27:15.679876
2022-12-14 16:27:15.680376
2022-12-14 16:27:15.680376
2022-12-14 16:27:15.713495
2022-12-14 16:27:15.713881
2022-12-14 16:27:15.714571
2022-12-14 16:27:15.747016
2022-12-14 16:27:15.747520
2022-12-14 16:27:15.780372
2022-12-14 16:27:15.781377
2022-12-14 16:27:15.781377
2022-12-14 16:27:15.813534
2022-12-14 16:27:15.814533
2022-12-14 16:27:15.814533
2022-12-14 16:27:15.847866
2022-12-14 16:27:15.847866
2022-12-14 16:27:15.880600
2022-12-14 16:27:15.881172
2022-12-14 16:27:15.881172
2022-12-14 16:27:15.914728
2022-12-14 16:27:15.914728
2022-12-14 16:27:15.915752
2022-12-14 16:27:15.947673
2022-12-14 16:27:15.947673
2022-12-14 16:27:15.981592
2022-12-14 16:27:15.981592
2022-12-14 16:27:15.982599
2022-12-14 16:27:16.015068
2022-12-14 16:27:16.015406
2022-12-14 16:27:16.015406
2022-12-14 16:27:16.048706
2022-12-14 16:27:16.049708
2022-12-14 16:27:16.081562
2022-12-14 16:27:16.081562
2022-12-14 16:27:16.082569
2022-12-14 16:27:16.115854
2022-12-14 16:27:16.115854
2022-12-14 16:27:16.116855
2022-12-14 16:27:16.149315
2022-12-14 16:27:16.149665
2022-12-14 16:27:16.182943
2022-12-14 16:27:16.183186
2022-12-14 16:27:16.183186
2022-12-14 16:27:16.216533
2022-12-14 16:27:16.216827
2022-12-14 16:27:16.216827
2022-12-14 16:27:16.249949
2022-12-14 16:27:16.250295
2022-12-14 16:27:16.283642
2022-12-14 16:27:16.283886
2022-12-14 16:27:16.283886
2022-12-14 16:27:16.317002
2022-12-14 16:27:16.317298
2022-12-14 16:27:16.317778
2022-12-14 16:27:16.350645
2022-12-14 16:27:16.350645
2022-12-14 16:27:16.384136
2022-12-14 16:27:16.384136
2022-12-14 16:27:16.385137
2022-12-14 16:27:16.417578
2022-12-14 16:27:16.418584
2022-12-14 16:27:16.418584
2022-12-14 16:27:16.450458
2022-12-14 16:27:16.451466
2022-12-14 16:27:16.483940
2022-12-14 16:27:16.483940
2022-12-14 16:27:16.484937
2022-12-14 16:27:16.517844
2022-12-14 16:27:16.517844
2022-12-14 16:27:16.518842
2022-12-14 16:27:16.551916
2022-12-14 16:27:16.552274
2022-12-14 16:27:16.585229
2022-12-14 16:27:16.585472
2022-12-14 16:27:16.585472
2022-12-14 16:27:16.619053
2022-12-14 16:27:16.619392
2022-12-14 16:27:16.620400
2022-12-14 16:27:16.652462
2022-12-14 16:27:16.652807
2022-12-14 16:27:16.686039
2022-12-14 16:27:16.686282
2022-12-14 16:27:16.686282
2022-12-14 16:27:16.719413
2022-12-14 16:27:16.719413
2022-12-14 16:27:16.720415
2022-12-14 16:27:16.753018
2022-12-14 16:27:16.753018
2022-12-14 16:27:16.785326
2022-12-14 16:27:16.786332
2022-12-14 16:27:16.786332
2022-12-14 16:27:16.819283
2022-12-14 16:27:16.819283
2022-12-14 16:27:16.820281
2022-12-14 16:27:16.853382
2022-12-14 16:27:16.853952
2022-12-14 16:27:16.887040
2022-12-14 16:27:16.887353
2022-12-14 16:27:16.887353
2022-12-14 16:27:16.920552
2022-12-14 16:27:16.920552
2022-12-14 16:27:16.921557
2022-12-14 16:27:16.953856
2022-12-14 16:27:16.953856
2022-12-14 16:27:16.987151
2022-12-14 16:27:16.987151
2022-12-14 16:27:16.988183
2022-12-14 16:27:17.021191
2022-12-14 16:27:17.021532
2022-12-14 16:27:17.022095
2022-12-14 16:27:17.054819
2022-12-14 16:27:17.055160
2022-12-14 16:27:17.088090
2022-12-14 16:27:17.088090
2022-12-14 16:27:17.089091
2022-12-14 16:27:17.121711
2022-12-14 16:27:17.122471
2022-12-14 16:27:17.122471
2022-12-14 16:27:17.154777
2022-12-14 16:27:17.154777
2022-12-14 16:27:17.188748
2022-12-14 16:27:17.188988
2022-12-14 16:27:17.189586
2022-12-14 16:27:17.222370
2022-12-14 16:27:17.222660
2022-12-14 16:27:17.223662
2022-12-14 16:27:17.255863
2022-12-14 16:27:17.256206
2022-12-14 16:27:17.289444
2022-12-14 16:27:17.289686
2022-12-14 16:27:17.290295
2022-12-14 16:27:17.322895
2022-12-14 16:27:17.322895
2022-12-14 16:27:17.323809
2022-12-14 16:27:17.356504
2022-12-14 16:27:17.356851
2022-12-14 16:27:17.390038
2022-12-14 16:27:17.390282
2022-12-14 16:27:17.390282
2022-12-14 16:27:17.422901
2022-12-14 16:27:17.422901
2022-12-14 16:27:17.423903
2022-12-14 16:27:17.456299
2022-12-14 16:27:17.456299
2022-12-14 16:27:17.490653
2022-12-14 16:27:17.490653
2022-12-14 16:27:17.491654
2022-12-14 16:27:17.523186
2022-12-14 16:27:17.524215
2022-12-14 16:27:17.524215
2022-12-14 16:27:17.557315
2022-12-14 16:27:17.557572
2022-12-14 16:27:17.590829
2022-12-14 16:27:17.590829
2022-12-14 16:27:17.591835
2022-12-14 16:27:17.624918
2022-12-14 16:27:17.625212
2022-12-14 16:27:17.625212
2022-12-14 16:27:17.658252
2022-12-14 16:27:17.658599
2022-12-14 16:27:17.692002
2022-12-14 16:27:17.692245
2022-12-14 16:27:17.692245
2022-12-14 16:27:17.725339
2022-12-14 16:27:17.725634
2022-12-14 16:27:17.725634
2022-12-14 16:27:17.759089
2022-12-14 16:27:17.759437
2022-12-14 16:27:17.792592
2022-12-14 16:27:17.792836
2022-12-14 16:27:17.793398
2022-12-14 16:27:17.826007
2022-12-14 16:27:17.826302
2022-12-14 16:27:17.826302
2022-12-14 16:27:17.859542
2022-12-14 16:27:17.859937
2022-12-14 16:27:17.893280
2022-12-14 16:27:17.894282
2022-12-14 16:27:17.894282
2022-12-14 16:27:17.926069
2022-12-14 16:27:17.926069
2022-12-14 16:27:17.926069
2022-12-14 16:27:17.960076
2022-12-14 16:27:17.960422
2022-12-14 16:27:17.993757
2022-12-14 16:27:17.994030
2022-12-14 16:27:17.994030
2022-12-14 16:27:18.027125
2022-12-14 16:27:18.027423
2022-12-14 16:27:18.027423
2022-12-14 16:27:18.060735
2022-12-14 16:27:18.061736
2022-12-14 16:27:18.094188
2022-12-14 16:27:18.094188
2022-12-14 16:27:18.095190
2022-12-14 16:27:18.127758
2022-12-14 16:27:18.128761
2022-12-14 16:27:18.128761
2022-12-14 16:27:18.161704
2022-12-14 16:27:18.162711
2022-12-14 16:27:18.194524
2022-12-14 16:27:18.194524
2022-12-14 16:27:18.194524
2022-12-14 16:27:18.227864
2022-12-14 16:27:18.228866
2022-12-14 16:27:18.228866
2022-12-14 16:27:18.261262
2022-12-14 16:27:18.262263
2022-12-14 16:27:18.294682
2022-12-14 16:27:18.294682
2022-12-14 16:27:18.295684
2022-12-14 16:27:18.328228
2022-12-14 16:27:18.328228
2022-12-14 16:27:18.329223
2022-12-14 16:27:18.361885
2022-12-14 16:27:18.361885
2022-12-14 16:27:18.394801
2022-12-14 16:27:18.395802
2022-12-14 16:27:18.395802
2022-12-14 16:27:18.428277
2022-12-14 16:27:18.429253
2022-12-14 16:27:18.429253
2022-12-14 16:27:18.462554
2022-12-14 16:27:18.462902
2022-12-14 16:27:18.496402
2022-12-14 16:27:18.496402
2022-12-14 16:27:18.497402
2022-12-14 16:27:18.529728
2022-12-14 16:27:18.530331
2022-12-14 16:27:18.530331
2022-12-14 16:27:18.562639
2022-12-14 16:27:18.563634
2022-12-14 16:27:18.597123
2022-12-14 16:27:18.597367
2022-12-14 16:27:18.597367
2022-12-14 16:27:18.630535
2022-12-14 16:27:18.631359
2022-12-14 16:27:18.631586
2022-12-14 16:27:18.664027
2022-12-14 16:27:18.664863
2022-12-14 16:27:18.697593
2022-12-14 16:27:18.698364
2022-12-14 16:27:18.698602
2022-12-14 16:27:18.731059
2022-12-14 16:27:18.731881
2022-12-14 16:27:18.731881
2022-12-14 16:27:18.764694
2022-12-14 16:27:18.765384
2022-12-14 16:27:18.798075
2022-12-14 16:27:18.798754
2022-12-14 16:27:18.798754
2022-12-14 16:27:18.831356
2022-12-14 16:27:18.831356
2022-12-14 16:27:18.831356
2022-12-14 16:27:18.864401
2022-12-14 16:27:18.865404
2022-12-14 16:27:18.898910
2022-12-14 16:27:18.899244
2022-12-14 16:27:18.899244
2022-12-14 16:27:18.931831
2022-12-14 16:27:18.931831
2022-12-14 16:27:18.932847
2022-12-14 16:27:18.965779
2022-12-14 16:27:18.965779
2022-12-14 16:27:18.999046
2022-12-14 16:27:18.999046
2022-12-14 16:27:18.999867
2022-12-14 16:27:19.032706
2022-12-14 16:27:19.033058
2022-12-14 16:27:19.033058
2022-12-14 16:27:19.066382
2022-12-14 16:27:19.066382
2022-12-14 16:27:19.098857
2022-12-14 16:27:19.099866
2022-12-14 16:27:19.099866
2022-12-14 16:27:19.132896
2022-12-14 16:27:19.132896
2022-12-14 16:27:19.133894
2022-12-14 16:27:19.167008
2022-12-14 16:27:19.167354
2022-12-14 16:27:19.200583
2022-12-14 16:27:19.200826
2022-12-14 16:27:19.201435
2022-12-14 16:27:19.234128
2022-12-14 16:27:19.234424
2022-12-14 16:27:19.234424
2022-12-14 16:27:19.267592
2022-12-14 16:27:19.267939
2022-12-14 16:27:19.301104
2022-12-14 16:27:19.301455
2022-12-14 16:27:19.302470
2022-12-14 16:27:19.334621
2022-12-14 16:27:19.334621
2022-12-14 16:27:19.335432
2022-12-14 16:27:19.368121
2022-12-14 16:27:19.369127
2022-12-14 16:27:19.400946
2022-12-14 16:27:19.401587
2022-12-14 16:27:19.402583
2022-12-14 16:27:19.435423
2022-12-14 16:27:19.435716
2022-12-14 16:27:19.435716
2022-12-14 16:27:19.469034
2022-12-14 16:27:19.469413
2022-12-14 16:27:19.502595
2022-12-14 16:27:19.502887
2022-12-14 16:27:19.502887
2022-12-14 16:27:19.535958
2022-12-14 16:27:19.536259
2022-12-14 16:27:19.536723
2022-12-14 16:27:19.569587
2022-12-14 16:27:19.569935
2022-12-14 16:27:19.603050
2022-12-14 16:27:19.603291
2022-12-14 16:27:19.603768
2022-12-14 16:27:19.636397
2022-12-14 16:27:19.636397
2022-12-14 16:27:19.637404
2022-12-14 16:27:19.669358
2022-12-14 16:27:19.669358
2022-12-14 16:27:19.703522
2022-12-14 16:27:19.703767
2022-12-14 16:27:19.703767
2022-12-14 16:27:19.736921
2022-12-14 16:27:19.736921
2022-12-14 16:27:19.737922
2022-12-14 16:27:19.770679
2022-12-14 16:27:19.771026
2022-12-14 16:27:19.804190
2022-12-14 16:27:19.804428
2022-12-14 16:27:19.804941
2022-12-14 16:27:19.837882
2022-12-14 16:27:19.838174
2022-12-14 16:27:19.839176
2022-12-14 16:27:19.871259
2022-12-14 16:27:19.871600
2022-12-14 16:27:19.904926
2022-12-14 16:27:19.905166
2022-12-14 16:27:19.905166
2022-12-14 16:27:19.938493
2022-12-14 16:27:19.938493
2022-12-14 16:27:19.939496
2022-12-14 16:27:19.971207
2022-12-14 16:27:19.971207
2022-12-14 16:27:20.005234
2022-12-14 16:27:20.005475
2022-12-14 16:27:20.005475
2022-12-14 16:27:20.038573
2022-12-14 16:27:20.039111
2022-12-14 16:27:20.039111
2022-12-14 16:27:20.072444
2022-12-14 16:27:20.072796
2022-12-14 16:27:20.106054
2022-12-14 16:27:20.106300
2022-12-14 16:27:20.107302
2022-12-14 16:27:20.139547
2022-12-14 16:27:20.139879
2022-12-14 16:27:20.140453
2022-12-14 16:27:20.173127
2022-12-14 16:27:20.173471
2022-12-14 16:27:20.206625
2022-12-14 16:27:20.206625
2022-12-14 16:27:20.207627
2022-12-14 16:27:20.240150
2022-12-14 16:27:20.241151
2022-12-14 16:27:20.241151
2022-12-14 16:27:20.272493
2022-12-14 16:27:20.273500
2022-12-14 16:27:20.307101
2022-12-14 16:27:20.307101
2022-12-14 16:27:20.308102
2022-12-14 16:27:20.340779
2022-12-14 16:27:20.341072
2022-12-14 16:27:20.341072
2022-12-14 16:27:20.374334
2022-12-14 16:27:20.374683
2022-12-14 16:27:20.407869
2022-12-14 16:27:20.408116
2022-12-14 16:27:20.408632
2022-12-14 16:27:20.441458
2022-12-14 16:27:20.441801
2022-12-14 16:27:20.442406
2022-12-14 16:27:20.474981
2022-12-14 16:27:20.474981
2022-12-14 16:27:20.507462
2022-12-14 16:27:20.508502
2022-12-14 16:27:20.508502
2022-12-14 16:27:20.541863
2022-12-14 16:27:20.542160
2022-12-14 16:27:20.542160
2022-12-14 16:27:20.575291
2022-12-14 16:27:20.575640
2022-12-14 16:27:20.608968
2022-12-14 16:27:20.609212
2022-12-14 16:27:20.609212
2022-12-14 16:27:20.642463
2022-12-14 16:27:20.642758
2022-12-14 16:27:20.643362
2022-12-14 16:27:20.675999
2022-12-14 16:27:20.676345
2022-12-14 16:27:20.709549
2022-12-14 16:27:20.709797
2022-12-14 16:27:20.710400
2022-12-14 16:27:20.743028
2022-12-14 16:27:20.743028
2022-12-14 16:27:20.744029
2022-12-14 16:27:20.776747
2022-12-14 16:27:20.777093
2022-12-14 16:27:20.810079
2022-12-14 16:27:20.810355
2022-12-14 16:27:20.810355
2022-12-14 16:27:20.843739
2022-12-14 16:27:20.843739
2022-12-14 16:27:20.844740
2022-12-14 16:27:20.877211
2022-12-14 16:27:20.878244
2022-12-14 16:27:20.910216
2022-12-14 16:27:20.910216
2022-12-14 16:27:20.911223
2022-12-14 16:27:20.944134
2022-12-14 16:27:20.944429
2022-12-14 16:27:20.944988
2022-12-14 16:27:20.977793
2022-12-14 16:27:20.978139
2022-12-14 16:27:21.011118
2022-12-14 16:27:21.011118
2022-12-14 16:27:21.012068
2022-12-14 16:27:21.044933
2022-12-14 16:27:21.045230
2022-12-14 16:27:21.045230
2022-12-14 16:27:21.078380
2022-12-14 16:27:21.078380
2022-12-14 16:27:21.111891
2022-12-14 16:27:21.111891
2022-12-14 16:27:21.112912
2022-12-14 16:27:21.145344
2022-12-14 16:27:21.145344
2022-12-14 16:27:21.146346
2022-12-14 16:27:21.179071
2022-12-14 16:27:21.180076
2022-12-14 16:27:21.211983
2022-12-14 16:27:21.211983
2022-12-14 16:27:21.212983
2022-12-14 16:27:21.245972
2022-12-14 16:27:21.246681
2022-12-14 16:27:21.246681
2022-12-14 16:27:21.278328
2022-12-14 16:27:21.279334
2022-12-14 16:27:21.312512
2022-12-14 16:27:21.312512
2022-12-14 16:27:21.313515
2022-12-14 16:27:21.345733
2022-12-14 16:27:21.346745
2022-12-14 16:27:21.346745
2022-12-14 16:27:21.379145
2022-12-14 16:27:21.380149
2022-12-14 16:27:21.412515
2022-12-14 16:27:21.413522
2022-12-14 16:27:21.413967
2022-12-14 16:27:21.445894
2022-12-14 16:27:21.446897
2022-12-14 16:27:21.447509
2022-12-14 16:27:21.480247
2022-12-14 16:27:21.480247
2022-12-14 16:27:21.513650
2022-12-14 16:27:21.513650
2022-12-14 16:27:21.514660
2022-12-14 16:27:21.547280
2022-12-14 16:27:21.547634
2022-12-14 16:27:21.548048
2022-12-14 16:27:21.580948
2022-12-14 16:27:21.581347
2022-12-14 16:27:21.614452
2022-12-14 16:27:21.614778
2022-12-14 16:27:21.614778
2022-12-14 16:27:21.647860
2022-12-14 16:27:21.648235
2022-12-14 16:27:21.648235
2022-12-14 16:27:21.681225
2022-12-14 16:27:21.681651
2022-12-14 16:27:21.714796
2022-12-14 16:27:21.714796
2022-12-14 16:27:21.715797
2022-12-14 16:27:21.748183
2022-12-14 16:27:21.748183
2022-12-14 16:27:21.749199
2022-12-14 16:27:21.781471
2022-12-14 16:27:21.782484
2022-12-14 16:27:21.815914
2022-12-14 16:27:21.816180
2022-12-14 16:27:21.816734
2022-12-14 16:27:21.849130
2022-12-14 16:27:21.849468
2022-12-14 16:27:21.850143
2022-12-14 16:27:21.882476
2022-12-14 16:27:21.883177
2022-12-14 16:27:21.916057
2022-12-14 16:27:21.916304
2022-12-14 16:27:21.916304
2022-12-14 16:27:21.950083
2022-12-14 16:27:21.950380
2022-12-14 16:27:21.950380
2022-12-14 16:27:21.983135
2022-12-14 16:27:21.983135
2022-12-14 16:27:22.016887
2022-12-14 16:27:22.016887
2022-12-14 16:27:22.017778
2022-12-14 16:27:22.050734
2022-12-14 16:27:22.051029
2022-12-14 16:27:22.051508
2022-12-14 16:27:22.083683
2022-12-14 16:27:22.083683
2022-12-14 16:27:22.117125
2022-12-14 16:27:22.117125
2022-12-14 16:27:22.118138
2022-12-14 16:27:22.150751
2022-12-14 16:27:22.150751
2022-12-14 16:27:22.151748
2022-12-14 16:27:22.184829
2022-12-14 16:27:22.185175
2022-12-14 16:27:22.218265
2022-12-14 16:27:22.218537
2022-12-14 16:27:22.219254
2022-12-14 16:27:22.251910
2022-12-14 16:27:22.252245
2022-12-14 16:27:22.252245
2022-12-14 16:27:22.285326
2022-12-14 16:27:22.285673
2022-12-14 16:27:22.318813
2022-12-14 16:27:22.318813
2022-12-14 16:27:22.319634
2022-12-14 16:27:22.352457
2022-12-14 16:27:22.352457
2022-12-14 16:27:22.353457
2022-12-14 16:27:22.385880
2022-12-14 16:27:22.385880
2022-12-14 16:27:22.418824
2022-12-14 16:27:22.418824
2022-12-14 16:27:22.419822
2022-12-14 16:27:22.451991
2022-12-14 16:27:22.453000
2022-12-14 16:27:22.453000
2022-12-14 16:27:22.485386
2022-12-14 16:27:22.486370
2022-12-14 16:27:22.520044
2022-12-14 16:27:22.520289
2022-12-14 16:27:22.520289
2022-12-14 16:27:22.553615
2022-12-14 16:27:22.553913
2022-12-14 16:27:22.553913
2022-12-14 16:27:22.587143
2022-12-14 16:27:22.587487
2022-12-14 16:27:22.620805
2022-12-14 16:27:22.621043
2022-12-14 16:27:22.621504
2022-12-14 16:27:22.654233
2022-12-14 16:27:22.654233
2022-12-14 16:27:22.655248
2022-12-14 16:27:22.687688
2022-12-14 16:27:22.687688
2022-12-14 16:27:22.721175
2022-12-14 16:27:22.721175
2022-12-14 16:27:22.722177
2022-12-14 16:27:22.754751
2022-12-14 16:27:22.755758
2022-12-14 16:27:22.755758
2022-12-14 16:27:22.787567
2022-12-14 16:27:22.788576
2022-12-14 16:27:22.821417
2022-12-14 16:27:22.821417
2022-12-14 16:27:22.821417
2022-12-14 16:27:22.855066
2022-12-14 16:27:22.855361
2022-12-14 16:27:22.855361
2022-12-14 16:27:22.889085
2022-12-14 16:27:22.889429
2022-12-14 16:27:22.922603
2022-12-14 16:27:22.922844
2022-12-14 16:27:22.922844
2022-12-14 16:27:22.956162
2022-12-14 16:27:22.956457
2022-12-14 16:27:22.956457
2022-12-14 16:27:22.989766
2022-12-14 16:27:22.990156
2022-12-14 16:27:23.023118
2022-12-14 16:27:23.023362
2022-12-14 16:27:23.024009
2022-12-14 16:27:23.056637
2022-12-14 16:27:23.056637
2022-12-14 16:27:23.057638
2022-12-14 16:27:23.090064
2022-12-14 16:27:23.090064
2022-12-14 16:27:23.122959
2022-12-14 16:27:23.122959
2022-12-14 16:27:23.123965
2022-12-14 16:27:23.156845
2022-12-14 16:27:23.156845
2022-12-14 16:27:23.156845
2022-12-14 16:27:23.190742
2022-12-14 16:27:23.191095
2022-12-14 16:27:23.224222
2022-12-14 16:27:23.224465
2022-12-14 16:27:23.224465
2022-12-14 16:27:23.257835
2022-12-14 16:27:23.258130
2022-12-14 16:27:23.258130
2022-12-14 16:27:23.291273
2022-12-14 16:27:23.291622
2022-12-14 16:27:23.324995
2022-12-14 16:27:23.325243
2022-12-14 16:27:23.325243
2022-12-14 16:27:23.358406
2022-12-14 16:27:23.358701
2022-12-14 16:27:23.359177
2022-12-14 16:27:23.392149
2022-12-14 16:27:23.392534
2022-12-14 16:27:23.425720
2022-12-14 16:27:23.425963
2022-12-14 16:27:23.425963
2022-12-14 16:27:23.459090
2022-12-14 16:27:23.459090
2022-12-14 16:27:23.460090
2022-12-14 16:27:23.492317
2022-12-14 16:27:23.493326
2022-12-14 16:27:23.524700
2022-12-14 16:27:23.525700
2022-12-14 16:27:23.525700
2022-12-14 16:27:23.558605
2022-12-14 16:27:23.559607
2022-12-14 16:27:23.559607
2022-12-14 16:27:23.593016
2022-12-14 16:27:23.593361
2022-12-14 16:27:23.626611
2022-12-14 16:27:23.626858
2022-12-14 16:27:23.626858
2022-12-14 16:27:23.660177
2022-12-14 16:27:23.660473
2022-12-14 16:27:23.660473
2022-12-14 16:27:23.693726
2022-12-14 16:27:23.694069
2022-12-14 16:27:23.727219
2022-12-14 16:27:23.727219
2022-12-14 16:27:23.728073
2022-12-14 16:27:23.760895
2022-12-14 16:27:23.761218
2022-12-14 16:27:23.761885
2022-12-14 16:27:23.794306
2022-12-14 16:27:23.794306
2022-12-14 16:27:23.827178
2022-12-14 16:27:23.828186
2022-12-14 16:27:23.828186
2022-12-14 16:27:23.860081
2022-12-14 16:27:23.861089
2022-12-14 16:27:23.861089
2022-12-14 16:27:23.894857
2022-12-14 16:27:23.895204
2022-12-14 16:27:23.928287
2022-12-14 16:27:23.928530
2022-12-14 16:27:23.928530
2022-12-14 16:27:23.962154
2022-12-14 16:27:23.962154
2022-12-14 16:27:23.963156
2022-12-14 16:27:23.995603
2022-12-14 16:27:23.995946
2022-12-14 16:27:24.028984
2022-12-14 16:27:24.029227
2022-12-14 16:27:24.029227
2022-12-14 16:27:24.062513
2022-12-14 16:27:24.062513
2022-12-14 16:27:24.063515
2022-12-14 16:27:24.096201
2022-12-14 16:27:24.097199
2022-12-14 16:27:24.129792
2022-12-14 16:27:24.129792
2022-12-14 16:27:24.130793
2022-12-14 16:27:24.163366
2022-12-14 16:27:24.163366
2022-12-14 16:27:24.164372
2022-12-14 16:27:24.195925
2022-12-14 16:27:24.196934
2022-12-14 16:27:24.229425
2022-12-14 16:27:24.229425
2022-12-14 16:27:24.230422
2022-12-14 16:27:24.263499
2022-12-14 16:27:24.264534
2022-12-14 16:27:24.264534
2022-12-14 16:27:24.296890
2022-12-14 16:27:24.297892
2022-12-14 16:27:24.330286
2022-12-14 16:27:24.330286
2022-12-14 16:27:24.331324
2022-12-14 16:27:24.363696
2022-12-14 16:27:24.364699
2022-12-14 16:27:24.364699
2022-12-14 16:27:24.397038
2022-12-14 16:27:24.398040
2022-12-14 16:27:24.430426
2022-12-14 16:27:24.431428
2022-12-14 16:27:24.431428
2022-12-14 16:27:24.463760
2022-12-14 16:27:24.464698
2022-12-14 16:27:24.464698
2022-12-14 16:27:24.497148
2022-12-14 16:27:24.498177
2022-12-14 16:27:24.530624
2022-12-14 16:27:24.531637
2022-12-14 16:27:24.531637
2022-12-14 16:27:24.565260
2022-12-14 16:27:24.565973
2022-12-14 16:27:24.565973
2022-12-14 16:27:24.598126
2022-12-14 16:27:24.598723
2022-12-14 16:27:24.631886
2022-12-14 16:27:24.631886
2022-12-14 16:27:24.632882
2022-12-14 16:27:24.665845
2022-12-14 16:27:24.665845
2022-12-14 16:27:24.666846
2022-12-14 16:27:24.699553
2022-12-14 16:27:24.699553
2022-12-14 16:27:24.732926
2022-12-14 16:27:24.733376
2022-12-14 16:27:24.733376
2022-12-14 16:27:24.766479
2022-12-14 16:27:24.766841
2022-12-14 16:27:24.767466
2022-12-14 16:27:24.800333
2022-12-14 16:27:24.800491
2022-12-14 16:27:24.833521
2022-12-14 16:27:24.833921
2022-12-14 16:27:24.834404
2022-12-14 16:27:24.867243
2022-12-14 16:27:24.867243
2022-12-14 16:27:24.868246
2022-12-14 16:27:24.900723
2022-12-14 16:27:24.901098
2022-12-14 16:27:24.934166
2022-12-14 16:27:24.934166
2022-12-14 16:27:24.935184
2022-12-14 16:27:24.967076
2022-12-14 16:27:24.967076
2022-12-14 16:27:24.968035
2022-12-14 16:27:25.001151
2022-12-14 16:27:25.001572
2022-12-14 16:27:25.034783
2022-12-14 16:27:25.034783
2022-12-14 16:27:25.035785
2022-12-14 16:27:25.067875
2022-12-14 16:27:25.068172
2022-12-14 16:27:25.068172
2022-12-14 16:27:25.101745
2022-12-14 16:27:25.102095
2022-12-14 16:27:25.135362
2022-12-14 16:27:25.135607
2022-12-14 16:27:25.135607
2022-12-14 16:27:25.168857
2022-12-14 16:27:25.169152
2022-12-14 16:27:25.169152
2022-12-14 16:27:25.202245
2022-12-14 16:27:25.203022
2022-12-14 16:27:25.235836
2022-12-14 16:27:25.235836
2022-12-14 16:27:25.236701
2022-12-14 16:27:25.269373
2022-12-14 16:27:25.269671
2022-12-14 16:27:25.270228
2022-12-14 16:27:25.302978
2022-12-14 16:27:25.303331
2022-12-14 16:27:25.336437
2022-12-14 16:27:25.336437
2022-12-14 16:27:25.337437
2022-12-14 16:27:25.370044
2022-12-14 16:27:25.370335
2022-12-14 16:27:25.370851
2022-12-14 16:27:25.403700
2022-12-14 16:27:25.404043
2022-12-14 16:27:25.436235
2022-12-14 16:27:25.437233
2022-12-14 16:27:25.437233
2022-12-14 16:27:25.470144
2022-12-14 16:27:25.470144
2022-12-14 16:27:25.471144
2022-12-14 16:27:25.503058
2022-12-14 16:27:25.504055
2022-12-14 16:27:25.536932
2022-12-14 16:27:25.537484
2022-12-14 16:27:25.537484
2022-12-14 16:27:25.571203
2022-12-14 16:27:25.571494
2022-12-14 16:27:25.572094
2022-12-14 16:27:25.604843
2022-12-14 16:27:25.605193
2022-12-14 16:27:25.638476
2022-12-14 16:27:25.638720
2022-12-14 16:27:25.638720
2022-12-14 16:27:25.671036
2022-12-14 16:27:25.672002
2022-12-14 16:27:25.672002
2022-12-14 16:27:25.705401
2022-12-14 16:27:25.705747
2022-12-14 16:27:25.739358
2022-12-14 16:27:25.739358
2022-12-14 16:27:25.740363
2022-12-14 16:27:25.771644
2022-12-14 16:27:25.772652
2022-12-14 16:27:25.772652
2022-12-14 16:27:25.805583
2022-12-14 16:27:25.805583
2022-12-14 16:27:25.839570
2022-12-14 16:27:25.839813
2022-12-14 16:27:25.840422
2022-12-14 16:27:25.873149
2022-12-14 16:27:25.873445
2022-12-14 16:27:25.874008
2022-12-14 16:27:25.906702
2022-12-14 16:27:25.907047
2022-12-14 16:27:25.940299
2022-12-14 16:27:25.940542
2022-12-14 16:27:25.941144
2022-12-14 16:27:25.973878
2022-12-14 16:27:25.974219
2022-12-14 16:27:25.974739
2022-12-14 16:27:26.007330
2022-12-14 16:27:26.007677
2022-12-14 16:27:26.040860
2022-12-14 16:27:26.040860
2022-12-14 16:27:26.041863
2022-12-14 16:27:26.073785
2022-12-14 16:27:26.074065
2022-12-14 16:27:26.074472
2022-12-14 16:27:26.107666
2022-12-14 16:27:26.108018
2022-12-14 16:27:26.140886
2022-12-14 16:27:26.140886
2022-12-14 16:27:26.140886
2022-12-14 16:27:26.174759
2022-12-14 16:27:26.174759
2022-12-14 16:27:26.175794
2022-12-14 16:27:26.208370
2022-12-14 16:27:26.208718
2022-12-14 16:27:26.241909
2022-12-14 16:27:26.242153
2022-12-14 16:27:26.242153
2022-12-14 16:27:26.275496
2022-12-14 16:27:26.275794
2022-12-14 16:27:26.276396
2022-12-14 16:27:26.308334
2022-12-14 16:27:26.309299
2022-12-14 16:27:26.342599
2022-12-14 16:27:26.342892
2022-12-14 16:27:26.343560
2022-12-14 16:27:26.376141
2022-12-14 16:27:26.376141
2022-12-14 16:27:26.377143
2022-12-14 16:27:26.409974
2022-12-14 16:27:26.410997
2022-12-14 16:27:26.443033
2022-12-14 16:27:26.443033
2022-12-14 16:27:26.444033
2022-12-14 16:27:26.476307
2022-12-14 16:27:26.476307
2022-12-14 16:27:26.476307
2022-12-14 16:27:26.510132
2022-12-14 16:27:26.510480
2022-12-14 16:27:26.543731
2022-12-14 16:27:26.543976
2022-12-14 16:27:26.544547
2022-12-14 16:27:26.577219
2022-12-14 16:27:26.577219
2022-12-14 16:27:26.578220
2022-12-14 16:27:26.610792
2022-12-14 16:27:26.611186
2022-12-14 16:27:26.644258
2022-12-14 16:27:26.644258
2022-12-14 16:27:26.645261
2022-12-14 16:27:26.677952
2022-12-14 16:27:26.678727
2022-12-14 16:27:26.678727
2022-12-14 16:27:26.710256
2022-12-14 16:27:26.711266
2022-12-14 16:27:26.744499
2022-12-14 16:27:26.744499
2022-12-14 16:27:26.745504
2022-12-14 16:27:26.777852
2022-12-14 16:27:26.777852
2022-12-14 16:27:26.778861
2022-12-14 16:27:26.811893
2022-12-14 16:27:26.812242
2022-12-14 16:27:26.845463
2022-12-14 16:27:26.845712
2022-12-14 16:27:26.845712
2022-12-14 16:27:26.878978
2022-12-14 16:27:26.879274
2022-12-14 16:27:26.879274
2022-12-14 16:27:26.912460
2022-12-14 16:27:26.912809
2022-12-14 16:27:26.946020
2022-12-14 16:27:26.946299
2022-12-14 16:27:26.946299
2022-12-14 16:27:26.979565
2022-12-14 16:27:26.979861
2022-12-14 16:27:26.980377
2022-12-14 16:27:27.013026
2022-12-14 16:27:27.013026
2022-12-14 16:27:27.045468
2022-12-14 16:27:27.046472
2022-12-14 16:27:27.046472
2022-12-14 16:27:27.080037
2022-12-14 16:27:27.080360
2022-12-14 16:27:27.081362
2022-12-14 16:27:27.113745
2022-12-14 16:27:27.114093
2022-12-14 16:27:27.147183
2022-12-14 16:27:27.147454
2022-12-14 16:27:27.148455
2022-12-14 16:27:27.180857
2022-12-14 16:27:27.180857
2022-12-14 16:27:27.181891
2022-12-14 16:27:27.214274
2022-12-14 16:27:27.215276
2022-12-14 16:27:27.247796
2022-12-14 16:27:27.247796
2022-12-14 16:27:27.248832
2022-12-14 16:27:27.281216
2022-12-14 16:27:27.282250
2022-12-14 16:27:27.282250
2022-12-14 16:27:27.314740
2022-12-14 16:27:27.315742
2022-12-14 16:27:27.348160
2022-12-14 16:27:27.348160
2022-12-14 16:27:27.349162
2022-12-14 16:27:27.381513
2022-12-14 16:27:27.382546
2022-12-14 16:27:27.382546
2022-12-14 16:27:27.414843
2022-12-14 16:27:27.414843
2022-12-14 16:27:27.448185
2022-12-14 16:27:27.449190
2022-12-14 16:27:27.449190
2022-12-14 16:27:27.481536
2022-12-14 16:27:27.482539
2022-12-14 16:27:27.482539
2022-12-14 16:27:27.514887
2022-12-14 16:27:27.515891
2022-12-14 16:27:27.548853
2022-12-14 16:27:27.548853
2022-12-14 16:27:27.549858
2022-12-14 16:27:27.582670
2022-12-14 16:27:27.583092
2022-12-14 16:27:27.583092
2022-12-14 16:27:27.616149
2022-12-14 16:27:27.616623
2022-12-14 16:27:27.648829
2022-12-14 16:27:27.649826
2022-12-14 16:27:27.650292
2022-12-14 16:27:27.683316
2022-12-14 16:27:27.683695
2022-12-14 16:27:27.683695
2022-12-14 16:27:27.717057
2022-12-14 16:27:27.717403
2022-12-14 16:27:27.750514
2022-12-14 16:27:27.751260
2022-12-14 16:27:27.751480
2022-12-14 16:27:27.783963
2022-12-14 16:27:27.783963
2022-12-14 16:27:27.784970
2022-12-14 16:27:27.817866
2022-12-14 16:27:27.818022
2022-12-14 16:27:27.851307
2022-12-14 16:27:27.851533
2022-12-14 16:27:27.851533
2022-12-14 16:27:27.885010
2022-12-14 16:27:27.885010
2022-12-14 16:27:27.885792
2022-12-14 16:27:27.918441
2022-12-14 16:27:27.918772
2022-12-14 16:27:27.951875
2022-12-14 16:27:27.952108
2022-12-14 16:27:27.952588
2022-12-14 16:27:27.985362
2022-12-14 16:27:27.985362
2022-12-14 16:27:27.986393
2022-12-14 16:27:28.018496
2022-12-14 16:27:28.018496
2022-12-14 16:27:28.052046
2022-12-14 16:27:28.052267
2022-12-14 16:27:28.052673
2022-12-14 16:27:28.085542
2022-12-14 16:27:28.085871
2022-12-14 16:27:28.086468
2022-12-14 16:27:28.119567
2022-12-14 16:27:28.119920
2022-12-14 16:27:28.153060
2022-12-14 16:27:28.153298
2022-12-14 16:27:28.153298
2022-12-14 16:27:28.186493
2022-12-14 16:27:28.186782
2022-12-14 16:27:28.187254
2022-12-14 16:27:28.220146
2022-12-14 16:27:28.220484
2022-12-14 16:27:28.253713
2022-12-14 16:27:28.253951
2022-12-14 16:27:28.253951
2022-12-14 16:27:28.287040
2022-12-14 16:27:28.287040
2022-12-14 16:27:28.288043
2022-12-14 16:27:28.320469
2022-12-14 16:27:28.320469
2022-12-14 16:27:28.354164
2022-12-14 16:27:28.354400
2022-12-14 16:27:28.355402
2022-12-14 16:27:28.387873
2022-12-14 16:27:28.388167
2022-12-14 16:27:28.389168
2022-12-14 16:27:28.421278
2022-12-14 16:27:28.421622
2022-12-14 16:27:28.454933
2022-12-14 16:27:28.455176
2022-12-14 16:27:28.455176
2022-12-14 16:27:28.488310
2022-12-14 16:27:28.488605
2022-12-14 16:27:28.489082
2022-12-14 16:27:28.522018
2022-12-14 16:27:28.522366
2022-12-14 16:27:28.555420
2022-12-14 16:27:28.555663
2022-12-14 16:27:28.556145
2022-12-14 16:27:28.589068
2022-12-14 16:27:28.590072
2022-12-14 16:27:28.590072
2022-12-14 16:27:28.622336
2022-12-14 16:27:28.622336
2022-12-14 16:27:28.655227
2022-12-14 16:27:28.655227
2022-12-14 16:27:28.656303
2022-12-14 16:27:28.689480
2022-12-14 16:27:28.689775
2022-12-14 16:27:28.689775
2022-12-14 16:27:28.723149
2022-12-14 16:27:28.723495
2022-12-14 16:27:28.756756
2022-12-14 16:27:28.757000
2022-12-14 16:27:28.757000
2022-12-14 16:27:28.790292
2022-12-14 16:27:28.790624
2022-12-14 16:27:28.790624
2022-12-14 16:27:28.823744
2022-12-14 16:27:28.824088
2022-12-14 16:27:28.857145
2022-12-14 16:27:28.857145
2022-12-14 16:27:28.858147
2022-12-14 16:27:28.890717
2022-12-14 16:27:28.891457
2022-12-14 16:27:28.891457
2022-12-14 16:27:28.923768
2022-12-14 16:27:28.923768
2022-12-14 16:27:28.956597
2022-12-14 16:27:28.957604
2022-12-14 16:27:28.957604
2022-12-14 16:27:28.990402
2022-12-14 16:27:28.991134
2022-12-14 16:27:28.991134
2022-12-14 16:27:29.024440
2022-12-14 16:27:29.024781
2022-12-14 16:27:29.058351
2022-12-14 16:27:29.058594
2022-12-14 16:27:29.059153
2022-12-14 16:27:29.091887
2022-12-14 16:27:29.092183
2022-12-14 16:27:29.093185
2022-12-14 16:27:29.125492
2022-12-14 16:27:29.125838
2022-12-14 16:27:29.158635
2022-12-14 16:27:29.158635
2022-12-14 16:27:29.159652
2022-12-14 16:27:29.192582
2022-12-14 16:27:29.192879
2022-12-14 16:27:29.193402
2022-12-14 16:27:29.226101
2022-12-14 16:27:29.226101
2022-12-14 16:27:29.259499
2022-12-14 16:27:29.259499
2022-12-14 16:27:29.260501
2022-12-14 16:27:29.292883
2022-12-14 16:27:29.292883
2022-12-14 16:27:29.292883
2022-12-14 16:27:29.326463
2022-12-14 16:27:29.326463
2022-12-14 16:27:29.360082
2022-12-14 16:27:29.360329
2022-12-14 16:27:29.360937
2022-12-14 16:27:29.393735
2022-12-14 16:27:29.394029
2022-12-14 16:27:29.394029
2022-12-14 16:27:29.427213
2022-12-14 16:27:29.427213
2022-12-14 16:27:29.460824
2022-12-14 16:27:29.461067
2022-12-14 16:27:29.461627
2022-12-14 16:27:29.494409
2022-12-14 16:27:29.494731
2022-12-14 16:27:29.494731
2022-12-14 16:27:29.527908
2022-12-14 16:27:29.528383
2022-12-14 16:27:29.561331
2022-12-14 16:27:29.561902
2022-12-14 16:27:29.561902
2022-12-14 16:27:29.594869
2022-12-14 16:27:29.595164
2022-12-14 16:27:29.595164
2022-12-14 16:27:29.627639
2022-12-14 16:27:29.628592
2022-12-14 16:27:29.661102
2022-12-14 16:27:29.661102
2022-12-14 16:27:29.662102
2022-12-14 16:27:29.695567
2022-12-14 16:27:29.696000
2022-12-14 16:27:29.697001
2022-12-14 16:27:29.729100
2022-12-14 16:27:29.729490
2022-12-14 16:27:29.762695
2022-12-14 16:27:29.762969
2022-12-14 16:27:29.762969
2022-12-14 16:27:29.796174
2022-12-14 16:27:29.796174
2022-12-14 16:27:29.797013
2022-12-14 16:27:29.828299
2022-12-14 16:27:29.829306
2022-12-14 16:27:29.863002
2022-12-14 16:27:29.863248
2022-12-14 16:27:29.863248
2022-12-14 16:27:29.896654
2022-12-14 16:27:29.896949
2022-12-14 16:27:29.896949
2022-12-14 16:27:29.930217
2022-12-14 16:27:29.930563
2022-12-14 16:27:29.963793
2022-12-14 16:27:29.964041
2022-12-14 16:27:29.964595
2022-12-14 16:27:29.997317
2022-12-14 16:27:29.997611
2022-12-14 16:27:29.997611
2022-12-14 16:27:30.030883
2022-12-14 16:27:30.031280
2022-12-14 16:27:30.064309
2022-12-14 16:27:30.064683
2022-12-14 16:27:30.065685
2022-12-14 16:27:30.097252
2022-12-14 16:27:30.097252
2022-12-14 16:27:30.098192
2022-12-14 16:27:30.131270
2022-12-14 16:27:30.131616
2022-12-14 16:27:30.165024
2022-12-14 16:27:30.165269
2022-12-14 16:27:30.166270
2022-12-14 16:27:30.198587
2022-12-14 16:27:30.198587
2022-12-14 16:27:30.199619
2022-12-14 16:27:30.232097
2022-12-14 16:27:30.232097
2022-12-14 16:27:30.265581
2022-12-14 16:27:30.266584
2022-12-14 16:27:30.266584
2022-12-14 16:27:30.299142
2022-12-14 16:27:30.299142
2022-12-14 16:27:30.300144
2022-12-14 16:27:30.332681
2022-12-14 16:27:30.333682
2022-12-14 16:27:30.366121
2022-12-14 16:27:30.366639
2022-12-14 16:27:30.367643
2022-12-14 16:27:30.399004
2022-12-14 16:27:30.399004
2022-12-14 16:27:30.400013
2022-12-14 16:27:30.432825
2022-12-14 16:27:30.432825
2022-12-14 16:27:30.465877
2022-12-14 16:27:30.466879
2022-12-14 16:27:30.466879
2022-12-14 16:27:30.499294
2022-12-14 16:27:30.500297
2022-12-14 16:27:30.500297
2022-12-14 16:27:30.533241
2022-12-14 16:27:30.533241
2022-12-14 16:27:30.566070
2022-12-14 16:27:30.567074
2022-12-14 16:27:30.567074
2022-12-14 16:27:30.599446
2022-12-14 16:27:30.600449
2022-12-14 16:27:30.600449
2022-12-14 16:27:30.633817
2022-12-14 16:27:30.633817
2022-12-14 16:27:30.667335
2022-12-14 16:27:30.667565
2022-12-14 16:27:30.667565
2022-12-14 16:27:30.700435
2022-12-14 16:27:30.701433
2022-12-14 16:27:30.701433
2022-12-14 16:27:30.733932
2022-12-14 16:27:30.734927
2022-12-14 16:27:30.767944
2022-12-14 16:27:30.767944
2022-12-14 16:27:30.768946
2022-12-14 16:27:30.801858
2022-12-14 16:27:30.801858
2022-12-14 16:27:30.802956
2022-12-14 16:27:30.835368
2022-12-14 16:27:30.835368
2022-12-14 16:27:30.868894
2022-12-14 16:27:30.868894
2022-12-14 16:27:30.869918
2022-12-14 16:27:30.902544
2022-12-14 16:27:30.902544
2022-12-14 16:27:30.903547
2022-12-14 16:27:30.935958
2022-12-14 16:27:30.935958
2022-12-14 16:27:30.969426
2022-12-14 16:27:30.969426
2022-12-14 16:27:30.970452
2022-12-14 16:27:31.002940
2022-12-14 16:27:31.002940
2022-12-14 16:27:31.003964
2022-12-14 16:27:31.036670
2022-12-14 16:27:31.037012
2022-12-14 16:27:31.069722
2022-12-14 16:27:31.069963
2022-12-14 16:27:31.069963
2022-12-14 16:27:31.103253
2022-12-14 16:27:31.103253
2022-12-14 16:27:31.104262
2022-12-14 16:27:31.136869
2022-12-14 16:27:31.137197
2022-12-14 16:27:31.170784
2022-12-14 16:27:31.171027
2022-12-14 16:27:31.171027
2022-12-14 16:27:31.204252
2022-12-14 16:27:31.204597
2022-12-14 16:27:31.204597
2022-12-14 16:27:31.237824
2022-12-14 16:27:31.238170
2022-12-14 16:27:31.271231
2022-12-14 16:27:31.271475
2022-12-14 16:27:31.272091
2022-12-14 16:27:31.304634
2022-12-14 16:27:31.304929
2022-12-14 16:27:31.305452
2022-12-14 16:27:31.338082
2022-12-14 16:27:31.338082
2022-12-14 16:27:31.371840
2022-12-14 16:27:31.372086
2022-12-14 16:27:31.372086
2022-12-14 16:27:31.405299
2022-12-14 16:27:31.405299
2022-12-14 16:27:31.406300
2022-12-14 16:27:31.438601
2022-12-14 16:27:31.438601
2022-12-14 16:27:31.472024
2022-12-14 16:27:31.472024
2022-12-14 16:27:31.472024
2022-12-14 16:27:31.504860
2022-12-14 16:27:31.505770
2022-12-14 16:27:31.505770
2022-12-14 16:27:31.539417
2022-12-14 16:27:31.539417
2022-12-14 16:27:31.572975
2022-12-14 16:27:31.572975
2022-12-14 16:27:31.573977
2022-12-14 16:27:31.606507
2022-12-14 16:27:31.606507
2022-12-14 16:27:31.607510
2022-12-14 16:27:31.639826
2022-12-14 16:27:31.639826
2022-12-14 16:27:31.673137
2022-12-14 16:27:31.673137
2022-12-14 16:27:31.674138
2022-12-14 16:27:31.707182
2022-12-14 16:27:31.707475
2022-12-14 16:27:31.708034
2022-12-14 16:27:31.740750
2022-12-14 16:27:31.740750
2022-12-14 16:27:31.774085
2022-12-14 16:27:31.774085
2022-12-14 16:27:31.775031
2022-12-14 16:27:31.807643
2022-12-14 16:27:31.808646
2022-12-14 16:27:31.808646
2022-12-14 16:27:31.840054
2022-12-14 16:27:31.841058
2022-12-14 16:27:31.874935
2022-12-14 16:27:31.875179
2022-12-14 16:27:31.875179
2022-12-14 16:27:31.908444
2022-12-14 16:27:31.908743
2022-12-14 16:27:31.909341
2022-12-14 16:27:31.941930
2022-12-14 16:27:31.942870
2022-12-14 16:27:31.975593
2022-12-14 16:27:31.975868
2022-12-14 16:27:31.976871
2022-12-14 16:27:32.009166
2022-12-14 16:27:32.009507
2022-12-14 16:27:32.010064
2022-12-14 16:27:32.042752
2022-12-14 16:27:32.042752
2022-12-14 16:27:32.076003
2022-12-14 16:27:32.076003
2022-12-14 16:27:32.076827
2022-12-14 16:27:32.109596
2022-12-14 16:27:32.110120
2022-12-14 16:27:32.110120
2022-12-14 16:27:32.142768
2022-12-14 16:27:32.142768
2022-12-14 16:27:32.175791
2022-12-14 16:27:32.175791
2022-12-14 16:27:32.176787
2022-12-14 16:27:32.210089
2022-12-14 16:27:32.210384
2022-12-14 16:27:32.210384
2022-12-14 16:27:32.243053
2022-12-14 16:27:32.243510
2022-12-14 16:27:32.277210
2022-12-14 16:27:32.277454
2022-12-14 16:27:32.278070
2022-12-14 16:27:32.310808
2022-12-14 16:27:32.311175
2022-12-14 16:27:32.311781
2022-12-14 16:27:32.344255
2022-12-14 16:27:32.344602
2022-12-14 16:27:32.377855
2022-12-14 16:27:32.378158
2022-12-14 16:27:32.378158
2022-12-14 16:27:32.411407
2022-12-14 16:27:32.411735
2022-12-14 16:27:32.411735
2022-12-14 16:27:32.444890
2022-12-14 16:27:32.444890
2022-12-14 16:27:32.478338
2022-12-14 16:27:32.478338
2022-12-14 16:27:32.479326
2022-12-14 16:27:32.511250
2022-12-14 16:27:32.511250
2022-12-14 16:27:32.512256
2022-12-14 16:27:32.545058
2022-12-14 16:27:32.545382
2022-12-14 16:27:32.577977
2022-12-14 16:27:32.578974
2022-12-14 16:27:32.578974
2022-12-14 16:27:32.612545
2022-12-14 16:27:32.612842
2022-12-14 16:27:32.612842
2022-12-14 16:27:32.645956
2022-12-14 16:27:32.646306
2022-12-14 16:27:32.679684
2022-12-14 16:27:32.679929
2022-12-14 16:27:32.680450
2022-12-14 16:27:32.713092
2022-12-14 16:27:32.713434
2022-12-14 16:27:32.713434
2022-12-14 16:27:32.746546
2022-12-14 16:27:32.747090
2022-12-14 16:27:32.779658
2022-12-14 16:27:32.779658
2022-12-14 16:27:32.779658
2022-12-14 16:27:32.813731
2022-12-14 16:27:32.814027
2022-12-14 16:27:32.814027
2022-12-14 16:27:32.846205
2022-12-14 16:27:32.847227
2022-12-14 16:27:32.880899
2022-12-14 16:27:32.881143
2022-12-14 16:27:32.881788
2022-12-14 16:27:32.914366
2022-12-14 16:27:32.914366
2022-12-14 16:27:32.915273
2022-12-14 16:27:32.947766
2022-12-14 16:27:32.948113
2022-12-14 16:27:32.981512
2022-12-14 16:27:32.981786
2022-12-14 16:27:32.982360
2022-12-14 16:27:33.014934
2022-12-14 16:27:33.015937
2022-12-14 16:27:33.015937
2022-12-14 16:27:33.047993
2022-12-14 16:27:33.047993
2022-12-14 16:27:33.081443
2022-12-14 16:27:33.081443
2022-12-14 16:27:33.081443
2022-12-14 16:27:33.115537
2022-12-14 16:27:33.115833
2022-12-14 16:27:33.115833
2022-12-14 16:27:33.149054
2022-12-14 16:27:33.149054
2022-12-14 16:27:33.182683
2022-12-14 16:27:33.182927
2022-12-14 16:27:33.183928
2022-12-14 16:27:33.216135
2022-12-14 16:27:33.216431
2022-12-14 16:27:33.216431
2022-12-14 16:27:33.249587
2022-12-14 16:27:33.250589
2022-12-14 16:27:33.283297
2022-12-14 16:27:33.283297
2022-12-14 16:27:33.284302
2022-12-14 16:27:33.316839
2022-12-14 16:27:33.317841
2022-12-14 16:27:33.317841
2022-12-14 16:27:33.350090
2022-12-14 16:27:33.351093
2022-12-14 16:27:33.383042
2022-12-14 16:27:33.383042
2022-12-14 16:27:33.384025
2022-12-14 16:27:33.417032
2022-12-14 16:27:33.418066
2022-12-14 16:27:33.418066
2022-12-14 16:27:33.450446
2022-12-14 16:27:33.451448
2022-12-14 16:27:33.483827
2022-12-14 16:27:33.483827
2022-12-14 16:27:33.484862
2022-12-14 16:27:33.517191
2022-12-14 16:27:33.517191
2022-12-14 16:27:33.518194
2022-12-14 16:27:33.550521
2022-12-14 16:27:33.551466
2022-12-14 16:27:33.584043
2022-12-14 16:27:33.585046
2022-12-14 16:27:33.585190
2022-12-14 16:27:33.617395
2022-12-14 16:27:33.618326
2022-12-14 16:27:33.618326
2022-12-14 16:27:33.651823
2022-12-14 16:27:33.652541
2022-12-14 16:27:33.684027
2022-12-14 16:27:33.685033
2022-12-14 16:27:33.685033
2022-12-14 16:27:33.718275
2022-12-14 16:27:33.719242
2022-12-14 16:27:33.719242
2022-12-14 16:27:33.751779
2022-12-14 16:27:33.751779
2022-12-14 16:27:33.785528
2022-12-14 16:27:33.786177
2022-12-14 16:27:33.786334
2022-12-14 16:27:33.819604
2022-12-14 16:27:33.819890
2022-12-14 16:27:33.819890
2022-12-14 16:27:33.853030
2022-12-14 16:27:33.853376
2022-12-14 16:27:33.886567
2022-12-14 16:27:33.886807
2022-12-14 16:27:33.887286
2022-12-14 16:27:33.920047
2022-12-14 16:27:33.920047
2022-12-14 16:27:33.921049
2022-12-14 16:27:33.953636
2022-12-14 16:27:33.954385
2022-12-14 16:27:33.987030
2022-12-14 16:27:33.987030
2022-12-14 16:27:33.988032
2022-12-14 16:27:34.020598
2022-12-14 16:27:34.020967
2022-12-14 16:27:34.020967
2022-12-14 16:27:34.053691
2022-12-14 16:27:34.054180
2022-12-14 16:27:34.087514
2022-12-14 16:27:34.087514
2022-12-14 16:27:34.088521
2022-12-14 16:27:34.121418
2022-12-14 16:27:34.121713
2022-12-14 16:27:34.122723
2022-12-14 16:27:34.154859
2022-12-14 16:27:34.155204
2022-12-14 16:27:34.188450
2022-12-14 16:27:34.188693
2022-12-14 16:27:34.188693
2022-12-14 16:27:34.221974
2022-12-14 16:27:34.222269
2022-12-14 16:27:34.222269
2022-12-14 16:27:34.256113
2022-12-14 16:27:34.256113
2022-12-14 16:27:34.288975
2022-12-14 16:27:34.288975
2022-12-14 16:27:34.289976
2022-12-14 16:27:34.322602
2022-12-14 16:27:34.322897
2022-12-14 16:27:34.322897
2022-12-14 16:27:34.356187
2022-12-14 16:27:34.356580
2022-12-14 16:27:34.389648
2022-12-14 16:27:34.389893
2022-12-14 16:27:34.390502
2022-12-14 16:27:34.423099
2022-12-14 16:27:34.423396
2022-12-14 16:27:34.423960
2022-12-14 16:27:34.456769
2022-12-14 16:27:34.457117
2022-12-14 16:27:34.490158
2022-12-14 16:27:34.490401
2022-12-14 16:27:34.490876
2022-12-14 16:27:34.523713
2022-12-14 16:27:34.523713
2022-12-14 16:27:34.524716
2022-12-14 16:27:34.556823
2022-12-14 16:27:34.557848
2022-12-14 16:27:34.590353
2022-12-14 16:27:34.590353
2022-12-14 16:27:34.590353
2022-12-14 16:27:34.624310
2022-12-14 16:27:34.624603
2022-12-14 16:27:34.624603
2022-12-14 16:27:34.657979
2022-12-14 16:27:34.658324
2022-12-14 16:27:34.691441
2022-12-14 16:27:34.691720
2022-12-14 16:27:34.691720
2022-12-14 16:27:34.724956
2022-12-14 16:27:34.725251
2022-12-14 16:27:34.725251
2022-12-14 16:27:34.758575
2022-12-14 16:27:34.758925
2022-12-14 16:27:34.791985
2022-12-14 16:27:34.792229
2022-12-14 16:27:34.792229
2022-12-14 16:27:34.825516
2022-12-14 16:27:34.825516
2022-12-14 16:27:34.826519
2022-12-14 16:27:34.859069
2022-12-14 16:27:34.860078
2022-12-14 16:27:34.892413
2022-12-14 16:27:34.892413
2022-12-14 16:27:34.893414
2022-12-14 16:27:34.926003
2022-12-14 16:27:34.926296
2022-12-14 16:27:34.926296
2022-12-14 16:27:34.959774
2022-12-14 16:27:34.960119
2022-12-14 16:27:34.993170
2022-12-14 16:27:34.993415
2022-12-14 16:27:34.993979
2022-12-14 16:27:35.026738
2022-12-14 16:27:35.027031
2022-12-14 16:27:35.027556
2022-12-14 16:27:35.060308
2022-12-14 16:27:35.060656
2022-12-14 16:27:35.093765
2022-12-14 16:27:35.094079
2022-12-14 16:27:35.094079
2022-12-14 16:27:35.127213
2022-12-14 16:27:35.127213
2022-12-14 16:27:35.128218
2022-12-14 16:27:35.160770
2022-12-14 16:27:35.160770
2022-12-14 16:27:35.193784
2022-12-14 16:27:35.193784
2022-12-14 16:27:35.194569
2022-12-14 16:27:35.227757
2022-12-14 16:27:35.228054
2022-12-14 16:27:35.228054
2022-12-14 16:27:35.261287
2022-12-14 16:27:35.261634
2022-12-14 16:27:35.294852
2022-12-14 16:27:35.295095
2022-12-14 16:27:35.295095
2022-12-14 16:27:35.328443
2022-12-14 16:27:35.328740
2022-12-14 16:27:35.329341
2022-12-14 16:27:35.361982
2022-12-14 16:27:35.362332
2022-12-14 16:27:35.395546
2022-12-14 16:27:35.395791
2022-12-14 16:27:35.395791
2022-12-14 16:27:35.429071
2022-12-14 16:27:35.429071
2022-12-14 16:27:35.429981
2022-12-14 16:27:35.462659
2022-12-14 16:27:35.463031
2022-12-14 16:27:35.496179
2022-12-14 16:27:35.496471
2022-12-14 16:27:35.496471
2022-12-14 16:27:35.529730
2022-12-14 16:27:35.529730
2022-12-14 16:27:35.530733
2022-12-14 16:27:35.562564
2022-12-14 16:27:35.562986
2022-12-14 16:27:35.596672
2022-12-14 16:27:35.596916
2022-12-14 16:27:35.597918
2022-12-14 16:27:35.630109
2022-12-14 16:27:35.630405
2022-12-14 16:27:35.630405
2022-12-14 16:27:35.663877
2022-12-14 16:27:35.664220
2022-12-14 16:27:35.697285
2022-12-14 16:27:35.697528
2022-12-14 16:27:35.697528
2022-12-14 16:27:35.730159
2022-12-14 16:27:35.730159
2022-12-14 16:27:35.731191
2022-12-14 16:27:35.763909
2022-12-14 16:27:35.763909
2022-12-14 16:27:35.798088
2022-12-14 16:27:35.798333
2022-12-14 16:27:35.798855
2022-12-14 16:27:35.831521
2022-12-14 16:27:35.831521
2022-12-14 16:27:35.832540
2022-12-14 16:27:35.864649
2022-12-14 16:27:35.864649
2022-12-14 16:27:35.898112
2022-12-14 16:27:35.898341
2022-12-14 16:27:35.898341
2022-12-14 16:27:35.932006
2022-12-14 16:27:35.932306
2022-12-14 16:27:35.932306
2022-12-14 16:27:35.965629
2022-12-14 16:27:35.965973
2022-12-14 16:27:35.999051
2022-12-14 16:27:35.999295
2022-12-14 16:27:35.999295
2022-12-14 16:27:36.032708
2022-12-14 16:27:36.033000
2022-12-14 16:27:36.033000
2022-12-14 16:27:36.066214
2022-12-14 16:27:36.066214
2022-12-14 16:27:36.099590
2022-12-14 16:27:36.099834
2022-12-14 16:27:36.100307
2022-12-14 16:27:36.133439
2022-12-14 16:27:36.133778
2022-12-14 16:27:36.133778
2022-12-14 16:27:36.166896
2022-12-14 16:27:36.167243
2022-12-14 16:27:36.200316
2022-12-14 16:27:36.200659
2022-12-14 16:27:36.201663
2022-12-14 16:27:36.233156
2022-12-14 16:27:36.233156
2022-12-14 16:27:36.234164
2022-12-14 16:27:36.266922
2022-12-14 16:27:36.266922
2022-12-14 16:27:36.300719
2022-12-14 16:27:36.300961
2022-12-14 16:27:36.301962
2022-12-14 16:27:36.334274
2022-12-14 16:27:36.334274
2022-12-14 16:27:36.335307
2022-12-14 16:27:36.367912
2022-12-14 16:27:36.368916
2022-12-14 16:27:36.401426
2022-12-14 16:27:36.401426
2022-12-14 16:27:36.402462
2022-12-14 16:27:36.435013
2022-12-14 16:27:36.436016
2022-12-14 16:27:36.436016
2022-12-14 16:27:36.468392
2022-12-14 16:27:36.468392
2022-12-14 16:27:36.501786
2022-12-14 16:27:36.502799
2022-12-14 16:27:36.502799
2022-12-14 16:27:36.535470
2022-12-14 16:27:36.535470
2022-12-14 16:27:36.536473
2022-12-14 16:27:36.568515
2022-12-14 16:27:36.568515
2022-12-14 16:27:36.601568
2022-12-14 16:27:36.602569
2022-12-14 16:27:36.602569
2022-12-14 16:27:36.635601
2022-12-14 16:27:36.635601
2022-12-14 16:27:36.636598
2022-12-14 16:27:36.669377
2022-12-14 16:27:36.669377
2022-12-14 16:27:36.702733
2022-12-14 16:27:36.702733
2022-12-14 16:27:36.703730
2022-12-14 16:27:36.736217
2022-12-14 16:27:36.736497
2022-12-14 16:27:36.736497
2022-12-14 16:27:36.770017
2022-12-14 16:27:36.770017
2022-12-14 16:27:36.803496
2022-12-14 16:27:36.804273
2022-12-14 16:27:36.804507
2022-12-14 16:27:36.837004
2022-12-14 16:27:36.837652
2022-12-14 16:27:36.837652
2022-12-14 16:27:36.870573
2022-12-14 16:27:36.871025
2022-12-14 16:27:36.903787
2022-12-14 16:27:36.903787
2022-12-14 16:27:36.903787
2022-12-14 16:27:36.937200
2022-12-14 16:27:36.937863
2022-12-14 16:27:36.938296
2022-12-14 16:27:36.971274
2022-12-14 16:27:36.971681
2022-12-14 16:27:37.004851
2022-12-14 16:27:37.004851
2022-12-14 16:27:37.005875
2022-12-14 16:27:37.038412
2022-12-14 16:27:37.038710
2022-12-14 16:27:37.039353
2022-12-14 16:27:37.071511
2022-12-14 16:27:37.071511
2022-12-14 16:27:37.105396
2022-12-14 16:27:37.105640
2022-12-14 16:27:37.106121
2022-12-14 16:27:37.138493
2022-12-14 16:27:37.138493
2022-12-14 16:27:37.139483
2022-12-14 16:27:37.172502
2022-12-14 16:27:37.172881
2022-12-14 16:27:37.205880
2022-12-14 16:27:37.205880
2022-12-14 16:27:37.206820
2022-12-14 16:27:37.239488
2022-12-14 16:27:37.239783
2022-12-14 16:27:37.239783
2022-12-14 16:27:37.273033
2022-12-14 16:27:37.273382
2022-12-14 16:27:37.306771
2022-12-14 16:27:37.307014
2022-12-14 16:27:37.307014
2022-12-14 16:27:37.340117
2022-12-14 16:27:37.340412
2022-12-14 16:27:37.340975
2022-12-14 16:27:37.373675
2022-12-14 16:27:37.374020
2022-12-14 16:27:37.407207
2022-12-14 16:27:37.407450
2022-12-14 16:27:37.408051
2022-12-14 16:27:37.440779
2022-12-14 16:27:37.440779
2022-12-14 16:27:37.441782
2022-12-14 16:27:37.473579
2022-12-14 16:27:37.474576
2022-12-14 16:27:37.507947
2022-12-14 16:27:37.508188
2022-12-14 16:27:37.508796
2022-12-14 16:27:37.541584
2022-12-14 16:27:37.541881
2022-12-14 16:27:37.541881
2022-12-14 16:27:37.574913
2022-12-14 16:27:37.575422
2022-12-14 16:27:37.608463
2022-12-14 16:27:37.608710
2022-12-14 16:27:37.609177
2022-12-14 16:27:37.642007
2022-12-14 16:27:37.642007
2022-12-14 16:27:37.642956
2022-12-14 16:27:37.675514
2022-12-14 16:27:37.675863
2022-12-14 16:27:37.709069
2022-12-14 16:27:37.709477
2022-12-14 16:27:37.710482
2022-12-14 16:27:37.741674
2022-12-14 16:27:37.742681
2022-12-14 16:27:37.742681
2022-12-14 16:27:37.775550
2022-12-14 16:27:37.775550
2022-12-14 16:27:37.808282
2022-12-14 16:27:37.809278
2022-12-14 16:27:37.810276
2022-12-14 16:27:37.843028
2022-12-14 16:27:37.843028
2022-12-14 16:27:37.844046
2022-12-14 16:27:37.876852
2022-12-14 16:27:37.877201
2022-12-14 16:27:37.910383
2022-12-14 16:27:37.910672
2022-12-14 16:27:37.910672
2022-12-14 16:27:37.943795
2022-12-14 16:27:37.944091
2022-12-14 16:27:37.944564
2022-12-14 16:27:37.977351
2022-12-14 16:27:37.977698
2022-12-14 16:27:38.010778
2022-12-14 16:27:38.010778
2022-12-14 16:27:38.011779
2022-12-14 16:27:38.043780
2022-12-14 16:27:38.043780
2022-12-14 16:27:38.044805
2022-12-14 16:27:38.077686
2022-12-14 16:27:38.077686
2022-12-14 16:27:38.111266
2022-12-14 16:27:38.111266
2022-12-14 16:27:38.112131
2022-12-14 16:27:38.144892
2022-12-14 16:27:38.145189
2022-12-14 16:27:38.145794
2022-12-14 16:27:38.178406
2022-12-14 16:27:38.178406
2022-12-14 16:27:38.212059
2022-12-14 16:27:38.212306
2022-12-14 16:27:38.212306
2022-12-14 16:27:38.245556
2022-12-14 16:27:38.245852
2022-12-14 16:27:38.246377
2022-12-14 16:27:38.279095
2022-12-14 16:27:38.279484
2022-12-14 16:27:38.312641
2022-12-14 16:27:38.312923
2022-12-14 16:27:38.312923
2022-12-14 16:27:38.346205
2022-12-14 16:27:38.346205
2022-12-14 16:27:38.347208
2022-12-14 16:27:38.378862
2022-12-14 16:27:38.379870
2022-12-14 16:27:38.412601
2022-12-14 16:27:38.412601
2022-12-14 16:27:38.413300
2022-12-14 16:27:38.446767
2022-12-14 16:27:38.447061
2022-12-14 16:27:38.447657
2022-12-14 16:27:38.480248
2022-12-14 16:27:38.480591
2022-12-14 16:27:38.513884
2022-12-14 16:27:38.514128
2022-12-14 16:27:38.514128
2022-12-14 16:27:38.547336
2022-12-14 16:27:38.547631
2022-12-14 16:27:38.547631
2022-12-14 16:27:38.580976
2022-12-14 16:27:38.581327
2022-12-14 16:27:38.614438
2022-12-14 16:27:38.614680
2022-12-14 16:27:38.615236
2022-12-14 16:27:38.648107
2022-12-14 16:27:38.648401
2022-12-14 16:27:38.648952
2022-12-14 16:27:38.681428
2022-12-14 16:27:38.681428
2022-12-14 16:27:38.714713
2022-12-14 16:27:38.714713
2022-12-14 16:27:38.715720
2022-12-14 16:27:38.747435
2022-12-14 16:27:38.748441
2022-12-14 16:27:38.748441
2022-12-14 16:27:38.781977
2022-12-14 16:27:38.782327
2022-12-14 16:27:38.815594
2022-12-14 16:27:38.815839
2022-12-14 16:27:38.816487
2022-12-14 16:27:38.849199
2022-12-14 16:27:38.849494
2022-12-14 16:27:38.849494
2022-12-14 16:27:38.882754
2022-12-14 16:27:38.883101
2022-12-14 16:27:38.916303
2022-12-14 16:27:38.916548
2022-12-14 16:27:38.916548
2022-12-14 16:27:38.949799
2022-12-14 16:27:38.949799
2022-12-14 16:27:38.950631
2022-12-14 16:27:38.983378
2022-12-14 16:27:38.983729
2022-12-14 16:27:39.017045
2022-12-14 16:27:39.017291
2022-12-14 16:27:39.017291
2022-12-14 16:27:39.050280
2022-12-14 16:27:39.050280
2022-12-14 16:27:39.051287
2022-12-14 16:27:39.083138
2022-12-14 16:27:39.083138
2022-12-14 16:27:39.117246
2022-12-14 16:27:39.117519
2022-12-14 16:27:39.118192
2022-12-14 16:27:39.150788
2022-12-14 16:27:39.151084
2022-12-14 16:27:39.151084
2022-12-14 16:27:39.184348
2022-12-14 16:27:39.184693
2022-12-14 16:27:39.217970
2022-12-14 16:27:39.217970
2022-12-14 16:27:39.218972
2022-12-14 16:27:39.251594
2022-12-14 16:27:39.251882
2022-12-14 16:27:39.252883
2022-12-14 16:27:39.285144
2022-12-14 16:27:39.285486
2022-12-14 16:27:39.318731
2022-12-14 16:27:39.318731
2022-12-14 16:27:39.319731
2022-12-14 16:27:39.352242
2022-12-14 16:27:39.352242
2022-12-14 16:27:39.353222
2022-12-14 16:27:39.385715
2022-12-14 16:27:39.386717
2022-12-14 16:27:39.418494
2022-12-14 16:27:39.418494
2022-12-14 16:27:39.419502
2022-12-14 16:27:39.452548
2022-12-14 16:27:39.453550
2022-12-14 16:27:39.453550
2022-12-14 16:27:39.486023
2022-12-14 16:27:39.487025
2022-12-14 16:27:39.519491
2022-12-14 16:27:39.519491
2022-12-14 16:27:39.520527
2022-12-14 16:27:39.552850
2022-12-14 16:27:39.553884
2022-12-14 16:27:39.553884
2022-12-14 16:27:39.586216
2022-12-14 16:27:39.587218
2022-12-14 16:27:39.619586
2022-12-14 16:27:39.619586
2022-12-14 16:27:39.620589
2022-12-14 16:27:39.652953
2022-12-14 16:27:39.653955
2022-12-14 16:27:39.653955
2022-12-14 16:27:39.686323
2022-12-14 16:27:39.687329
2022-12-14 16:27:39.720144
2022-12-14 16:27:39.721148
2022-12-14 16:27:39.721148
2022-12-14 16:27:39.753934
2022-12-14 16:27:39.753934
2022-12-14 16:27:39.753934
2022-12-14 16:27:39.787406
2022-12-14 16:27:39.787406
2022-12-14 16:27:39.821017
2022-12-14 16:27:39.821315
2022-12-14 16:27:39.821315
2022-12-14 16:27:39.854633
2022-12-14 16:27:39.854633
2022-12-14 16:27:39.855634
2022-12-14 16:27:39.888085
2022-12-14 16:27:39.888577
2022-12-14 16:27:39.921421
2022-12-14 16:27:39.921991
2022-12-14 16:27:39.921991
2022-12-14 16:27:39.954837
2022-12-14 16:27:39.955410
2022-12-14 16:27:39.955410
2022-12-14 16:27:39.988835
2022-12-14 16:27:39.988835
2022-12-14 16:27:40.021804
2022-12-14 16:27:40.021804
2022-12-14 16:27:40.022791
2022-12-14 16:27:40.056051
2022-12-14 16:27:40.056434
2022-12-14 16:27:40.056434
2022-12-14 16:27:40.089734
2022-12-14 16:27:40.090083
2022-12-14 16:27:40.122682
2022-12-14 16:27:40.123324
2022-12-14 16:27:40.123324
2022-12-14 16:27:40.156694
2022-12-14 16:27:40.156990
2022-12-14 16:27:40.156990
2022-12-14 16:27:40.190077
2022-12-14 16:27:40.190077
2022-12-14 16:27:40.223838
2022-12-14 16:27:40.224081
2022-12-14 16:27:40.224081
2022-12-14 16:27:40.257211
2022-12-14 16:27:40.257211
2022-12-14 16:27:40.258207
2022-12-14 16:27:40.290823
2022-12-14 16:27:40.290823
2022-12-14 16:27:40.324286
2022-12-14 16:27:40.324532
2022-12-14 16:27:40.324532
2022-12-14 16:27:40.357895
2022-12-14 16:27:40.357895
2022-12-14 16:27:40.358851
2022-12-14 16:27:40.391449
2022-12-14 16:27:40.391794
2022-12-14 16:27:40.424909
2022-12-14 16:27:40.425192
2022-12-14 16:27:40.425757
2022-12-14 16:27:40.458432
2022-12-14 16:27:40.458728
2022-12-14 16:27:40.458728
2022-12-14 16:27:40.491843
2022-12-14 16:27:40.492394
2022-12-14 16:27:40.524572
2022-12-14 16:27:40.525579
2022-12-14 16:27:40.525579
2022-12-14 16:27:40.557909
2022-12-14 16:27:40.558823
2022-12-14 16:27:40.558823
2022-12-14 16:27:40.592481
2022-12-14 16:27:40.592481
2022-12-14 16:27:40.626104
2022-12-14 16:27:40.626349
2022-12-14 16:27:40.627351
2022-12-14 16:27:40.659789
2022-12-14 16:27:40.660085
2022-12-14 16:27:40.661087
2022-12-14 16:27:40.692714
2022-12-14 16:27:40.692714
2022-12-14 16:27:40.726858
2022-12-14 16:27:40.727104
2022-12-14 16:27:40.727104
2022-12-14 16:27:40.760239
2022-12-14 16:27:40.760534
2022-12-14 16:27:40.761088
2022-12-14 16:27:40.793826
2022-12-14 16:27:40.794856
2022-12-14 16:27:40.826791
2022-12-14 16:27:40.826791
2022-12-14 16:27:40.826791
2022-12-14 16:27:40.860877
2022-12-14 16:27:40.861173
2022-12-14 16:27:40.861173
2022-12-14 16:27:40.894546
2022-12-14 16:27:40.894937
2022-12-14 16:27:40.928047
2022-12-14 16:27:40.928290
2022-12-14 16:27:40.928897
2022-12-14 16:27:40.961591
2022-12-14 16:27:40.961885
2022-12-14 16:27:40.961885
2022-12-14 16:27:40.994974
2022-12-14 16:27:40.995323
2022-12-14 16:27:41.028640
2022-12-14 16:27:41.028885
2022-12-14 16:27:41.029445
2022-12-14 16:27:41.062008
2022-12-14 16:27:41.062008
2022-12-14 16:27:41.063009
2022-12-14 16:27:41.095709
2022-12-14 16:27:41.096712
2022-12-14 16:27:41.127813
2022-12-14 16:27:41.128849
2022-12-14 16:27:41.128849
2022-12-14 16:27:41.161594
2022-12-14 16:27:41.162391
2022-12-14 16:27:41.162391
2022-12-14 16:27:41.195242
2022-12-14 16:27:41.196240
2022-12-14 16:27:41.229750
2022-12-14 16:27:41.229993
2022-12-14 16:27:41.229993
2022-12-14 16:27:41.263265
2022-12-14 16:27:41.263265
2022-12-14 16:27:41.264203
2022-12-14 16:27:41.296853
2022-12-14 16:27:41.296853
2022-12-14 16:27:41.330209
2022-12-14 16:27:41.330209
2022-12-14 16:27:41.331211
2022-12-14 16:27:41.363915
2022-12-14 16:27:41.363915
2022-12-14 16:27:41.364938
2022-12-14 16:27:41.397288
2022-12-14 16:27:41.397288
2022-12-14 16:27:41.430726
2022-12-14 16:27:41.431733
2022-12-14 16:27:41.431733
2022-12-14 16:27:41.463470
2022-12-14 16:27:41.464476
2022-12-14 16:27:41.464476
2022-12-14 16:27:41.497787
2022-12-14 16:27:41.497787
2022-12-14 16:27:41.531357
2022-12-14 16:27:41.531600
2022-12-14 16:27:41.531600
2022-12-14 16:27:41.564860
2022-12-14 16:27:41.565155
2022-12-14 16:27:41.565155
2022-12-14 16:27:41.598361
2022-12-14 16:27:41.598706
2022-12-14 16:27:41.631991
2022-12-14 16:27:41.632290
2022-12-14 16:27:41.632799
2022-12-14 16:27:41.665499
2022-12-14 16:27:41.665842
2022-12-14 16:27:41.666511
2022-12-14 16:27:41.698936
2022-12-14 16:27:41.698936
2022-12-14 16:27:41.732568
2022-12-14 16:27:41.733574
2022-12-14 16:27:41.733574
2022-12-14 16:27:41.766132
2022-12-14 16:27:41.766431
2022-12-14 16:27:41.766431
2022-12-14 16:27:41.798984
2022-12-14 16:27:41.799981
2022-12-14 16:27:41.832532
2022-12-14 16:27:41.832532
2022-12-14 16:27:41.833531
2022-12-14 16:27:41.865736
2022-12-14 16:27:41.866735
2022-12-14 16:27:41.866735
2022-12-14 16:27:41.900247
2022-12-14 16:27:41.900593
2022-12-14 16:27:41.933782
2022-12-14 16:27:41.934076
2022-12-14 16:27:41.934076
2022-12-14 16:27:41.967203
2022-12-14 16:27:41.967203
2022-12-14 16:27:41.968244
2022-12-14 16:27:42.000323
2022-12-14 16:27:42.000323
2022-12-14 16:27:42.033485
2022-12-14 16:27:42.033485
2022-12-14 16:27:42.034494
2022-12-14 16:27:42.068017
2022-12-14 16:27:42.068310
2022-12-14 16:27:42.068310
2022-12-14 16:27:42.101370
2022-12-14 16:27:42.101716
2022-12-14 16:27:42.135004
2022-12-14 16:27:42.135243
2022-12-14 16:27:42.136245
2022-12-14 16:27:42.168541
2022-12-14 16:27:42.168830
2022-12-14 16:27:42.169345
2022-12-14 16:27:42.201997
2022-12-14 16:27:42.203001
2022-12-14 16:27:42.235512
2022-12-14 16:27:42.235830
2022-12-14 16:27:42.236833
2022-12-14 16:27:42.268724
2022-12-14 16:27:42.268724
2022-12-14 16:27:42.268724
2022-12-14 16:27:42.302628
2022-12-14 16:27:42.302972
2022-12-14 16:27:42.336098
2022-12-14 16:27:42.336098
2022-12-14 16:27:42.337101
2022-12-14 16:27:42.369689
2022-12-14 16:27:42.369985
2022-12-14 16:27:42.370986
2022-12-14 16:27:42.403323
2022-12-14 16:27:42.404324
2022-12-14 16:27:42.436846
2022-12-14 16:27:42.436846
2022-12-14 16:27:42.437847
2022-12-14 16:27:42.470219
2022-12-14 16:27:42.471221
2022-12-14 16:27:42.471221
2022-12-14 16:27:42.503891
2022-12-14 16:27:42.503891
2022-12-14 16:27:42.537294
2022-12-14 16:27:42.538302
2022-12-14 16:27:42.538302
2022-12-14 16:27:42.570078
2022-12-14 16:27:42.570078
2022-12-14 16:27:42.571106
2022-12-14 16:27:42.603908
2022-12-14 16:27:42.604910
2022-12-14 16:27:42.637322
2022-12-14 16:27:42.637322
2022-12-14 16:27:42.638360
2022-12-14 16:27:42.670685
2022-12-14 16:27:42.671687
2022-12-14 16:27:42.671687
2022-12-14 16:27:42.703965
2022-12-14 16:27:42.704968
2022-12-14 16:27:42.737347
2022-12-14 16:27:42.738351
2022-12-14 16:27:42.738351
2022-12-14 16:27:42.770798
2022-12-14 16:27:42.771802
2022-12-14 16:27:42.772797
2022-12-14 16:27:42.805133
2022-12-14 16:27:42.805133
2022-12-14 16:27:42.838441
2022-12-14 16:27:42.838441
2022-12-14 16:27:42.839438
2022-12-14 16:27:42.872007
2022-12-14 16:27:42.872715
2022-12-14 16:27:42.872715
2022-12-14 16:27:42.905010
2022-12-14 16:27:42.905989
2022-12-14 16:27:42.938431
2022-12-14 16:27:42.939410
2022-12-14 16:27:42.939818
2022-12-14 16:27:42.972776
2022-12-14 16:27:42.972776
2022-12-14 16:27:42.973775
2022-12-14 16:27:43.006529
2022-12-14 16:27:43.007169
2022-12-14 16:27:43.040029
2022-12-14 16:27:43.040029
2022-12-14 16:27:43.041049
2022-12-14 16:27:43.073681
2022-12-14 16:27:43.073681
2022-12-14 16:27:43.074596
2022-12-14 16:27:43.107099
2022-12-14 16:27:43.107099
2022-12-14 16:27:43.140504
2022-12-14 16:27:43.140753
2022-12-14 16:27:43.141195
2022-12-14 16:27:43.174006
2022-12-14 16:27:43.174307
2022-12-14 16:27:43.174307
2022-12-14 16:27:43.207922
2022-12-14 16:27:43.208270
2022-12-14 16:27:43.241439
2022-12-14 16:27:43.241683
2022-12-14 16:27:43.241683
2022-12-14 16:27:43.274923
2022-12-14 16:27:43.275214
2022-12-14 16:27:43.275214
2022-12-14 16:27:43.308465
2022-12-14 16:27:43.308810
2022-12-14 16:27:43.342044
2022-12-14 16:27:43.342044
2022-12-14 16:27:43.343046
2022-12-14 16:27:43.375584
2022-12-14 16:27:43.376080
2022-12-14 16:27:43.377083
2022-12-14 16:27:43.409120
2022-12-14 16:27:43.409472
2022-12-14 16:27:43.442657
2022-12-14 16:27:43.442901
2022-12-14 16:27:43.442901
2022-12-14 16:27:43.476238
2022-12-14 16:27:43.476564
2022-12-14 16:27:43.476564
2022-12-14 16:27:43.509787
2022-12-14 16:27:43.510133
2022-12-14 16:27:43.543175
2022-12-14 16:27:43.543420
2022-12-14 16:27:43.543899
2022-12-14 16:27:43.576826
2022-12-14 16:27:43.577122
2022-12-14 16:27:43.577122
2022-12-14 16:27:43.610241
2022-12-14 16:27:43.610589
2022-12-14 16:27:43.642954
2022-12-14 16:27:43.642954
2022-12-14 16:27:43.643963
2022-12-14 16:27:43.677288
2022-12-14 16:27:43.677594
2022-12-14 16:27:43.677594
2022-12-14 16:27:43.710844
2022-12-14 16:27:43.711192
2022-12-14 16:27:43.744390
2022-12-14 16:27:43.744635
2022-12-14 16:27:43.744635
2022-12-14 16:27:43.778049
2022-12-14 16:27:43.778348
2022-12-14 16:27:43.778348
2022-12-14 16:27:43.811478
2022-12-14 16:27:43.811837
2022-12-14 16:27:43.845048
2022-12-14 16:27:43.845291
2022-12-14 16:27:43.845853
2022-12-14 16:27:43.878482
2022-12-14 16:27:43.878482
2022-12-14 16:27:43.879483
2022-12-14 16:27:43.911923
2022-12-14 16:27:43.912308
2022-12-14 16:27:43.944804
2022-12-14 16:27:43.945258
2022-12-14 16:27:43.945258
2022-12-14 16:27:43.978993
2022-12-14 16:27:43.979294
2022-12-14 16:27:43.979294
2022-12-14 16:27:44.012648
2022-12-14 16:27:44.012994
2022-12-14 16:27:44.046115
2022-12-14 16:27:44.046115
2022-12-14 16:27:44.047116
2022-12-14 16:27:44.079583
2022-12-14 16:27:44.079583
2022-12-14 16:27:44.080454
2022-12-14 16:27:44.113287
2022-12-14 16:27:44.113633
2022-12-14 16:27:44.146780
2022-12-14 16:27:44.147023
2022-12-14 16:27:44.147546
2022-12-14 16:27:44.180310
2022-12-14 16:27:44.180310
2022-12-14 16:27:44.181311
2022-12-14 16:27:44.213745
2022-12-14 16:27:44.214786
2022-12-14 16:27:44.246738
2022-12-14 16:27:44.246738
2022-12-14 16:27:44.247735
2022-12-14 16:27:44.280967
2022-12-14 16:27:44.281261
2022-12-14 16:27:44.281261
2022-12-14 16:27:44.314532
2022-12-14 16:27:44.314880
2022-12-14 16:27:44.348119
2022-12-14 16:27:44.348363
2022-12-14 16:27:44.348363
2022-12-14 16:27:44.381654
2022-12-14 16:27:44.381654
2022-12-14 16:27:44.382655
2022-12-14 16:27:44.415234
2022-12-14 16:27:44.415615
2022-12-14 16:27:44.448616
2022-12-14 16:27:44.448898
2022-12-14 16:27:44.449423
2022-12-14 16:27:44.482002
2022-12-14 16:27:44.483032
2022-12-14 16:27:44.483032
2022-12-14 16:27:44.514657
2022-12-14 16:27:44.515378
2022-12-14 16:27:44.549149
2022-12-14 16:27:44.549149
2022-12-14 16:27:44.550053
2022-12-14 16:27:44.582695
2022-12-14 16:27:44.582695
2022-12-14 16:27:44.583714
2022-12-14 16:27:44.616359
2022-12-14 16:27:44.616744
2022-12-14 16:27:44.649917
2022-12-14 16:27:44.650159
2022-12-14 16:27:44.650631
2022-12-14 16:27:44.683356
2022-12-14 16:27:44.683652
2022-12-14 16:27:44.683652
2022-12-14 16:27:44.716854
2022-12-14 16:27:44.716854
2022-12-14 16:27:44.749024
2022-12-14 16:27:44.750023
2022-12-14 16:27:44.750023
2022-12-14 16:27:44.782845
2022-12-14 16:27:44.783852
2022-12-14 16:27:44.783852
2022-12-14 16:27:44.817206
2022-12-14 16:27:44.817548
2022-12-14 16:27:44.850890
2022-12-14 16:27:44.851129
2022-12-14 16:27:44.851129
2022-12-14 16:27:44.884474
2022-12-14 16:27:44.884765
2022-12-14 16:27:44.884765
2022-12-14 16:27:44.917981
2022-12-14 16:27:44.918322
2022-12-14 16:27:44.951532
2022-12-14 16:27:44.951769
2022-12-14 16:27:44.952284
2022-12-14 16:27:44.985187
2022-12-14 16:27:44.985477
2022-12-14 16:27:44.985477
2022-12-14 16:27:45.018702
2022-12-14 16:27:45.019091
2022-12-14 16:27:45.052116
2022-12-14 16:27:45.053070
2022-12-14 16:27:45.053070
2022-12-14 16:27:45.085430
2022-12-14 16:27:45.085430
2022-12-14 16:27:45.086439
2022-12-14 16:27:45.117806
2022-12-14 16:27:45.118814
2022-12-14 16:27:45.152709
2022-12-14 16:27:45.152949
2022-12-14 16:27:45.152949
2022-12-14 16:27:45.186157
2022-12-14 16:27:45.186451
2022-12-14 16:27:45.186451
2022-12-14 16:27:45.219881
2022-12-14 16:27:45.220231
2022-12-14 16:27:45.253297
2022-12-14 16:27:45.253540
2022-12-14 16:27:45.254016
2022-12-14 16:27:45.286890
2022-12-14 16:27:45.287185
2022-12-14 16:27:45.288186
2022-12-14 16:27:45.320525
2022-12-14 16:27:45.320525
2022-12-14 16:27:45.352903
2022-12-14 16:27:45.353909
2022-12-14 16:27:45.353909
2022-12-14 16:27:45.387382
2022-12-14 16:27:45.387678
2022-12-14 16:27:45.388679
2022-12-14 16:27:45.420965
2022-12-14 16:27:45.420965
2022-12-14 16:27:45.454561
2022-12-14 16:27:45.454561
2022-12-14 16:27:45.455562
2022-12-14 16:27:45.487997
2022-12-14 16:27:45.489005
2022-12-14 16:27:45.489005
2022-12-14 16:27:45.521549
2022-12-14 16:27:45.521549
2022-12-14 16:27:45.555123
2022-12-14 16:27:45.556127
2022-12-14 16:27:45.556127
2022-12-14 16:27:45.588591
2022-12-14 16:27:45.588591
2022-12-14 16:27:45.589594
2022-12-14 16:27:45.621835
2022-12-14 16:27:45.622842
2022-12-14 16:27:45.654478
2022-12-14 16:27:45.655486
2022-12-14 16:27:45.655486
2022-12-14 16:27:45.687894
2022-12-14 16:27:45.688890
2022-12-14 16:27:45.688890
2022-12-14 16:27:45.721758
2022-12-14 16:27:45.722761
2022-12-14 16:27:45.755162
2022-12-14 16:27:45.756166
2022-12-14 16:27:45.756166
2022-12-14 16:27:45.788552
2022-12-14 16:27:45.789554
2022-12-14 16:27:45.789554
2022-12-14 16:27:45.822830
2022-12-14 16:27:45.822830
2022-12-14 16:27:45.856636
2022-12-14 16:27:45.856636
2022-12-14 16:27:45.857386
2022-12-14 16:27:45.890159
2022-12-14 16:27:45.890683
2022-12-14 16:27:45.890683
2022-12-14 16:27:45.922689
2022-12-14 16:27:45.923692
2022-12-14 16:27:45.957153
2022-12-14 16:27:45.957430
2022-12-14 16:27:45.957986
2022-12-14 16:27:45.990844
2022-12-14 16:27:45.991176
2022-12-14 16:27:45.991176
2022-12-14 16:27:46.024293
2022-12-14 16:27:46.024617
2022-12-14 16:27:46.057538
2022-12-14 16:27:46.058276
2022-12-14 16:27:46.058417
2022-12-14 16:27:46.090926
2022-12-14 16:27:46.091663
2022-12-14 16:27:46.091865
2022-12-14 16:27:46.124501
2022-12-14 16:27:46.124890
2022-12-14 16:27:46.158161
2022-12-14 16:27:46.158404
2022-12-14 16:27:46.159106
2022-12-14 16:27:46.191903
2022-12-14 16:27:46.191903
2022-12-14 16:27:46.192938
2022-12-14 16:27:46.225233
2022-12-14 16:27:46.225233
2022-12-14 16:27:46.258911
2022-12-14 16:27:46.258911
2022-12-14 16:27:46.259913
2022-12-14 16:27:46.292563
2022-12-14 16:27:46.292563
2022-12-14 16:27:46.293564
2022-12-14 16:27:46.325871
2022-12-14 16:27:46.325871
2022-12-14 16:27:46.359071
2022-12-14 16:27:46.359071
2022-12-14 16:27:46.360072
2022-12-14 16:27:46.392933
2022-12-14 16:27:46.392933
2022-12-14 16:27:46.393962
2022-12-14 16:27:46.426674
2022-12-14 16:27:46.427020
2022-12-14 16:27:46.460130
2022-12-14 16:27:46.460130
2022-12-14 16:27:46.461131
2022-12-14 16:27:46.493634
2022-12-14 16:27:46.493634
2022-12-14 16:27:46.494642
2022-12-14 16:27:46.527147
2022-12-14 16:27:46.527631
2022-12-14 16:27:46.560488
2022-12-14 16:27:46.560712
2022-12-14 16:27:46.561119
2022-12-14 16:27:46.594295
2022-12-14 16:27:46.594591
2022-12-14 16:27:46.594591
2022-12-14 16:27:46.627928
2022-12-14 16:27:46.628272
2022-12-14 16:27:46.661569
2022-12-14 16:27:46.661812
2022-12-14 16:27:46.661812
2022-12-14 16:27:46.695007
2022-12-14 16:27:46.695301
2022-12-14 16:27:46.695301
2022-12-14 16:27:46.728537
2022-12-14 16:27:46.728885
2022-12-14 16:27:46.762078
2022-12-14 16:27:46.762322
2022-12-14 16:27:46.762930
2022-12-14 16:27:46.795610
2022-12-14 16:27:46.795915
2022-12-14 16:27:46.796441
2022-12-14 16:27:46.828874
2022-12-14 16:27:46.829898
2022-12-14 16:27:46.862688
2022-12-14 16:27:46.862929
2022-12-14 16:27:46.862929
2022-12-14 16:27:46.896278
2022-12-14 16:27:46.896573
2022-12-14 16:27:46.896573
2022-12-14 16:27:46.929859
2022-12-14 16:27:46.930211
2022-12-14 16:27:46.963250
2022-12-14 16:27:46.963495
2022-12-14 16:27:46.963972
2022-12-14 16:27:46.996957
2022-12-14 16:27:46.997252
2022-12-14 16:27:46.997252
2022-12-14 16:27:47.030338
2022-12-14 16:27:47.030686
2022-12-14 16:27:47.063881
2022-12-14 16:27:47.063881
2022-12-14 16:27:47.064884
2022-12-14 16:27:47.096218
2022-12-14 16:27:47.097243
2022-12-14 16:27:47.097243
2022-12-14 16:27:47.129999
2022-12-14 16:27:47.129999
2022-12-14 16:27:47.164491
2022-12-14 16:27:47.164734
2022-12-14 16:27:47.165736
2022-12-14 16:27:47.198056
2022-12-14 16:27:47.198351
2022-12-14 16:27:47.199352
2022-12-14 16:27:47.231649
2022-12-14 16:27:47.231994
2022-12-14 16:27:47.265266
2022-12-14 16:27:47.265555
2022-12-14 16:27:47.266159
2022-12-14 16:27:47.298794
2022-12-14 16:27:47.299120
2022-12-14 16:27:47.299120
2022-12-14 16:27:47.332161
2022-12-14 16:27:47.332510
2022-12-14 16:27:47.365683
2022-12-14 16:27:47.365926
2022-12-14 16:27:47.365926
2022-12-14 16:27:47.399236
2022-12-14 16:27:47.399236
2022-12-14 16:27:47.400197
2022-12-14 16:27:47.432151
2022-12-14 16:27:47.432151
2022-12-14 16:27:47.465992
2022-12-14 16:27:47.465992
2022-12-14 16:27:47.466895
2022-12-14 16:27:47.499722
2022-12-14 16:27:47.500020
2022-12-14 16:27:47.500618
2022-12-14 16:27:47.533316
2022-12-14 16:27:47.533662
2022-12-14 16:27:47.566875
2022-12-14 16:27:47.567120
2022-12-14 16:27:47.567645
2022-12-14 16:27:47.600468
2022-12-14 16:27:47.600789
2022-12-14 16:27:47.600789
2022-12-14 16:27:47.633939
2022-12-14 16:27:47.634325
2022-12-14 16:27:47.667497
2022-12-14 16:27:47.668255
2022-12-14 16:27:47.668255
2022-12-14 16:27:47.700797
2022-12-14 16:27:47.700797
2022-12-14 16:27:47.701804
2022-12-14 16:27:47.733988
2022-12-14 16:27:47.734306
2022-12-14 16:27:47.767964
2022-12-14 16:27:47.768203
2022-12-14 16:27:47.768203
2022-12-14 16:27:47.801521
2022-12-14 16:27:47.801813
2022-12-14 16:27:47.802408
2022-12-14 16:27:47.834949
2022-12-14 16:27:47.835298
2022-12-14 16:27:47.868563
2022-12-14 16:27:47.868563
2022-12-14 16:27:47.869563
2022-12-14 16:27:47.902230
2022-12-14 16:27:47.902527
2022-12-14 16:27:47.903046
2022-12-14 16:27:47.935724
2022-12-14 16:27:47.936069
2022-12-14 16:27:47.969347
2022-12-14 16:27:47.969618
2022-12-14 16:27:47.970124
2022-12-14 16:27:48.002837
2022-12-14 16:27:48.002837
2022-12-14 16:27:48.003839
2022-12-14 16:27:48.036203
2022-12-14 16:27:48.037210
2022-12-14 16:27:48.068981
2022-12-14 16:27:48.068981
2022-12-14 16:27:48.069788
2022-12-14 16:27:48.102615
2022-12-14 16:27:48.102615
2022-12-14 16:27:48.103572
2022-12-14 16:27:48.135873
2022-12-14 16:27:48.136873
2022-12-14 16:27:48.170405
2022-12-14 16:27:48.170649
2022-12-14 16:27:48.171255
2022-12-14 16:27:48.203956
2022-12-14 16:27:48.204254
2022-12-14 16:27:48.204254
2022-12-14 16:27:48.237580
2022-12-14 16:27:48.237980
2022-12-14 16:27:48.270970
2022-12-14 16:27:48.271676
2022-12-14 16:27:48.272679
2022-12-14 16:27:48.304493
2022-12-14 16:27:48.305503
2022-12-14 16:27:48.305503
2022-12-14 16:27:48.337843
2022-12-14 16:27:48.337843
2022-12-14 16:27:48.370941
2022-12-14 16:27:48.370941
2022-12-14 16:27:48.371562
2022-12-14 16:27:48.405072
2022-12-14 16:27:48.405072
2022-12-14 16:27:48.406073
2022-12-14 16:27:48.438664
2022-12-14 16:27:48.439012
2022-12-14 16:27:48.472115
2022-12-14 16:27:48.472359
2022-12-14 16:27:48.472359
2022-12-14 16:27:48.505778
2022-12-14 16:27:48.505778
2022-12-14 16:27:48.506812
2022-12-14 16:27:48.539106
2022-12-14 16:27:48.540108
2022-12-14 16:27:48.572626
2022-12-14 16:27:48.572626
2022-12-14 16:27:48.573632
2022-12-14 16:27:48.606171
2022-12-14 16:27:48.607207
2022-12-14 16:27:48.607207
2022-12-14 16:27:48.639730
2022-12-14 16:27:48.640737
2022-12-14 16:27:48.673113
2022-12-14 16:27:48.674149
2022-12-14 16:27:48.674149
2022-12-14 16:27:48.706461
2022-12-14 16:27:48.707471
2022-12-14 16:27:48.708465
2022-12-14 16:27:48.740007
2022-12-14 16:27:48.740007
2022-12-14 16:27:48.772918
2022-12-14 16:27:48.773920
2022-12-14 16:27:48.773920
2022-12-14 16:27:48.806563
2022-12-14 16:27:48.806563
2022-12-14 16:27:48.807583
2022-12-14 16:27:48.840590
2022-12-14 16:27:48.840590
2022-12-14 16:27:48.873071
2022-12-14 16:27:48.874073
2022-12-14 16:27:48.874073
2022-12-14 16:27:48.907464
2022-12-14 16:27:48.907464
2022-12-14 16:27:48.908462
2022-12-14 16:27:48.941143
2022-12-14 16:27:48.941665
2022-12-14 16:27:48.974211
2022-12-14 16:27:48.975209
2022-12-14 16:27:48.975209
2022-12-14 16:27:49.008547
2022-12-14 16:27:49.008547
2022-12-14 16:27:49.008547
2022-12-14 16:27:49.041913
2022-12-14 16:27:49.041913
2022-12-14 16:27:49.074441
2022-12-14 16:27:49.075437
2022-12-14 16:27:49.075437
2022-12-14 16:27:49.108686
2022-12-14 16:27:49.109427
2022-12-14 16:27:49.109427
2022-12-14 16:27:49.142531
2022-12-14 16:27:49.142879
2022-12-14 16:27:49.176202
2022-12-14 16:27:49.176446
2022-12-14 16:27:49.177058
2022-12-14 16:27:49.209750
2022-12-14 16:27:49.210047
2022-12-14 16:27:49.210047
2022-12-14 16:27:49.243151
2022-12-14 16:27:49.243502
2022-12-14 16:27:49.276691
2022-12-14 16:27:49.276937
2022-12-14 16:27:49.276937
2022-12-14 16:27:49.310210
2022-12-14 16:27:49.310506
2022-12-14 16:27:49.310971
2022-12-14 16:27:49.343763
2022-12-14 16:27:49.343763
2022-12-14 16:27:49.377199
2022-12-14 16:27:49.377805
2022-12-14 16:27:49.377805
2022-12-14 16:27:49.410642
2022-12-14 16:27:49.410937
2022-12-14 16:27:49.411940
2022-12-14 16:27:49.444346
2022-12-14 16:27:49.444346
2022-12-14 16:27:49.477995
2022-12-14 16:27:49.478240
2022-12-14 16:27:49.478240
2022-12-14 16:27:49.511365
2022-12-14 16:27:49.511665
2022-12-14 16:27:49.511665
2022-12-14 16:27:49.544949
2022-12-14 16:27:49.545325
2022-12-14 16:27:49.578545
2022-12-14 16:27:49.578790
2022-12-14 16:27:49.579253
2022-12-14 16:27:49.612109
2022-12-14 16:27:49.612406
2022-12-14 16:27:49.612406
2022-12-14 16:27:49.645634
2022-12-14 16:27:49.645978
2022-12-14 16:27:49.679241
2022-12-14 16:27:49.679483
2022-12-14 16:27:49.679483
2022-12-14 16:27:49.712455
2022-12-14 16:27:49.713109
2022-12-14 16:27:49.713109
2022-12-14 16:27:49.745604
2022-12-14 16:27:49.746612
2022-12-14 16:27:49.778955
2022-12-14 16:27:49.778955
2022-12-14 16:27:49.779914
2022-12-14 16:27:49.813158
2022-12-14 16:27:49.813451
2022-12-14 16:27:49.814051
2022-12-14 16:27:49.846467
2022-12-14 16:27:49.846864
2022-12-14 16:27:49.880476
2022-12-14 16:27:49.880720
2022-12-14 16:27:49.880720
2022-12-14 16:27:49.913816
2022-12-14 16:27:49.914114
2022-12-14 16:27:49.914579
2022-12-14 16:27:49.947429
2022-12-14 16:27:49.947772
2022-12-14 16:27:49.980981
2022-12-14 16:27:49.981224
2022-12-14 16:27:49.981776
2022-12-14 16:27:50.014473
2022-12-14 16:27:50.014473
2022-12-14 16:27:50.015476
2022-12-14 16:27:50.047704
2022-12-14 16:27:50.048711
2022-12-14 16:27:50.081076
2022-12-14 16:27:50.081076
2022-12-14 16:27:50.081076
2022-12-14 16:27:50.115068
2022-12-14 16:27:50.115364
2022-12-14 16:27:50.115968
2022-12-14 16:27:50.148676
2022-12-14 16:27:50.149022
2022-12-14 16:27:50.182294
2022-12-14 16:27:50.182537
2022-12-14 16:27:50.183098
2022-12-14 16:27:50.215838
2022-12-14 16:27:50.216169
2022-12-14 16:27:50.216643
2022-12-14 16:27:50.249310
2022-12-14 16:27:50.249654
2022-12-14 16:27:50.282786
2022-12-14 16:27:50.282786
2022-12-14 16:27:50.283787
2022-12-14 16:27:50.316424
2022-12-14 16:27:50.317427
2022-12-14 16:27:50.317427
2022-12-14 16:27:50.348876
2022-12-14 16:27:50.349575
2022-12-14 16:27:50.383159
2022-12-14 16:27:50.383399
2022-12-14 16:27:50.383399
2022-12-14 16:27:50.416947
2022-12-14 16:27:50.417237
2022-12-14 16:27:50.417237
2022-12-14 16:27:50.450516
2022-12-14 16:27:50.450885
2022-12-14 16:27:50.484105
2022-12-14 16:27:50.484382
2022-12-14 16:27:50.484850
2022-12-14 16:27:50.517623
2022-12-14 16:27:50.517955
2022-12-14 16:27:50.517955
2022-12-14 16:27:50.551041
2022-12-14 16:27:50.551412
2022-12-14 16:27:50.584223
2022-12-14 16:27:50.585233
2022-12-14 16:27:50.585233
2022-12-14 16:27:50.617552
2022-12-14 16:27:50.617823
2022-12-14 16:27:50.617823
2022-12-14 16:27:50.651613
2022-12-14 16:27:50.651961
2022-12-14 16:27:50.685179
2022-12-14 16:27:50.685424
2022-12-14 16:27:50.685424
2022-12-14 16:27:50.718760
2022-12-14 16:27:50.719090
2022-12-14 16:27:50.719765
2022-12-14 16:27:50.752161
2022-12-14 16:27:50.752523
2022-12-14 16:27:50.785597
2022-12-14 16:27:50.785597
2022-12-14 16:27:50.786374
2022-12-14 16:27:50.819210
2022-12-14 16:27:50.819533
2022-12-14 16:27:50.820536
2022-12-14 16:27:50.852802
2022-12-14 16:27:50.852802
2022-12-14 16:27:50.886377
2022-12-14 16:27:50.886619
2022-12-14 16:27:50.886619
2022-12-14 16:27:50.919720
2022-12-14 16:27:50.919720
2022-12-14 16:27:50.920741
2022-12-14 16:27:50.953279
2022-12-14 16:27:50.953279
2022-12-14 16:27:50.986742
2022-12-14 16:27:50.986988
2022-12-14 16:27:50.986988
2022-12-14 16:27:51.020284
2022-12-14 16:27:51.020585
2022-12-14 16:27:51.021587
2022-12-14 16:27:51.053899
2022-12-14 16:27:51.054245
2022-12-14 16:27:51.087445
2022-12-14 16:27:51.087751
2022-12-14 16:27:51.087751
2022-12-14 16:27:51.121023
2022-12-14 16:27:51.121023
2022-12-14 16:27:51.122024
2022-12-14 16:27:51.154656
2022-12-14 16:27:51.154656
2022-12-14 16:27:51.188152
2022-12-14 16:27:51.188849
2022-12-14 16:27:51.188849
2022-12-14 16:27:51.221250
2022-12-14 16:27:51.222258
2022-12-14 16:27:51.222258
2022-12-14 16:27:51.254139
2022-12-14 16:27:51.254802
2022-12-14 16:27:51.287865
2022-12-14 16:27:51.288863
2022-12-14 16:27:51.288863
2022-12-14 16:27:51.322170
2022-12-14 16:27:51.322466
2022-12-14 16:27:51.322466
2022-12-14 16:27:51.355663
2022-12-14 16:27:51.356011
2022-12-14 16:27:51.389054
2022-12-14 16:27:51.389297
2022-12-14 16:27:51.389860
2022-12-14 16:27:51.422460
2022-12-14 16:27:51.422460
2022-12-14 16:27:51.423422
2022-12-14 16:27:51.456115
2022-12-14 16:27:51.457117
2022-12-14 16:27:51.488771
2022-12-14 16:27:51.489774
2022-12-14 16:27:51.489774
2022-12-14 16:27:51.523222
2022-12-14 16:27:51.523544
2022-12-14 16:27:51.524545
2022-12-14 16:27:51.556886
2022-12-14 16:27:51.557887
2022-12-14 16:27:51.590336
2022-12-14 16:27:51.590336
2022-12-14 16:27:51.591370
2022-12-14 16:27:51.623866
2022-12-14 16:27:51.624867
2022-12-14 16:27:51.624867
2022-12-14 16:27:51.657403
2022-12-14 16:27:51.658404
2022-12-14 16:27:51.690765
2022-12-14 16:27:51.690765
2022-12-14 16:27:51.691773
2022-12-14 16:27:51.724110
2022-12-14 16:27:51.725112
2022-12-14 16:27:51.725112
2022-12-14 16:27:51.757467
2022-12-14 16:27:51.758468
2022-12-14 16:27:51.790883
2022-12-14 16:27:51.791886
2022-12-14 16:27:51.791886
2022-12-14 16:27:51.824144
2022-12-14 16:27:51.825150
2022-12-14 16:27:51.825150
2022-12-14 16:27:51.857675
2022-12-14 16:27:51.858673
2022-12-14 16:27:51.891615
2022-12-14 16:27:51.891615
2022-12-14 16:27:51.892609
2022-12-14 16:27:51.925162
2022-12-14 16:27:51.925162
2022-12-14 16:27:51.926158
2022-12-14 16:27:51.958567
2022-12-14 16:27:51.958567
2022-12-14 16:27:51.991914
2022-12-14 16:27:51.992898
2022-12-14 16:27:51.992898
2022-12-14 16:27:52.026045
2022-12-14 16:27:52.026380
2022-12-14 16:27:52.026380
2022-12-14 16:27:52.059388
2022-12-14 16:27:52.059737
2022-12-14 16:27:52.093163
2022-12-14 16:27:52.093163
2022-12-14 16:27:52.094165
2022-12-14 16:27:52.126273
2022-12-14 16:27:52.126273
2022-12-14 16:27:52.127271
2022-12-14 16:27:52.159907
2022-12-14 16:27:52.160251
2022-12-14 16:27:52.193850
2022-12-14 16:27:52.194093
2022-12-14 16:27:52.194093
2022-12-14 16:27:52.227495
2022-12-14 16:27:52.227792
2022-12-14 16:27:52.228392
2022-12-14 16:27:52.260925
2022-12-14 16:27:52.260925
2022-12-14 16:27:52.294385
2022-12-14 16:27:52.294630
2022-12-14 16:27:52.295089
2022-12-14 16:27:52.327897
2022-12-14 16:27:52.328191
2022-12-14 16:27:52.328795
2022-12-14 16:27:52.361423
2022-12-14 16:27:52.361769
2022-12-14 16:27:52.394872
2022-12-14 16:27:52.395550
2022-12-14 16:27:52.395550
2022-12-14 16:27:52.427509
2022-12-14 16:27:52.428505
2022-12-14 16:27:52.428764
2022-12-14 16:27:52.462074
2022-12-14 16:27:52.462450
2022-12-14 16:27:52.495681
2022-12-14 16:27:52.495927
2022-12-14 16:27:52.496533
2022-12-14 16:27:52.529204
2022-12-14 16:27:52.529499
2022-12-14 16:27:52.529499
2022-12-14 16:27:52.562698
2022-12-14 16:27:52.563046
2022-12-14 16:27:52.596216
2022-12-14 16:27:52.596459
2022-12-14 16:27:52.596459
2022-12-14 16:27:52.629738
2022-12-14 16:27:52.630037
2022-12-14 16:27:52.630510
2022-12-14 16:27:52.663326
2022-12-14 16:27:52.663326
2022-12-14 16:27:52.696690
2022-12-14 16:27:52.696933
2022-12-14 16:27:52.696933
2022-12-14 16:27:52.730334
2022-12-14 16:27:52.730632
2022-12-14 16:27:52.730632
2022-12-14 16:27:52.763917
2022-12-14 16:27:52.764262
2022-12-14 16:27:52.797561
2022-12-14 16:27:52.797805
2022-12-14 16:27:52.797805
2022-12-14 16:27:52.830984
2022-12-14 16:27:52.831282
2022-12-14 16:27:52.831761
2022-12-14 16:27:52.864103
2022-12-14 16:27:52.864103
2022-12-14 16:27:52.898099
2022-12-14 16:27:52.898344
2022-12-14 16:27:52.898344
2022-12-14 16:27:52.931463
2022-12-14 16:27:52.932063
2022-12-14 16:27:52.933066
2022-12-14 16:27:52.964931
2022-12-14 16:27:52.964931
2022-12-14 16:27:52.998499
2022-12-14 16:27:52.998743
2022-12-14 16:27:52.999347
2022-12-14 16:27:53.032054
2022-12-14 16:27:53.032350
2022-12-14 16:27:53.032350
2022-12-14 16:27:53.065663
2022-12-14 16:27:53.066009
2022-12-14 16:27:53.098275
2022-12-14 16:27:53.098996
2022-12-14 16:27:53.098996
2022-12-14 16:27:53.132881
2022-12-14 16:27:53.133179
2022-12-14 16:27:53.133731
2022-12-14 16:27:53.166264
2022-12-14 16:27:53.166606
2022-12-14 16:27:53.199884
2022-12-14 16:27:53.199884
2022-12-14 16:27:53.200885
2022-12-14 16:27:53.233260
2022-12-14 16:27:53.233842
2022-12-14 16:27:53.234846
2022-12-14 16:27:53.265601
2022-12-14 16:27:53.266607
2022-12-14 16:27:53.300390
2022-12-14 16:27:53.300628
2022-12-14 16:27:53.301630
2022-12-14 16:27:53.333982
2022-12-14 16:27:53.334270
2022-12-14 16:27:53.334270
2022-12-14 16:27:53.367582
2022-12-14 16:27:53.367965
2022-12-14 16:27:53.401100
2022-12-14 16:27:53.401342
2022-12-14 16:27:53.401342
2022-12-14 16:27:53.434734
2022-12-14 16:27:53.435064
2022-12-14 16:27:53.435064
2022-12-14 16:27:53.468199
2022-12-14 16:27:53.468544
2022-12-14 16:27:53.501735
2022-12-14 16:27:53.501979
2022-12-14 16:27:53.501979
2022-12-14 16:27:53.535046
2022-12-14 16:27:53.535046
2022-12-14 16:27:53.536030
2022-12-14 16:27:53.567944
2022-12-14 16:27:53.568958
2022-12-14 16:27:53.602053
2022-12-14 16:27:53.602296
2022-12-14 16:27:53.603298
2022-12-14 16:27:53.635673
2022-12-14 16:27:53.635967
2022-12-14 16:27:53.635967
2022-12-14 16:27:53.669229
2022-12-14 16:27:53.669575
2022-12-14 16:27:53.702751
2022-12-14 16:27:53.702998
2022-12-14 16:27:53.703603
2022-12-14 16:27:53.736286
2022-12-14 16:27:53.736581
2022-12-14 16:27:53.737182
2022-12-14 16:27:53.769921
2022-12-14 16:27:53.770294
2022-12-14 16:27:53.803466
2022-12-14 16:27:53.803746
2022-12-14 16:27:53.804747
2022-12-14 16:27:53.836843
2022-12-14 16:27:53.837390
2022-12-14 16:27:53.837390
2022-12-14 16:27:53.869195
2022-12-14 16:27:53.870203
2022-12-14 16:27:53.903899
2022-12-14 16:27:53.904145
2022-12-14 16:27:53.904145
2022-12-14 16:27:53.937429
2022-12-14 16:27:53.937723
2022-12-14 16:27:53.937723
2022-12-14 16:27:53.970966
2022-12-14 16:27:53.970966
2022-12-14 16:27:54.004687
2022-12-14 16:27:54.004933
2022-12-14 16:27:54.005409
2022-12-14 16:27:54.038175
2022-12-14 16:27:54.038497
2022-12-14 16:27:54.039498
2022-12-14 16:27:54.072048
2022-12-14 16:27:54.072048
2022-12-14 16:27:54.104376
2022-12-14 16:27:54.104376
2022-12-14 16:27:54.105285
2022-12-14 16:27:54.138486
2022-12-14 16:27:54.138486
2022-12-14 16:27:54.139487
2022-12-14 16:27:54.171351
2022-12-14 16:27:54.172349
2022-12-14 16:27:54.204501
2022-12-14 16:27:54.205499
2022-12-14 16:27:54.205499
2022-12-14 16:27:54.238609
2022-12-14 16:27:54.238609
2022-12-14 16:27:54.239609
2022-12-14 16:27:54.272494
2022-12-14 16:27:54.273533
2022-12-14 16:27:54.306276
2022-12-14 16:27:54.307285
2022-12-14 16:27:54.307285
2022-12-14 16:27:54.338982
2022-12-14 16:27:54.339640
2022-12-14 16:27:54.339640
2022-12-14 16:27:54.373282
2022-12-14 16:27:54.373625
2022-12-14 16:27:54.406994
2022-12-14 16:27:54.407239
2022-12-14 16:27:54.407847
2022-12-14 16:27:54.440516
2022-12-14 16:27:54.440813
2022-12-14 16:27:54.440813
2022-12-14 16:27:54.473954
2022-12-14 16:27:54.474300
2022-12-14 16:27:54.507530
2022-12-14 16:27:54.507774
2022-12-14 16:27:54.507774
2022-12-14 16:27:54.541077
2022-12-14 16:27:54.542079
2022-12-14 16:27:54.542079
2022-12-14 16:27:54.574741
2022-12-14 16:27:54.575743
2022-12-14 16:27:54.608113
2022-12-14 16:27:54.608772
2022-12-14 16:27:54.609776
2022-12-14 16:27:54.640961
2022-12-14 16:27:54.640961
2022-12-14 16:27:54.641958
2022-12-14 16:27:54.674976
2022-12-14 16:27:54.675979
2022-12-14 16:27:54.708593
2022-12-14 16:27:54.708593
2022-12-14 16:27:54.709628
2022-12-14 16:27:54.741862
2022-12-14 16:27:54.742864
2022-12-14 16:27:54.742864
2022-12-14 16:27:54.775341
2022-12-14 16:27:54.776343
2022-12-14 16:27:54.808667
2022-12-14 16:27:54.808667
2022-12-14 16:27:54.809670
2022-12-14 16:27:54.842115
2022-12-14 16:27:54.842918
2022-12-14 16:27:54.843540
2022-12-14 16:27:54.875545
2022-12-14 16:27:54.876547
2022-12-14 16:27:54.908801
2022-12-14 16:27:54.909831
2022-12-14 16:27:54.909831
2022-12-14 16:27:54.943125
2022-12-14 16:27:54.943938
2022-12-14 16:27:54.944127
2022-12-14 16:27:54.976161
2022-12-14 16:27:54.976161
2022-12-14 16:27:55.009711
2022-12-14 16:27:55.009711
2022-12-14 16:27:55.010691
2022-12-14 16:27:55.043095
2022-12-14 16:27:55.044073
2022-12-14 16:27:55.044073
2022-12-14 16:27:55.076956
2022-12-14 16:27:55.077531
2022-12-14 16:27:55.110329
2022-12-14 16:27:55.110916
2022-12-14 16:27:55.111300
2022-12-14 16:27:55.144326
2022-12-14 16:27:55.145310
2022-12-14 16:27:55.145310
2022-12-14 16:27:55.177334
2022-12-14 16:27:55.177334
2022-12-14 16:27:55.211515
2022-12-14 16:27:55.211515
2022-12-14 16:27:55.212375
2022-12-14 16:27:55.245081
2022-12-14 16:27:55.245376
2022-12-14 16:27:55.245376
2022-12-14 16:27:55.278674
2022-12-14 16:27:55.279023
2022-12-14 16:27:55.312181
2022-12-14 16:27:55.312424
2022-12-14 16:27:55.312424
2022-12-14 16:27:55.345759
2022-12-14 16:27:55.346052
2022-12-14 16:27:55.346644
2022-12-14 16:27:55.379037
2022-12-14 16:27:55.379037
2022-12-14 16:27:55.412567
2022-12-14 16:27:55.412567
2022-12-14 16:27:55.413570
2022-12-14 16:27:55.446149
2022-12-14 16:27:55.446806
2022-12-14 16:27:55.446806
2022-12-14 16:27:55.478771
2022-12-14 16:27:55.479596
2022-12-14 16:27:55.513211
2022-12-14 16:27:55.513211
2022-12-14 16:27:55.514114
2022-12-14 16:27:55.546797
2022-12-14 16:27:55.546797
2022-12-14 16:27:55.547797
2022-12-14 16:27:55.580480
2022-12-14 16:27:55.580827
2022-12-14 16:27:55.614003
2022-12-14 16:27:55.614246
2022-12-14 16:27:55.614858
2022-12-14 16:27:55.647428
2022-12-14 16:27:55.647723
2022-12-14 16:27:55.648198
2022-12-14 16:27:55.680990
2022-12-14 16:27:55.681336
2022-12-14 16:27:55.714467
2022-12-14 16:27:55.714710
2022-12-14 16:27:55.715183
2022-12-14 16:27:55.747910
2022-12-14 16:27:55.747910
2022-12-14 16:27:55.748928
2022-12-14 16:27:55.780364
2022-12-14 16:27:55.781372
2022-12-14 16:27:55.814661
2022-12-14 16:27:55.814883
2022-12-14 16:27:55.814883
2022-12-14 16:27:55.848587
2022-12-14 16:27:55.848587
2022-12-14 16:27:55.849587
2022-12-14 16:27:55.882088
2022-12-14 16:27:55.882438
2022-12-14 16:27:55.915805
2022-12-14 16:27:55.916055
2022-12-14 16:27:55.916055
2022-12-14 16:27:55.949231
2022-12-14 16:27:55.949519
2022-12-14 16:27:55.950042
2022-12-14 16:27:55.982887
2022-12-14 16:27:55.983280
2022-12-14 16:27:56.016226
2022-12-14 16:27:56.016226
2022-12-14 16:27:56.017228
2022-12-14 16:27:56.050008
2022-12-14 16:27:56.050008
2022-12-14 16:27:56.051018
2022-12-14 16:27:56.082860
2022-12-14 16:27:56.082860
2022-12-14 16:27:56.116446
2022-12-14 16:27:56.116446
2022-12-14 16:27:56.117448
2022-12-14 16:27:56.149851
2022-12-14 16:27:56.149851
2022-12-14 16:27:56.150852
2022-12-14 16:27:56.183923
2022-12-14 16:27:56.184267
2022-12-14 16:27:56.217393
2022-12-14 16:27:56.217636
2022-12-14 16:27:56.217636
2022-12-14 16:27:56.250904
2022-12-14 16:27:56.251209
2022-12-14 16:27:56.251732
2022-12-14 16:27:56.284509
2022-12-14 16:27:56.284854
2022-12-14 16:27:56.317937
2022-12-14 16:27:56.318185
2022-12-14 16:27:56.318651
2022-12-14 16:27:56.351516
2022-12-14 16:27:56.351516
2022-12-14 16:27:56.352519
2022-12-14 16:27:56.384376
2022-12-14 16:27:56.385379
2022-12-14 16:27:56.418534
2022-12-14 16:27:56.418783
2022-12-14 16:27:56.419350
2022-12-14 16:27:56.452064
2022-12-14 16:27:56.452064
2022-12-14 16:27:56.452978
2022-12-14 16:27:56.485697
2022-12-14 16:27:56.486047
2022-12-14 16:27:56.519164
2022-12-14 16:27:56.519407
2022-12-14 16:27:56.519407
2022-12-14 16:27:56.552732
2022-12-14 16:27:56.553032
2022-12-14 16:27:56.553631
2022-12-14 16:27:56.586239
2022-12-14 16:27:56.586585
2022-12-14 16:27:56.619917
2022-12-14 16:27:56.620160
2022-12-14 16:27:56.620160
2022-12-14 16:27:56.653446
2022-12-14 16:27:56.653446
2022-12-14 16:27:56.654450
2022-12-14 16:27:56.686279
2022-12-14 16:27:56.686279
2022-12-14 16:27:56.720466
2022-12-14 16:27:56.720708
2022-12-14 16:27:56.720708
2022-12-14 16:27:56.754083
2022-12-14 16:27:56.754378
2022-12-14 16:27:56.754378
2022-12-14 16:27:56.787624
2022-12-14 16:27:56.787970
2022-12-14 16:27:56.820989
2022-12-14 16:27:56.821231
2022-12-14 16:27:56.821710
2022-12-14 16:27:56.854553
2022-12-14 16:27:56.854878
2022-12-14 16:27:56.854878
2022-12-14 16:27:56.888075
2022-12-14 16:27:56.888473
2022-12-14 16:27:56.920795
2022-12-14 16:27:56.920795
2022-12-14 16:27:56.921794
2022-12-14 16:27:56.955149
2022-12-14 16:27:56.955149
2022-12-14 16:27:56.956157
2022-12-14 16:27:56.988010
2022-12-14 16:27:56.988010
2022-12-14 16:27:57.022084
2022-12-14 16:27:57.022328
2022-12-14 16:27:57.022328
2022-12-14 16:27:57.055716
2022-12-14 16:27:57.056012
2022-12-14 16:27:57.056614
2022-12-14 16:27:57.089259
2022-12-14 16:27:57.089607
2022-12-14 16:27:57.122881
2022-12-14 16:27:57.123124
2022-12-14 16:27:57.123124
2022-12-14 16:27:57.156428
2022-12-14 16:27:57.156751
2022-12-14 16:27:57.157253
2022-12-14 16:27:57.189766
2022-12-14 16:27:57.190770
2022-12-14 16:27:57.223044
2022-12-14 16:27:57.223044
2022-12-14 16:27:57.224041
2022-12-14 16:27:57.256901
2022-12-14 16:27:57.256901
2022-12-14 16:27:57.257807
2022-12-14 16:27:57.290522
2022-12-14 16:27:57.290867
2022-12-14 16:27:57.323989
2022-12-14 16:27:57.324305
2022-12-14 16:27:57.324305
2022-12-14 16:27:57.357492
2022-12-14 16:27:57.357784
2022-12-14 16:27:57.357784
2022-12-14 16:27:57.391157
2022-12-14 16:27:57.391502
2022-12-14 16:27:57.424662
2022-12-14 16:27:57.424907
2022-12-14 16:27:57.424907
2022-12-14 16:27:57.458190
2022-12-14 16:27:57.458534
2022-12-14 16:27:57.458534
2022-12-14 16:27:57.491569
2022-12-14 16:27:57.491569
2022-12-14 16:27:57.524388
2022-12-14 16:27:57.524388
2022-12-14 16:27:57.525425
2022-12-14 16:27:57.558690
2022-12-14 16:27:57.558985
2022-12-14 16:27:57.559987
2022-12-14 16:27:57.592218
2022-12-14 16:27:57.592562
2022-12-14 16:27:57.625835
2022-12-14 16:27:57.625835
2022-12-14 16:27:57.626869
2022-12-14 16:27:57.659306
2022-12-14 16:27:57.659306
2022-12-14 16:27:57.660307
2022-12-14 16:27:57.692831
2022-12-14 16:27:57.693833
2022-12-14 16:27:57.726287
2022-12-14 16:27:57.726287
2022-12-14 16:27:57.727213
2022-12-14 16:27:57.759834
2022-12-14 16:27:57.760837
2022-12-14 16:27:57.760837
2022-12-14 16:27:57.793310
2022-12-14 16:27:57.794275
2022-12-14 16:27:57.826603
2022-12-14 16:27:57.826603
2022-12-14 16:27:57.827612
2022-12-14 16:27:57.860041
2022-12-14 16:27:57.860041
2022-12-14 16:27:57.860041
2022-12-14 16:27:57.892947
2022-12-14 16:27:57.893944
2022-12-14 16:27:57.926534
2022-12-14 16:27:57.927536
2022-12-14 16:27:57.927536
2022-12-14 16:27:57.959854
2022-12-14 16:27:57.960856
2022-12-14 16:27:57.960856
2022-12-14 16:27:57.993952
2022-12-14 16:27:57.994594
2022-12-14 16:27:58.027344
2022-12-14 16:27:58.027344
2022-12-14 16:27:58.028347
2022-12-14 16:27:58.060787
2022-12-14 16:27:58.060787
2022-12-14 16:27:58.061806
2022-12-14 16:27:58.094723
2022-12-14 16:27:58.095174
2022-12-14 16:27:58.127497
2022-12-14 16:27:58.128500
2022-12-14 16:27:58.129498
2022-12-14 16:27:58.161588
2022-12-14 16:27:58.162061
2022-12-14 16:27:58.162061
2022-12-14 16:27:58.195820
2022-12-14 16:27:58.196167
2022-12-14 16:27:58.228876
2022-12-14 16:27:58.229528
2022-12-14 16:27:58.229528
2022-12-14 16:27:58.262781
2022-12-14 16:27:58.263078
2022-12-14 16:27:58.263078
2022-12-14 16:27:58.295725
2022-12-14 16:27:58.296152
2022-12-14 16:27:58.329593
2022-12-14 16:27:58.329593
2022-12-14 16:27:58.330455
2022-12-14 16:27:58.363274
2022-12-14 16:27:58.363568
2022-12-14 16:27:58.363568
2022-12-14 16:27:58.396823
2022-12-14 16:27:58.397168
2022-12-14 16:27:58.429798
2022-12-14 16:27:58.429798
2022-12-14 16:27:58.430805
2022-12-14 16:27:58.463776
2022-12-14 16:27:58.463776
2022-12-14 16:27:58.464782
2022-12-14 16:27:58.496986
2022-12-14 16:27:58.496986
2022-12-14 16:27:58.530959
2022-12-14 16:27:58.531204
2022-12-14 16:27:58.531891
2022-12-14 16:27:58.564367
2022-12-14 16:27:58.564367
2022-12-14 16:27:58.565367
2022-12-14 16:27:58.598008
2022-12-14 16:27:58.598353
2022-12-14 16:27:58.631173
2022-12-14 16:27:58.631417
2022-12-14 16:27:58.632021
2022-12-14 16:27:58.665130
2022-12-14 16:27:58.665427
2022-12-14 16:27:58.665948
2022-12-14 16:27:58.698731
2022-12-14 16:27:58.699074
2022-12-14 16:27:58.732087
2022-12-14 16:27:58.732326
2022-12-14 16:27:58.732797
2022-12-14 16:27:58.765712
2022-12-14 16:27:58.765712
2022-12-14 16:27:58.766658
2022-12-14 16:27:58.799042
2022-12-14 16:27:58.800049
2022-12-14 16:27:58.831516
2022-12-14 16:27:58.832511
2022-12-14 16:27:58.832511
2022-12-14 16:27:58.866314
2022-12-14 16:27:58.866601
2022-12-14 16:27:58.867194
2022-12-14 16:27:58.900042
2022-12-14 16:27:58.900381
2022-12-14 16:27:58.933379
2022-12-14 16:27:58.933648
2022-12-14 16:27:58.933648
2022-12-14 16:27:58.966933
2022-12-14 16:27:58.967233
2022-12-14 16:27:58.967751
2022-12-14 16:27:59.000530
2022-12-14 16:27:59.000530
2022-12-14 16:27:59.033924
2022-12-14 16:27:59.034168
2022-12-14 16:27:59.034632
2022-12-14 16:27:59.067634
2022-12-14 16:27:59.067634
2022-12-14 16:27:59.068635
2022-12-14 16:27:59.101030
2022-12-14 16:27:59.101030
2022-12-14 16:27:59.134408
2022-12-14 16:27:59.134655
2022-12-14 16:27:59.134655
2022-12-14 16:27:59.168003
2022-12-14 16:27:59.168297
2022-12-14 16:27:59.168875
2022-12-14 16:27:59.201609
2022-12-14 16:27:59.201956
2022-12-14 16:27:59.235098
2022-12-14 16:27:59.235346
2022-12-14 16:27:59.235346
2022-12-14 16:27:59.268693
2022-12-14 16:27:59.268995
2022-12-14 16:27:59.268995
2022-12-14 16:27:59.302233
2022-12-14 16:27:59.302580
2022-12-14 16:27:59.335855
2022-12-14 16:27:59.336108
2022-12-14 16:27:59.336108
2022-12-14 16:27:59.369238
2022-12-14 16:27:59.369238
2022-12-14 16:27:59.370244
2022-12-14 16:27:59.403190
2022-12-14 16:27:59.403190
2022-12-14 16:27:59.436198
2022-12-14 16:27:59.436441
2022-12-14 16:27:59.436441
2022-12-14 16:27:59.469752
2022-12-14 16:27:59.470046
2022-12-14 16:27:59.470046
2022-12-14 16:27:59.503371
2022-12-14 16:27:59.503717
2022-12-14 16:27:59.536849
2022-12-14 16:27:59.536849
2022-12-14 16:27:59.537709
2022-12-14 16:27:59.570456
2022-12-14 16:27:59.570456
2022-12-14 16:27:59.571456
2022-12-14 16:27:59.604016
2022-12-14 16:27:59.604363
2022-12-14 16:27:59.637630
2022-12-14 16:27:59.637871
2022-12-14 16:27:59.637871
2022-12-14 16:27:59.671143
2022-12-14 16:27:59.671438
2022-12-14 16:27:59.671438
2022-12-14 16:27:59.704629
2022-12-14 16:27:59.705244
2022-12-14 16:27:59.737134
2022-12-14 16:27:59.737748
2022-12-14 16:27:59.737748
2022-12-14 16:27:59.771700
2022-12-14 16:27:59.771995
2022-12-14 16:27:59.771995
2022-12-14 16:27:59.805250
2022-12-14 16:27:59.805595
2022-12-14 16:27:59.838827
2022-12-14 16:27:59.839074
2022-12-14 16:27:59.839680
2022-12-14 16:27:59.872323
2022-12-14 16:27:59.872621
2022-12-14 16:27:59.873226
2022-12-14 16:27:59.905940
2022-12-14 16:27:59.906287
2022-12-14 16:27:59.939370
2022-12-14 16:27:59.939649
2022-12-14 16:27:59.939649
2022-12-14 16:27:59.972787
2022-12-14 16:27:59.973661
2022-12-14 16:27:59.973661
2022-12-14 16:28:00.005841
2022-12-14 16:28:00.005841
2022-12-14 16:28:00.038753
2022-12-14 16:28:00.039749
2022-12-14 16:28:00.039749
2022-12-14 16:28:00.073392
2022-12-14 16:28:00.073690
2022-12-14 16:28:00.073690
2022-12-14 16:28:00.106953
2022-12-14 16:28:00.107299
2022-12-14 16:28:00.140463
2022-12-14 16:28:00.140706
2022-12-14 16:28:00.141322
2022-12-14 16:28:00.174022
2022-12-14 16:28:00.174316
2022-12-14 16:28:00.174316
2022-12-14 16:28:00.207558
2022-12-14 16:28:00.207903
2022-12-14 16:28:00.241097
2022-12-14 16:28:00.241097
2022-12-14 16:28:00.242098
2022-12-14 16:28:00.274875
2022-12-14 16:28:00.274875
2022-12-14 16:28:00.275876
2022-12-14 16:28:00.307266
2022-12-14 16:28:00.308274
2022-12-14 16:28:00.340863
2022-12-14 16:28:00.340863
2022-12-14 16:28:00.341860
2022-12-14 16:28:00.375196
2022-12-14 16:28:00.375491
2022-12-14 16:28:00.375491
2022-12-14 16:28:00.408796
2022-12-14 16:28:00.409144
2022-12-14 16:28:00.442238
2022-12-14 16:28:00.442484
2022-12-14 16:28:00.442484
2022-12-14 16:28:00.475025
2022-12-14 16:28:00.475025
2022-12-14 16:28:00.476025
2022-12-14 16:28:00.508688
2022-12-14 16:28:00.508688
2022-12-14 16:28:00.542037
2022-12-14 16:28:00.542037
2022-12-14 16:28:00.543036
2022-12-14 16:28:00.576404
2022-12-14 16:28:00.577419
2022-12-14 16:28:00.577419
2022-12-14 16:28:00.609052
2022-12-14 16:28:00.609647
2022-12-14 16:28:00.643466
2022-12-14 16:28:00.643708
2022-12-14 16:28:00.643708
2022-12-14 16:28:00.677057
2022-12-14 16:28:00.678090
2022-12-14 16:28:00.678090
2022-12-14 16:28:00.710491
2022-12-14 16:28:00.711493
2022-12-14 16:28:00.743924
2022-12-14 16:28:00.743924
2022-12-14 16:28:00.744963
2022-12-14 16:28:00.777411
2022-12-14 16:28:00.777411
2022-12-14 16:28:00.778405
2022-12-14 16:28:00.811037
2022-12-14 16:28:00.811796
2022-12-14 16:28:00.844367
2022-12-14 16:28:00.845122
2022-12-14 16:28:00.845122
2022-12-14 16:28:00.877774
2022-12-14 16:28:00.878525
2022-12-14 16:28:00.879530
2022-12-14 16:28:00.912119
2022-12-14 16:28:00.912119
2022-12-14 16:28:00.944147
2022-12-14 16:28:00.945142
2022-12-14 16:28:00.945142
2022-12-14 16:28:00.977797
2022-12-14 16:28:00.978793
2022-12-14 16:28:00.978793
2022-12-14 16:28:01.011765
2022-12-14 16:28:01.012145
2022-12-14 16:28:01.045046
2022-12-14 16:28:01.045046
2022-12-14 16:28:01.046052
2022-12-14 16:28:01.078423
2022-12-14 16:28:01.079093
2022-12-14 16:28:01.079093
2022-12-14 16:28:01.112093
2022-12-14 16:28:01.112093
2022-12-14 16:28:01.146173
2022-12-14 16:28:01.146173
2022-12-14 16:28:01.147030
2022-12-14 16:28:01.179718
2022-12-14 16:28:01.180017
2022-12-14 16:28:01.180017
2022-12-14 16:28:01.213269
2022-12-14 16:28:01.213269
2022-12-14 16:28:01.246082
2022-12-14 16:28:01.246082
2022-12-14 16:28:01.247097
2022-12-14 16:28:01.279668
2022-12-14 16:28:01.280665
2022-12-14 16:28:01.280665
2022-12-14 16:28:01.314028
2022-12-14 16:28:01.314375
2022-12-14 16:28:01.347495
2022-12-14 16:28:01.347739
2022-12-14 16:28:01.347739
2022-12-14 16:28:01.381030
2022-12-14 16:28:01.381324
2022-12-14 16:28:01.381324
2022-12-14 16:28:01.414612
2022-12-14 16:28:01.414959
2022-12-14 16:28:01.448076
2022-12-14 16:28:01.448320
2022-12-14 16:28:01.448786
2022-12-14 16:28:01.481497
2022-12-14 16:28:01.481786
2022-12-14 16:28:01.482380
2022-12-14 16:28:01.515095
2022-12-14 16:28:01.515435
2022-12-14 16:28:01.548545
2022-12-14 16:28:01.549105
2022-12-14 16:28:01.550142
2022-12-14 16:28:01.581035
2022-12-14 16:28:01.582030
2022-12-14 16:28:01.582030
2022-12-14 16:28:01.615626
2022-12-14 16:28:01.615626
2022-12-14 16:28:01.649201
2022-12-14 16:28:01.649441
2022-12-14 16:28:01.649441
2022-12-14 16:28:01.682914
2022-12-14 16:28:01.683207
2022-12-14 16:28:01.684209
2022-12-14 16:28:01.716305
2022-12-14 16:28:01.716647
2022-12-14 16:28:01.749900
2022-12-14 16:28:01.750146
2022-12-14 16:28:01.750621
2022-12-14 16:28:01.783505
2022-12-14 16:28:01.783801
2022-12-14 16:28:01.784803
2022-12-14 16:28:01.816898
2022-12-14 16:28:01.816898
2022-12-14 16:28:01.850341
2022-12-14 16:28:01.851071
2022-12-14 16:28:01.851071
2022-12-14 16:28:01.883247
2022-12-14 16:28:01.883738
2022-12-14 16:28:01.883738
2022-12-14 16:28:01.916646
2022-12-14 16:28:01.917645
2022-12-14 16:28:01.951049
2022-12-14 16:28:01.951293
2022-12-14 16:28:01.951293
2022-12-14 16:28:01.984576
2022-12-14 16:28:01.984871
2022-12-14 16:28:01.984871
2022-12-14 16:28:02.018199
2022-12-14 16:28:02.018199
2022-12-14 16:28:02.051639
2022-12-14 16:28:02.051883
2022-12-14 16:28:02.052406
2022-12-14 16:28:02.085279
2022-12-14 16:28:02.085576
2022-12-14 16:28:02.086180
2022-12-14 16:28:02.118210
2022-12-14 16:28:02.118210
2022-12-14 16:28:02.152090
2022-12-14 16:28:02.152334
2022-12-14 16:28:02.152334
2022-12-14 16:28:02.185734
2022-12-14 16:28:02.186031
2022-12-14 16:28:02.186031
2022-12-14 16:28:02.219380
2022-12-14 16:28:02.219726
2022-12-14 16:28:02.252994
2022-12-14 16:28:02.253236
2022-12-14 16:28:02.253699
2022-12-14 16:28:02.286305
2022-12-14 16:28:02.286305
2022-12-14 16:28:02.287293
2022-12-14 16:28:02.319920
2022-12-14 16:28:02.320270
2022-12-14 16:28:02.353446
2022-12-14 16:28:02.353446
2022-12-14 16:28:02.354447
2022-12-14 16:28:02.386919
2022-12-14 16:28:02.387630
2022-12-14 16:28:02.387630
2022-12-14 16:28:02.419497
2022-12-14 16:28:02.420503
2022-12-14 16:28:02.453916
2022-12-14 16:28:02.454159
2022-12-14 16:28:02.455161
2022-12-14 16:28:02.487436
2022-12-14 16:28:02.487728
2022-12-14 16:28:02.487728
2022-12-14 16:28:02.521036
2022-12-14 16:28:02.521381
2022-12-14 16:28:02.554647
2022-12-14 16:28:02.554890
2022-12-14 16:28:02.554890
2022-12-14 16:28:02.588140
2022-12-14 16:28:02.588435
2022-12-14 16:28:02.588435
2022-12-14 16:28:02.621719
2022-12-14 16:28:02.622064
2022-12-14 16:28:02.655353
2022-12-14 16:28:02.655597
2022-12-14 16:28:02.655597
2022-12-14 16:28:02.688740
2022-12-14 16:28:02.688740
2022-12-14 16:28:02.689742
2022-12-14 16:28:02.722230
2022-12-14 16:28:02.722937
2022-12-14 16:28:02.755786
2022-12-14 16:28:02.756029
2022-12-14 16:28:02.757031
2022-12-14 16:28:02.789286
2022-12-14 16:28:02.789580
2022-12-14 16:28:02.789580
2022-12-14 16:28:02.822842
2022-12-14 16:28:02.823190
2022-12-14 16:28:02.856395
2022-12-14 16:28:02.856640
2022-12-14 16:28:02.856640
2022-12-14 16:28:02.889970
2022-12-14 16:28:02.890265
2022-12-14 16:28:02.890871
2022-12-14 16:28:02.923534
2022-12-14 16:28:02.923911
2022-12-14 16:28:02.957109
2022-12-14 16:28:02.957353
2022-12-14 16:28:02.957353
2022-12-14 16:28:02.990463
2022-12-14 16:28:02.991060
2022-12-14 16:28:02.992064
2022-12-14 16:28:03.022944
2022-12-14 16:28:03.023910
2022-12-14 16:28:03.057537
2022-12-14 16:28:03.057782
2022-12-14 16:28:03.058347
2022-12-14 16:28:03.091022
2022-12-14 16:28:03.091319
2022-12-14 16:28:03.091919
2022-12-14 16:28:03.124731
2022-12-14 16:28:03.125075
2022-12-14 16:28:03.158285
2022-12-14 16:28:03.158528
2022-12-14 16:28:03.158528
2022-12-14 16:28:03.191837
2022-12-14 16:28:03.192133
2022-12-14 16:28:03.192599
2022-12-14 16:28:03.225344
2022-12-14 16:28:03.225689
2022-12-14 16:28:03.258934
2022-12-14 16:28:03.259179
2022-12-14 16:28:03.259700
2022-12-14 16:28:03.292271
2022-12-14 16:28:03.292271
2022-12-14 16:28:03.293274
2022-12-14 16:28:03.325775
2022-12-14 16:28:03.326782
2022-12-14 16:28:03.358788
2022-12-14 16:28:03.358788
2022-12-14 16:28:03.359785
2022-12-14 16:28:03.392877
2022-12-14 16:28:03.393171
2022-12-14 16:28:03.393171
2022-12-14 16:28:03.426360
2022-12-14 16:28:03.426709
2022-12-14 16:28:03.460038
2022-12-14 16:28:03.460280
2022-12-14 16:28:03.460280
2022-12-14 16:28:03.493565
2022-12-14 16:28:03.493859
2022-12-14 16:28:03.493859
2022-12-14 16:28:03.527140
2022-12-14 16:28:03.527485
2022-12-14 16:28:03.560684
2022-12-14 16:28:03.560928
2022-12-14 16:28:03.561485
2022-12-14 16:28:03.594084
2022-12-14 16:28:03.594378
2022-12-14 16:28:03.594378
2022-12-14 16:28:03.627787
2022-12-14 16:28:03.628137
2022-12-14 16:28:03.661229
2022-12-14 16:28:03.661719
2022-12-14 16:28:03.661719
2022-12-14 16:28:03.693617
2022-12-14 16:28:03.694641
2022-12-14 16:28:03.694641
2022-12-14 16:28:03.728049
2022-12-14 16:28:03.728049
2022-12-14 16:28:03.761629
2022-12-14 16:28:03.761629
2022-12-14 16:28:03.762635
2022-12-14 16:28:03.794491
2022-12-14 16:28:03.794491
2022-12-14 16:28:03.795444
2022-12-14 16:28:03.828735
2022-12-14 16:28:03.829740
2022-12-14 16:28:03.862150
2022-12-14 16:28:03.862519
2022-12-14 16:28:03.863537
2022-12-14 16:28:03.895343
2022-12-14 16:28:03.896098
2022-12-14 16:28:03.896415
2022-12-14 16:28:03.929117
2022-12-14 16:28:03.929117
2022-12-14 16:28:03.962454
2022-12-14 16:28:03.962454
2022-12-14 16:28:03.963458
2022-12-14 16:28:03.996160
2022-12-14 16:28:03.996160
2022-12-14 16:28:03.997166
2022-12-14 16:28:04.028884
2022-12-14 16:28:04.029879
2022-12-14 16:28:04.062899
2022-12-14 16:28:04.062899
2022-12-14 16:28:04.063900
2022-12-14 16:28:04.096206
2022-12-14 16:28:04.096779
2022-12-14 16:28:04.096779
2022-12-14 16:28:04.129609
2022-12-14 16:28:04.130612
2022-12-14 16:28:04.163582
2022-12-14 16:28:04.163897
2022-12-14 16:28:04.163897
2022-12-14 16:28:04.197111
2022-12-14 16:28:04.197687
2022-12-14 16:28:04.197687
2022-12-14 16:28:04.230636
2022-12-14 16:28:04.230987
2022-12-14 16:28:04.264460
2022-12-14 16:28:04.264697
2022-12-14 16:28:04.264697
2022-12-14 16:28:04.298069
2022-12-14 16:28:04.298360
2022-12-14 16:28:04.298829
2022-12-14 16:28:04.331465
2022-12-14 16:28:04.331465
2022-12-14 16:28:04.364810
2022-12-14 16:28:04.365426
2022-12-14 16:28:04.365426
2022-12-14 16:28:04.398559
2022-12-14 16:28:04.398559
2022-12-14 16:28:04.399573
2022-12-14 16:28:04.432111
2022-12-14 16:28:04.432454
2022-12-14 16:28:04.465832
2022-12-14 16:28:04.466072
2022-12-14 16:28:04.466672
2022-12-14 16:28:04.499248
2022-12-14 16:28:04.499539
2022-12-14 16:28:04.500095
2022-12-14 16:28:04.532828
2022-12-14 16:28:04.533175
2022-12-14 16:28:04.566321
2022-12-14 16:28:04.566565
2022-12-14 16:28:04.567170
2022-12-14 16:28:04.599819
2022-12-14 16:28:04.600113
2022-12-14 16:28:04.600113
2022-12-14 16:28:04.633283
2022-12-14 16:28:04.633674
2022-12-14 16:28:04.665647
2022-12-14 16:28:04.666650
2022-12-14 16:28:04.666650
2022-12-14 16:28:04.700400
2022-12-14 16:28:04.700697
2022-12-14 16:28:04.701253
2022-12-14 16:28:04.734007
2022-12-14 16:28:04.734352
2022-12-14 16:28:04.767672
2022-12-14 16:28:04.767915
2022-12-14 16:28:04.767915
2022-12-14 16:28:04.801066
2022-12-14 16:28:04.801360
2022-12-14 16:28:04.801360
2022-12-14 16:28:04.834608
2022-12-14 16:28:04.834959
2022-12-14 16:28:04.868265
2022-12-14 16:28:04.868508
2022-12-14 16:28:04.868508
2022-12-14 16:28:04.901685
2022-12-14 16:28:04.901979
2022-12-14 16:28:04.902455
2022-12-14 16:28:04.935181
2022-12-14 16:28:04.935181
2022-12-14 16:28:04.968565
2022-12-14 16:28:04.968565
2022-12-14 16:28:04.969384
2022-12-14 16:28:05.001926
2022-12-14 16:28:05.001926
2022-12-14 16:28:05.002933
2022-12-14 16:28:05.035592
2022-12-14 16:28:05.035592
2022-12-14 16:28:05.069251
2022-12-14 16:28:05.069494
2022-12-14 16:28:05.070145
2022-12-14 16:28:05.102864
2022-12-14 16:28:05.103163
2022-12-14 16:28:05.103163
2022-12-14 16:28:05.136408
2022-12-14 16:28:05.136754
2022-12-14 16:28:05.170019
2022-12-14 16:28:05.170019
2022-12-14 16:28:05.170840
2022-12-14 16:28:05.203602
2022-12-14 16:28:05.203900
2022-12-14 16:28:05.204504
2022-12-14 16:28:05.237020
2022-12-14 16:28:05.237369
2022-12-14 16:28:05.270439
2022-12-14 16:28:05.270439
2022-12-14 16:28:05.271445
2022-12-14 16:28:05.302912
2022-12-14 16:28:05.303919
2022-12-14 16:28:05.303919
2022-12-14 16:28:05.337455
2022-12-14 16:28:05.337798
2022-12-14 16:28:05.370989
2022-12-14 16:28:05.371233
2022-12-14 16:28:05.371233
2022-12-14 16:28:05.404597
2022-12-14 16:28:05.404892
2022-12-14 16:28:05.404892
2022-12-14 16:28:05.438184
2022-12-14 16:28:05.438531
2022-12-14 16:28:05.471677
2022-12-14 16:28:05.471920
2022-12-14 16:28:05.472403
2022-12-14 16:28:05.505316
2022-12-14 16:28:05.505611
2022-12-14 16:28:05.505611
2022-12-14 16:28:05.538828
2022-12-14 16:28:05.539180
2022-12-14 16:28:05.572275
2022-12-14 16:28:05.572275
2022-12-14 16:28:05.573278
2022-12-14 16:28:05.605842
2022-12-14 16:28:05.605842
2022-12-14 16:28:05.606843
2022-12-14 16:28:05.638742
2022-12-14 16:28:05.639334
2022-12-14 16:28:05.672801
2022-12-14 16:28:05.673044
2022-12-14 16:28:05.673044
2022-12-14 16:28:05.706362
2022-12-14 16:28:05.706664
2022-12-14 16:28:05.707273
2022-12-14 16:28:05.739965
2022-12-14 16:28:05.740315
2022-12-14 16:28:05.773550
2022-12-14 16:28:05.773886
2022-12-14 16:28:05.774394
2022-12-14 16:28:05.807064
2022-12-14 16:28:05.807064
2022-12-14 16:28:05.807977
2022-12-14 16:28:05.840470
2022-12-14 16:28:05.840470
2022-12-14 16:28:05.874078
2022-12-14 16:28:05.874546
2022-12-14 16:28:05.874546
2022-12-14 16:28:05.906389
2022-12-14 16:28:05.907413
2022-12-14 16:28:05.907413
2022-12-14 16:28:05.940534
2022-12-14 16:28:05.940534
2022-12-14 16:28:05.974288
2022-12-14 16:28:05.974288
2022-12-14 16:28:05.975064
2022-12-14 16:28:06.008092
2022-12-14 16:28:06.008388
2022-12-14 16:28:06.008388
2022-12-14 16:28:06.041509
2022-12-14 16:28:06.041509
2022-12-14 16:28:06.075096
2022-12-14 16:28:06.075372
2022-12-14 16:28:06.075372
2022-12-14 16:28:06.108653
2022-12-14 16:28:06.108950
2022-12-14 16:28:06.108950
2022-12-14 16:28:06.141637
2022-12-14 16:28:06.142635
2022-12-14 16:28:06.175873
2022-12-14 16:28:06.176115
2022-12-14 16:28:06.176115
2022-12-14 16:28:06.209263
2022-12-14 16:28:06.209558
2022-12-14 16:28:06.209558
2022-12-14 16:28:06.242742
2022-12-14 16:28:06.242742
2022-12-14 16:28:06.276328
2022-12-14 16:28:06.276571
2022-12-14 16:28:06.276571
2022-12-14 16:28:06.309931
2022-12-14 16:28:06.310271
2022-12-14 16:28:06.310876
2022-12-14 16:28:06.343361
2022-12-14 16:28:06.343361
2022-12-14 16:28:06.376815
2022-12-14 16:28:06.377680
2022-12-14 16:28:06.377680
2022-12-14 16:28:06.409421
2022-12-14 16:28:06.410430
2022-12-14 16:28:06.410430
2022-12-14 16:28:06.443970
2022-12-14 16:28:06.444314
2022-12-14 16:28:06.476466
2022-12-14 16:28:06.477430
2022-12-14 16:28:06.477430
2022-12-14 16:28:06.511147
2022-12-14 16:28:06.511441
2022-12-14 16:28:06.512004
2022-12-14 16:28:06.544664
2022-12-14 16:28:06.545007
2022-12-14 16:28:06.576979
2022-12-14 16:28:06.577980
2022-12-14 16:28:06.577980
2022-12-14 16:28:06.610948
2022-12-14 16:28:06.610948
2022-12-14 16:28:06.611946
2022-12-14 16:28:06.645282
2022-12-14 16:28:06.645282
2022-12-14 16:28:06.678731
2022-12-14 16:28:06.679741
2022-12-14 16:28:06.679741
2022-12-14 16:28:06.711780
2022-12-14 16:28:06.712060
2022-12-14 16:28:06.712060
2022-12-14 16:28:06.745880
2022-12-14 16:28:06.745880
2022-12-14 16:28:06.779215
2022-12-14 16:28:06.780137
2022-12-14 16:28:06.780137
2022-12-14 16:28:06.812708
2022-12-14 16:28:06.813377
2022-12-14 16:28:06.813377
2022-12-14 16:28:06.846338
2022-12-14 16:28:06.846338
2022-12-14 16:28:06.879907
2022-12-14 16:28:06.880785
2022-12-14 16:28:06.880785
2022-12-14 16:28:06.913327
2022-12-14 16:28:06.913836
2022-12-14 16:28:06.913836
2022-12-14 16:28:06.946890
2022-12-14 16:28:06.946890
2022-12-14 16:28:06.979592
2022-12-14 16:28:06.980599
2022-12-14 16:28:06.980599
2022-12-14 16:28:07.013434
2022-12-14 16:28:07.013434
2022-12-14 16:28:07.014565
2022-12-14 16:28:07.046633
2022-12-14 16:28:07.047445
2022-12-14 16:28:07.079900
2022-12-14 16:28:07.080902
2022-12-14 16:28:07.080902
2022-12-14 16:28:07.113969
2022-12-14 16:28:07.114398
2022-12-14 16:28:07.114398
2022-12-14 16:28:07.147654
2022-12-14 16:28:07.147977
2022-12-14 16:28:07.181660
2022-12-14 16:28:07.181900
2022-12-14 16:28:07.181900
2022-12-14 16:28:07.215026
2022-12-14 16:28:07.215026
2022-12-14 16:28:07.215962
2022-12-14 16:28:07.248395
2022-12-14 16:28:07.248967
2022-12-14 16:28:07.281807
2022-12-14 16:28:07.282480
2022-12-14 16:28:07.282480
2022-12-14 16:28:07.315448
2022-12-14 16:28:07.315448
2022-12-14 16:28:07.316483
2022-12-14 16:28:07.349272
2022-12-14 16:28:07.349617
2022-12-14 16:28:07.382851
2022-12-14 16:28:07.383094
2022-12-14 16:28:07.383094
2022-12-14 16:28:07.416363
2022-12-14 16:28:07.416658
2022-12-14 16:28:07.417212
2022-12-14 16:28:07.449818
2022-12-14 16:28:07.449818
2022-12-14 16:28:07.483296
2022-12-14 16:28:07.483296
2022-12-14 16:28:07.484166
2022-12-14 16:28:07.516602
2022-12-14 16:28:07.516602
2022-12-14 16:28:07.517607
2022-12-14 16:28:07.550036
2022-12-14 16:28:07.550358
2022-12-14 16:28:07.583912
2022-12-14 16:28:07.583912
2022-12-14 16:28:07.584913
2022-12-14 16:28:07.617688
2022-12-14 16:28:07.617983
2022-12-14 16:28:07.617983
2022-12-14 16:28:07.651067
2022-12-14 16:28:07.651411
2022-12-14 16:28:07.684750
2022-12-14 16:28:07.684993
2022-12-14 16:28:07.684993
2022-12-14 16:28:07.718151
2022-12-14 16:28:07.718446
2022-12-14 16:28:07.718962
2022-12-14 16:28:07.751804
2022-12-14 16:28:07.752148
2022-12-14 16:28:07.785240
2022-12-14 16:28:07.785485
2022-12-14 16:28:07.785485
2022-12-14 16:28:07.818752
2022-12-14 16:28:07.819614
2022-12-14 16:28:07.819614
2022-12-14 16:28:07.852135
2022-12-14 16:28:07.853164
2022-12-14 16:28:07.884972
2022-12-14 16:28:07.885981
2022-12-14 16:28:07.885981
2022-12-14 16:28:07.919205
2022-12-14 16:28:07.919499
2022-12-14 16:28:07.919499
2022-12-14 16:28:07.953065
2022-12-14 16:28:07.953453
2022-12-14 16:28:07.986609
2022-12-14 16:28:07.986888
2022-12-14 16:28:07.986888
2022-12-14 16:28:08.019995
2022-12-14 16:28:08.020292
2022-12-14 16:28:08.020769
2022-12-14 16:28:08.053613
2022-12-14 16:28:08.053961
2022-12-14 16:28:08.087053
2022-12-14 16:28:08.087298
2022-12-14 16:28:08.087298
2022-12-14 16:28:08.120647
2022-12-14 16:28:08.120647
2022-12-14 16:28:08.121649
2022-12-14 16:28:08.153497
2022-12-14 16:28:08.153852
2022-12-14 16:28:08.187574
2022-12-14 16:28:08.187816
2022-12-14 16:28:08.188425
2022-12-14 16:28:08.221142
2022-12-14 16:28:08.221436
2022-12-14 16:28:08.222041
2022-12-14 16:28:08.254690
2022-12-14 16:28:08.255039
2022-12-14 16:28:08.288198
2022-12-14 16:28:08.288443
2022-12-14 16:28:08.288923
2022-12-14 16:28:08.321884
2022-12-14 16:28:08.322181
2022-12-14 16:28:08.322181
2022-12-14 16:28:08.355235
2022-12-14 16:28:08.355235
2022-12-14 16:28:08.388817
2022-12-14 16:28:08.389823
2022-12-14 16:28:08.389823
2022-12-14 16:28:08.421944
2022-12-14 16:28:08.422217
2022-12-14 16:28:08.422701
2022-12-14 16:28:08.455910
2022-12-14 16:28:08.456254
2022-12-14 16:28:08.489357
2022-12-14 16:28:08.489637
2022-12-14 16:28:08.490639
2022-12-14 16:28:08.523045
2022-12-14 16:28:08.523339
2022-12-14 16:28:08.523339
2022-12-14 16:28:08.556657
2022-12-14 16:28:08.557045
2022-12-14 16:28:08.590124
2022-12-14 16:28:08.590368
2022-12-14 16:28:08.590926
2022-12-14 16:28:08.623528
2022-12-14 16:28:08.623822
2022-12-14 16:28:08.623822
2022-12-14 16:28:08.657017
2022-12-14 16:28:08.657946
2022-12-14 16:28:08.689835
2022-12-14 16:28:08.690841
2022-12-14 16:28:08.690841
2022-12-14 16:28:08.724140
