HR_time,RR-interval,heart_rate
1.2573438815837417,829.0,70.60450362782757
2.1500580375081983,892.0,69.2273278702518
3.030198754616818,880.0,69.98047086267604
3.8348988388304126,804.0,74.53708485169491
4.57673172896482,741.0,77.06190707391713
5.368858374362578,792.0,77.06190707391713
6.1735584585761725,804.0,72.19413541666665
7.078846053316466,905.0,66.58341936728394
8.097294597399298,1018.0,65.47056628892574
8.939714998060404,842.0,66.77010713859893
9.794708837537348,855.0,68.92216260959503
10.71256987109348,917.0,79.76038389447498
11.290948056622002,578.0,103.15211918859262
11.718444976360473,427.0,100.76058193500091
12.749466959259141,641.0,87.39000164514584
13.692474870446947,389.0,63.99826635102821
14.547468709923892,540.0,66.0953500688924
15.477903182295861,402.0,65.02150163007386
16.471204848747018,855.0,61.764424563804305
17.464506515198174,930.0,62.67266856837225
18.35722067112263,993.0,63.74651700719082
19.300228582310435,993.0,61.09139724088118
20.444411514551643,892.0,69.27723743589743
21.098230332975188,943.0,91.05894698544697
21.56344756916117,1144.0,110.57098991925734
22.10410543824218,653.0,117.85413094489837
22.632189868507353,465.0,96.65347637251777
23.550050902063482,540.0,80.59134234559
24.505632252067127,528.0,62.11703340250056
25.536654234965795,553.0,74.90655871518669
26.115032420494316,364.0,93.74306134676561
26.617969973127813,955.0,118.52942584541061
27.07061377049796,1031.0,121.82267222222221
27.59869820076313,578.0,121.82267222222221
28.10163575339663,502.0,124.42175392156861
28.529132673135102,452.0,129.5396368044515
28.994349909321084,528.0,125.1211979155626
29.56015465603377,502.0,113.68523843843842
30.125959402746453,427.0,112.55391695906431
30.603750077748273,465.0,116.9723558479532
31.10668763038177,565.0,116.9723558479532
31.672492377094454,565.0,126.42436433691753
32.06226898038542,477.0,121.2375012934393
32.64064716591394,502.0,106.28278505412305
33.62137539354926,565.0,74.3699062185605
34.65239737644792,389.0,60.44845562567513
35.620552165267405,578.0,76.20652439024389
36.17378347316425,980.0,105.00965151515149
36.58870695408689,1031.0,106.7553672641912
37.48142111001134,968.0,91.81301029449423
38.424429021199145,553.0,93.31929627934272
38.82677906330595,414.0,103.37794416666665
39.44287756528198,892.0,102.30409572784808
40.436179231733135,943.0,74.68885267229254
41.34146682647343,402.0,65.61858796641019
42.196460665950376,616.0,95.19136723856208
42.59881070805717,993.0,111.89522157460543
43.114321699506505,905.0,125.49506767583662
43.654979568587514,855.0,115.55358017583661
44.15791712122101,917.0,96.89218962319691
45.151218787672164,540.0,81.69016987168371
46.0690798212283,502.0,64.6476198716837
46.94922053833692,352.0,65.72146831050227
47.89222844952472,641.0,62.215102068965514
48.986117626502576,917.0,63.59227782654127
49.815964588347846,880.0,65.10717115987461
50.69610530545647,943.0,68.03248242424242
51.639113216644276,1093.0,100.74040666666664
51.991169503487725,829.0,108.0290444025157
52.657561760727106,880.0,107.47817409948541
53.62571654954659,943.0,69.83398735249747
54.669311971261095,352.0,64.67566836664841
55.47401205547469,666.0,64.9474793714331
56.42959340547833,968.0,66.99167278508772
57.372601316666135,1043.0,62.79559039872408
58.34075610548562,804.0,62.00080125815113
59.33405777193678,955.0,62.28740269959257
60.26449224430874,943.0,62.83827300262287
61.20750015549655,968.0,64.49317641861037
62.12536118905268,993.0,63.92751567892333
63.08094253905632,930.0,61.21479970993108
64.16225827721834,943.0,61.21479970993108
65.08011931077448,917.0,64.75670618766387
65.8973928338039,955.0,67.75602359809756
66.82782730617588,1081.0,66.35925682605682
67.80855553381119,917.0,63.67746462373859
68.72641656736732,817.0,65.92322218727227
69.56883696802844,930.0,106.708811930862
69.8957463772402,980.0,120.26676139813749
70.46155112395289,917.0,117.18353209013208
71.42970591277238,842.0,77.21365414141414
72.37271382396018,892.0,64.91886766798419
73.24028110225296,968.0,68.73258515050166
74.05755462528239,943.0,71.26494415547678
74.89997502594349,867.0,69.14166688621668
75.85555637594715,817.0,64.80497126791093
76.84885804239829,842.0,61.9935529646902
77.80443939240195,955.0,66.71955720917238
78.58399259898385,993.0,68.67709342576872
79.48928019372416,955.0,70.47104605734766
80.36942091083277,779.0,67.8683190821256
81.23698818912555,905.0,69.8767003952569
82.06683515097083,880.0,69.8767003952569
82.94697586807945,867.0,67.7534231259968
83.90255721808309,829.0,65.44240901225666
84.82041825163923,880.0,63.92751567892333
85.76342616282703,955.0,67.85178706050228
86.56812624704062,917.0,67.85178706050228
87.48598728059675,943.0,70.03501568795325
88.34098112007369,804.0,67.90469693795325
89.22112183718231,917.0,70.21571105169339
90.05096879902759,855.0,68.9161702020202
90.95625639376787,880.0,68.59612231469626
91.84897054969234,829.0,69.3492653071205
92.65367063390593,905.0,108.43545547806065
92.9805800431177,892.0,120.61119032190634
93.55895822864622,804.0,118.48087157190633
94.43909894575485,905.0,78.79759506462983
95.3695334181268,880.0,67.9593737797499
96.21195381878792,930.0,68.62770907386754
97.06694765826487,842.0,69.85600096575942
97.94708837537348,855.0,67.61024340222573
98.87752284774545,880.0,68.31908386568387
99.70736980959072,930.0,68.64840850336502
100.5749370878835,829.0,69.55665250793297
101.46765124380796,867.0,66.66458341702388
102.41065915499577,892.0,65.10696688745082
103.34109362736774,943.0,66.44448044641656
104.18351402802884,930.0,68.62770907386754
105.03850786750579,842.0,67.5253958375543
106.01923609514111,855.0,65.27963827402061
106.94967056751308,980.0,65.62876865154476
107.79209096817418,930.0,66.16542114817095
108.74767231817782,842.0,67.39371304006283
109.62781303528645,955.0,64.5822947368421
110.58339438529009,880.0,67.39371304006283
111.42581478595119,955.0,68.77088879763859
112.25566174779647,842.0,70.24479354189359
113.14837590372092,829.0,66.6385860980999
114.14167757017208,892.0,97.3875965474207
114.50630729583136,502.0,109.56333139126639
115.08468548135988,490.0,111.83202527609433
115.97739963728434,364.0,73.21343906919779
117.2095966412364,578.0,66.54028193723745
117.92628265373914,892.0,64.79456618819776
118.89443744255863,1232.0,99.87446941400421
119.28421404584958,716.0,114.95875580565902
119.74943128203557,968.0,115.23056681044372
120.70501263203921,855.0,84.05432181248537
121.69831429849036,955.0,63.156300040713596
122.60360189323066,993.0,93.537755898099
122.99337849652161,905.0,113.16904767025089
123.49631604915511,389.0,115.93057197580644
124.3010161333687,502.0,112.8208202651515
124.71593961429134,804.0,110.92720359848484
125.24402404455653,943.0,107.86304649232045
126.16188507811265,917.0,83.40276064881073
127.00430547877376,842.0,96.84133054128384
127.39408208206471,389.0,112.92410223078157
127.9221665123299,528.0,110.67834466724787
128.85260098470187,930.0,79.50209966928954
129.845902651153,993.0,65.02150163007384
130.70089649062996,855.0,65.92974563464179
131.59361064655442,1207.0,109.42060740679369
131.90794661695034,628.0,117.84163211267605
132.53661855774223,955.0,116.36772736842104
133.49219990774586,867.0,75.7949320061022
134.35976718603865,855.0,67.37390730021984
135.2147610255156,905.0,68.53665437624323
136.1200486202559,465.0,88.4741459547783
136.58526585644188,528.0,102.95474399399399
137.11335028670703,867.0,137.67104954954954
137.4654065735505,880.0,133.4768821138211
137.98091756499983,968.0,118.32794878048779
138.86105828210844,955.0,82.17708514412416
139.82921307092792,855.0,64.3104837320574
140.78479442093158,892.0,98.3955837320574
141.136850707775,993.0,117.50389736842102
141.63978826040852,930.0,118.97780211267604
142.53250241633296,867.0,82.30396034052414
143.52580408278413,414.0,64.03311844863225
144.4562385551561,792.0,64.68249097363736
145.3238058334489,968.0,92.74898426094077
145.7387293143715,653.0,96.50209837505489
146.53085595976927,880.0,94.10701010101008
147.49901074858874,917.0,76.49505089355088
148.1528295670123,1181.0,73.97022867132867
149.03297028412092,578.0,75.10215395152791
149.95083131767706,880.0,66.60515608828005
150.85611891241734,905.0,67.2734913823977
151.7111127518943,980.0,68.20732973856208
152.5912534690029,917.0,68.20732973856208
153.4965410637432,930.0,65.2083893162393
154.47726929137852,980.0,64.27455096007492
155.39513032493466,980.0,63.67746462373859
156.3255647973066,855.0,63.67746462373859
157.30629302494194,943.0,62.280697851697845
158.28702125257726,691.0,64.17732503770738
159.1420150920542,628.0,64.99303683257918
160.08502300324201,616.0,73.5209328698752
160.77656213811306,389.0,81.94195757575756
161.40523407890493,502.0,93.1954509090909
162.02133258088097,917.0,115.58566322580643
162.41110918417192,930.0,123.53885322580643
162.91404673680543,930.0,112.86641486964206
163.83190777036154,402.0,83.05061975194371
164.76234224273352,427.0,64.77977786005182
165.69277671510548,855.0,92.69765371621621
166.09512675721228,842.0,117.98601619634337
166.52262367695076,1031.0,119.88264338235291
167.3776175164277,943.0,126.98370588235292
167.72967380327114,943.0,120.98582503770737
168.2200379170888,905.0,116.99211413383364
169.25105989998747,1043.0,81.3921208005003
170.19406781117527,993.0,61.81503772357723
171.13707572236308,993.0,64.50920777777777
172.0423633171034,477.0,62.46501436412316
173.08595873881788,414.0,61.39116592530459
174.07926040526905,968.0,59.433629708708246
175.0725620717202,993.0,62.67266856837225
175.96527622764467,993.0,63.19564670416052
176.93343101646414,880.0,63.19564670416052
177.9267326829153,943.0,60.92695281933256
178.92003434936646,1043.0,62.9927164556962
179.80017506647508,955.0,64.06656489451476
180.74318297766288,817.0,63.09621991967871
181.7867783993774,930.0,61.30226728809976
182.74235974938102,917.0,64.56511446758694
183.55963327241045,993.0,66.895909322683
184.49006774478244,955.0,67.75602359809756
185.40792877833857,867.0,63.41932797979182
186.40123044478972,968.0,62.85366724010476
187.35681179479337,1119.0,64.11683023395031
188.22437907308614,905.0,102.89469052462073
188.56386192111376,930.0,113.77800315619967
189.19253386190562,993.0,108.59761559717019
190.31156991651517,968.0,71.77729152309612
191.21685751125545,389.0,61.45963963120423
192.1472919836274,477.0,63.72196078040065
193.14059365007859,867.0,62.28740269959257
194.10874843889806,980.0,92.10319781729092
194.49852504218902,855.0,113.82743432628492
194.97631571719083,968.0,116.2225226003297
195.84388299548363,867.0,85.30441424631812
196.82461122311895,1043.0,66.83725480359367
197.67960506259587,930.0,64.44216652954887
198.64775985141537,968.0,67.10209629543516
199.51532712970814,477.0,62.87467425432957
200.55892255142265,389.0,63.71214599880131
201.4893570237946,1005.0,61.317057724756516
202.4575118126141,980.0,84.01163920858657
202.93530248761593,880.0,113.82743432628492
203.32507909090688,943.0,113.05277296264853
204.33095419617388,955.0,91.5866730976013
205.3116824238092,905.0,99.18828839031337
205.65116527183682,1106.0,116.29689478566222
206.19182314091782,628.0,117.11260658053402
207.13483105210562,867.0,79.12953543043655
208.09041240210925,943.0,64.23014847953216
208.99569999684957,817.0,61.09707363104731
210.10216261264324,905.0,71.98038626262625
210.73083455343513,1093.0,72.94091645586296
211.5984018317279,880.0,76.07399130434781
212.5414097429157,930.0,68.73258515050166
213.35868326594513,943.0,67.77205495726496
214.26397086068545,943.0,64.84674369289715
215.3578600376633,968.0,63.098789846743294
216.23800075477192,855.0,62.501703510406955
217.16843522714387,414.0,65.42701477477476
218.11144313833168,502.0,63.912121441441435
219.05445104951949,892.0,63.07464969696969
220.02260583833896,339.0,65.25787832442067
220.8775996778159,603.0,65.83893330158962
221.79546071137204,855.0,67.58464905062931
222.6881748672965,842.0,103.10543227503018
223.02765771532412,855.0,114.45416229786123
223.63118277848432,930.0,115.44254547930282
224.48617661796126,565.0,80.27089263242608
225.32859701862236,326.0,70.52433625987707
226.1835908580993,855.0,68.62770907386754
227.11402533047126,980.0,80.23435451333685
227.67983007718396,943.0,118.02100383460382
228.00673948639573,880.0,119.91763102061334
228.86173332587268,905.0,104.96291478129712
229.842461553508,943.0,64.99303683257918
230.7854694646958,414.0,64.32470153846154
231.66561018180442,653.0,66.02410111111111
232.5708977765447,943.0,66.02410111111111
233.51390568773252,930.0,91.50185262626262
233.92882916865517,993.0,99.99885048951047
234.5826479870787,1031.0,99.99885048951047
235.5256558982665,917.0,73.29280708246708
236.4560903706385,339.0,62.83827300262287
237.44939203708964,578.0,61.0277907262001
238.4804140199883,917.0,61.32224426192761
239.39827505354444,930.0,100.10010455259803
239.73775790157205,792.0,115.28116711887586
240.31613608710057,855.0,115.28116711887586
241.2339971206567,892.0,77.86375670846544
242.16443159302867,917.0,68.53289197416593
242.95655823842642,817.0,70.13506562444796
243.81155207790337,754.0,71.04330962901591
244.70426623382784,779.0,67.58464905062931
245.62212726738395,842.0,68.66426760266552
246.4394007904134,943.0,72.77154882332279
247.19380711936364,955.0,76.6374387923904
247.97336032594555,892.0,75.90695061787834
248.81578072660665,842.0,70.60482395121167
249.75878863779445,917.0,65.8788197067295
250.7143699877981,1005.0,64.54130614776378
251.60708414372257,943.0,67.0736651527389
252.44950454438367,855.0,67.93377942815346
253.3673655779398,490.0,65.41340231547738
254.3732406832068,465.0,62.88104331050227
255.3162485943946,1005.0,64.4832169607843
256.17124243387156,1031.0,85.38583170437404
256.6616065476892,905.0,107.16754125392359
257.1268237838752,892.0,103.65878095980594
258.1326988891422,993.0,82.2712156064601
259.16372087204087,980.0,61.37319383468834
260.06900846678116,930.0,63.893570947364395
260.9617226227056,905.0,64.6302047849686
261.95502428915677,1043.0,62.93080521231902
262.9357525167921,440.0,62.022561207751075
263.866186989164,603.0,63.98009742434742
264.77147458390436,943.0,62.7516158055646
265.81507000561885,1005.0,86.7033076974565
266.25514036417314,930.0,97.7494049196787
266.85866542733334,1056.0,99.79359833333332
267.80167333852114,968.0,74.22977333333333
268.80754844378816,1181.0,62.586589774774765
269.73798291616015,804.0,60.314249774774765
270.79415177669046,1093.0,61.088911138411135
271.76230656550996,465.0,56.515483881366855
272.94420981419864,766.0,62.43303596470019
273.74890989841225,641.0,60.058595003362676
274.84279907539013,1383.0,86.12713036851505
275.3080163115761,666.0,105.45780050740396
275.76066010894624,867.0,150.8001251051051
276.07499607934216,943.0,138.99888928104573
276.71624145894987,1106.0,109.27484584670229
278.099319728692,578.0,75.66136358255136
278.7657119859314,377.0,67.52510782807566
279.63327926422414,943.0,74.27326904019688
280.57628717541195,440.0,62.33666312252963
281.68274979120565,565.0,73.86302544137021
282.2611279767342,1043.0,105.67578544137021
282.63833114120933,1018.0,108.80886028985506
283.58133905239714,955.0,119.67657333333332
284.02140941095143,1031.0,102.00281777777776
284.5872141576641,641.0,99.95862436412315
285.6308095793786,352.0,74.14933053696265
286.64925812346144,930.0,59.7312667942726
287.6048394734651,867.0,59.96497793150445
288.6358614563638,980.0,60.46212998651305
289.62916312281493,993.0,61.0277907262001
290.55959759518686,377.0,64.68249097363736
291.4271648734797,628.0,64.94062761758414
292.407893101115,402.0,63.58017773732413
293.40119476756615,465.0,93.54871976630963
293.7783979320413,993.0,104.96868489451475
294.4070698728331,980.0,107.88675130434781
295.27463715112594,943.0,109.7150708445777
295.6392668767852,855.0,109.7150708445777
296.2679388175771,980.0,107.0551410786914
297.2486670452124,1131.0,73.41406153846154
298.1916749564002,880.0,64.99303683257918
299.04666879587717,804.0,64.99303683257918
300.02739702351244,880.0,61.458285721468066
301.15900651693784,1018.0,60.78995042735042
302.0391472340464,993.0,65.25087430555556
302.84384731826003,955.0,70.30051875
303.7239880353687,905.0,108.7555033653846
304.0508974445804,1018.0,112.8224755244755
304.7424365794515,980.0,110.23373375232359
305.73573824590267,955.0,69.98479650536005
306.6913195959063,980.0,63.156300040713596
307.5966071906466,855.0,62.659147985705
308.6150557347294,980.0,62.122495489078815
309.59578396236475,1043.0,60.95974841305542
310.5513653123684,917.0,61.71503711201079
311.5320935400037,905.0,64.71397753433357
312.38708737948065,968.0,64.17732503770739
313.367815607116,1031.0,62.94884341892456
314.41141102883046,1005.0,61.34666976864253
315.3292720623866,867.0,63.0460693412921
316.2345596571269,477.0,64.53939245191643
317.20271444594636,540.0,62.147855198324706
318.233736428845,678.0,101.23404536926486
318.5606458380568,402.0,110.03266826488776
319.23961153411204,389.0,113.68736851232501
320.1071788124048,741.0,94.36787863378251
320.5849694874066,943.0,101.90320076987209
321.12562735648766,892.0,97.34626682986536
322.20694309464966,993.0,106.7982753188297
322.5967196979406,955.0,96.76666002517578
323.33855258807506,1043.0,99.47937599416802
324.28156049926287,917.0,70.57182488103763
325.1742746551873,943.0,63.74651700719082
326.1675763216385,1018.0,63.467457708945204
327.1231576716421,980.0,60.2284188492812
328.1667530933566,905.0,61.88332226526871
329.08461412691275,880.0,62.16238156351432
330.02762203810056,968.0,62.63557448334178
331.04607058218335,1031.0,61.238807711301035
332.0267988098187,402.0,62.122495489078815
332.93208640455896,616.0,65.2083893162393
333.8122271216676,968.0,65.47323080808081
334.7803819104871,817.0,62.77906075388026
335.8114038933858,389.0,59.69316692671976
336.82985243746856,565.0,59.69316692671976
337.79800722628806,465.0,64.76649638262971
338.6152807493175,528.0,96.43989343559666
339.00505735260845,1005.0,111.12976818307139
339.5708620993211,792.0,106.79307256476565
340.5641637657723,930.0,75.3651443389592
341.5700388710393,993.0,65.26585545007032
342.3621655164371,930.0,66.62630533033033
343.292599988809,314.0,66.87798855817843
344.28590165526015,578.0,63.12487444406431
345.21633612763213,1043.0,105.2552863359562
345.53067209802805,1005.0,119.69971506462983
346.1090502835566,980.0,117.36892020953377
347.1526457052711,867.0,73.62637520953378
348.1585208105381,892.0,59.44008312480691
349.13924903817343,1018.0,63.328494509476016
350.0068163164662,880.0,65.84887162215207
350.89953047239067,943.0,65.09358292319672
351.9179790164735,968.0,64.76425828551555
352.7981197335821,930.0,63.569412839506164
353.7411276447699,980.0,64.58954303030302
354.7092824335894,867.0,63.361251138411134
355.63971690596134,905.0,62.54553934353934
356.62044513359666,1031.0,64.94062761758413
357.4880124118895,880.0,65.53771395392047
358.3933000066298,892.0,64.5429434723695
359.42432198952844,905.0,64.21361883468833
360.304462706637,880.0,64.52477650291995
361.1971768625615,1056.0,67.21894655712049
362.1024644573018,980.0,67.21894655712049
362.9826051744104,955.0,63.75176111111111
364.03877403494073,1068.0,62.05236153846153
365.01950226257605,1018.0,60.258408906882586
365.97508361257974,905.0,60.03563047551003
367.0438259119259,980.0,59.28034177655467
368.0622744560087,1031.0,60.44308885257806
368.967562050749,943.0,62.122495489078815
369.9482902783843,892.0,61.88301370648321
370.979312261283,955.0,60.99932592870543
371.9223201724708,980.0,63.009883169586615
372.81503432839526,930.0,104.79024339472733
373.14194373760705,892.0,115.39449672806066
373.77061567839894,993.0,113.38393948717948
374.7513439060342,1031.0,73.70066297990297
375.6817783784062,917.0,64.29125509257904
376.57449253433066,892.0,64.03311844863225
377.5677942007818,955.0,61.93603473076805
378.59881618368047,968.0,61.32224426192761
379.51667721723663,389.0,63.59093814675556
380.4093913731611,641.0,65.12236112493272
381.3649727231647,943.0,106.9583194810971
381.67930869356064,1005.0,115.14415967611335
382.3331275119842,653.0,113.61273669793619
383.3641494948829,427.0,71.19572336460286
384.3071574060707,1106.0,91.91743428271701
384.69693400936166,968.0,104.9814098924731
385.31303251133767,1005.0,114.36209553349875
385.9668513297612,1031.0,109.83466289592758
386.39434824949967,1018.0,95.4480947141094
387.5008108652934,905.0,85.51653877005344
388.4689656541129,880.0,58.61604318181817
389.47484075937984,955.0,59.938635753880256
390.5058627422785,1018.0,58.91850556308339
391.52431128636135,1043.0,61.12772500752784
392.42959888110164,955.0,64.45310061728395
393.3097395982103,905.0,65.7450418128655
394.2653209482139,993.0,63.29035354126055
395.28376949229676,1018.0,59.7312667942726
396.32736491401124,1056.0,59.7312667942726
397.28294626401487,917.0,62.18595506587754
398.18823385875515,980.0,89.80511240110079
398.6157307784936,1043.0,104.22317614379084
399.18153552520636,968.0,101.76848787218589
400.19998406928914,905.0,73.92118395061726
401.2561529298195,980.0,60.36323448334178
402.17401396337567,1106.0,61.118523182297146
403.15474219101094,1106.0,61.34666976864253
404.1983376127255,980.0,78.35315690529471
404.7138486041748,855.0,102.14475092238874
405.16649240154493,1005.0,105.07263211382113
406.0717799962852,1043.0,86.6693782051282
407.05250822392054,917.0,60.56042113442113
408.15897083971424,880.0,56.543658508158494
409.26543345550795,955.0,56.543658508158494
410.24616168314327,389.0,61.859961984094326
411.1011555226202,603.0,63.66750516591251
412.1070306278872,943.0,62.439023547129686
413.1506260496017,968.0,60.83684989684765
414.06848708315783,1068.0,63.677274896847656
414.9486278002665,1081.0,65.44240901225666
415.9042091502701,578.0,94.96375059422749
416.29398575356106,716.0,105.37864226089415
416.89751081672125,678.0,105.65770155913978
417.84051872790906,1068.0,75.0044346969697
418.80867351672856,993.0,60.57953126559714
419.87741581607474,930.0,57.86681529660489
420.95873155423675,943.0,71.78826588949026
421.53710973976524,993.0,80.98080747875755
422.253795752268,427.0,91.94127604034239
422.9327614483232,855.0,76.07557731911477
424.0015037476694,603.0,99.48055072035982
424.39128035096036,930.0,103.16258312776722
424.99480541412055,980.0,105.94430300058121
425.92523988649253,930.0,75.84190644144144
426.86824779768034,867.0,62.83827300262287
427.8615494641315,917.0,88.12663548275005
428.28904638386996,1031.0,103.068992452447
428.8422776917668,968.0,105.02652866904334
429.7475652865071,855.0,79.73816618891618
430.6779997588791,955.0,63.98009742434742
431.6587279865144,1043.0,63.38301108801108
432.58916245888634,993.0,105.51342297990297
432.9034984292823,892.0,121.27149174447172
433.45672973717916,930.0,121.56594528019923
434.37459077073527,1005.0,77.33844967044314
435.40561275363393,968.0,61.84522239771587
436.37376754245344,943.0,101.23404536926486
436.7006769516652,917.0,119.70835431235429
437.2287613819304,1081.0,162.67623794871793
437.5430973523263,452.0,132.68683372549017
438.184342731934,465.0,113.97881364516888
439.2279381536485,930.0,70.48795187301701
440.2212398200997,980.0,61.7023235935362
441.1139539760241,414.0,64.03311844863225
442.0443884483961,590.0,63.781435220784154
443.0502635536631,930.0,62.035719471744464
444.01841834248256,364.0,61.74911803030302
444.96142625367037,502.0,63.65570467413864
445.87928728722653,1005.0,61.49385900817669
446.96060302538854,993.0,62.07491398534564
447.87846405894464,955.0,61.78046044961813
448.80889853131663,377.0,63.67746462373859
449.78962675895195,427.0,61.77087797990297
450.7955018642189,905.0,61.77087797990297
451.7259363365909,930.0,96.22766931500465
452.0905660622502,930.0,116.11064431500465
452.5935036148837,829.0,114.49851120689652
453.5993787201507,867.0,79.78358322784808
454.59268038660184,980.0,60.947080596269146
455.54826173660547,565.0,65.91782434626916
456.3529618208191,389.0,67.8753605628655
457.25824941555936,880.0,68.44102130255254
458.18868388793135,1156.0,65.08241066066066
459.11911836030333,628.0,67.09079197379197
459.9489653221486,427.0,68.64840850336502
460.81653260044135,716.0,67.54609526705178
461.7972608280767,766.0,78.79303062058713
462.36306557478935,414.0,107.05120920871242
462.7528421780803,792.0,147.83679895230216
463.0797515872921,704.0,148.64015147755467
463.63298289518895,364.0,114.6187917300091
464.789739266246,666.0,85.25316711462449
465.4184112070379,867.0,95.88577406649614
465.84590812677635,855.0,106.50216041279667
466.56259413927904,968.0,100.76543319968192
467.32957390704513,905.0,102.18311412659816
467.7444973879678,892.0,99.52540652425895
468.5366240333655,829.0,101.85362373737371
469.24073660705244,892.0,108.50205842911876
469.6053663327117,993.0,113.26587394274559
470.2717585899511,440.0,107.91434858042675
471.1393258682439,817.0,76.45649766764785
471.9943197077208,590.0,67.10209629543516
472.9624744965403,930.0,66.14156610219845
473.8677620912806,980.0,65.15318292075686
474.7604762472051,1181.0,68.59612231469626
475.5903232090503,666.0,68.90727998292786
476.4830373649748,515.0,66.6385860980999
477.47633903142594,666.0,87.98481034052415
477.91640938998023,515.0,90.05281207400193
478.73368291300966,389.0,103.7615155482815
479.32463453735403,515.0,79.8098236563896
480.255069009726,867.0,75.73126468203063
481.23579723736134,917.0,58.8095838309668
482.41770048605,930.0,67.32651345870775
483.08409274328943,829.0,85.72976736740067
483.59960373473876,855.0,98.82012425218589
484.2659959919781,741.0,107.60413529682464
484.7815069834275,691.0,120.1189897421433
485.17128358671846,452.0,128.90300078678206
485.6867945781678,867.0,113.1596766439754
486.55436185646056,867.0,83.63833506200456
487.47222289001667,1018.0,66.33739438962488
488.40265736238865,993.0,67.38524550951948
489.2325043242339,930.0,68.9874191598015
490.08749816371085,892.0,74.45227715338831
490.8293310538453,968.0,79.27239230490346
491.52087018871634,993.0,100.0650458996747
491.97351398608646,905.0,96.15780443566094
492.8410812643793,892.0,90.2898381642512
493.70864854267205,917.0,65.74295544820181
494.7270970867549,1005.0,62.82488903836876
495.72039875320604,930.0,61.267272508795706
496.650833225578,892.0,64.03311844863225
497.54354738150244,1056.0,64.55609658442052
498.51170217032194,1068.0,63.19564670416052
499.5050038367731,968.0,62.88448903592891
500.4102914315134,993.0,64.6302047849686
501.30300558743784,1068.0,66.2851082009561
502.220866620994,691.0,64.07588875651166
503.22674172626097,440.0,63.16764475194371
504.15717619863295,943.0,63.781435220784154
505.0498903545574,993.0,62.834626887450824
506.1060592150877,1056.0,60.05290701463683
507.1748015144339,1043.0,58.30719126559715
508.1429563032534,930.0,59.505682826778575
509.13625796970456,943.0,59.50568282677858
510.20500026905074,1031.0,56.52180201869776
511.3366097624761,515.0,57.59565045751633
512.2796176736639,540.0,59.016920450070316
513.2729193401151,917.0,60.27933156118143
514.3290882006454,930.0,58.23513814752681
515.3726836223599,955.0,59.59558802778682
516.3031180947319,452.0,61.86792802778682
517.2461260059197,628.0,62.10163916501867
518.2771479888183,892.0,59.54269772357723
519.3333168493486,905.0,60.123752700746174
520.2511778829048,1005.0,62.22083641861038
521.1816123552768,968.0,64.21411712036476
522.1371937052804,917.0,86.60894436541804
522.5898375026505,980.0,96.92659625730994
523.2185094434425,1005.0,98.40050100156495
524.1112235993669,993.0,76.30830655712049
525.0165111941072,968.0,64.3785215571205
526.0223862993743,880.0,62.6328058080808
526.9905410881937,880.0,62.33017300747197
527.9084021217499,1018.0,62.839992879266845
528.8891303493851,943.0,62.065331515630476
529.8950054546522,880.0,60.410428099642964
530.8883071211033,955.0,60.67526959148446
531.8564619099228,1031.0,63.51569459148446
532.7366026270314,892.0,66.10443636363635
533.61674334414,980.0,65.08430617283949
534.6351918882228,565.0,63.569412839506164
535.5781997994106,377.0,63.569412839506164
536.4583405165192,352.0,64.86135403508771
537.4139218665229,628.0,63.05087175866495
538.4449438494216,880.0,62.730823871341
539.337658005346,1181.0,62.19417137471482
540.3183862329813,641.0,78.14365809558203
540.884190979694,955.0,108.76157264957263
541.2613941441691,880.0,145.17727777777776
541.6134504310126,867.0,141.64252666666664
542.2421223718045,955.0,111.34465999999998
543.1222630889131,1005.0,71.45784085106382
544.3041663376018,905.0,70.83406124322067
544.9454117172095,880.0,69.04010861164173
545.9009930672132,590.0,74.8418277605779
546.7811337843218,741.0,66.7055720061022
547.6487010626146,628.0,66.7055720061022
548.6042824126182,565.0,63.8651470061022
549.6101575178852,414.0,62.90461681286549
550.5154451126255,867.0,64.69856944444444
551.3955858297342,968.0,78.6589561465721
551.9865374540785,1018.0,83.52672780382255
552.7283703442129,980.0,92.61608780382255
553.3570422850048,917.0,94.12023721280602
553.9228470317174,1068.0,115.36142262626261
554.3377705126401,540.0,106.60138726394376
555.2053377909328,540.0,91.91151251646903
556.1734925797523,955.0,63.347867174157024
557.1919411238351,1031.0,60.687937408270734
558.1726693514705,1093.0,61.81986268846998
559.0905303850266,1056.0,60.89574475092459
560.1592726843728,955.0,58.998740576804146
561.2405884225349,943.0,58.13862630138958
562.1961697725385,1005.0,58.823262456339364
563.2271917554372,1068.0,58.6106671609638
564.3210809324149,930.0,56.61738645920941
565.3772497929453,565.0,58.14880943738657
566.332831142949,364.0,61.07412070175438
567.2758390541368,1081.0,62.02092903508771
568.2817141594038,641.0,59.80486990196077
569.3504564587499,440.0,60.09147134340221
570.2808909311219,993.0,61.70360445151032
571.2113254034939,892.0,61.48600691389063
572.2926411416558,993.0,58.48668950345694
573.3739568798179,1068.0,57.12623962319693
574.3672585462691,1018.0,61.03380103819857
575.2599727021935,880.0,62.67266856837225
576.2532743686447,968.0,61.25139857581827
577.3220166679909,1043.0,58.48555263598171
578.3404652120737,993.0,61.07429440813361
579.2206059291823,917.0,105.98642617283949
579.5349418995783,1005.0,116.9381123076923
580.1887607180018,1018.0,113.37902556070435
581.2323561397163,905.0,69.88816378855245
582.2256578061674,905.0,61.08853312469576
583.1435188397236,993.0,61.807194871683706
584.1493939449906,955.0,61.31004281667511
585.1678424890735,905.0,61.61267561728394
586.0731300838137,943.0,63.82189506172839
586.978417678554,1031.0,64.31904711673698
587.9717193450051,1018.0,63.156300040713596
588.9273006950089,905.0,63.156300040713596
589.8325882897491,452.0,64.23014847953216
590.7755962009369,477.0,100.1092011111111
591.1276524877803,980.0,107.4732659259259
591.8066181838356,943.0,105.90226543209874
592.8250667279184,855.0,71.18595987654321
593.7303543226587,867.0,85.91408950617284
594.1829981200289,880.0,108.13547807017544
594.6607887950307,943.0,106.43607849752587
595.641517022666,855.0,83.46019627530364
596.5845249338538,867.0,64.99303683257918
597.4395187733307,1018.0,67.65296659846545
598.3070860516235,1018.0,69.1678599317988
599.1872267687321,905.0,66.98463130434781
600.1302346799199,553.0,67.3236419607843
600.9852285193969,804.0,67.65296659846545
601.8527957976896,590.0,66.0819661046383
602.8712443417725,1068.0,62.32773698336016
603.8896928858553,880.0,61.36720679012345
604.7949804805957,905.0,77.88056425364758
605.3482117884924,389.0,83.09677683080807
606.1529118727061,565.0,94.84794408849127
606.7438634970505,993.0,77.41046868742177
607.8126057963966,968.0,75.28014993742177
608.6927465135052,842.0,63.52898267973856
609.5980341082455,892.0,65.7450418128655
610.5536154582492,1031.0,63.156300040713596
611.5469171247004,968.0,61.721741959905515
612.5150719135198,867.0,64.53316026312625
613.357492314181,892.0,66.8018541479542
614.2502064701054,1031.0,65.54224217456175
615.281228453004,993.0,62.459012866556314
616.2493832418235,880.0,63.10838539156141
617.1169505201163,855.0,100.5188610013175
617.4690068069598,1005.0,116.85280603302998
618.0096646760408,905.0,113.19810578559273
619.0406866589394,892.0,76.52426401344083
620.0339883253906,892.0,62.256082618091995
620.9141290424992,993.0,66.24979352196574
621.7691228819762,980.0,65.99811029411762
622.7749979872432,855.0,65.36690473856208
623.6802855819834,880.0,64.3785215571205
624.5729997379079,930.0,66.89889866979655
625.4657138938323,880.0,64.94136245320021
626.4590155602835,804.0,62.93080521231902
627.4397437879188,804.0,63.91918839376061
628.2947376273958,880.0,66.50793016591251
629.1748783445044,930.0,67.61024340222573
630.1053128168763,917.0,66.9419081081081
630.9854535339849,829.0,69.07222685810811
631.7901536181986,766.0,72.4308375
632.5948537024121,414.0,72.4308375
633.4749944195207,402.0,69.07222685810811
634.4054288918927,867.0,66.00806975194371
635.3232899254489,955.0,67.38524550951948
636.1531368872942,943.0,71.96617018829662
636.9201166550603,892.0,74.64796239061485
637.7373901780896,905.0,73.60011127072025
638.6049574563824,955.0,68.45352585225605
639.560538806386,540.0,65.19067867276887
640.5035467175738,402.0,64.54130614776378
641.3962608734984,880.0,65.70405322378716
642.3015484682386,905.0,65.42499392554154
643.2571298182423,980.0,64.23014847953216
644.2001377294301,943.0,64.86135403508771
645.0802784465387,892.0,66.02410111111111
645.985566041279,917.0,65.2083893162393
646.9662942689143,955.0,63.69349598290598
647.9093021801021,1005.0,64.00465365113759
648.8020163360266,917.0,65.40142042317834
649.7198773695827,905.0,65.12236112493272
650.6754587195863,968.0,62.60198401225666
651.6813338248534,968.0,62.60198401225666
652.5991948584095,880.0,63.76473108828005
653.5044824531498,943.0,64.53939245191643
654.4726372419693,1043.0,63.40746717171717
655.4407920307888,1005.0,64.03867272727273
656.3209327478974,880.0,64.58954303030302
657.2639406590852,414.0,63.09621991967871
658.3075360807997,603.0,97.1813199196787
658.6595923676431,1043.0,106.56200556070434
659.3134111860667,993.0,110.1210923076923
660.1935519031753,880.0,101.51374382284381
660.6084753840979,968.0,104.06284318181817
661.2120004472581,968.0,100.50375643483022
662.2555958689726,993.0,72.4372631475268
663.2488975354238,1144.0,62.022371480860144
664.1290382525324,691.0,63.51569459148446
665.0971930413518,955.0,64.03867272727273
666.0653478301714,993.0,104.94079272727272
666.3796838005672,917.0,113.7394156228956
667.0586494966225,905.0,137.26616814814815
667.5112932939927,993.0,102.56133905723905
668.2028324288638,980.0,102.02577070707068
668.8943715637348,905.0,78.77082918660285
669.8499529137384,980.0,69.98479650536005
670.8432545801896,1005.0,62.85366724010476
671.7611156137457,993.0,64.01641431612816
672.666403208486,917.0,64.01641431612816
673.6597048749371,955.0,62.619647544087414
674.6404331025725,955.0,62.619647544087414
675.5457206973127,943.0,62.877784188034184
676.5264489249481,880.0,62.36796431623931
677.5323240302151,917.0,60.410428099642964
678.5256256966662,955.0,61.807194871683706
679.4434867302224,917.0,62.85366724010476
680.399068080226,880.0,63.648456380677715
681.3546494302296,792.0,63.06740140350877
682.2976573414174,867.0,64.86135403508771
683.177798058526,1005.0,95.2428098924731
683.567574661817,855.0,111.90663655913977
684.0956590920822,892.0,110.11268392756082
685.0512404420858,943.0,80.59134234559
685.969101475642,578.0,65.44240901225666
686.8492421927506,440.0,69.76118386605782
687.6413688381484,880.0,71.02434685990337
688.5089361164412,980.0,68.18392185990336
689.5148112217081,678.0,66.32743493179879
690.369805061185,842.0,65.67806240679369
691.2625192171096,477.0,67.00359407346036
692.2055271282974,741.0,63.24936495218222
693.2239756723802,917.0,63.569412839506164
694.1041163894888,905.0,62.75370104463437
695.0848446171241,842.0,72.57245413105413
695.7638103131793,880.0,73.58991980269592
696.6062307138404,440.0,95.05601966774316
697.0840213888423,641.0,92.55972651017879
697.8258542789766,968.0,90.60842248237262
698.7437153125328,855.0,70.84172218997497
699.6490029072731,867.0,67.62262175992184
700.4914233079343,980.0,68.55646011608623
701.3715640250429,1119.0,64.96005636931619
702.4528797632048,993.0,61.87682706131078
703.4210345520244,855.0,62.54516235542842
704.2760283915013,993.0,67.10209629543516
705.1435956697941,1005.0,66.83725480359367
706.1243238974293,930.0,61.31785658812771
707.2433599520389,892.0,58.39979017829465
708.2366616184901,980.0,61.39873060061743
709.091655457967,490.0,63.66105174981384
710.0849571244181,502.0,63.40936852196574
711.0908322296851,968.0,61.5127413359562
712.0212667020571,855.0,105.0036031081081
712.3356026724531,980.0,119.69971506462983
712.9139808579816,1018.0,118.5974018283166
713.8947090856169,414.0,95.75747157190634
714.3850731994346,616.0,100.9443346153846
714.8880107520681,968.0,101.20917610722609
715.8561655408876,980.0,83.815321657754
716.7111593803645,980.0,64.44216652954887
717.6918876079998,452.0,63.422036338752015
718.7103361520826,704.0,59.42832543487827
719.7413581349813,389.0,59.69316692671976
720.7095129238007,553.0,60.44845562567513
721.6902411514361,955.0,61.4432261072261
722.6709693790714,1068.0,84.96997863247863
723.1236131764416,641.0,92.98143376068376
723.8277257501285,402.0,93.79714555555555
724.7707336613163,955.0,70.5422040350877
725.7263150113199,440.0,60.851342270381835
726.795057310666,528.0,58.80714885672722
727.8386527323806,578.0,58.80714885672721
728.7942340823843,389.0,85.54056062143309
729.2343044409386,490.0,104.24858070175438
729.7623888712037,477.0,103.97676969696968
730.7305436600232,892.0,79.18760606060606
731.6986984488427,955.0,63.71862483994878
732.5914126047671,427.0,63.99043584473347
733.5469939547708,616.0,62.49711273410915
734.5905893764852,377.0,93.11502728809975
734.9677925409604,590.0,106.02894162180635
735.5587441653048,905.0,108.95682281323876
736.464031760045,968.0,76.59319251020847
737.4321865488646,943.0,63.95833747474747
738.3751944600524,980.0,62.2589379020979
739.3559226876877,905.0,63.69349598290598
740.261210282428,980.0,62.877784188034184
741.2419385100633,1005.0,62.36796431623931
742.2478136153303,943.0,61.48427653846153
743.1908215265181,905.0,63.183676111111104
744.0961091212583,1005.0,63.183676111111104
745.1019842265254,1043.0,61.13948269745649
746.1455796482398,905.0,61.13948269745649
747.0508672429802,880.0,104.8820276974565
747.3652032133762,955.0,121.06522555555554
747.9310079600888,905.0,119.90247847953215
748.8865893100924,905.0,78.3691529239766
749.7918769048327,867.0,65.11383625730994
750.697164499573,955.0,67.23711352657004
751.5647317778659,955.0,66.07436645054665
752.5203131278695,930.0,64.91161937452326
753.4758944778731,855.0,63.35400284495021
754.4063289502451,892.0,65.8162907706468
755.261322789722,917.0,67.2901955149018
756.1540369456465,905.0,67.58464905062931
757.0718979792026,867.0,66.2851082009561
757.9771855739428,880.0,66.93448072596121
758.8447528522357,905.0,67.8683190821256
759.7248935693443,892.0,67.8683190821256
760.6301811640845,855.0,67.21894655712049
761.5228953200091,855.0,67.88728185123814
762.377889159486,905.0,69.18682270091134
763.232882998963,905.0,68.87566503267973
764.1381705937032,792.0,67.57612418300653
765.0434581884435,1144.0,69.4326111111111
765.8355848338413,678.0,90.33063288288287
766.3008020700273,930.0,97.69469769769769
766.9797677660824,855.0,101.90273473473472
767.6587334621377,1169.0,80.40762662662662
768.5891679345096,616.0,74.343102661485
769.4441617739866,905.0,67.61024340222575
770.3243024910952,829.0,68.20732973856208
771.2295900858355,867.0,66.90778888888889
772.1348776805759,917.0,68.28496464646464
772.9647246424211,905.0,69.24549483970135
773.8322919207138,829.0,68.94286203909252
774.75015295427,842.0,66.93448072596121
775.6554405490103,930.0,67.98233184585581
776.4852875108555,917.0,69.93363587366198
777.3277079115167,855.0,69.33654953732565
778.2581423838886,917.0,67.02553542358551
779.1760034174448,968.0,66.67640504606136
780.0309972569218,917.0,66.97085858178886
780.9488582904778,842.0,65.8389333015896
781.9170130792974,892.0,64.23675965130758
782.8348741128534,930.0,66.18806367911377
783.6772945135145,867.0,67.93377942815346
784.5700086694391,855.0,67.63932589242594
785.500443141811,892.0,66.95118485846531
786.3680104201038,955.0,67.9395680399069
787.2230042595808,1056.0,68.84781204447485
788.1157184155052,968.0,66.72453477521475
789.0712997655088,867.0,104.51118409648171
789.3982091747206,993.0,109.53262508725393
790.1274686260392,968.0,109.26081408246924
791.0956234148587,892.0,71.13515410476579
791.9631906931514,917.0,102.62287951983603
792.302673541179,955.0,112.55443546389198
792.9564923596026,943.0,110.15934718984718
793.9246471484221,930.0,73.65018078400472
794.8173613043465,817.0,64.85055012014803
795.7352223379027,980.0,65.12236112493272
796.6908036879063,565.0,63.92751567892333
797.6338115990941,628.0,63.63306214319582
798.5642460714661,792.0,67.17496862092861
799.3815195944956,867.0,75.42272121352121
800.0604852905507,653.0,76.98033774309425
800.9280525688436,414.0,84.3217438969404
801.5567245096354,540.0,80.11370685990337
802.3488511550331,452.0,80.11370685990337
803.2164184333259,905.0,67.0143350951975
804.2851607326721,968.0,78.7576942683241
804.8258186017531,1043.0,99.88935851953184
805.2784623991232,1031.0,103.26816472868217
806.1837499938636,880.0,86.9342196969697
807.151904782683,980.0,61.914144061092856
808.1955002043975,1031.0,59.21997400689231
809.2265221872962,917.0,61.28573764325594
810.1066629044049,402.0,98.92992439024388
810.4587191912483,515.0,111.34465999999998
811.0873911320401,930.0,108.01928439024388
812.1184131149388,1043.0,73.00034603407951
813.036274148495,943.0,90.89502353407951
813.4386241906018,917.0,110.2930479243234
813.9541351820511,993.0,109.9985943885959
814.884569654423,389.0,79.45547014160795
815.9281650761376,590.0,61.86792802778682
816.8711729873254,905.0,62.16238156351432
817.7890340208814,867.0,63.132726538350376
818.7823356873326,905.0,93.23512309749016
819.1721122906237,1068.0,105.2889231557822
819.7630639149679,968.0,107.24645937237854
820.6683515097083,892.0,78.98828078425325
821.535918788001,678.0,108.77043908212559
821.850254758397,377.0,120.5216063398088
822.4412063827414,1068.0,116.18226993742176
823.5099486820875,955.0,73.21438630105814
824.478103470907,980.0,61.77437671160653
825.3708176268315,1068.0,61.99715514297908
826.4269864873618,1031.0,60.05290701463683
827.495728786708,917.0,98.82793951734538
827.8226381959197,867.0,111.70453285067872
828.4513101367116,955.0,113.38393948717948
829.4320383643469,477.0,70.91894310708898
830.5007806636931,578.0,58.50420749733288
831.5318026465918,892.0,59.90097426937362
832.4496636801479,917.0,64.24031067176067
833.3172309584407,993.0,65.77173364993781
834.2728123084444,1031.0,85.8410667429443
834.7506029834461,955.0,97.36742906178489
835.3289811689747,993.0,98.8413338060399
836.2216953248991,1056.0,78.7720007130334
837.1395563584553,414.0,64.32757198435976
838.1328580249065,641.0,61.32224426192761
839.1638800078051,905.0,60.46212998651305
840.1194613578087,943.0,60.46212998651305
841.11276302426,968.0,60.000272262935816
842.1689318847903,930.0,87.27197640966628
842.5838553657129,880.0,98.32629857397504
843.2251007453206,955.0,101.4823263517528
844.1303883400609,427.0,74.48968150326797
845.0733962512487,590.0,63.95833747474747
846.0415510400682,1005.0,63.361251138411134
846.9719855124401,855.0,64.87614447174447
847.8521262295487,867.0,65.14795547652915
848.8077075795524,943.0,63.29035354126055
849.8261561236352,1320.0,60.44992854126055
850.8320312289022,641.0,62.91221646695713
851.6870250683792,867.0,66.32743493179879
852.5545923466719,1106.0,67.65296659846547
853.4976002578597,754.0,91.0447018925831
853.9250971775982,905.0,90.395329367578
854.8178113335226,930.0,100.37580309306819
855.4590567131304,993.0,76.64505714251406
856.3266239914232,943.0,72.31713684801983
857.4330866072169,892.0,67.6387897891963
858.1874929361671,980.0,66.67825959595959
859.0927805309074,968.0,70.09793588588587
860.0232150032793,880.0,63.72196078040065
861.0165166697305,829.0,62.83827300262287
861.9595245809184,855.0,63.74651700719082
862.8522387368428,968.0,64.00465365113759
863.8329669644781,1005.0,63.45378334810729
864.8011217532976,905.0,63.77383123543123
865.6812624704062,943.0,67.48161212121212
866.5111094322515,1005.0,70.21571105169339
867.3661032717284,930.0,68.14994741532976
868.3342580605479,930.0,63.932346657754
869.3401331658149,968.0,62.6328058080808
870.2454207605552,930.0,63.183676111111104
871.188428671743,867.0,63.183676111111104
872.19430377701,880.0,62.586589774774765
873.124738249382,968.0,62.873191216216206
874.0551727217539,955.0,63.647852579852575
875.0233275105734,880.0,63.647852579852575
875.9537619829454,930.0,65.20546910942562
876.8213292612381,1043.0,67.27123274578926
877.7014699783468,1043.0,66.43376100131752
878.6696247671663,905.0,64.3104837320574
879.6252061171699,943.0,64.3104837320574
880.5053468342785,1018.0,65.14795547652915
881.4357813066505,980.0,63.38282136112015
882.479376728365,892.0,59.8237346141322
883.5229721500795,917.0,60.42082095046854
884.4282597448198,1031.0,62.46501436412316
885.3712676560076,1031.0,62.93820728395061
886.3897162000904,917.0,61.238807711301035
887.3704444277257,829.0,62.433653157310424
888.2631585836502,917.0,64.58570862830653
889.1810196172063,980.0,63.59093814675556
890.2120416001051,905.0,60.585610424323406
891.2430635830037,892.0,60.585610424323406
892.1609246165598,980.0,65.28816179165526
892.9907715784051,1081.0,67.67969904524698
893.9086326119613,880.0,66.28293227320623
894.8893608395965,955.0,64.27455096007492
895.7946484343369,1093.0,64.88834142891537
896.6873625902613,955.0,64.88834142891537
897.6680908178967,905.0,61.29193768214534
898.7494065560586,867.0,61.61198556946928
899.6295472731672,829.0,62.148638066095465
900.5851286231709,804.0,61.9360427707199
901.6790178001487,867.0,60.142090139140954
902.6345991501523,842.0,61.30483721516435
903.5398867448927,829.0,66.07436645054665
904.4074540231854,905.0,69.24549483970135
905.2373009850307,1005.0,72.0070191452569
906.0420010692443,917.0,72.0070191452569
906.9095683475371,917.0,71.64730905932294
907.7519887481982,1018.0,70.89416606689869
908.5818357100435,1081.0,69.93363587366198
909.4871233047837,917.0,66.07574520202019
910.4929984100507,1018.0,63.76473108828005
911.4108594436069,414.0,63.46209828767122
912.3287204771631,628.0,63.216629460510724
913.3471690212459,1031.0,59.92285851434953
914.4284847594079,892.0,59.92285851434953
915.346345792964,943.0,59.92285851434953
916.3647943370469,943.0,60.59138106968716
917.4083897587614,993.0,58.199843816095445
918.43941174166,892.0,60.965689755932
919.3321258975844,867.0,63.009883169586615
920.2751338087722,641.0,64.82036544600939
921.21814171996,440.0,62.55167156118143
922.2114433864112,1081.0,63.74651700719082
923.1041575423357,968.0,65.5907349782053
923.9717248206284,1018.0,76.64505714251408
924.6129702002362,1093.0,99.68850502983801
925.0530405587905,1056.0,95.13157108983125
926.1343562969525,955.0,84.60022706131078
927.102511085772,867.0,58.79093323415028
928.1209596298548,917.0,58.578337938774716
929.2148488068327,1018.0,56.85686824180502
930.271017667363,528.0,58.14880943738657
931.2265990173667,553.0,62.91833867276887
932.0941662956594,955.0,65.77173364993781
933.0120273292156,1018.0,64.47979245435627
934.0304758732984,1131.0,59.92285851434953
935.1117916114604,590.0,59.06274423893497
936.0673729614641,528.0,59.06274423893497
937.085821505547,955.0,58.240709096816104
938.2174309989723,930.0,71.1546234305227
938.8083826233167,590.0,89.38945059101653
939.3364670535818,490.0,92.64514240388203
940.2920484035855,1043.0,80.29688880986248
941.2224828759574,955.0,76.2679171786568
941.8134345003018,905.0,96.1240595538255
942.3037986141194,1005.0,93.79326469872944
943.347394035834,590.0,112.97116966326845
943.7245972003091,465.0,106.76466687620044
944.3029753858376,980.0,109.69254806763284
945.2082629805778,993.0,76.55425640096618
946.2141380858449,1081.0,75.8185311465721
946.8050897101892,1031.0,96.71655291834387
947.2703069463752,955.0,97.22637279013873
948.2510351740106,968.0,83.51766931585918
949.2443368404616,917.0,59.023243797317384
950.3256525786237,905.0,58.02847331576641
951.3566745615224,653.0,58.823262456339364
952.312255911526,641.0,60.98510812230131
953.2804107003456,603.0,63.37664537589303
954.1982717339016,364.0,64.53939245191643
955.103559328642,704.0,59.324843466920825
956.3986235266732,414.0,70.67357348975187
957.0021485898334,917.0,103.43096525220398
957.3667783154926,1005.0,105.86021495221489
958.4858143701022,1081.0,94.51148492938384
959.4036754036583,993.0,59.54487372248729
960.4095505089253,917.0,60.16832734151002
961.4908662470873,1056.0,58.51342392552251
962.4841679135385,653.0,60.420010569358126
963.4020289470947,465.0,60.860386538350376
964.458197807625,565.0,71.31492061819458
965.1120166260486,440.0,92.51557519057518
965.5772338622345,980.0,108.92691963501962
966.1430386089472,1005.0,123.78452732732731
966.5831089675015,1056.0,101.18710598290596
967.5638371951368,930.0,85.72256987179486
968.5697123004038,943.0,103.90128987179486
968.8840482707998,1081.0,110.46846110169488
969.6258811609341,490.0,112.080594209803
970.5563156333061,641.0,69.66358087646968
971.4993235444939,968.0,61.199405472449186
972.580639282656,993.0,80.48988710793083
973.0710033964735,1068.0,90.47036083342101
973.7122487760813,452.0,130.8870886542651
974.0517316241089,603.0,121.91425891067537
974.6804035649008,930.0,154.3507985185185
974.9947395352967,855.0,124.89453925925925
975.673705231352,993.0,111.79516749455337
976.7424475306981,1056.0,67.10581416122004
977.7986163912285,905.0,59.14466301006889
978.7290508636004,829.0,63.823010068892415
979.5840447030773,930.0,97.90811006889241
979.9612478675525,1156.0,108.87500196078429
980.5773463695285,867.0,104.41943333333332
981.6335152300588,842.0,73.4903611111111
982.5388028247992,930.0,65.12893686868686
983.3686497866445,1043.0,67.6878783101283
984.2990842590164,993.0,62.88522734394473
985.4558406300735,842.0,61.83737622405013
986.3234079083662,666.0,64.0831337875838
987.1658283090273,704.0,68.28869841743105
988.0962627813993,553.0,64.40028703276195
989.1398582031138,867.0,60.79407958896825
990.133159869565,829.0,63.03983715250193
990.975580270226,892.0,73.88756163533894
991.6419725274654,1018.0,82.15715340749084
992.3460851011523,414.0,94.56715137221266
992.8993164090492,427.0,87.60783827404477
993.766883687342,892.0,83.30416403162053
994.5967306491873,880.0,69.55665250793297
995.4894448051117,980.0,66.14143404309131
996.5078933491945,968.0,65.78172395715734
997.3503137498557,892.0,65.78172395715734
998.2430279057801,905.0,68.86761778431784
999.1231686228887,540.0,65.51954698447092
1000.103896850524,502.0,63.77383123543123
1001.0720516393435,993.0,63.45378334810729
1001.964765795268,867.0,65.15318292075686
1002.8700533900083,829.0,63.659859810132545
1003.9136488117227,905.0,61.39116592530459
1004.9069504781739,867.0,62.3516961185413
1005.7745177564667,804.0,67.28795862310501
1006.604364718312,842.0,69.24549483970135
1007.5096523130522,1043.0,69.24549483970135
1008.377219591345,892.0,69.9986378321256
1009.1819196755587,842.0,71.64730905932294
1010.0243400762198,943.0,67.75889767465384
1011.0679354979343,1018.0,65.30853103732989
1011.9606496538587,905.0,65.30853103732989
1012.8030700545198,905.0,67.35272445098451
1013.7460779657076,1056.0,64.58687851114794
1014.7645265097905,980.0,62.93820728395061
1015.6698141045308,867.0,63.82189506172839
1016.575101699271,880.0,63.120555555555555
1017.6312705598014,943.0,61.42115598290598
1018.6119987874367,892.0,62.38168617614269
1019.4795660657295,829.0,66.16891950947603
1020.3597067828381,892.0,66.98463130434781
1021.3027146940259,943.0,66.33525877934272
1022.1954288499504,930.0,67.71243453691847
1023.0252758117956,880.0,68.90727998292786
1023.9179899677201,880.0,67.71243453691847
1024.860997878908,968.0,65.10696688745082
1025.7914323512798,968.0,65.42701477477476
1026.6715730683884,855.0,66.9419081081081
1027.5517137854972,943.0,66.10443636363635
1028.5198685743167,993.0,64.03867272727273
1029.488023363136,880.0,64.70700802139037
1030.343017202613,855.0,65.25787832442067
1031.2860251138009,1005.0,64.7349001886324
1032.279326780252,968.0,64.06656489451476
1033.1594674973605,427.0,66.24979352196574
1034.0144613368375,490.0,65.99811029411762
1035.0203364421045,955.0,63.932346657754
1035.988491230924,1043.0,87.32408195187165
1036.4159881506625,1031.0,108.22669669546138
1036.9063522644801,880.0,108.49850770024608
1037.8619336144839,980.0,80.87935036502284
1038.9055290361982,414.0,59.491785011676996
1039.936551019097,704.0,61.28573764325594
1040.8166917362057,943.0,62.514219262038765
1041.7974199638409,842.0,91.31734638694638
1042.2123434447635,892.0,96.99819638694638
1042.9164560184504,980.0,97.81390818181816
1043.8594639296382,1005.0,73.35362233830844
1044.7018843302994,855.0,67.35272445098451
1045.5945984862237,855.0,66.53701265611272
1046.575326713859,943.0,62.67912198447092
1047.5812018191261,1005.0,63.6675051659125
1048.436195658603,880.0,66.66644558823528
1049.29118949808,905.0,67.99197725490194
1050.2341974092678,1018.0,64.48321696078429
1051.2400725145349,565.0,63.81488166666666
1052.1202132316434,465.0,64.69856944444444
1053.0255008263837,905.0,64.45310061728395
1054.0439493704666,905.0,77.07721172839504
1054.6097541171794,427.0,97.97523350016681
1055.0749713533653,553.0,100.42992177177176
1055.9802589481055,1106.0,87.1746051051051
1056.8855465428458,930.0,64.57718376068377
1057.8662747704811,855.0,60.56042113442113
1058.9727373862747,980.0,59.96333479808479
1059.9031718586468,968.0,62.96227522040756
1060.7581656981238,829.0,65.27963827402061
1061.7388939257592,1005.0,64.44216652954887
1062.7070487145786,930.0,65.15100699300699
1063.536895676424,1081.0,103.67073063973064
1063.8763785244514,754.0,113.02513201194333
1064.5427707816907,590.0,110.41966436247569
1065.4732052540628,452.0,77.16259745686038
1066.2527584606446,930.0,66.086726387678
1067.3089273211751,766.0,78.43497998169754
1067.8998789455195,678.0,96.9639172576832
1068.3525227428895,414.0,99.52285869912464
1069.2829572152616,792.0,91.75552978388222
1070.0499369830277,590.0,77.0274001542526
1070.728902679083,993.0,103.73344356129601
1071.1438261600053,641.0,102.90563299663299
1071.9359528054033,364.0,107.29273543950137
1072.5269044297477,1018.0,79.22624215219797
1073.5202060961988,892.0,73.86099492997575
1074.5260812014658,905.0,59.655139400687595
1075.5445297455485,389.0,61.92383328551555
1076.437243901473,590.0,64.13305272996
1077.3425314962133,515.0,64.88834142891537
1078.3232597238487,515.0,61.88301370648321
1079.3542817067473,1018.0,59.42832543487827
1080.37273025083,892.0,61.43888267575945
1081.2654444067546,930.0,63.53596639362366
1082.1958788791264,1005.0,63.781435220784154
1083.2017539843935,553.0,77.52894674447172
1083.7549852922905,502.0,95.79978863636362
1084.2579228449238,465.0,97.41192174447173
1085.1883573172959,465.0,82.19050547652915
1086.1439386672994,955.0,80.29688880986248
1086.6720230975648,528.0,98.56773070175437
1087.1749606501983,502.0,119.49717807017542
1087.6527513252,477.0,116.20393169336383
1088.2311295107286,578.0,96.83077656515871
1089.2118577383637,980.0,77.06407627276104
1090.1171453331042,905.0,63.414436684660366
1091.0727266831077,955.0,94.33254503867195
1091.4625032863987,1031.0,103.42933098638434
1092.1037486660064,993.0,102.63454184581141
1093.0970503324577,880.0,74.04703862000495
1093.9771910495663,892.0,65.26141034052415
1094.8699052054906,955.0,66.05619948109711
1095.8254865554943,1018.0,62.970305653936606
1096.843935099577,905.0,62.659147985705
1097.7492226943175,867.0,64.7824252549651
1098.6167899726101,867.0,68.19764371980675
1099.484357250903,955.0,67.03489664378336
1100.4399386009065,917.0,65.77173364993781
1101.3577996344627,892.0,65.12236112493272
1102.2505137903872,968.0,64.85055012014803
1103.2186685792067,1005.0,62.94396347631241
1104.2245436844737,1005.0,60.42358636363635
1105.2304187897407,892.0,62.16930211267604
1106.1231329456652,955.0,63.2157744810971
1107.0787142956688,943.0,64.54130614776378
1108.0217222068566,930.0,63.63306214319582
1108.9521566792287,880.0,65.42701477477476
1109.8322973963373,892.0,66.62186022078416
1110.7250115522615,930.0,66.62186022078416
1111.6554460246336,968.0,64.55609658442052
1112.623600813453,892.0,64.55609658442052
1113.5163149693776,980.0,63.45378334810729
1114.4970431970128,440.0,88.24294698447092
1114.9371135555673,641.0,97.02857526395172
1115.578358935175,993.0,96.77043862000494
1116.571660601626,892.0,73.726990732681
1117.4643747575506,892.0,103.71639495590875
1117.7912841667624,930.0,118.92924783917177
1118.3570889134749,930.0,118.02100383460382
1119.287523385847,867.0,78.33772732732731
1120.2179578582188,855.0,66.04294085389736
1121.0855251365117,905.0,67.9395680399069
1121.9405189759887,452.0,68.53665437624323
1122.8458065707289,477.0,89.66831862745097
1123.298450368099,892.0,108.13547807017544
1123.776241043101,867.0,108.44663573840705
1124.6689551990253,980.0,87.31497148719932
1125.5365224773182,955.0,102.26457675035721
1125.8885787641616,892.0,111.67398463768114
1126.5172507049535,817.0,109.55070736842103
1127.472832054957,867.0,75.14555948109711
1128.3655462108816,917.0,67.80415332725096
1129.182819733911,829.0,69.92743059651106
1130.0503870122038,867.0,69.31364012767061
1130.96824804576,880.0,68.94286203909252
1131.798095007605,880.0,68.94286203909252
1132.665662285898,817.0,69.8767003952569
1133.5458030030065,917.0,68.49952463768115
1134.4259437201151,905.0,69.91815384615384
1135.2432172431445,804.0,108.37313846153845
1135.5701266523563,905.0,119.4931001636661
1136.1610782767007,1031.0,117.1139407619567
1137.0663658714411,440.0,80.7892748965721
1137.8710659556546,477.0,69.03810763888889
1138.776353550395,855.0,66.34393758468835
1139.8073755332937,1031.0,86.93701883468833
1140.247445891848,980.0,106.703719127086
1140.7252365668496,829.0,110.69743003095974
1141.5802304063266,905.0,84.64865442120364
1142.6112523892252,1043.0,63.18255455615641
1143.5919806168606,842.0,63.89139501961452
1144.421827578706,867.0,66.58556507381508
1145.3271151734461,905.0,65.35708345503224
1146.3707105951607,1056.0,64.99737336909828
1147.2131309958218,565.0,65.95790356233499
1148.0806982741146,880.0,68.88578475376738
1148.9859858688549,779.0,64.08108574879226
1150.0421547293852,867.0,76.37587222222221
1150.607959476098,729.0,77.00707777777777
1151.4881001932065,766.0,83.72636272401432
1152.2676533997885,766.0,71.43157625058437
1153.1352206780812,855.0,76.13296935403265
1153.8644801294,842.0,76.55355052801468
1154.631459897166,817.0,79.57685867721875
1155.398439664932,766.0,75.54380086788812
1156.253433504409,867.0,73.20863375264467
1157.09585390507,880.0,71.60395481191327
1157.9131274280994,980.0,74.28825230468087
1158.6801071958655,867.0,73.60011127072025
1159.5476744741584,842.0,71.8521574245664
1160.427815191267,867.0,66.16891950947601
1161.4085434189024,943.0,66.16891950947603
1162.276110697195,993.0,67.18638518111781
1163.1185310978562,917.0,69.8463149470041
1163.986098376149,829.0,68.00209697598962
1164.9291062873367,880.0,64.39588953219592
1165.9224079537878,968.0,63.132726538350376
1166.840268987344,968.0,66.02479562925947
1167.6701159491893,930.0,68.61353740141136
1168.5502566662979,867.0,67.48161212121212
1169.5184114551173,968.0,64.03867272727273
1170.486566243937,1031.0,84.30548894348894
1170.951783480123,968.0,106.63806879606878
1171.4170007163088,943.0,109.03315707011357
1172.2845679946017,955.0,86.70057721753372
1173.2527227834212,1043.0,63.10838539156142
1174.2837447663198,980.0,60.713297117516625
1175.2518995551393,855.0,61.264167420546926
1176.194907466327,980.0,62.79559039872408
1177.1504888163308,1068.0,61.30226728809976
1178.1940842380452,1056.0,60.48655549322797
1179.1748124656806,905.0,62.948843418924554
1180.0298063051575,993.0,84.57011990950225
1180.520170418975,1018.0,104.96291478129712
1181.010534532793,1043.0,100.2845677224736
1182.079276832139,880.0,78.43514464555052
1183.1354456926692,905.0,59.74174934640523
1184.0407332874097,1068.0,61.16301933895921
1185.0340349538608,1068.0,61.864358845132045
1186.0524834979435,917.0,58.93647765369965
1187.096078919658,1018.0,61.525219425851546
1187.9762196367667,1068.0,63.97990769745649
1188.881507231507,666.0,63.52898267973856
1189.9502495308532,N/A,59.51897091503268
1191.0189918301994,N/A,59.21633811442384
1191.9368528637556,N/A,60.14045605196923
1192.9553014078383,N/A,60.140456051969224
1194.0240437071845,N/A,68.36293214398266
1194.6904359644238,N/A,78.73746370699222
