2022-12-14 14:42:00.941732, 1.62267
2022-12-14 14:42:00.941970, 1.62267
2022-12-14 14:42:00.941970, 1.62267
2022-12-14 14:42:00.975283, 1.61290
2022-12-14 14:42:00.975283, 1.62267
2022-12-14 14:42:00.976315, 1.62267
2022-12-14 14:42:01.008731, 1.63734
2022-12-14 14:42:01.009733, 1.62267
2022-12-14 14:42:01.042276, 1.61290
2022-12-14 14:42:01.042276, 1.62756
2022-12-14 14:42:01.043310, 1.61290
2022-12-14 14:42:01.075853, 1.60312
2022-12-14 14:42:01.075853, 1.62756
2022-12-14 14:42:01.076857, 1.61290
2022-12-14 14:42:01.109264, 1.60801
2022-12-14 14:42:01.110267, 1.59824
2022-12-14 14:42:01.142619, 1.59824
2022-12-14 14:42:01.142619, 1.60801
2022-12-14 14:42:01.143623, 1.60312
2022-12-14 14:42:01.175961, 1.59824
2022-12-14 14:42:01.176965, 1.59335
2022-12-14 14:42:01.176965, 1.60312
2022-12-14 14:42:01.209406, 1.61290
2022-12-14 14:42:01.209406, 1.59335
2022-12-14 14:42:01.242868, 1.59824
2022-12-14 14:42:01.242868, 1.60801
2022-12-14 14:42:01.243865, 1.61290
2022-12-14 14:42:01.275872, 1.61290
2022-12-14 14:42:01.276879, 1.62267
2022-12-14 14:42:01.276879, 1.63734
2022-12-14 14:42:01.309315, 1.64222
2022-12-14 14:42:01.310319, 1.63245
2022-12-14 14:42:01.343689, 1.64222
2022-12-14 14:42:01.343689, 1.64711
2022-12-14 14:42:01.344686, 1.68132
2022-12-14 14:42:01.377428, 1.65689
2022-12-14 14:42:01.377771, 1.64222
2022-12-14 14:42:01.377771, 1.64711
2022-12-14 14:42:01.410856, 1.64711
2022-12-14 14:42:01.411459, 1.63734
2022-12-14 14:42:01.444245, 1.66177
2022-12-14 14:42:01.444535, 1.64222
2022-12-14 14:42:01.444535, 1.64222
2022-12-14 14:42:01.477582, 1.62756
2022-12-14 14:42:01.477937, 1.63734
2022-12-14 14:42:01.477937, 1.63245
2022-12-14 14:42:01.511558, 1.63245
2022-12-14 14:42:01.512559, 1.62267
2022-12-14 14:42:01.544780, 1.62267
2022-12-14 14:42:01.544780, 1.62756
2022-12-14 14:42:01.544780, 1.63734
2022-12-14 14:42:01.578211, 1.62756
2022-12-14 14:42:01.578869, 1.62756
2022-12-14 14:42:01.578869, 1.63245
2022-12-14 14:42:01.612335, 1.64222
2022-12-14 14:42:01.612335, 1.63245
2022-12-14 14:42:01.645382, 1.63245
2022-12-14 14:42:01.645621, 1.63734
2022-12-14 14:42:01.645621, 1.64711
2022-12-14 14:42:01.679293, 1.63734
2022-12-14 14:42:01.679582, 1.63245
2022-12-14 14:42:01.679582, 1.63734
2022-12-14 14:42:01.712799, 1.66177
2022-12-14 14:42:01.713139, 1.64222
2022-12-14 14:42:01.746279, 1.62756
2022-12-14 14:42:01.746515, 1.63245
2022-12-14 14:42:01.747120, 1.63734
2022-12-14 14:42:01.779344, 1.62756
2022-12-14 14:42:01.779344, 1.62756
2022-12-14 14:42:01.780369, 1.62756
2022-12-14 14:42:01.813381, 1.63245
2022-12-14 14:42:01.813381, 1.63245
2022-12-14 14:42:01.846815, 1.62267
2022-12-14 14:42:01.847367, 1.62756
2022-12-14 14:42:01.847367, 1.63245
2022-12-14 14:42:01.879322, 1.62756
2022-12-14 14:42:01.880312, 1.62267
2022-12-14 14:42:01.880312, 1.62267
2022-12-14 14:42:01.914012, 1.62756
2022-12-14 14:42:01.914396, 1.62756
2022-12-14 14:42:01.947583, 1.61779
2022-12-14 14:42:01.947849, 1.62267
2022-12-14 14:42:01.948852, 1.62756
2022-12-14 14:42:01.981206, 1.62756
2022-12-14 14:42:01.981496, 1.61779
2022-12-14 14:42:01.981496, 1.61779
2022-12-14 14:42:02.014516, 1.62267
2022-12-14 14:42:02.014516, 1.62756
2022-12-14 14:42:02.048109, 1.61779
2022-12-14 14:42:02.048347, 1.61779
2022-12-14 14:42:02.048901, 1.65200
2022-12-14 14:42:02.081641, 1.64222
2022-12-14 14:42:02.081930, 1.63245
2022-12-14 14:42:02.082528, 1.63734
2022-12-14 14:42:02.115101, 1.65200
2022-12-14 14:42:02.115101, 1.66177
2022-12-14 14:42:02.147988, 1.65689
2022-12-14 14:42:02.147988, 1.66177
2022-12-14 14:42:02.148994, 1.67155
2022-12-14 14:42:02.181335, 1.67155
2022-12-14 14:42:02.181984, 1.66666
2022-12-14 14:42:02.181984, 1.66666
2022-12-14 14:42:02.215727, 1.67155
2022-12-14 14:42:02.215727, 1.67644
2022-12-14 14:42:02.249301, 1.66177
2022-12-14 14:42:02.249538, 1.66666
2022-12-14 14:42:02.249538, 1.66666
2022-12-14 14:42:02.282877, 1.67155
2022-12-14 14:42:02.283166, 1.66177
2022-12-14 14:42:02.283166, 1.65689
2022-12-14 14:42:02.316372, 1.66666
2022-12-14 14:42:02.316372, 1.66177
2022-12-14 14:42:02.350101, 1.65689
2022-12-14 14:42:02.350339, 1.65200
2022-12-14 14:42:02.350339, 1.68132
2022-12-14 14:42:02.383424, 1.66666
2022-12-14 14:42:02.383424, 1.65689
2022-12-14 14:42:02.384231, 1.65689
2022-12-14 14:42:02.416915, 1.66177
2022-12-14 14:42:02.417298, 1.67155
2022-12-14 14:42:02.450403, 1.66177
2022-12-14 14:42:02.450641, 1.65689
2022-12-14 14:42:02.450641, 1.67155
2022-12-14 14:42:02.483965, 1.67155
2022-12-14 14:42:02.484253, 1.66177
2022-12-14 14:42:02.484253, 1.65689
2022-12-14 14:42:02.517594, 1.65689
2022-12-14 14:42:02.517939, 1.68132
2022-12-14 14:42:02.551125, 1.65689
2022-12-14 14:42:02.551366, 1.65200
2022-12-14 14:42:02.552368, 1.65200
2022-12-14 14:42:02.584635, 1.65689
2022-12-14 14:42:02.584635, 1.65689
2022-12-14 14:42:02.585492, 1.64711
2022-12-14 14:42:02.618330, 1.65200
2022-12-14 14:42:02.618676, 1.65200
2022-12-14 14:42:02.651779, 1.64711
2022-12-14 14:42:02.651779, 1.64222
2022-12-14 14:42:02.652780, 1.64711
2022-12-14 14:42:02.685132, 1.66666
2022-12-14 14:42:02.685898, 1.64222
2022-12-14 14:42:02.685898, 1.63734
2022-12-14 14:42:02.717905, 1.63734
2022-12-14 14:42:02.718911, 1.64222
2022-12-14 14:42:02.751838, 1.64222
2022-12-14 14:42:02.752056, 1.63245
2022-12-14 14:42:02.752056, 1.63245
2022-12-14 14:42:02.785685, 1.64222
2022-12-14 14:42:02.785685, 1.64222
2022-12-14 14:42:02.786633, 1.63245
2022-12-14 14:42:02.818748, 1.62756
2022-12-14 14:42:02.818748, 1.62756
2022-12-14 14:42:02.852719, 1.63245
2022-12-14 14:42:02.852959, 1.62756
2022-12-14 14:42:02.853599, 1.62756
2022-12-14 14:42:02.886450, 1.63245
2022-12-14 14:42:02.886746, 1.63245
2022-12-14 14:42:02.887217, 1.62267
2022-12-14 14:42:02.920130, 1.62267
2022-12-14 14:42:02.920130, 1.62756
2022-12-14 14:42:02.953436, 1.63245
2022-12-14 14:42:02.953436, 1.62267
2022-12-14 14:42:02.954438, 1.62756
2022-12-14 14:42:02.986388, 1.63734
2022-12-14 14:42:02.987395, 1.65200
2022-12-14 14:42:02.987395, 1.64711
2022-12-14 14:42:03.019510, 1.65689
2022-12-14 14:42:03.020357, 1.66666
2022-12-14 14:42:03.054058, 1.68132
2022-12-14 14:42:03.054294, 1.67644
2022-12-14 14:42:03.054294, 1.70576
2022-12-14 14:42:03.087656, 1.68621
2022-12-14 14:42:03.087947, 1.69110
2022-12-14 14:42:03.088949, 1.68132
2022-12-14 14:42:03.121280, 1.67644
2022-12-14 14:42:03.121280, 1.68132
2022-12-14 14:42:03.154952, 1.69110
2022-12-14 14:42:03.155192, 1.68132
2022-12-14 14:42:03.155720, 1.69110
2022-12-14 14:42:03.188462, 1.68132
2022-12-14 14:42:03.188790, 1.68621
2022-12-14 14:42:03.189793, 1.67644
2022-12-14 14:42:03.221923, 1.67155
2022-12-14 14:42:03.221923, 1.67644
2022-12-14 14:42:03.255350, 1.68132
2022-12-14 14:42:03.255623, 1.67644
2022-12-14 14:42:03.256625, 1.67155
2022-12-14 14:42:03.287559, 1.67155
2022-12-14 14:42:03.288597, 1.69599
2022-12-14 14:42:03.288597, 1.70087
2022-12-14 14:42:03.322177, 1.67155
2022-12-14 14:42:03.322522, 1.67155
2022-12-14 14:42:03.355737, 1.68132
2022-12-14 14:42:03.355737, 1.70576
2022-12-14 14:42:03.356737, 1.67644
2022-12-14 14:42:03.389319, 1.67155
2022-12-14 14:42:03.389609, 1.67644
2022-12-14 14:42:03.390161, 1.67644
2022-12-14 14:42:03.422939, 1.66666
2022-12-14 14:42:03.423284, 1.66666
2022-12-14 14:42:03.456447, 1.67155
2022-12-14 14:42:03.456687, 1.66666
2022-12-14 14:42:03.457163, 1.65689
2022-12-14 14:42:03.490001, 1.66177
2022-12-14 14:42:03.490323, 1.66666
2022-12-14 14:42:03.490323, 1.66666
2022-12-14 14:42:03.523350, 1.65689
2022-12-14 14:42:03.523751, 1.65689
2022-12-14 14:42:03.557126, 1.65689
2022-12-14 14:42:03.557585, 1.65689
2022-12-14 14:42:03.558587, 1.65200
2022-12-14 14:42:03.590357, 1.64711
2022-12-14 14:42:03.590357, 1.65200
2022-12-14 14:42:03.591395, 1.65200
2022-12-14 14:42:03.623510, 1.64222
2022-12-14 14:42:03.623829, 1.64222
2022-12-14 14:42:03.657567, 1.64222
2022-12-14 14:42:03.657831, 1.66666
2022-12-14 14:42:03.658833, 1.63245
2022-12-14 14:42:03.691057, 1.62756
2022-12-14 14:42:03.691347, 1.62756
2022-12-14 14:42:03.691347, 1.63245
2022-12-14 14:42:03.724660, 1.62267
2022-12-14 14:42:03.724998, 1.62267
2022-12-14 14:42:03.758208, 1.62267
2022-12-14 14:42:03.758448, 1.62756
2022-12-14 14:42:03.758448, 1.62267
2022-12-14 14:42:03.791702, 1.61779
2022-12-14 14:42:03.791702, 1.62756
2022-12-14 14:42:03.792720, 1.62756
2022-12-14 14:42:03.825328, 1.62267
2022-12-14 14:42:03.825716, 1.63245
2022-12-14 14:42:03.858829, 1.63734
2022-12-14 14:42:03.859855, 1.65200
2022-12-14 14:42:03.859855, 1.65689
2022-12-14 14:42:03.892716, 1.65689
2022-12-14 14:42:03.892716, 1.66666
2022-12-14 14:42:03.893720, 1.68132
2022-12-14 14:42:03.925118, 1.69110
2022-12-14 14:42:03.925118, 1.68132
2022-12-14 14:42:03.958066, 1.68621
2022-12-14 14:42:03.959061, 1.69110
2022-12-14 14:42:03.959061, 1.68621
2022-12-14 14:42:03.992787, 1.69110
2022-12-14 14:42:03.993079, 1.68621
2022-12-14 14:42:03.993079, 1.69110
2022-12-14 14:42:04.026369, 1.68621
2022-12-14 14:42:04.027370, 1.67644
2022-12-14 14:42:04.059866, 1.68132
2022-12-14 14:42:04.059866, 1.68621
2022-12-14 14:42:04.060869, 1.69110
2022-12-14 14:42:04.093410, 1.68621
2022-12-14 14:42:04.094412, 1.68132
2022-12-14 14:42:04.094412, 1.68621
2022-12-14 14:42:04.127016, 1.68132
2022-12-14 14:42:04.128022, 1.70087
2022-12-14 14:42:04.160476, 1.67155
2022-12-14 14:42:04.161323, 1.67644
2022-12-14 14:42:04.161323, 1.68132
2022-12-14 14:42:04.193806, 1.67644
2022-12-14 14:42:04.194814, 1.67644
2022-12-14 14:42:04.195811, 1.68132
2022-12-14 14:42:04.226739, 1.68132
2022-12-14 14:42:04.227733, 1.67155
2022-12-14 14:42:04.260566, 1.67644
2022-12-14 14:42:04.260566, 1.67644
2022-12-14 14:42:04.261564, 1.67644
2022-12-14 14:42:04.293613, 1.66666
2022-12-14 14:42:04.294609, 1.66666
2022-12-14 14:42:04.294609, 1.66666
2022-12-14 14:42:04.327534, 1.66666
2022-12-14 14:42:04.327534, 1.65689
2022-12-14 14:42:04.360460, 1.65689
2022-12-14 14:42:04.361406, 1.65689
2022-12-14 14:42:04.361806, 1.66177
2022-12-14 14:42:04.394718, 1.65200
2022-12-14 14:42:04.394718, 1.65200
2022-12-14 14:42:04.395741, 1.64711
2022-12-14 14:42:04.428254, 1.65200
2022-12-14 14:42:04.428254, 1.65689
2022-12-14 14:42:04.461506, 1.66177
2022-12-14 14:42:04.461506, 1.65689
2022-12-14 14:42:04.462510, 1.64222
2022-12-14 14:42:04.495096, 1.62756
2022-12-14 14:42:04.496096, 1.62756
2022-12-14 14:42:04.496096, 1.62756
2022-12-14 14:42:04.528937, 1.63245
2022-12-14 14:42:04.528937, 1.63245
2022-12-14 14:42:04.562370, 1.63245
2022-12-14 14:42:04.562370, 1.63245
2022-12-14 14:42:04.563368, 1.65200
2022-12-14 14:42:04.595924, 1.61779
2022-12-14 14:42:04.595924, 1.61290
2022-12-14 14:42:04.596785, 1.61779
2022-12-14 14:42:04.629418, 1.62756
2022-12-14 14:42:04.630180, 1.62267
2022-12-14 14:42:04.663038, 1.62267
2022-12-14 14:42:04.663038, 1.63245
2022-12-14 14:42:04.664043, 1.64711
2022-12-14 14:42:04.696925, 1.64711
2022-12-14 14:42:04.697220, 1.65200
2022-12-14 14:42:04.697695, 1.65200
2022-12-14 14:42:04.730337, 1.66666
2022-12-14 14:42:04.730337, 1.66666
2022-12-14 14:42:04.763995, 1.66177
2022-12-14 14:42:04.764234, 1.66177
2022-12-14 14:42:04.764852, 1.66666
2022-12-14 14:42:04.797526, 1.66177
2022-12-14 14:42:04.797822, 1.65689
2022-12-14 14:42:04.797822, 1.66177
2022-12-14 14:42:04.830999, 1.66177
2022-12-14 14:42:04.830999, 1.65689
2022-12-14 14:42:04.863759, 1.65200
2022-12-14 14:42:04.863759, 1.65200
2022-12-14 14:42:04.864720, 1.65689
2022-12-14 14:42:04.898084, 1.65200
2022-12-14 14:42:04.898084, 1.64222
2022-12-14 14:42:04.899087, 1.64222
2022-12-14 14:42:04.931647, 1.64711
2022-12-14 14:42:04.931647, 1.64711
2022-12-14 14:42:04.964948, 1.64222
2022-12-14 14:42:04.964948, 1.64222
2022-12-14 14:42:04.965950, 1.64711
2022-12-14 14:42:04.998230, 1.64711
2022-12-14 14:42:04.998230, 1.64222
2022-12-14 14:42:04.999232, 1.64222
2022-12-14 14:42:05.032148, 1.64711
2022-12-14 14:42:05.032148, 1.64711
2022-12-14 14:42:05.065639, 1.64222
2022-12-14 14:42:05.065877, 1.64222
2022-12-14 14:42:05.066481, 1.64711
2022-12-14 14:42:05.098870, 1.64711
2022-12-14 14:42:05.098870, 1.63245
2022-12-14 14:42:05.099716, 1.63734
2022-12-14 14:42:05.132551, 1.63734
2022-12-14 14:42:05.133364, 1.64222
2022-12-14 14:42:05.165683, 1.63734
2022-12-14 14:42:05.165683, 1.63245
2022-12-14 14:42:05.166685, 1.63245
2022-12-14 14:42:05.199775, 1.63245
2022-12-14 14:42:05.200066, 1.62267
2022-12-14 14:42:05.200663, 1.62267
2022-12-14 14:42:05.232950, 1.62267
2022-12-14 14:42:05.232950, 1.62756
2022-12-14 14:42:05.266866, 1.61779
2022-12-14 14:42:05.267133, 1.61290
2022-12-14 14:42:05.268145, 1.61779
2022-12-14 14:42:05.299273, 1.62267
2022-12-14 14:42:05.300273, 1.61779
2022-12-14 14:42:05.300273, 1.61779
2022-12-14 14:42:05.333825, 1.61779
2022-12-14 14:42:05.333825, 1.63245
2022-12-14 14:42:05.367600, 1.60801
2022-12-14 14:42:05.367836, 1.60801
2022-12-14 14:42:05.367836, 1.61290
2022-12-14 14:42:05.401144, 1.62267
2022-12-14 14:42:05.401433, 1.61779
2022-12-14 14:42:05.401909, 1.62267
2022-12-14 14:42:05.434582, 1.63245
2022-12-14 14:42:05.434582, 1.64222
2022-12-14 14:42:05.468097, 1.65200
2022-12-14 14:42:05.468466, 1.65200
2022-12-14 14:42:05.469468, 1.65200
2022-12-14 14:42:05.500653, 1.66177
2022-12-14 14:42:05.501654, 1.65689
2022-12-14 14:42:05.501654, 1.66666
2022-12-14 14:42:05.535031, 1.65200
2022-12-14 14:42:05.535447, 1.65689
2022-12-14 14:42:05.568704, 1.65200
2022-12-14 14:42:05.568704, 1.64711
2022-12-14 14:42:05.569705, 1.66666
2022-12-14 14:42:05.602365, 1.65200
2022-12-14 14:42:05.602653, 1.64711
2022-12-14 14:42:05.602653, 1.63734
2022-12-14 14:42:05.635703, 1.64222
2022-12-14 14:42:05.635703, 1.64711
2022-12-14 14:42:05.669389, 1.64222
2022-12-14 14:42:05.669389, 1.62756
2022-12-14 14:42:05.670235, 1.63245
2022-12-14 14:42:05.702849, 1.63734
2022-12-14 14:42:05.703139, 1.63734
2022-12-14 14:42:05.704141, 1.62756
2022-12-14 14:42:05.736059, 1.63245
2022-12-14 14:42:05.736059, 1.64222
2022-12-14 14:42:05.769794, 1.64222
2022-12-14 14:42:05.769794, 1.63734
2022-12-14 14:42:05.770813, 1.64222
2022-12-14 14:42:05.802699, 1.64222
2022-12-14 14:42:05.803728, 1.64711
2022-12-14 14:42:05.803728, 1.63245
2022-12-14 14:42:05.836102, 1.63734
2022-12-14 14:42:05.837067, 1.64222
2022-12-14 14:42:05.869533, 1.64222
2022-12-14 14:42:05.870498, 1.63245
2022-12-14 14:42:05.870498, 1.62756
2022-12-14 14:42:05.904048, 1.63245
2022-12-14 14:42:05.904340, 1.64222
2022-12-14 14:42:05.904892, 1.65689
2022-12-14 14:42:05.937499, 1.63734
2022-12-14 14:42:05.937842, 1.63245
2022-12-14 14:42:05.971201, 1.65200
2022-12-14 14:42:05.971438, 1.62267
2022-12-14 14:42:05.971438, 1.62267
2022-12-14 14:42:06.004842, 1.62756
2022-12-14 14:42:06.005169, 1.63245
2022-12-14 14:42:06.005631, 1.61779
2022-12-14 14:42:06.037991, 1.61779
2022-12-14 14:42:06.037991, 1.62267
2022-12-14 14:42:06.071595, 1.62756
2022-12-14 14:42:06.071595, 1.62267
2022-12-14 14:42:06.072597, 1.62267
2022-12-14 14:42:06.104504, 1.61779
2022-12-14 14:42:06.105512, 1.63245
2022-12-14 14:42:06.105512, 1.62756
2022-12-14 14:42:06.138512, 1.62756
2022-12-14 14:42:06.138512, 1.63734
2022-12-14 14:42:06.171222, 1.64222
2022-12-14 14:42:06.172172, 1.63734
2022-12-14 14:42:06.172172, 1.63734
2022-12-14 14:42:06.205817, 1.65200
2022-12-14 14:42:06.206105, 1.66666
2022-12-14 14:42:06.206105, 1.66666
2022-12-14 14:42:06.239281, 1.67644
2022-12-14 14:42:06.239622, 1.68132
2022-12-14 14:42:06.272919, 1.68621
2022-12-14 14:42:06.273156, 1.68621
2022-12-14 14:42:06.273713, 1.68132
2022-12-14 14:42:06.306558, 1.68621
2022-12-14 14:42:06.306846, 1.69110
2022-12-14 14:42:06.306846, 1.68621
2022-12-14 14:42:06.339813, 1.67644
2022-12-14 14:42:06.340154, 1.70576
2022-12-14 14:42:06.373187, 1.69110
2022-12-14 14:42:06.374197, 1.68621
2022-12-14 14:42:06.374197, 1.67644
2022-12-14 14:42:06.406494, 1.67644
2022-12-14 14:42:06.406494, 1.68132
2022-12-14 14:42:06.407491, 1.68621
2022-12-14 14:42:06.440286, 1.67155
2022-12-14 14:42:06.440627, 1.67155
2022-12-14 14:42:06.473978, 1.67644
2022-12-14 14:42:06.474216, 1.67644
2022-12-14 14:42:06.474216, 1.67155
2022-12-14 14:42:06.507085, 1.69599
2022-12-14 14:42:06.507085, 1.68132
2022-12-14 14:42:06.507085, 1.68132
2022-12-14 14:42:06.540292, 1.67644
2022-12-14 14:42:06.540292, 1.67644
2022-12-14 14:42:06.573416, 1.68132
2022-12-14 14:42:06.574419, 1.68621
2022-12-14 14:42:06.574419, 1.68132
2022-12-14 14:42:06.608108, 1.67155
2022-12-14 14:42:06.609111, 1.67644
2022-12-14 14:42:06.609111, 1.68132
2022-12-14 14:42:06.641361, 1.66666
2022-12-14 14:42:06.641361, 1.67644
2022-12-14 14:42:06.674280, 1.69599
2022-12-14 14:42:06.674781, 1.67155
2022-12-14 14:42:06.674781, 1.66177
2022-12-14 14:42:06.708626, 1.66177
2022-12-14 14:42:06.708917, 1.66177
2022-12-14 14:42:06.709919, 1.66666
2022-12-14 14:42:06.742111, 1.65689
2022-12-14 14:42:06.742453, 1.65689
2022-12-14 14:42:06.775781, 1.65689
2022-12-14 14:42:06.776016, 1.66177
2022-12-14 14:42:06.777018, 1.65689
2022-12-14 14:42:06.809376, 1.65200
2022-12-14 14:42:06.809666, 1.65200
2022-12-14 14:42:06.810177, 1.65689
2022-12-14 14:42:06.842596, 1.64711
2022-12-14 14:42:06.843293, 1.64711
2022-12-14 14:42:06.876429, 1.64711
2022-12-14 14:42:06.876713, 1.65689
2022-12-14 14:42:06.877714, 1.67644
2022-12-14 14:42:06.909907, 1.66177
2022-12-14 14:42:06.910939, 1.64711
2022-12-14 14:42:06.910939, 1.65689
2022-12-14 14:42:06.942469, 1.63734
2022-12-14 14:42:06.943468, 1.63734
2022-12-14 14:42:06.976747, 1.67155
2022-12-14 14:42:06.976747, 1.64711
2022-12-14 14:42:06.977748, 1.65200
2022-12-14 14:42:07.010402, 1.65200
2022-12-14 14:42:07.010689, 1.66177
2022-12-14 14:42:07.011690, 1.68132
2022-12-14 14:42:07.043884, 1.69110
2022-12-14 14:42:07.044229, 1.68621
2022-12-14 14:42:07.077544, 1.69599
2022-12-14 14:42:07.077544, 1.70087
2022-12-14 14:42:07.078546, 1.70576
2022-12-14 14:42:07.111035, 1.69599
2022-12-14 14:42:07.112073, 1.70087
2022-12-14 14:42:07.112073, 1.70576
2022-12-14 14:42:07.144341, 1.70576
2022-12-14 14:42:07.145346, 1.69599
2022-12-14 14:42:07.178079, 1.70087
2022-12-14 14:42:07.179093, 1.69599
2022-12-14 14:42:07.179093, 1.70087
2022-12-14 14:42:07.211082, 1.69110
2022-12-14 14:42:07.211082, 1.69110
2022-12-14 14:42:07.212072, 1.69599
2022-12-14 14:42:07.244770, 1.69599
2022-12-14 14:42:07.245772, 1.68621
2022-12-14 14:42:07.278181, 1.69110
2022-12-14 14:42:07.278181, 1.68621
2022-12-14 14:42:07.279216, 1.69110
2022-12-14 14:42:07.311563, 1.68132
2022-12-14 14:42:07.312375, 1.69110
2022-12-14 14:42:07.312375, 1.69110
2022-12-14 14:42:07.344744, 1.69599
2022-12-14 14:42:07.345747, 1.68621
2022-12-14 14:42:07.378295, 1.69110
2022-12-14 14:42:07.379111, 1.69110
2022-12-14 14:42:07.379111, 1.72043
2022-12-14 14:42:07.411658, 1.68132
2022-12-14 14:42:07.412492, 1.68132
2022-12-14 14:42:07.413062, 1.68132
2022-12-14 14:42:07.445853, 1.68621
2022-12-14 14:42:07.446168, 1.67644
2022-12-14 14:42:07.479241, 1.67155
2022-12-14 14:42:07.479241, 1.67155
2022-12-14 14:42:07.479980, 1.67644
2022-12-14 14:42:07.512635, 1.66666
2022-12-14 14:42:07.513639, 1.66177
2022-12-14 14:42:07.513639, 1.66666
2022-12-14 14:42:07.546885, 1.66666
2022-12-14 14:42:07.546885, 1.65689
2022-12-14 14:42:07.579257, 1.65200
2022-12-14 14:42:07.580252, 1.65200
2022-12-14 14:42:07.580530, 1.66666
2022-12-14 14:42:07.613587, 1.65200
2022-12-14 14:42:07.613900, 1.66177
2022-12-14 14:42:07.613900, 1.65200
2022-12-14 14:42:07.647078, 1.65689
2022-12-14 14:42:07.647899, 1.64711
2022-12-14 14:42:07.680645, 1.64222
2022-12-14 14:42:07.681270, 1.64711
2022-12-14 14:42:07.681270, 1.65200
2022-12-14 14:42:07.714355, 1.64222
2022-12-14 14:42:07.714355, 1.64222
2022-12-14 14:42:07.715373, 1.65200
2022-12-14 14:42:07.748007, 1.66666
2022-12-14 14:42:07.748350, 1.63734
2022-12-14 14:42:07.781578, 1.63245
2022-12-14 14:42:07.781815, 1.63245
2022-12-14 14:42:07.781815, 1.63734
2022-12-14 14:42:07.814964, 1.63734
2022-12-14 14:42:07.815255, 1.62756
2022-12-14 14:42:07.815802, 1.62756
2022-12-14 14:42:07.848530, 1.63734
2022-12-14 14:42:07.848870, 1.63245
2022-12-14 14:42:07.882208, 1.63245
2022-12-14 14:42:07.882443, 1.65200
2022-12-14 14:42:07.882443, 1.64711
2022-12-14 14:42:07.915623, 1.65200
2022-12-14 14:42:07.915623, 1.65200
2022-12-14 14:42:07.916625, 1.66666
2022-12-14 14:42:07.948764, 1.67644
2022-12-14 14:42:07.949081, 1.68132
2022-12-14 14:42:07.982788, 1.68132
2022-12-14 14:42:07.983057, 1.68621
2022-12-14 14:42:07.983655, 1.68621
2022-12-14 14:42:08.016415, 1.69110
2022-12-14 14:42:08.016751, 1.68132
2022-12-14 14:42:08.016751, 1.69110
2022-12-14 14:42:08.049804, 1.68132
2022-12-14 14:42:08.050147, 1.68621
2022-12-14 14:42:08.083259, 1.67644
2022-12-14 14:42:08.083589, 1.67155
2022-12-14 14:42:08.083589, 1.67644
2022-12-14 14:42:08.116809, 1.68621
2022-12-14 14:42:08.117101, 1.67155
2022-12-14 14:42:08.117651, 1.66666
2022-12-14 14:42:08.150423, 1.67155
2022-12-14 14:42:08.150423, 1.67155
2022-12-14 14:42:08.184045, 1.68621
2022-12-14 14:42:08.184284, 1.67644
2022-12-14 14:42:08.184798, 1.66666
2022-12-14 14:42:08.217370, 1.69110
2022-12-14 14:42:08.218380, 1.65689
2022-12-14 14:42:08.218380, 1.68621
2022-12-14 14:42:08.250654, 1.66177
2022-12-14 14:42:08.250654, 1.66666
2022-12-14 14:42:08.284507, 1.65689
2022-12-14 14:42:08.284745, 1.65689
2022-12-14 14:42:08.284745, 1.65689
2022-12-14 14:42:08.318156, 1.66666
2022-12-14 14:42:08.318473, 1.65689
2022-12-14 14:42:08.318473, 1.64711
2022-12-14 14:42:08.351740, 1.65200
2022-12-14 14:42:08.352129, 1.65689
2022-12-14 14:42:08.384292, 1.64711
2022-12-14 14:42:08.385293, 1.64222
2022-12-14 14:42:08.385293, 1.64222
2022-12-14 14:42:08.418616, 1.65200
2022-12-14 14:42:08.418908, 1.64711
2022-12-14 14:42:08.418908, 1.63734
2022-12-14 14:42:08.452157, 1.63734
2022-12-14 14:42:08.452504, 1.65689
2022-12-14 14:42:08.485801, 1.63245
2022-12-14 14:42:08.486035, 1.62267
2022-12-14 14:42:08.486639, 1.62267
2022-12-14 14:42:08.519241, 1.62756
2022-12-14 14:42:08.519241, 1.62267
2022-12-14 14:42:08.520243, 1.61290
2022-12-14 14:42:08.551928, 1.61779
2022-12-14 14:42:08.552934, 1.63734
2022-12-14 14:42:08.586276, 1.61779
2022-12-14 14:42:08.586512, 1.61290
2022-12-14 14:42:08.586512, 1.61290
2022-12-14 14:42:08.619765, 1.61779
2022-12-14 14:42:08.620057, 1.61290
2022-12-14 14:42:08.620057, 1.63734
2022-12-14 14:42:08.653471, 1.63734
2022-12-14 14:42:08.653815, 1.63734
2022-12-14 14:42:08.686935, 1.60801
2022-12-14 14:42:08.687174, 1.59824
2022-12-14 14:42:08.687174, 1.59824
2022-12-14 14:42:08.720631, 1.60312
2022-12-14 14:42:08.720960, 1.60312
2022-12-14 14:42:08.721512, 1.59335
2022-12-14 14:42:08.754016, 1.59824
2022-12-14 14:42:08.754016, 1.60801
2022-12-14 14:42:08.787519, 1.59824
2022-12-14 14:42:08.787757, 1.58357
2022-12-14 14:42:08.788277, 1.58357
2022-12-14 14:42:08.821187, 1.58846
2022-12-14 14:42:08.822190, 1.58846
2022-12-14 14:42:08.822190, 1.58357
2022-12-14 14:42:08.853811, 1.58357
2022-12-14 14:42:08.853811, 1.59824
2022-12-14 14:42:08.888028, 1.62756
2022-12-14 14:42:08.888266, 1.60312
2022-12-14 14:42:08.888266, 1.61290
2022-12-14 14:42:08.921562, 1.62267
2022-12-14 14:42:08.921562, 1.63245
2022-12-14 14:42:08.922562, 1.62267
2022-12-14 14:42:08.955195, 1.62756
2022-12-14 14:42:08.955536, 1.62756
2022-12-14 14:42:08.988770, 1.63245
2022-12-14 14:42:08.989006, 1.63734
2022-12-14 14:42:08.989649, 1.62756
2022-12-14 14:42:09.022425, 1.62756
2022-12-14 14:42:09.022741, 1.63245
2022-12-14 14:42:09.023291, 1.64222
2022-12-14 14:42:09.055980, 1.64222
2022-12-14 14:42:09.056324, 1.62267
2022-12-14 14:42:09.089245, 1.62267
2022-12-14 14:42:09.089245, 1.61779
2022-12-14 14:42:09.090246, 1.60801
2022-12-14 14:42:09.122750, 1.60801
2022-12-14 14:42:09.122750, 1.63734
2022-12-14 14:42:09.123797, 1.62756
2022-12-14 14:42:09.155659, 1.60801
2022-12-14 14:42:09.155659, 1.62756
2022-12-14 14:42:09.189638, 1.62267
2022-12-14 14:42:09.189879, 1.62756
2022-12-14 14:42:09.189879, 1.60312
2022-12-14 14:42:09.223291, 1.60801
2022-12-14 14:42:09.223582, 1.61290
2022-12-14 14:42:09.224584, 1.61290
2022-12-14 14:42:09.256890, 1.60312
2022-12-14 14:42:09.257228, 1.60801
2022-12-14 14:42:09.290391, 1.61290
2022-12-14 14:42:09.290629, 1.60801
2022-12-14 14:42:09.290629, 1.59824
2022-12-14 14:42:09.323970, 1.59824
2022-12-14 14:42:09.324265, 1.60312
2022-12-14 14:42:09.324875, 1.60801
2022-12-14 14:42:09.356761, 1.61290
2022-12-14 14:42:09.357759, 1.59824
2022-12-14 14:42:09.391057, 1.59824
2022-12-14 14:42:09.391338, 1.59824
2022-12-14 14:42:09.391896, 1.58846
2022-12-14 14:42:09.423938, 1.58846
2022-12-14 14:42:09.424874, 1.59335
2022-12-14 14:42:09.424874, 1.58846
2022-12-14 14:42:09.456788, 1.57869
2022-12-14 14:42:09.457786, 1.57869
2022-12-14 14:42:09.491395, 1.58357
2022-12-14 14:42:09.491633, 1.58846
2022-12-14 14:42:09.491633, 1.59335
2022-12-14 14:42:09.524007, 1.60801
2022-12-14 14:42:09.524972, 1.59335
2022-12-14 14:42:09.524972, 1.57869
2022-12-14 14:42:09.558766, 1.56891
2022-12-14 14:42:09.559105, 1.56891
2022-12-14 14:42:09.592296, 1.57380
2022-12-14 14:42:09.592536, 1.57869
2022-12-14 14:42:09.592536, 1.56891
2022-12-14 14:42:09.625851, 1.56891
2022-12-14 14:42:09.626139, 1.56891
2022-12-14 14:42:09.626601, 1.57869
2022-12-14 14:42:09.659519, 1.56891
2022-12-14 14:42:09.659903, 1.56402
2022-12-14 14:42:09.692895, 1.56891
2022-12-14 14:42:09.692895, 1.57869
2022-12-14 14:42:09.693896, 1.58357
2022-12-14 14:42:09.726653, 1.58357
2022-12-14 14:42:09.726653, 1.57380
2022-12-14 14:42:09.727654, 1.59335
2022-12-14 14:42:09.758989, 1.57380
2022-12-14 14:42:09.760013, 1.57869
2022-12-14 14:42:09.792802, 1.58846
2022-12-14 14:42:09.792802, 1.59824
2022-12-14 14:42:09.792802, 1.60312
2022-12-14 14:42:09.826627, 1.60312
2022-12-14 14:42:09.826627, 1.60801
2022-12-14 14:42:09.827637, 1.61290
2022-12-14 14:42:09.860197, 1.61779
2022-12-14 14:42:09.860197, 1.61290
2022-12-14 14:42:09.893579, 1.61290
2022-12-14 14:42:09.893579, 1.61779
2022-12-14 14:42:09.894475, 1.61290
2022-12-14 14:42:09.926937, 1.60801
2022-12-14 14:42:09.926937, 1.60801
2022-12-14 14:42:09.927847, 1.61290
2022-12-14 14:42:09.960303, 1.61290
2022-12-14 14:42:09.960303, 1.61290
2022-12-14 14:42:09.994424, 1.60801
2022-12-14 14:42:09.994661, 1.61290
2022-12-14 14:42:09.995228, 1.60801
2022-12-14 14:42:10.027885, 1.59824
2022-12-14 14:42:10.028218, 1.60801
2022-12-14 14:42:10.028218, 1.60312
2022-12-14 14:42:10.061411, 1.60801
2022-12-14 14:42:10.061798, 1.60312
2022-12-14 14:42:10.094783, 1.60312
2022-12-14 14:42:10.095789, 1.60801
2022-12-14 14:42:10.095789, 1.61290
2022-12-14 14:42:10.127524, 1.61290
2022-12-14 14:42:10.128526, 1.60801
2022-12-14 14:42:10.128526, 1.61290
2022-12-14 14:42:10.162091, 1.64222
2022-12-14 14:42:10.163094, 1.60312
2022-12-14 14:42:10.195499, 1.60801
2022-12-14 14:42:10.195499, 1.61290
2022-12-14 14:42:10.196501, 1.64222
2022-12-14 14:42:10.229120, 1.60312
2022-12-14 14:42:10.229957, 1.59824
2022-12-14 14:42:10.230301, 1.63734
2022-12-14 14:42:10.262506, 1.61290
2022-12-14 14:42:10.263509, 1.59824
2022-12-14 14:42:10.295968, 1.59824
2022-12-14 14:42:10.295968, 1.63245
2022-12-14 14:42:10.296975, 1.63245
2022-12-14 14:42:10.329317, 1.59335
2022-12-14 14:42:10.330320, 1.60801
2022-12-14 14:42:10.330320, 1.61779
2022-12-14 14:42:10.362665, 1.60312
2022-12-14 14:42:10.363667, 1.59335
2022-12-14 14:42:10.395674, 1.59335
2022-12-14 14:42:10.396673, 1.59824
2022-12-14 14:42:10.396673, 1.60312
2022-12-14 14:42:10.430072, 1.59335
2022-12-14 14:42:10.430072, 1.59335
2022-12-14 14:42:10.430072, 1.59824
2022-12-14 14:42:10.463685, 1.60312
2022-12-14 14:42:10.463685, 1.59335
2022-12-14 14:42:10.497081, 1.59335
2022-12-14 14:42:10.497081, 1.59824
2022-12-14 14:42:10.497081, 1.60312
2022-12-14 14:42:10.530314, 1.59824
2022-12-14 14:42:10.530314, 1.58846
2022-12-14 14:42:10.531197, 1.59335
2022-12-14 14:42:10.563643, 1.60312
2022-12-14 14:42:10.564646, 1.61779
2022-12-14 14:42:10.597598, 1.62267
2022-12-14 14:42:10.597896, 1.61290
2022-12-14 14:42:10.597896, 1.61290
2022-12-14 14:42:10.631111, 1.61779
2022-12-14 14:42:10.631111, 1.61290
2022-12-14 14:42:10.632113, 1.62267
2022-12-14 14:42:10.664746, 1.63245
2022-12-14 14:42:10.664746, 1.63245
2022-12-14 14:42:10.698006, 1.63245
2022-12-14 14:42:10.698363, 1.63734
2022-12-14 14:42:10.698363, 1.64222
2022-12-14 14:42:10.731517, 1.64222
2022-12-14 14:42:10.731922, 1.63734
2022-12-14 14:42:10.732470, 1.63245
2022-12-14 14:42:10.765601, 1.64222
2022-12-14 14:42:10.765943, 1.63734
2022-12-14 14:42:10.799136, 1.62756
2022-12-14 14:42:10.799375, 1.64222
2022-12-14 14:42:10.799375, 1.63245
2022-12-14 14:42:10.832702, 1.63245
2022-12-14 14:42:10.832990, 1.62267
2022-12-14 14:42:10.833461, 1.62267
2022-12-14 14:42:10.866159, 1.65689
2022-12-14 14:42:10.866159, 1.63245
2022-12-14 14:42:10.899666, 1.62267
2022-12-14 14:42:10.899666, 1.61779
2022-12-14 14:42:10.900426, 1.62267
2022-12-14 14:42:10.933233, 1.62756
2022-12-14 14:42:10.933233, 1.64222
2022-12-14 14:42:10.934236, 1.61779
2022-12-14 14:42:10.965889, 1.62756
2022-12-14 14:42:10.966886, 1.63245
2022-12-14 14:42:11.000325, 1.63245
2022-12-14 14:42:11.000325, 1.62267
2022-12-14 14:42:11.001325, 1.62756
2022-12-14 14:42:11.033830, 1.63245
2022-12-14 14:42:11.034119, 1.62267
2022-12-14 14:42:11.034119, 1.63245
2022-12-14 14:42:11.067472, 1.62756
2022-12-14 14:42:11.067815, 1.62756
2022-12-14 14:42:11.100740, 1.61779
2022-12-14 14:42:11.100740, 1.63245
2022-12-14 14:42:11.101553, 1.62267
2022-12-14 14:42:11.134556, 1.62267
2022-12-14 14:42:11.134848, 1.61779
2022-12-14 14:42:11.134848, 1.61290
2022-12-14 14:42:11.168038, 1.61290
2022-12-14 14:42:11.168378, 1.62267
2022-12-14 14:42:11.201512, 1.61290
2022-12-14 14:42:11.201512, 1.60801
2022-12-14 14:42:11.202514, 1.61779
2022-12-14 14:42:11.234370, 1.62267
2022-12-14 14:42:11.235378, 1.61290
2022-12-14 14:42:11.235378, 1.61290
2022-12-14 14:42:11.268103, 1.61290
2022-12-14 14:42:11.268425, 1.61779
2022-12-14 14:42:11.302203, 1.61290
2022-12-14 14:42:11.302443, 1.60801
2022-12-14 14:42:11.303445, 1.60801
2022-12-14 14:42:11.335732, 1.61779
2022-12-14 14:42:11.336021, 1.61290
2022-12-14 14:42:11.337023, 1.60801
2022-12-14 14:42:11.369137, 1.60801
2022-12-14 14:42:11.369479, 1.61290
2022-12-14 14:42:11.402808, 1.60801
2022-12-14 14:42:11.403045, 1.60312
2022-12-14 14:42:11.403045, 1.60801
2022-12-14 14:42:11.436284, 1.61290
2022-12-14 14:42:11.436284, 1.61290
2022-12-14 14:42:11.437284, 1.62267
2022-12-14 14:42:11.469897, 1.61290
2022-12-14 14:42:11.470901, 1.61290
2022-12-14 14:42:11.502136, 1.62267
2022-12-14 14:42:11.503148, 1.60312
2022-12-14 14:42:11.503148, 1.60312
2022-12-14 14:42:11.536439, 1.61779
2022-12-14 14:42:11.536731, 1.63245
2022-12-14 14:42:11.536731, 1.64222
2022-12-14 14:42:11.570483, 1.62756
2022-12-14 14:42:11.570854, 1.63734
2022-12-14 14:42:11.603922, 1.64222
2022-12-14 14:42:11.604198, 1.63734
2022-12-14 14:42:11.604198, 1.64222
2022-12-14 14:42:11.637523, 1.67644
2022-12-14 14:42:11.637815, 1.67155
2022-12-14 14:42:11.637815, 1.64222
2022-12-14 14:42:11.671000, 1.64222
2022-12-14 14:42:11.671345, 1.64711
2022-12-14 14:42:11.704583, 1.67644
2022-12-14 14:42:11.704821, 1.64222
2022-12-14 14:42:11.704821, 1.63734
2022-12-14 14:42:11.738003, 1.63734
2022-12-14 14:42:11.738292, 1.64222
2022-12-14 14:42:11.738292, 1.63245
2022-12-14 14:42:11.771552, 1.63245
2022-12-14 14:42:11.772084, 1.63734
2022-12-14 14:42:11.803888, 1.63734
2022-12-14 14:42:11.804895, 1.62756
2022-12-14 14:42:11.804895, 1.64222
2022-12-14 14:42:11.838130, 1.63245
2022-12-14 14:42:11.838404, 1.63734
2022-12-14 14:42:11.838404, 1.62756
2022-12-14 14:42:11.872085, 1.62267
2022-12-14 14:42:11.872085, 1.62756
2022-12-14 14:42:11.905739, 1.63734
2022-12-14 14:42:11.905974, 1.62756
2022-12-14 14:42:11.905974, 1.62756
2022-12-14 14:42:11.939280, 1.63245
2022-12-14 14:42:11.939569, 1.63734
2022-12-14 14:42:11.939569, 1.63245
2022-12-14 14:42:11.972901, 1.62756
2022-12-14 14:42:11.973271, 1.63245
2022-12-14 14:42:12.006394, 1.63245
2022-12-14 14:42:12.006631, 1.62756
2022-12-14 14:42:12.006631, 1.62267
2022-12-14 14:42:12.039797, 1.62267
2022-12-14 14:42:12.040087, 1.62756
2022-12-14 14:42:12.040672, 1.62267
2022-12-14 14:42:12.073230, 1.61779
2022-12-14 14:42:12.074011, 1.61779
2022-12-14 14:42:12.105318, 1.62756
2022-12-14 14:42:12.106325, 1.62267
2022-12-14 14:42:12.106325, 1.61290
2022-12-14 14:42:12.140202, 1.61290
2022-12-14 14:42:12.140491, 1.62267
2022-12-14 14:42:12.140491, 1.61779
2022-12-14 14:42:12.173213, 1.61290
2022-12-14 14:42:12.173213, 1.61290
2022-12-14 14:42:12.207452, 1.63734
2022-12-14 14:42:12.207688, 1.63245
2022-12-14 14:42:12.207688, 1.64222
2022-12-14 14:42:12.240906, 1.62267
2022-12-14 14:42:12.240906, 1.64711
2022-12-14 14:42:12.241815, 1.61779
2022-12-14 14:42:12.274455, 1.60801
2022-12-14 14:42:12.274455, 1.61290
2022-12-14 14:42:12.307981, 1.61779
2022-12-14 14:42:12.307981, 1.61779
2022-12-14 14:42:12.308983, 1.60801
2022-12-14 14:42:12.341849, 1.60801
2022-12-14 14:42:12.341849, 1.61290
2022-12-14 14:42:12.342852, 1.61779
2022-12-14 14:42:12.374563, 1.60801
2022-12-14 14:42:12.374881, 1.60801
2022-12-14 14:42:12.408589, 1.61290
2022-12-14 14:42:12.408826, 1.61290
2022-12-14 14:42:12.408826, 1.60801
2022-12-14 14:42:12.442162, 1.60801
2022-12-14 14:42:12.442454, 1.61290
2022-12-14 14:42:12.442454, 1.61290
2022-12-14 14:42:12.475736, 1.60312
2022-12-14 14:42:12.476078, 1.60801
2022-12-14 14:42:12.509290, 1.61290
2022-12-14 14:42:12.509527, 1.61290
2022-12-14 14:42:12.509527, 1.60312
2022-12-14 14:42:12.542837, 1.60801
2022-12-14 14:42:12.543126, 1.61290
2022-12-14 14:42:12.543689, 1.62267
2022-12-14 14:42:12.576408, 1.61779
2022-12-14 14:42:12.576749, 1.62267
2022-12-14 14:42:12.609934, 1.63245
2022-12-14 14:42:12.609934, 1.64711
2022-12-14 14:42:12.610835, 1.63734
2022-12-14 14:42:12.643781, 1.65200
2022-12-14 14:42:12.643781, 1.64711
2022-12-14 14:42:12.644785, 1.65200
2022-12-14 14:42:12.676620, 1.64711
2022-12-14 14:42:12.676620, 1.63734
2022-12-14 14:42:12.710237, 1.64222
2022-12-14 14:42:12.710479, 1.64711
2022-12-14 14:42:12.711032, 1.65200
2022-12-14 14:42:12.743815, 1.63245
2022-12-14 14:42:12.744105, 1.63734
2022-12-14 14:42:12.744105, 1.64222
2022-12-14 14:42:12.777420, 1.63734
2022-12-14 14:42:12.777763, 1.65200
2022-12-14 14:42:12.810862, 1.63245
2022-12-14 14:42:12.810862, 1.63734
2022-12-14 14:42:12.811866, 1.63245
2022-12-14 14:42:12.844479, 1.62756
2022-12-14 14:42:12.844769, 1.63245
2022-12-14 14:42:12.844769, 1.63245
2022-12-14 14:42:12.878074, 1.62756
2022-12-14 14:42:12.878451, 1.62267
2022-12-14 14:42:12.911637, 1.62756
2022-12-14 14:42:12.911903, 1.63245
2022-12-14 14:42:12.911903, 1.63245
2022-12-14 14:42:12.945023, 1.62756
2022-12-14 14:42:12.946071, 1.62756
2022-12-14 14:42:12.946071, 1.63734
2022-12-14 14:42:12.977564, 1.63245
2022-12-14 14:42:12.978572, 1.62267
2022-12-14 14:42:13.012022, 1.62267
2022-12-14 14:42:13.012022, 1.62756
2022-12-14 14:42:13.013022, 1.62756
2022-12-14 14:42:13.045489, 1.61779
2022-12-14 14:42:13.045489, 1.61779
2022-12-14 14:42:13.046503, 1.62267
2022-12-14 14:42:13.079121, 1.62756
2022-12-14 14:42:13.079465, 1.61779
2022-12-14 14:42:13.112626, 1.61779
2022-12-14 14:42:13.112861, 1.61779
2022-12-14 14:42:13.112861, 1.62267
2022-12-14 14:42:13.146218, 1.61290
2022-12-14 14:42:13.146510, 1.61290
2022-12-14 14:42:13.147511, 1.61290
2022-12-14 14:42:13.179689, 1.61779
2022-12-14 14:42:13.179689, 1.60801
2022-12-14 14:42:13.213311, 1.60801
2022-12-14 14:42:13.213311, 1.61290
2022-12-14 14:42:13.214317, 1.61290
2022-12-14 14:42:13.246749, 1.61290
2022-12-14 14:42:13.246749, 1.60801
2022-12-14 14:42:13.247761, 1.61290
2022-12-14 14:42:13.280731, 1.61779
2022-12-14 14:42:13.281735, 1.62267
2022-12-14 14:42:13.312782, 1.60801
2022-12-14 14:42:13.313791, 1.61290
2022-12-14 14:42:13.313791, 1.62267
2022-12-14 14:42:13.347101, 1.60312
2022-12-14 14:42:13.347668, 1.60312
2022-12-14 14:42:13.347668, 1.60312
2022-12-14 14:42:13.380468, 1.61290
2022-12-14 14:42:13.381472, 1.59824
2022-12-14 14:42:13.413481, 1.59824
2022-12-14 14:42:13.413481, 1.59824
2022-12-14 14:42:13.414479, 1.60801
2022-12-14 14:42:13.447262, 1.59824
2022-12-14 14:42:13.447728, 1.59824
2022-12-14 14:42:13.448431, 1.59824
2022-12-14 14:42:13.481126, 1.60312
2022-12-14 14:42:13.481126, 1.60312
2022-12-14 14:42:13.514071, 1.59824
2022-12-14 14:42:13.515072, 1.59824
2022-12-14 14:42:13.515072, 1.60801
2022-12-14 14:42:13.547312, 1.60801
2022-12-14 14:42:13.548308, 1.60312
2022-12-14 14:42:13.548308, 1.60801
2022-12-14 14:42:13.581735, 1.60312
2022-12-14 14:42:13.581888, 1.60312
2022-12-14 14:42:13.614749, 1.60312
2022-12-14 14:42:13.614749, 1.61290
2022-12-14 14:42:13.615784, 1.62756
2022-12-14 14:42:13.648469, 1.62756
2022-12-14 14:42:13.648469, 1.62756
2022-12-14 14:42:13.649467, 1.65689
2022-12-14 14:42:13.682386, 1.63734
2022-12-14 14:42:13.683130, 1.63245
2022-12-14 14:42:13.715578, 1.62267
2022-12-14 14:42:13.715903, 1.64222
2022-12-14 14:42:13.715903, 1.63245
2022-12-14 14:42:13.749076, 1.62756
2022-12-14 14:42:13.749458, 1.61779
2022-12-14 14:42:13.749458, 1.62756
2022-12-14 14:42:13.782871, 1.63734
2022-12-14 14:42:13.782871, 1.62267
2022-12-14 14:42:13.816379, 1.60801
2022-12-14 14:42:13.816621, 1.60801
2022-12-14 14:42:13.817225, 1.61779
2022-12-14 14:42:13.850273, 1.61290
2022-12-14 14:42:13.850565, 1.60312
2022-12-14 14:42:13.851160, 1.59824
2022-12-14 14:42:13.883671, 1.60801
2022-12-14 14:42:13.884012, 1.61290
2022-12-14 14:42:13.917030, 1.60312
2022-12-14 14:42:13.918015, 1.60312
2022-12-14 14:42:13.918015, 1.60801
2022-12-14 14:42:13.950397, 1.61290
2022-12-14 14:42:13.950717, 1.60312
2022-12-14 14:42:13.950717, 1.60801
2022-12-14 14:42:13.984458, 1.61290
2022-12-14 14:42:13.984848, 1.61779
2022-12-14 14:42:14.017861, 1.60801
2022-12-14 14:42:14.017861, 1.60312
2022-12-14 14:42:14.018750, 1.60801
2022-12-14 14:42:14.051510, 1.61290
2022-12-14 14:42:14.051803, 1.60312
2022-12-14 14:42:14.051803, 1.59824
2022-12-14 14:42:14.084955, 1.60312
2022-12-14 14:42:14.084955, 1.60801
2022-12-14 14:42:14.118352, 1.60312
2022-12-14 14:42:14.118352, 1.59824
2022-12-14 14:42:14.119176, 1.60312
2022-12-14 14:42:14.151974, 1.60312
2022-12-14 14:42:14.152265, 1.59824
2022-12-14 14:42:14.152265, 1.59335
2022-12-14 14:42:14.185498, 1.59824
2022-12-14 14:42:14.185498, 1.60801
2022-12-14 14:42:14.218901, 1.61290
2022-12-14 14:42:14.218901, 1.60801
2022-12-14 14:42:14.219773, 1.60801
2022-12-14 14:42:14.251498, 1.61779
2022-12-14 14:42:14.252494, 1.59824
2022-12-14 14:42:14.252710, 1.59335
2022-12-14 14:42:14.285544, 1.59335
2022-12-14 14:42:14.285544, 1.59824
2022-12-14 14:42:14.319232, 1.59824
2022-12-14 14:42:14.319471, 1.58846
2022-12-14 14:42:14.320473, 1.58846
2022-12-14 14:42:14.353300, 1.61290
2022-12-14 14:42:14.353590, 1.59335
2022-12-14 14:42:14.354235, 1.58846
2022-12-14 14:42:14.386819, 1.58846
2022-12-14 14:42:14.387164, 1.59824
2022-12-14 14:42:14.420278, 1.59335
2022-12-14 14:42:14.420513, 1.58846
2022-12-14 14:42:14.421033, 1.58846
2022-12-14 14:42:14.453608, 1.59824
2022-12-14 14:42:14.453608, 1.59335
2022-12-14 14:42:14.454615, 1.58846
2022-12-14 14:42:14.487240, 1.58846
2022-12-14 14:42:14.487240, 1.59824
2022-12-14 14:42:14.520875, 1.59824
2022-12-14 14:42:14.520875, 1.58846
2022-12-14 14:42:14.521878, 1.59824
2022-12-14 14:42:14.554042, 1.60801
2022-12-14 14:42:14.554334, 1.61779
2022-12-14 14:42:14.554334, 1.61290
2022-12-14 14:42:14.587800, 1.61779
2022-12-14 14:42:14.587800, 1.63245
2022-12-14 14:42:14.621448, 1.63245
2022-12-14 14:42:14.621686, 1.62267
2022-12-14 14:42:14.621686, 1.62267
2022-12-14 14:42:14.655124, 1.62267
2022-12-14 14:42:14.655472, 1.64222
2022-12-14 14:42:14.655472, 1.61290
2022-12-14 14:42:14.688563, 1.61290
2022-12-14 14:42:14.688964, 1.61779
2022-12-14 14:42:14.722051, 1.62756
2022-12-14 14:42:14.722051, 1.61290
2022-12-14 14:42:14.723053, 1.60801
2022-12-14 14:42:14.755575, 1.61290
2022-12-14 14:42:14.755575, 1.61779
2022-12-14 14:42:14.756576, 1.60801
2022-12-14 14:42:14.788352, 1.60312
2022-12-14 14:42:14.789359, 1.60801
2022-12-14 14:42:14.821745, 1.61290
2022-12-14 14:42:14.821745, 1.61290
2022-12-14 14:42:14.822755, 1.60312
2022-12-14 14:42:14.855629, 1.61290
2022-12-14 14:42:14.855629, 1.62267
2022-12-14 14:42:14.856631, 1.61779
2022-12-14 14:42:14.889134, 1.60801
2022-12-14 14:42:14.889134, 1.61779
2022-12-14 14:42:14.922847, 1.62267
2022-12-14 14:42:14.923124, 1.61779
2022-12-14 14:42:14.923124, 1.62756
2022-12-14 14:42:14.956571, 1.61290
2022-12-14 14:42:14.956862, 1.61779
2022-12-14 14:42:14.957333, 1.61779
2022-12-14 14:42:14.990108, 1.61290
2022-12-14 14:42:14.990484, 1.61779
2022-12-14 14:42:15.023614, 1.61779
2022-12-14 14:42:15.023854, 1.61779
2022-12-14 14:42:15.024329, 1.62267
2022-12-14 14:42:15.057081, 1.61290
2022-12-14 14:42:15.057572, 1.61779
2022-12-14 14:42:15.058574, 1.61779
2022-12-14 14:42:15.090043, 1.60801
2022-12-14 14:42:15.091046, 1.61290
2022-12-14 14:42:15.124162, 1.61779
2022-12-14 14:42:15.124162, 1.61779
2022-12-14 14:42:15.125166, 1.60801
2022-12-14 14:42:15.157816, 1.61290
2022-12-14 14:42:15.158110, 1.61779
2022-12-14 14:42:15.158110, 1.61779
2022-12-14 14:42:15.191347, 1.61290
2022-12-14 14:42:15.191690, 1.61290
2022-12-14 14:42:15.224816, 1.61779
2022-12-14 14:42:15.224816, 1.61779
2022-12-14 14:42:15.225816, 1.60801
2022-12-14 14:42:15.258417, 1.60801
2022-12-14 14:42:15.258417, 1.61779
2022-12-14 14:42:15.259235, 1.61779
2022-12-14 14:42:15.292082, 1.61290
2022-12-14 14:42:15.292425, 1.61290
2022-12-14 14:42:15.325412, 1.61779
2022-12-14 14:42:15.325961, 1.62267
2022-12-14 14:42:15.325961, 1.61290
2022-12-14 14:42:15.358707, 1.61290
2022-12-14 14:42:15.358707, 1.61779
2022-12-14 14:42:15.359731, 1.62267
2022-12-14 14:42:15.391998, 1.61779
2022-12-14 14:42:15.391998, 1.62267
2022-12-14 14:42:15.426026, 1.63245
2022-12-14 14:42:15.426264, 1.64711
2022-12-14 14:42:15.426264, 1.64222
2022-12-14 14:42:15.458624, 1.67155
2022-12-14 14:42:15.459581, 1.65200
2022-12-14 14:42:15.459581, 1.65689
2022-12-14 14:42:15.493091, 1.65200
2022-12-14 14:42:15.493091, 1.65200
2022-12-14 14:42:15.526720, 1.65200
2022-12-14 14:42:15.526961, 1.65689
2022-12-14 14:42:15.526961, 1.64711
2022-12-14 14:42:15.560216, 1.64711
2022-12-14 14:42:15.560216, 1.64711
2022-12-14 14:42:15.561217, 1.65200
2022-12-14 14:42:15.593747, 1.64711
2022-12-14 14:42:15.594138, 1.64222
2022-12-14 14:42:15.627327, 1.67155
2022-12-14 14:42:15.627607, 1.65200
2022-12-14 14:42:15.627607, 1.64222
2022-12-14 14:42:15.660745, 1.63734
2022-12-14 14:42:15.660745, 1.63734
2022-12-14 14:42:15.661748, 1.65200
2022-12-14 14:42:15.694307, 1.64222
2022-12-14 14:42:15.694307, 1.63245
2022-12-14 14:42:15.727807, 1.63734
2022-12-14 14:42:15.728046, 1.64222
2022-12-14 14:42:15.728046, 1.64711
2022-12-14 14:42:15.761447, 1.64222
2022-12-14 14:42:15.761447, 1.64711
2022-12-14 14:42:15.762447, 1.65200
2022-12-14 14:42:15.794946, 1.64711
2022-12-14 14:42:15.794946, 1.63734
2022-12-14 14:42:15.828588, 1.64222
2022-12-14 14:42:15.828588, 1.64711
2022-12-14 14:42:15.829341, 1.64711
2022-12-14 14:42:15.862170, 1.63734
2022-12-14 14:42:15.862458, 1.64222
2022-12-14 14:42:15.862458, 1.64711
2022-12-14 14:42:15.895625, 1.64222
2022-12-14 14:42:15.895625, 1.63245
2022-12-14 14:42:15.928995, 1.63734
2022-12-14 14:42:15.930027, 1.64222
2022-12-14 14:42:15.930027, 1.64222
2022-12-14 14:42:15.961944, 1.62756
2022-12-14 14:42:15.961944, 1.62756
2022-12-14 14:42:15.961944, 1.64222
2022-12-14 14:42:15.996017, 1.64222
2022-12-14 14:42:15.996017, 1.63245
2022-12-14 14:42:16.029601, 1.63245
2022-12-14 14:42:16.029868, 1.63734
2022-12-14 14:42:16.029868, 1.63734
2022-12-14 14:42:16.063137, 1.63245
2022-12-14 14:42:16.063428, 1.63245
2022-12-14 14:42:16.064430, 1.63734
2022-12-14 14:42:16.096734, 1.64222
2022-12-14 14:42:16.097077, 1.63245
2022-12-14 14:42:16.130277, 1.62756
2022-12-14 14:42:16.130516, 1.63245
2022-12-14 14:42:16.130984, 1.63734
2022-12-14 14:42:16.163820, 1.63245
2022-12-14 14:42:16.164152, 1.63245
2022-12-14 14:42:16.165153, 1.63245
2022-12-14 14:42:16.197379, 1.65689
2022-12-14 14:42:16.197767, 1.63734
2022-12-14 14:42:16.231060, 1.65689
2022-12-14 14:42:16.232067, 1.63245
2022-12-14 14:42:16.232067, 1.64222
2022-12-14 14:42:16.263052, 1.66177
2022-12-14 14:42:16.264060, 1.63734
2022-12-14 14:42:16.264060, 1.64711
2022-12-14 14:42:16.297727, 1.66177
2022-12-14 14:42:16.298729, 1.63734
2022-12-14 14:42:16.331374, 1.65689
2022-12-14 14:42:16.332029, 1.66666
2022-12-14 14:42:16.332029, 1.65689
2022-12-14 14:42:16.364791, 1.66666
2022-12-14 14:42:16.365793, 1.66177
2022-12-14 14:42:16.365793, 1.66666
2022-12-14 14:42:16.398372, 1.67644
2022-12-14 14:42:16.399176, 1.67155
2022-12-14 14:42:16.431725, 1.68132
2022-12-14 14:42:16.432231, 1.67155
2022-12-14 14:42:16.432231, 1.67155
2022-12-14 14:42:16.464774, 1.67155
2022-12-14 14:42:16.464774, 1.66177
2022-12-14 14:42:16.465773, 1.66177
2022-12-14 14:42:16.498774, 1.66666
2022-12-14 14:42:16.498774, 1.67155
2022-12-14 14:42:16.532108, 1.67155
2022-12-14 14:42:16.532108, 1.65200
2022-12-14 14:42:16.533110, 1.65689
2022-12-14 14:42:16.565220, 1.65689
2022-12-14 14:42:16.566119, 1.67155
2022-12-14 14:42:16.566119, 1.64711
2022-12-14 14:42:16.599037, 1.65200
2022-12-14 14:42:16.599037, 1.65200
2022-12-14 14:42:16.632318, 1.64711
2022-12-14 14:42:16.632318, 1.64711
2022-12-14 14:42:16.633314, 1.65200
2022-12-14 14:42:16.666236, 1.65200
2022-12-14 14:42:16.666612, 1.64711
2022-12-14 14:42:16.666612, 1.65200
2022-12-14 14:42:16.699739, 1.65200
2022-12-14 14:42:16.700137, 1.65689
2022-12-14 14:42:16.733245, 1.64711
2022-12-14 14:42:16.733245, 1.64711
2022-12-14 14:42:16.734253, 1.65200
2022-12-14 14:42:16.766166, 1.65689
2022-12-14 14:42:16.767155, 1.64711
2022-12-14 14:42:16.767155, 1.64711
2022-12-14 14:42:16.800423, 1.64711
2022-12-14 14:42:16.800845, 1.65200
2022-12-14 14:42:16.833729, 1.64222
2022-12-14 14:42:16.834054, 1.63734
2022-12-14 14:42:16.834438, 1.64711
2022-12-14 14:42:16.867593, 1.64711
2022-12-14 14:42:16.867882, 1.64222
2022-12-14 14:42:16.867882, 1.64222
2022-12-14 14:42:16.901144, 1.64222
2022-12-14 14:42:16.901144, 1.64711
2022-12-14 14:42:16.934222, 1.63734
2022-12-14 14:42:16.934222, 1.63734
2022-12-14 14:42:16.935015, 1.64222
2022-12-14 14:42:16.968426, 1.64222
2022-12-14 14:42:16.968717, 1.63245
2022-12-14 14:42:16.968717, 1.63245
2022-12-14 14:42:17.002012, 1.63734
2022-12-14 14:42:17.002357, 1.64711
2022-12-14 14:42:17.035503, 1.64222
2022-12-14 14:42:17.035743, 1.63734
2022-12-14 14:42:17.035743, 1.64222
2022-12-14 14:42:17.069072, 1.64222
2022-12-14 14:42:17.069364, 1.64222
2022-12-14 14:42:17.069364, 1.63734
2022-12-14 14:42:17.102492, 1.63734
2022-12-14 14:42:17.102834, 1.66666
2022-12-14 14:42:17.135953, 1.63734
2022-12-14 14:42:17.135953, 1.63245
2022-12-14 14:42:17.136954, 1.64222
2022-12-14 14:42:17.169571, 1.66177
2022-12-14 14:42:17.169860, 1.63734
2022-12-14 14:42:17.170376, 1.63245
2022-12-14 14:42:17.203009, 1.63245
2022-12-14 14:42:17.203499, 1.64222
2022-12-14 14:42:17.235277, 1.63245
2022-12-14 14:42:17.236285, 1.62756
2022-12-14 14:42:17.236285, 1.64222
2022-12-14 14:42:17.270105, 1.63734
2022-12-14 14:42:17.270396, 1.63734
2022-12-14 14:42:17.270396, 1.63245
2022-12-14 14:42:17.303681, 1.63734
2022-12-14 14:42:17.304024, 1.65200
2022-12-14 14:42:17.337385, 1.65689
2022-12-14 14:42:17.337622, 1.65689
2022-12-14 14:42:17.338225, 1.66666
2022-12-14 14:42:17.370803, 1.67155
2022-12-14 14:42:17.371095, 1.67155
2022-12-14 14:42:17.371095, 1.66666
2022-12-14 14:42:17.404339, 1.67155
2022-12-14 14:42:17.404684, 1.70576
2022-12-14 14:42:17.437818, 1.69599
2022-12-14 14:42:17.438057, 1.66666
2022-12-14 14:42:17.438057, 1.66177
2022-12-14 14:42:17.470243, 1.66666
2022-12-14 14:42:17.471251, 1.66666
2022-12-14 14:42:17.471593, 1.65689
2022-12-14 14:42:17.504829, 1.66177
2022-12-14 14:42:17.504829, 1.65689
2022-12-14 14:42:17.537018, 1.66666
2022-12-14 14:42:17.538026, 1.65200
2022-12-14 14:42:17.538026, 1.65200
2022-12-14 14:42:17.571807, 1.65689
2022-12-14 14:42:17.571807, 1.65689
2022-12-14 14:42:17.572821, 1.64711
2022-12-14 14:42:17.605446, 1.64711
2022-12-14 14:42:17.605863, 1.65200
2022-12-14 14:42:17.639012, 1.66177
2022-12-14 14:42:17.639250, 1.66177
2022-12-14 14:42:17.639250, 1.66177
2022-12-14 14:42:17.672587, 1.66177
2022-12-14 14:42:17.672876, 1.69110
2022-12-14 14:42:17.672876, 1.65689
2022-12-14 14:42:17.706079, 1.68621
2022-12-14 14:42:17.706427, 1.65689
2022-12-14 14:42:17.739667, 1.66177
2022-12-14 14:42:17.739905, 1.65689
2022-12-14 14:42:17.739905, 1.65200
2022-12-14 14:42:17.773145, 1.65200
2022-12-14 14:42:17.773434, 1.65689
2022-12-14 14:42:17.773988, 1.65200
2022-12-14 14:42:17.806593, 1.64711
2022-12-14 14:42:17.806593, 1.65200
2022-12-14 14:42:17.839817, 1.65689
2022-12-14 14:42:17.839817, 1.64711
2022-12-14 14:42:17.840842, 1.64222
2022-12-14 14:42:17.873582, 1.64222
2022-12-14 14:42:17.873876, 1.64711
2022-12-14 14:42:17.873876, 1.64222
2022-12-14 14:42:17.907225, 1.63734
2022-12-14 14:42:17.907225, 1.64222
2022-12-14 14:42:17.940778, 1.64711
2022-12-14 14:42:17.941014, 1.64222
2022-12-14 14:42:17.941014, 1.63734
2022-12-14 14:42:17.974232, 1.64222
2022-12-14 14:42:17.974631, 1.64711
2022-12-14 14:42:17.974631, 1.64711
2022-12-14 14:42:18.007878, 1.64222
2022-12-14 14:42:18.008221, 1.63734
2022-12-14 14:42:18.040703, 1.65200
2022-12-14 14:42:18.040703, 1.63734
2022-12-14 14:42:18.041739, 1.62756
2022-12-14 14:42:18.074825, 1.62756
2022-12-14 14:42:18.074825, 1.63734
2022-12-14 14:42:18.075827, 1.63734
2022-12-14 14:42:18.107907, 1.62756
2022-12-14 14:42:18.107907, 1.62756
2022-12-14 14:42:18.141749, 1.63734
2022-12-14 14:42:18.141749, 1.63245
2022-12-14 14:42:18.142749, 1.62267
2022-12-14 14:42:18.175314, 1.62756
2022-12-14 14:42:18.175314, 1.63245
2022-12-14 14:42:18.176314, 1.63734
2022-12-14 14:42:18.208997, 1.62267
2022-12-14 14:42:18.209340, 1.62267
2022-12-14 14:42:18.242431, 1.62756
2022-12-14 14:42:18.242431, 1.62756
2022-12-14 14:42:18.243432, 1.61779
2022-12-14 14:42:18.276185, 1.61779
2022-12-14 14:42:18.276478, 1.62267
2022-12-14 14:42:18.276478, 1.62756
2022-12-14 14:42:18.309650, 1.62756
2022-12-14 14:42:18.309995, 1.63245
2022-12-14 14:42:18.343087, 1.64222
2022-12-14 14:42:18.343087, 1.64711
2022-12-14 14:42:18.344088, 1.64222
2022-12-14 14:42:18.376101, 1.64711
2022-12-14 14:42:18.377107, 1.65200
2022-12-14 14:42:18.377107, 1.66177
2022-12-14 14:42:18.409505, 1.65200
2022-12-14 14:42:18.409505, 1.65689
2022-12-14 14:42:18.443694, 1.64711
2022-12-14 14:42:18.443928, 1.65200
2022-12-14 14:42:18.444529, 1.64222
2022-12-14 14:42:18.477295, 1.63734
2022-12-14 14:42:18.477584, 1.65689
2022-12-14 14:42:18.477584, 1.64222
2022-12-14 14:42:18.510827, 1.63734
2022-12-14 14:42:18.511168, 1.62756
2022-12-14 14:42:18.544453, 1.62756
2022-12-14 14:42:18.544693, 1.63245
2022-12-14 14:42:18.544693, 1.63245
2022-12-14 14:42:18.577990, 1.62267
2022-12-14 14:42:18.578280, 1.62267
2022-12-14 14:42:18.578280, 1.63245
2022-12-14 14:42:18.611621, 1.63245
2022-12-14 14:42:18.612008, 1.62267
2022-12-14 14:42:18.644879, 1.62267
2022-12-14 14:42:18.645640, 1.63245
2022-12-14 14:42:18.645640, 1.65689
2022-12-14 14:42:18.678212, 1.64711
2022-12-14 14:42:18.678212, 1.63734
2022-12-14 14:42:18.679219, 1.65200
2022-12-14 14:42:18.711761, 1.62756
2022-12-14 14:42:18.712104, 1.62267
2022-12-14 14:42:18.744989, 1.64222
2022-12-14 14:42:18.744989, 1.63734
2022-12-14 14:42:18.744989, 1.65689
2022-12-14 14:42:18.778966, 1.63245
2022-12-14 14:42:18.778966, 1.62267
2022-12-14 14:42:18.779981, 1.63245
2022-12-14 14:42:18.812560, 1.62267
2022-12-14 14:42:18.812898, 1.62756
2022-12-14 14:42:18.846019, 1.61779
2022-12-14 14:42:18.846019, 1.62267
2022-12-14 14:42:18.847043, 1.62756
2022-12-14 14:42:18.879705, 1.64222
2022-12-14 14:42:18.880041, 1.61290
2022-12-14 14:42:18.880041, 1.63734
2022-12-14 14:42:18.913141, 1.61779
2022-12-14 14:42:18.913696, 1.60801
2022-12-14 14:42:18.945859, 1.60801
2022-12-14 14:42:18.945859, 1.61290
2022-12-14 14:42:18.946866, 1.61779
2022-12-14 14:42:18.979289, 1.60801
2022-12-14 14:42:18.979289, 1.60801
2022-12-14 14:42:18.980299, 1.61290
2022-12-14 14:42:19.013633, 1.61290
2022-12-14 14:42:19.013975, 1.60801
2022-12-14 14:42:19.047296, 1.60801
2022-12-14 14:42:19.047532, 1.61290
2022-12-14 14:42:19.048534, 1.61779
2022-12-14 14:42:19.080800, 1.61779
2022-12-14 14:42:19.081090, 1.61290
2022-12-14 14:42:19.082092, 1.61290
2022-12-14 14:42:19.114390, 1.62756
2022-12-14 14:42:19.114735, 1.61290
2022-12-14 14:42:19.147846, 1.63734
2022-12-14 14:42:19.148083, 1.61779
2022-12-14 14:42:19.148083, 1.64711
2022-12-14 14:42:19.181529, 1.60801
2022-12-14 14:42:19.181820, 1.61290
2022-12-14 14:42:19.181820, 1.61779
2022-12-14 14:42:19.214943, 1.65200
2022-12-14 14:42:19.214943, 1.61779
2022-12-14 14:42:19.248648, 1.63734
2022-12-14 14:42:19.248648, 1.63734
2022-12-14 14:42:19.249650, 1.67155
2022-12-14 14:42:19.281298, 1.64222
2022-12-14 14:42:19.281298, 1.64222
2022-12-14 14:42:19.282170, 1.65689
2022-12-14 14:42:19.315363, 1.65200
2022-12-14 14:42:19.316179, 1.65200
2022-12-14 14:42:19.348976, 1.64711
2022-12-14 14:42:19.348976, 1.64711
2022-12-14 14:42:19.349978, 1.65689
2022-12-14 14:42:19.382843, 1.64711
2022-12-14 14:42:19.382843, 1.65200
2022-12-14 14:42:19.383848, 1.64222
2022-12-14 14:42:19.416051, 1.64711
2022-12-14 14:42:19.416861, 1.64222
2022-12-14 14:42:19.449610, 1.63734
2022-12-14 14:42:19.449922, 1.64222
2022-12-14 14:42:19.450935, 1.64222
2022-12-14 14:42:19.482968, 1.64222
2022-12-14 14:42:19.482968, 1.63245
2022-12-14 14:42:19.484011, 1.63734
2022-12-14 14:42:19.516022, 1.64222
2022-12-14 14:42:19.516022, 1.64222
2022-12-14 14:42:19.548947, 1.63245
2022-12-14 14:42:19.549956, 1.65200
2022-12-14 14:42:19.549956, 1.64711
2022-12-14 14:42:19.583165, 1.64222
2022-12-14 14:42:19.583165, 1.63734
2022-12-14 14:42:19.584175, 1.63734
2022-12-14 14:42:19.616144, 1.65689
2022-12-14 14:42:19.617146, 1.64222
2022-12-14 14:42:19.650224, 1.63734
2022-12-14 14:42:19.650224, 1.64222
2022-12-14 14:42:19.651226, 1.64711
2022-12-14 14:42:19.683267, 1.64222
2022-12-14 14:42:19.684271, 1.63734
2022-12-14 14:42:19.684271, 1.63734
2022-12-14 14:42:19.717306, 1.65200
2022-12-14 14:42:19.717306, 1.64711
2022-12-14 14:42:19.751026, 1.63245
2022-12-14 14:42:19.751026, 1.63734
2022-12-14 14:42:19.752028, 1.63734
2022-12-14 14:42:19.784351, 1.64222
2022-12-14 14:42:19.784351, 1.63245
2022-12-14 14:42:19.785352, 1.63245
2022-12-14 14:42:19.818215, 1.63734
2022-12-14 14:42:19.818557, 1.64711
2022-12-14 14:42:19.851744, 1.63245
2022-12-14 14:42:19.851744, 1.63245
2022-12-14 14:42:19.852745, 1.63734
2022-12-14 14:42:19.884198, 1.64222
2022-12-14 14:42:19.885199, 1.63734
2022-12-14 14:42:19.885199, 1.63245
2022-12-14 14:42:19.918815, 1.63734
2022-12-14 14:42:19.918815, 1.64222
2022-12-14 14:42:19.952296, 1.64222
2022-12-14 14:42:19.952296, 1.64222
2022-12-14 14:42:19.953299, 1.64222
2022-12-14 14:42:19.985965, 1.65200
2022-12-14 14:42:19.985965, 1.65200
2022-12-14 14:42:19.986981, 1.65200
2022-12-14 14:42:20.019495, 1.63734
2022-12-14 14:42:20.019495, 1.65200
2022-12-14 14:42:20.052974, 1.63734
2022-12-14 14:42:20.053212, 1.63245
2022-12-14 14:42:20.054214, 1.63734
2022-12-14 14:42:20.086505, 1.64222
2022-12-14 14:42:20.086505, 1.63734
2022-12-14 14:42:20.087505, 1.63245
2022-12-14 14:42:20.120083, 1.63734
2022-12-14 14:42:20.120426, 1.63734
2022-12-14 14:42:20.153587, 1.64222
2022-12-14 14:42:20.153587, 1.64222
2022-12-14 14:42:20.154595, 1.64711
2022-12-14 14:42:20.187052, 1.67644
2022-12-14 14:42:20.187413, 1.67155
2022-12-14 14:42:20.187413, 1.66177
2022-12-14 14:42:20.219960, 1.67155
2022-12-14 14:42:20.220589, 1.67644
2022-12-14 14:42:20.254217, 1.67644
2022-12-14 14:42:20.254456, 1.67155
2022-12-14 14:42:20.254456, 1.67644
2022-12-14 14:42:20.287753, 1.67644
2022-12-14 14:42:20.288046, 1.67155
2022-12-14 14:42:20.288046, 1.66666
2022-12-14 14:42:20.321337, 1.66666
2022-12-14 14:42:20.321337, 1.69599
2022-12-14 14:42:20.354861, 1.67644
2022-12-14 14:42:20.355099, 1.66666
2022-12-14 14:42:20.355705, 1.66177
2022-12-14 14:42:20.388456, 1.66177
2022-12-14 14:42:20.388832, 1.66177
2022-12-14 14:42:20.388832, 1.68132
2022-12-14 14:42:20.421842, 1.65200
2022-12-14 14:42:20.422183, 1.65689
2022-12-14 14:42:20.455225, 1.66177
2022-12-14 14:42:20.456232, 1.65689
2022-12-14 14:42:20.456232, 1.65200
2022-12-14 14:42:20.488840, 1.66177
2022-12-14 14:42:20.489139, 1.66666
2022-12-14 14:42:20.489139, 1.68132
2022-12-14 14:42:20.522645, 1.67155
2022-12-14 14:42:20.523033, 1.66666
2022-12-14 14:42:20.556083, 1.67644
2022-12-14 14:42:20.556083, 1.66177
2022-12-14 14:42:20.557085, 1.66666
2022-12-14 14:42:20.589638, 1.65689
2022-12-14 14:42:20.589931, 1.66177
2022-12-14 14:42:20.589931, 1.65200
2022-12-14 14:42:20.623018, 1.65200
2022-12-14 14:42:20.623018, 1.67644
2022-12-14 14:42:20.656581, 1.66177
2022-12-14 14:42:20.656819, 1.65200
2022-12-14 14:42:20.656819, 1.66177
2022-12-14 14:42:20.690258, 1.66666
2022-12-14 14:42:20.690550, 1.67644
2022-12-14 14:42:20.691020, 1.64711
2022-12-14 14:42:20.723672, 1.64222
2022-12-14 14:42:20.724479, 1.64711
2022-12-14 14:42:20.756368, 1.65200
2022-12-14 14:42:20.756368, 1.64222
2022-12-14 14:42:20.757364, 1.64222
2022-12-14 14:42:20.790680, 1.64222
2022-12-14 14:42:20.790970, 1.64711
2022-12-14 14:42:20.790970, 1.64711
2022-12-14 14:42:20.824377, 1.64222
2022-12-14 14:42:20.824722, 1.64222
2022-12-14 14:42:20.857835, 1.65200
2022-12-14 14:42:20.858073, 1.64711
2022-12-14 14:42:20.859075, 1.64222
2022-12-14 14:42:20.891511, 1.64222
2022-12-14 14:42:20.891842, 1.64711
2022-12-14 14:42:20.891842, 1.64222
2022-12-14 14:42:20.924853, 1.63734
2022-12-14 14:42:20.925196, 1.64222
2022-12-14 14:42:20.958421, 1.64711
2022-12-14 14:42:20.958660, 1.64711
2022-12-14 14:42:20.959132, 1.64222
2022-12-14 14:42:20.991731, 1.64222
2022-12-14 14:42:20.992755, 1.64711
2022-12-14 14:42:20.992755, 1.63734
2022-12-14 14:42:21.024943, 1.63245
2022-12-14 14:42:21.024943, 1.63245
2022-12-14 14:42:21.058930, 1.64711
2022-12-14 14:42:21.059170, 1.64222
2022-12-14 14:42:21.059170, 1.63734
2022-12-14 14:42:21.092558, 1.65200
2022-12-14 14:42:21.092848, 1.64711
2022-12-14 14:42:21.092848, 1.65689
2022-12-14 14:42:21.126144, 1.63734
2022-12-14 14:42:21.126487, 1.65200
2022-12-14 14:42:21.159776, 1.64222
2022-12-14 14:42:21.160047, 1.64222
2022-12-14 14:42:21.160047, 1.63245
2022-12-14 14:42:21.193280, 1.63245
2022-12-14 14:42:21.193610, 1.66177
2022-12-14 14:42:21.193610, 1.63734
2022-12-14 14:42:21.226664, 1.63245
2022-12-14 14:42:21.227009, 1.65689
2022-12-14 14:42:21.260177, 1.65689
2022-12-14 14:42:21.260413, 1.64222
2022-12-14 14:42:21.260929, 1.63734
2022-12-14 14:42:21.293597, 1.64222
2022-12-14 14:42:21.293597, 1.65689
2022-12-14 14:42:21.294480, 1.66666
2022-12-14 14:42:21.326820, 1.66666
2022-12-14 14:42:21.326820, 1.67155
2022-12-14 14:42:21.360682, 1.67644
2022-12-14 14:42:21.360917, 1.68132
2022-12-14 14:42:21.360917, 1.67644
2022-12-14 14:42:21.394220, 1.69110
2022-12-14 14:42:21.394509, 1.68132
2022-12-14 14:42:21.394509, 1.68132
2022-12-14 14:42:21.427716, 1.66666
2022-12-14 14:42:21.428062, 1.66666
2022-12-14 14:42:21.461300, 1.66666
2022-12-14 14:42:21.461536, 1.67155
2022-12-14 14:42:21.461536, 1.67644
2022-12-14 14:42:21.494826, 1.66177
2022-12-14 14:42:21.495121, 1.66177
2022-12-14 14:42:21.495121, 1.66666
2022-12-14 14:42:21.528620, 1.68621
2022-12-14 14:42:21.529008, 1.65689
2022-12-14 14:42:21.561841, 1.65689
2022-12-14 14:42:21.562079, 1.68621
2022-12-14 14:42:21.562079, 1.66177
2022-12-14 14:42:21.595580, 1.65200
2022-12-14 14:42:21.595580, 1.67644
2022-12-14 14:42:21.596581, 1.69110
2022-12-14 14:42:21.629058, 1.66177
2022-12-14 14:42:21.629575, 1.65200
2022-12-14 14:42:21.661766, 1.65689
2022-12-14 14:42:21.661766, 1.66177
2022-12-14 14:42:21.662765, 1.66177
2022-12-14 14:42:21.695950, 1.65689
2022-12-14 14:42:21.696237, 1.65689
2022-12-14 14:42:21.697243, 1.66177
2022-12-14 14:42:21.729527, 1.66177
2022-12-14 14:42:21.729867, 1.65200
2022-12-14 14:42:21.763031, 1.65200
2022-12-14 14:42:21.763031, 1.65689
2022-12-14 14:42:21.764031, 1.65689
2022-12-14 14:42:21.796655, 1.65200
2022-12-14 14:42:21.796942, 1.65200
2022-12-14 14:42:21.796942, 1.65689
2022-12-14 14:42:21.830269, 1.65689
2022-12-14 14:42:21.830642, 1.64711
2022-12-14 14:42:21.863629, 1.64711
2022-12-14 14:42:21.863629, 1.65200
2022-12-14 14:42:21.864646, 1.65689
2022-12-14 14:42:21.897000, 1.64222
2022-12-14 14:42:21.897000, 1.64711
2022-12-14 14:42:21.898009, 1.64711
2022-12-14 14:42:21.930294, 1.65200
2022-12-14 14:42:21.930294, 1.64711
2022-12-14 14:42:21.964102, 1.64222
2022-12-14 14:42:21.964341, 1.64222
2022-12-14 14:42:21.965343, 1.65200
2022-12-14 14:42:21.997706, 1.66666
2022-12-14 14:42:21.997996, 1.64711
2022-12-14 14:42:21.997996, 1.65200
2022-12-14 14:42:22.031288, 1.65689
2022-12-14 14:42:22.031630, 1.66666
2022-12-14 14:42:22.064824, 1.64711
2022-12-14 14:42:22.065062, 1.64222
2022-12-14 14:42:22.065062, 1.65200
2022-12-14 14:42:22.098315, 1.65689
2022-12-14 14:42:22.098641, 1.64222
2022-12-14 14:42:22.098641, 1.64222
2022-12-14 14:42:22.131967, 1.64222
2022-12-14 14:42:22.132356, 1.64222
2022-12-14 14:42:22.165500, 1.64222
2022-12-14 14:42:22.165786, 1.64222
2022-12-14 14:42:22.165786, 1.64222
2022-12-14 14:42:22.199273, 1.64222
2022-12-14 14:42:22.200280, 1.63734
2022-12-14 14:42:22.200280, 1.63734
2022-12-14 14:42:22.231440, 1.64222
2022-12-14 14:42:22.232447, 1.64222
2022-12-14 14:42:22.264738, 1.63245
2022-12-14 14:42:22.265745, 1.63734
2022-12-14 14:42:22.265745, 1.64222
2022-12-14 14:42:22.299474, 1.64222
2022-12-14 14:42:22.299474, 1.64222
2022-12-14 14:42:22.300509, 1.63245
2022-12-14 14:42:22.333064, 1.65200
2022-12-14 14:42:22.333064, 1.63245
2022-12-14 14:42:22.366544, 1.65200
2022-12-14 14:42:22.367416, 1.63734
2022-12-14 14:42:22.367416, 1.64222
2022-12-14 14:42:22.400465, 1.65200
2022-12-14 14:42:22.400465, 1.64222
2022-12-14 14:42:22.401468, 1.65200
2022-12-14 14:42:22.433688, 1.66177
2022-12-14 14:42:22.434340, 1.67155
2022-12-14 14:42:22.467359, 1.66666
2022-12-14 14:42:22.467359, 1.67155
2022-12-14 14:42:22.468362, 1.67644
2022-12-14 14:42:22.500782, 1.67644
2022-12-14 14:42:22.501286, 1.69110
2022-12-14 14:42:22.501286, 1.66666
2022-12-14 14:42:22.533306, 1.67155
2022-12-14 14:42:22.534305, 1.67155
2022-12-14 14:42:22.566925, 1.66177
2022-12-14 14:42:22.566925, 1.66177
2022-12-14 14:42:22.567926, 1.66177
2022-12-14 14:42:22.600893, 1.66666
2022-12-14 14:42:22.600893, 1.65689
2022-12-14 14:42:22.601890, 1.65689
2022-12-14 14:42:22.633909, 1.65689
2022-12-14 14:42:22.634942, 1.65689
2022-12-14 14:42:22.667417, 1.65200
2022-12-14 14:42:22.667985, 1.64711
2022-12-14 14:42:22.668988, 1.65200
2022-12-14 14:42:22.701063, 1.65689
2022-12-14 14:42:22.702066, 1.64711
2022-12-14 14:42:22.702066, 1.64711
2022-12-14 14:42:22.734163, 1.64711
2022-12-14 14:42:22.735172, 1.65200
2022-12-14 14:42:22.768176, 1.64711
2022-12-14 14:42:22.768176, 1.64711
2022-12-14 14:42:22.769180, 1.65200
2022-12-14 14:42:22.802204, 1.65689
2022-12-14 14:42:22.802204, 1.65200
2022-12-14 14:42:22.803201, 1.67644
2022-12-14 14:42:22.835295, 1.66177
2022-12-14 14:42:22.835295, 1.65689
2022-12-14 14:42:22.868313, 1.66666
2022-12-14 14:42:22.869246, 1.65689
2022-12-14 14:42:22.869246, 1.64711
2022-12-14 14:42:22.902581, 1.65200
2022-12-14 14:42:22.902946, 1.64711
2022-12-14 14:42:22.902946, 1.64222
2022-12-14 14:42:22.936030, 1.64222
2022-12-14 14:42:22.936351, 1.64711
2022-12-14 14:42:22.970072, 1.64222
2022-12-14 14:42:22.970309, 1.63734
2022-12-14 14:42:22.970914, 1.63734
2022-12-14 14:42:23.003261, 1.64711
2022-12-14 14:42:23.003892, 1.66177
2022-12-14 14:42:23.003892, 1.65689
2022-12-14 14:42:23.037035, 1.65689
2022-12-14 14:42:23.037377, 1.66666
2022-12-14 14:42:23.070515, 1.63245
2022-12-14 14:42:23.070515, 1.62756
2022-12-14 14:42:23.071284, 1.66177
2022-12-14 14:42:23.103621, 1.66177
2022-12-14 14:42:23.103621, 1.63245
2022-12-14 14:42:23.104621, 1.62756
2022-12-14 14:42:23.136408, 1.62756
2022-12-14 14:42:23.137435, 1.63245
2022-12-14 14:42:23.171126, 1.63245
2022-12-14 14:42:23.171439, 1.62267
2022-12-14 14:42:23.171439, 1.62756
2022-12-14 14:42:23.204703, 1.62756
2022-12-14 14:42:23.204991, 1.62756
2022-12-14 14:42:23.205544, 1.62267
2022-12-14 14:42:23.238375, 1.62267
2022-12-14 14:42:23.238714, 1.62267
2022-12-14 14:42:23.271700, 1.62756
2022-12-14 14:42:23.271700, 1.61779
2022-12-14 14:42:23.272597, 1.64222
2022-12-14 14:42:23.305214, 1.64711
2022-12-14 14:42:23.305214, 1.62756
2022-12-14 14:42:23.306079, 1.61779
2022-12-14 14:42:23.338817, 1.62267
2022-12-14 14:42:23.339163, 1.64222
2022-12-14 14:42:23.372430, 1.63734
2022-12-14 14:42:23.372430, 1.62756
2022-12-14 14:42:23.373431, 1.62267
2022-12-14 14:42:23.405975, 1.61290
2022-12-14 14:42:23.405975, 1.62756
2022-12-14 14:42:23.406971, 1.62267
2022-12-14 14:42:23.438492, 1.62267
2022-12-14 14:42:23.439485, 1.63245
2022-12-14 14:42:23.473076, 1.64222
2022-12-14 14:42:23.473313, 1.65200
2022-12-14 14:42:23.473313, 1.63734
2022-12-14 14:42:23.506568, 1.64222
2022-12-14 14:42:23.506857, 1.65200
2022-12-14 14:42:23.506857, 1.67155
2022-12-14 14:42:23.540204, 1.64711
2022-12-14 14:42:23.540586, 1.65689
2022-12-14 14:42:23.572288, 1.66177
2022-12-14 14:42:23.573286, 1.67155
2022-12-14 14:42:23.573286, 1.64711
2022-12-14 14:42:23.607140, 1.64711
2022-12-14 14:42:23.607429, 1.65200
2022-12-14 14:42:23.607429, 1.67644
2022-12-14 14:42:23.640674, 1.64222
2022-12-14 14:42:23.641019, 1.64222
2022-12-14 14:42:23.674173, 1.65200
2022-12-14 14:42:23.674410, 1.64222
2022-12-14 14:42:23.674410, 1.63734
2022-12-14 14:42:23.707458, 1.63734
2022-12-14 14:42:23.707458, 1.65200
2022-12-14 14:42:23.708420, 1.65689
2022-12-14 14:42:23.740820, 1.64222
2022-12-14 14:42:23.740820, 1.63245
2022-12-14 14:42:23.774635, 1.64222
2022-12-14 14:42:23.774635, 1.63734
2022-12-14 14:42:23.775527, 1.63245
2022-12-14 14:42:23.808234, 1.63734
2022-12-14 14:42:23.808234, 1.63734
2022-12-14 14:42:23.809246, 1.64222
2022-12-14 14:42:23.841844, 1.63734
2022-12-14 14:42:23.842187, 1.63734
2022-12-14 14:42:23.875373, 1.64711
2022-12-14 14:42:23.875611, 1.64711
2022-12-14 14:42:23.876080, 1.64222
2022-12-14 14:42:23.908776, 1.63734
2022-12-14 14:42:23.909066, 1.63734
2022-12-14 14:42:23.909066, 1.64222
2022-12-14 14:42:23.942454, 1.63734
2022-12-14 14:42:23.942454, 1.63734
2022-12-14 14:42:23.975230, 1.63734
2022-12-14 14:42:23.976257, 1.63734
2022-12-14 14:42:23.976257, 1.63245
2022-12-14 14:42:24.009322, 1.63245
2022-12-14 14:42:24.009322, 1.63734
2022-12-14 14:42:24.010341, 1.63734
2022-12-14 14:42:24.043056, 1.63245
2022-12-14 14:42:24.043400, 1.62756
2022-12-14 14:42:24.076610, 1.64711
2022-12-14 14:42:24.076848, 1.65200
2022-12-14 14:42:24.076848, 1.65200
2022-12-14 14:42:24.110207, 1.64222
2022-12-14 14:42:24.110531, 1.64222
2022-12-14 14:42:24.111534, 1.65689
2022-12-14 14:42:24.143220, 1.62756
2022-12-14 14:42:24.143220, 1.65200
2022-12-14 14:42:24.177294, 1.65689
2022-12-14 14:42:24.177294, 1.63734
2022-12-14 14:42:24.178235, 1.62756
2022-12-14 14:42:24.210557, 1.62756
2022-12-14 14:42:24.210845, 1.63245
2022-12-14 14:42:24.211443, 1.63734
2022-12-14 14:42:24.244106, 1.63245
2022-12-14 14:42:24.244106, 1.62756
2022-12-14 14:42:24.277776, 1.63245
2022-12-14 14:42:24.277776, 1.63734
2022-12-14 14:42:24.278778, 1.62756
2022-12-14 14:42:24.310258, 1.62756
2022-12-14 14:42:24.311255, 1.62756
2022-12-14 14:42:24.311255, 1.63245
2022-12-14 14:42:24.344724, 1.63734
2022-12-14 14:42:24.344724, 1.62756
2022-12-14 14:42:24.378396, 1.63245
2022-12-14 14:42:24.378396, 1.64711
2022-12-14 14:42:24.379331, 1.66177
2022-12-14 14:42:24.411803, 1.64711
2022-12-14 14:42:24.412093, 1.65689
2022-12-14 14:42:24.412093, 1.67155
2022-12-14 14:42:24.445612, 1.67155
2022-12-14 14:42:24.445956, 1.66666
2022-12-14 14:42:24.478947, 1.67155
2022-12-14 14:42:24.479187, 1.70576
2022-12-14 14:42:24.479187, 1.68132
2022-12-14 14:42:24.512212, 1.67155
2022-12-14 14:42:24.512212, 1.67155
2022-12-14 14:42:24.513198, 1.67644
2022-12-14 14:42:24.545234, 1.67644
2022-12-14 14:42:24.545234, 1.67644
2022-12-14 14:42:24.578543, 1.66177
2022-12-14 14:42:24.579508, 1.67155
2022-12-14 14:42:24.579508, 1.67155
2022-12-14 14:42:24.611887, 1.66666
2022-12-14 14:42:24.612886, 1.69110
2022-12-14 14:42:24.613229, 1.67155
2022-12-14 14:42:24.646548, 1.66666
2022-12-14 14:42:24.646548, 1.65689
2022-12-14 14:42:24.680063, 1.65689
2022-12-14 14:42:24.680063, 1.66177
2022-12-14 14:42:24.681065, 1.68132
2022-12-14 14:42:24.713319, 1.65689
2022-12-14 14:42:24.713319, 1.67155
2022-12-14 14:42:24.714321, 1.66666
2022-12-14 14:42:24.746744, 1.67155
2022-12-14 14:42:24.746744, 1.66177
2022-12-14 14:42:24.780218, 1.66177
2022-12-14 14:42:24.780218, 1.70087
2022-12-14 14:42:24.781222, 1.67155
2022-12-14 14:42:24.814061, 1.65689
2022-12-14 14:42:24.815065, 1.66177
2022-12-14 14:42:24.815065, 1.67155
2022-12-14 14:42:24.847570, 1.67155
2022-12-14 14:42:24.847914, 1.66177
2022-12-14 14:42:24.881106, 1.66177
2022-12-14 14:42:24.881343, 1.66177
2022-12-14 14:42:24.881343, 1.67155
2022-12-14 14:42:24.914531, 1.65689
2022-12-14 14:42:24.914531, 1.65689
2022-12-14 14:42:24.915550, 1.65689
2022-12-14 14:42:24.948169, 1.66666
2022-12-14 14:42:24.948507, 1.65689
2022-12-14 14:42:24.981691, 1.65200
2022-12-14 14:42:24.981928, 1.65689
2022-12-14 14:42:24.982481, 1.65689
2022-12-14 14:42:25.015212, 1.65689
2022-12-14 14:42:25.015500, 1.65200
2022-12-14 14:42:25.016127, 1.65689
2022-12-14 14:42:25.048802, 1.66177
2022-12-14 14:42:25.049194, 1.65200
2022-12-14 14:42:25.082401, 1.65200
2022-12-14 14:42:25.082401, 1.64711
2022-12-14 14:42:25.083402, 1.65689
2022-12-14 14:42:25.115891, 1.65200
2022-12-14 14:42:25.116897, 1.64711
2022-12-14 14:42:25.116897, 1.65200
2022-12-14 14:42:25.148649, 1.65689
2022-12-14 14:42:25.148649, 1.65200
2022-12-14 14:42:25.183032, 1.65200
2022-12-14 14:42:25.183274, 1.64711
2022-12-14 14:42:25.183274, 1.65200
2022-12-14 14:42:25.216595, 1.65200
2022-12-14 14:42:25.216886, 1.65200
2022-12-14 14:42:25.216886, 1.64711
2022-12-14 14:42:25.250131, 1.65200
2022-12-14 14:42:25.250475, 1.65689
2022-12-14 14:42:25.283628, 1.65200
2022-12-14 14:42:25.283628, 1.64711
2022-12-14 14:42:25.284630, 1.65200
2022-12-14 14:42:25.317185, 1.65200
2022-12-14 14:42:25.317478, 1.64711
2022-12-14 14:42:25.317478, 1.65200
2022-12-14 14:42:25.350594, 1.66177
2022-12-14 14:42:25.350936, 1.67644
2022-12-14 14:42:25.384275, 1.67155
2022-12-14 14:42:25.384512, 1.68621
2022-12-14 14:42:25.384512, 1.69110
2022-12-14 14:42:25.417799, 1.70087
2022-12-14 14:42:25.417799, 1.69110
2022-12-14 14:42:25.418834, 1.72043
2022-12-14 14:42:25.451238, 1.70087
2022-12-14 14:42:25.452246, 1.70087
2022-12-14 14:42:25.483716, 1.69110
2022-12-14 14:42:25.484727, 1.68621
2022-12-14 14:42:25.484727, 1.69110
2022-12-14 14:42:25.518128, 1.69599
2022-12-14 14:42:25.518988, 1.70087
2022-12-14 14:42:25.518988, 1.68132
2022-12-14 14:42:25.552141, 1.68621
2022-12-14 14:42:25.552141, 1.69110
2022-12-14 14:42:25.585206, 1.67644
2022-12-14 14:42:25.585525, 1.68132
2022-12-14 14:42:25.586529, 1.68132
2022-12-14 14:42:25.618845, 1.68621
2022-12-14 14:42:25.618845, 1.67644
2022-12-14 14:42:25.619849, 1.68132
2022-12-14 14:42:25.652298, 1.67644
2022-12-14 14:42:25.652298, 1.68621
2022-12-14 14:42:25.685280, 1.67644
2022-12-14 14:42:25.685694, 1.67644
2022-12-14 14:42:25.686698, 1.68132
2022-12-14 14:42:25.719005, 1.69110
2022-12-14 14:42:25.719005, 1.68621
2022-12-14 14:42:25.720010, 1.70087
2022-12-14 14:42:25.752377, 1.68621
2022-12-14 14:42:25.753381, 1.69110
2022-12-14 14:42:25.785927, 1.71065
2022-12-14 14:42:25.785927, 1.68132
2022-12-14 14:42:25.786922, 1.67644
2022-12-14 14:42:25.818881, 1.68621
2022-12-14 14:42:25.819848, 1.68132
2022-12-14 14:42:25.820275, 1.67155
2022-12-14 14:42:25.852351, 1.67155
2022-12-14 14:42:25.853354, 1.68132
2022-12-14 14:42:25.885664, 1.67155
2022-12-14 14:42:25.886765, 1.66177
2022-12-14 14:42:25.886765, 1.66666
2022-12-14 14:42:25.920213, 1.67155
2022-12-14 14:42:25.920564, 1.67155
2022-12-14 14:42:25.920982, 1.67155
2022-12-14 14:42:25.953806, 1.66666
2022-12-14 14:42:25.954269, 1.67644
2022-12-14 14:42:25.987306, 1.67155
2022-12-14 14:42:25.987306, 1.67155
2022-12-14 14:42:25.988307, 1.66177
2022-12-14 14:42:26.020168, 1.66666
2022-12-14 14:42:26.021166, 1.66666
2022-12-14 14:42:26.021166, 1.65689
2022-12-14 14:42:26.054308, 1.66177
2022-12-14 14:42:26.054793, 1.66666
2022-12-14 14:42:26.088235, 1.66666
2022-12-14 14:42:26.088472, 1.65689
2022-12-14 14:42:26.089071, 1.66177
2022-12-14 14:42:26.121718, 1.66666
2022-12-14 14:42:26.122009, 1.66666
2022-12-14 14:42:26.123011, 1.65689
2022-12-14 14:42:26.155160, 1.65689
2022-12-14 14:42:26.155160, 1.68621
2022-12-14 14:42:26.188739, 1.68621
2022-12-14 14:42:26.188977, 1.67155
2022-12-14 14:42:26.189531, 1.65689
2022-12-14 14:42:26.222296, 1.66177
2022-12-14 14:42:26.222586, 1.66666
2022-12-14 14:42:26.222586, 1.65689
2022-12-14 14:42:26.255708, 1.65200
2022-12-14 14:42:26.255708, 1.65200
2022-12-14 14:42:26.288337, 1.66177
2022-12-14 14:42:26.288337, 1.65200
2022-12-14 14:42:26.289342, 1.64711
2022-12-14 14:42:26.322319, 1.65200
2022-12-14 14:42:26.322319, 1.65689
2022-12-14 14:42:26.323315, 1.64711
2022-12-14 14:42:26.356417, 1.65200
2022-12-14 14:42:26.356763, 1.66177
2022-12-14 14:42:26.390095, 1.67155
2022-12-14 14:42:26.390330, 1.67644
2022-12-14 14:42:26.390330, 1.68132
2022-12-14 14:42:26.423554, 1.68621
2022-12-14 14:42:26.423844, 1.70087
2022-12-14 14:42:26.423844, 1.69599
2022-12-14 14:42:26.457043, 1.70087
2022-12-14 14:42:26.457384, 1.70576
2022-12-14 14:42:26.490689, 1.71065
2022-12-14 14:42:26.490928, 1.70576
2022-12-14 14:42:26.491929, 1.70576
2022-12-14 14:42:26.524221, 1.70087
2022-12-14 14:42:26.524513, 1.70087
2022-12-14 14:42:26.524972, 1.69599
2022-12-14 14:42:26.557642, 1.69110
2022-12-14 14:42:26.558644, 1.69599
2022-12-14 14:42:26.590845, 1.69599
2022-12-14 14:42:26.591850, 1.69599
2022-12-14 14:42:26.591850, 1.71065
2022-12-14 14:42:26.624644, 1.69110
2022-12-14 14:42:26.624644, 1.69110
2022-12-14 14:42:26.625658, 1.69110
2022-12-14 14:42:26.658413, 1.68132
2022-12-14 14:42:26.658794, 1.68621
2022-12-14 14:42:26.691701, 1.69110
2022-12-14 14:42:26.691963, 1.68621
2022-12-14 14:42:26.692565, 1.67644
2022-12-14 14:42:26.725275, 1.68621
2022-12-14 14:42:26.725564, 1.69110
2022-12-14 14:42:26.726036, 1.69110
2022-12-14 14:42:26.758827, 1.68132
2022-12-14 14:42:26.759168, 1.68621
2022-12-14 14:42:26.792225, 1.69599
2022-12-14 14:42:26.792225, 1.70576
2022-12-14 14:42:26.793227, 1.68621
2022-12-14 14:42:26.825417, 1.68132
2022-12-14 14:42:26.825417, 1.68621
2022-12-14 14:42:26.826422, 1.68621
2022-12-14 14:42:26.859308, 1.67155
2022-12-14 14:42:26.859654, 1.67644
2022-12-14 14:42:26.892885, 1.68132
2022-12-14 14:42:26.893131, 1.68132
2022-12-14 14:42:26.893131, 1.66666
2022-12-14 14:42:26.926435, 1.67155
2022-12-14 14:42:26.926730, 1.67155
2022-12-14 14:42:26.927321, 1.67644
2022-12-14 14:42:26.960001, 1.67155
2022-12-14 14:42:26.960350, 1.66666
2022-12-14 14:42:26.993645, 1.67155
2022-12-14 14:42:26.993884, 1.67644
2022-12-14 14:42:26.993884, 1.66666
2022-12-14 14:42:27.027069, 1.69110
2022-12-14 14:42:27.027363, 1.69599
2022-12-14 14:42:27.027836, 1.70087
2022-12-14 14:42:27.060620, 1.66177
2022-12-14 14:42:27.060969, 1.68132
2022-12-14 14:42:27.094145, 1.66666
2022-12-14 14:42:27.094601, 1.68132
2022-12-14 14:42:27.095605, 1.67155
2022-12-14 14:42:27.127340, 1.66177
2022-12-14 14:42:27.127340, 1.66666
2022-12-14 14:42:27.127340, 1.67155
2022-12-14 14:42:27.159905, 1.68132
2022-12-14 14:42:27.160923, 1.68132
2022-12-14 14:42:27.194811, 1.66177
2022-12-14 14:42:27.195048, 1.67644
2022-12-14 14:42:27.195048, 1.65689
2022-12-14 14:42:27.228446, 1.67155
2022-12-14 14:42:27.228771, 1.66666
2022-12-14 14:42:27.229371, 1.66177
2022-12-14 14:42:27.261794, 1.65689
2022-12-14 14:42:27.261794, 1.65200
2022-12-14 14:42:27.295456, 1.65200
2022-12-14 14:42:27.295693, 1.65689
2022-12-14 14:42:27.295693, 1.65200
2022-12-14 14:42:27.328726, 1.64711
2022-12-14 14:42:27.328726, 1.64711
2022-12-14 14:42:27.329727, 1.65200
2022-12-14 14:42:27.361463, 1.65200
2022-12-14 14:42:27.362469, 1.64222
2022-12-14 14:42:27.395741, 1.64222
2022-12-14 14:42:27.395981, 1.65200
2022-12-14 14:42:27.396591, 1.66666
2022-12-14 14:42:27.429356, 1.67155
2022-12-14 14:42:27.429650, 1.67644
2022-12-14 14:42:27.429650, 1.66177
2022-12-14 14:42:27.462924, 1.66666
2022-12-14 14:42:27.463266, 1.66666
2022-12-14 14:42:27.496473, 1.67644
2022-12-14 14:42:27.496716, 1.68621
2022-12-14 14:42:27.497361, 1.69110
2022-12-14 14:42:27.530067, 1.71065
2022-12-14 14:42:27.530361, 1.69110
2022-12-14 14:42:27.530835, 1.69599
2022-12-14 14:42:27.563637, 1.69599
2022-12-14 14:42:27.563637, 1.68621
2022-12-14 14:42:27.597003, 1.68621
2022-12-14 14:42:27.597003, 1.69599
2022-12-14 14:42:27.598008, 1.70087
2022-12-14 14:42:27.630270, 1.68621
2022-12-14 14:42:27.630270, 1.67644
2022-12-14 14:42:27.631278, 1.68132
2022-12-14 14:42:27.663612, 1.68621
2022-12-14 14:42:27.663935, 1.68132
2022-12-14 14:42:27.697517, 1.67644
2022-12-14 14:42:27.697756, 1.67644
2022-12-14 14:42:27.697756, 1.68132
2022-12-14 14:42:27.731169, 1.67155
2022-12-14 14:42:27.731465, 1.67155
2022-12-14 14:42:27.731465, 1.70087
2022-12-14 14:42:27.764693, 1.67644
2022-12-14 14:42:27.765041, 1.67155
2022-12-14 14:42:27.798090, 1.67155
2022-12-14 14:42:27.798329, 1.67155
2022-12-14 14:42:27.798803, 1.68132
2022-12-14 14:42:27.831828, 1.67155
2022-12-14 14:42:27.832165, 1.67155
2022-12-14 14:42:27.833166, 1.67155
2022-12-14 14:42:27.865186, 1.67644
2022-12-14 14:42:27.865844, 1.66666
2022-12-14 14:42:27.898497, 1.66666
2022-12-14 14:42:27.898497, 1.66666
2022-12-14 14:42:27.898497, 1.67155
2022-12-14 14:42:27.932280, 1.66666
2022-12-14 14:42:27.932280, 1.65689
2022-12-14 14:42:27.933220, 1.65689
2022-12-14 14:42:27.965838, 1.66666
2022-12-14 14:42:27.966182, 1.66666
2022-12-14 14:42:27.999527, 1.66177
2022-12-14 14:42:27.999766, 1.67155
2022-12-14 14:42:27.999766, 1.69110
2022-12-14 14:42:28.033091, 1.65689
2022-12-14 14:42:28.033385, 1.64711
2022-12-14 14:42:28.033859, 1.64711
2022-12-14 14:42:28.066564, 1.65689
2022-12-14 14:42:28.066564, 1.64711
2022-12-14 14:42:28.100025, 1.64711
2022-12-14 14:42:28.100290, 1.64711
2022-12-14 14:42:28.100926, 1.64711
2022-12-14 14:42:28.133678, 1.65689
2022-12-14 14:42:28.133678, 1.66666
2022-12-14 14:42:28.134680, 1.66177
2022-12-14 14:42:28.167046, 1.64711
2022-12-14 14:42:28.168053, 1.64711
2022-12-14 14:42:28.199416, 1.63734
2022-12-14 14:42:28.200423, 1.63734
2022-12-14 14:42:28.200423, 1.64222
2022-12-14 14:42:28.234024, 1.64711
2022-12-14 14:42:28.234024, 1.65200
2022-12-14 14:42:28.234968, 1.64222
2022-12-14 14:42:28.267612, 1.65689
2022-12-14 14:42:28.267992, 1.64222
2022-12-14 14:42:28.301159, 1.62756
2022-12-14 14:42:28.301396, 1.63245
2022-12-14 14:42:28.301396, 1.63734
2022-12-14 14:42:28.334704, 1.64222
2022-12-14 14:42:28.334704, 1.63734
2022-12-14 14:42:28.335716, 1.63734
2022-12-14 14:42:28.368157, 1.63245
2022-12-14 14:42:28.368157, 1.63245
2022-12-14 14:42:28.401694, 1.62267
2022-12-14 14:42:28.402351, 1.62267
2022-12-14 14:42:28.402351, 1.62756
2022-12-14 14:42:28.435132, 1.63245
2022-12-14 14:42:28.435710, 1.62756
2022-12-14 14:42:28.435710, 1.63245
2022-12-14 14:42:28.468780, 1.64222
2022-12-14 14:42:28.469789, 1.67155
2022-12-14 14:42:28.501364, 1.64711
2022-12-14 14:42:28.501364, 1.67155
2022-12-14 14:42:28.502372, 1.69110
2022-12-14 14:42:28.535573, 1.69599
2022-12-14 14:42:28.536523, 1.67155
2022-12-14 14:42:28.536523, 1.66666
2022-12-14 14:42:28.569289, 1.66666
2022-12-14 14:42:28.569949, 1.67644
2022-12-14 14:42:28.602910, 1.69599
2022-12-14 14:42:28.603329, 1.66177
2022-12-14 14:42:28.603329, 1.66177
2022-12-14 14:42:28.636205, 1.67155
2022-12-14 14:42:28.637212, 1.66177
2022-12-14 14:42:28.637212, 1.68132
2022-12-14 14:42:28.669713, 1.65689
2022-12-14 14:42:28.670720, 1.66177
2022-12-14 14:42:28.703110, 1.65689
2022-12-14 14:42:28.703110, 1.65200
2022-12-14 14:42:28.704088, 1.64711
2022-12-14 14:42:28.736657, 1.65689
2022-12-14 14:42:28.736657, 1.65200
2022-12-14 14:42:28.737661, 1.64711
2022-12-14 14:42:28.769751, 1.64711
2022-12-14 14:42:28.770758, 1.65689
2022-12-14 14:42:28.803212, 1.65200
2022-12-14 14:42:28.804222, 1.65200
2022-12-14 14:42:28.804222, 1.65689
2022-12-14 14:42:28.837262, 1.65689
2022-12-14 14:42:28.837262, 1.65689
2022-12-14 14:42:28.837262, 1.65200
2022-12-14 14:42:28.870126, 1.65200
2022-12-14 14:42:28.871121, 1.65689
2022-12-14 14:42:28.903511, 1.65689
2022-12-14 14:42:28.904414, 1.64711
2022-12-14 14:42:28.904414, 1.64711
2022-12-14 14:42:28.937813, 1.65689
2022-12-14 14:42:28.938159, 1.65689
2022-12-14 14:42:28.938159, 1.65200
2022-12-14 14:42:28.971379, 1.64711
2022-12-14 14:42:28.971773, 1.65200
2022-12-14 14:42:29.004908, 1.65689
2022-12-14 14:42:29.005330, 1.66666
2022-12-14 14:42:29.005741, 1.66666
2022-12-14 14:42:29.038456, 1.65200
2022-12-14 14:42:29.038456, 1.66177
2022-12-14 14:42:29.039456, 1.64222
2022-12-14 14:42:29.071912, 1.67155
2022-12-14 14:42:29.072903, 1.65689
2022-12-14 14:42:29.105295, 1.64711
2022-12-14 14:42:29.105674, 1.63734
2022-12-14 14:42:29.105674, 1.63734
2022-12-14 14:42:29.138572, 1.63734
2022-12-14 14:42:29.138572, 1.64222
2022-12-14 14:42:29.139588, 1.63245
2022-12-14 14:42:29.172790, 1.63245
2022-12-14 14:42:29.173132, 1.64222
2022-12-14 14:42:29.206372, 1.65200
2022-12-14 14:42:29.206372, 1.66177
2022-12-14 14:42:29.207265, 1.66666
2022-12-14 14:42:29.239977, 1.64222
2022-12-14 14:42:29.240265, 1.64222
2022-12-14 14:42:29.240265, 1.63734
2022-12-14 14:42:29.273498, 1.63245
2022-12-14 14:42:29.273838, 1.63734
2022-12-14 14:42:29.307062, 1.63734
2022-12-14 14:42:29.307297, 1.63245
2022-12-14 14:42:29.307896, 1.62756
2022-12-14 14:42:29.340517, 1.63245
2022-12-14 14:42:29.340517, 1.64222
2022-12-14 14:42:29.341333, 1.63734
2022-12-14 14:42:29.374127, 1.63734
2022-12-14 14:42:29.375131, 1.64222
2022-12-14 14:42:29.407523, 1.65689
2022-12-14 14:42:29.407523, 1.68132
2022-12-14 14:42:29.408524, 1.66666
2022-12-14 14:42:29.441178, 1.66666
2022-12-14 14:42:29.441469, 1.69110
2022-12-14 14:42:29.441469, 1.69110
2022-12-14 14:42:29.474746, 1.68132
2022-12-14 14:42:29.475153, 1.67644
2022-12-14 14:42:29.508224, 1.68132
2022-12-14 14:42:29.508224, 1.67644
2022-12-14 14:42:29.509224, 1.67155
2022-12-14 14:42:29.541572, 1.67155
2022-12-14 14:42:29.541572, 1.67644
2022-12-14 14:42:29.542574, 1.67155
2022-12-14 14:42:29.575223, 1.69599
2022-12-14 14:42:29.575223, 1.66177
2022-12-14 14:42:29.608240, 1.67155
2022-12-14 14:42:29.608240, 1.67155
2022-12-14 14:42:29.608240, 1.66177
2022-12-14 14:42:29.641928, 1.66177
2022-12-14 14:42:29.642934, 1.67155
2022-12-14 14:42:29.642934, 1.66177
2022-12-14 14:42:29.674697, 1.65689
2022-12-14 14:42:29.675695, 1.65689
2022-12-14 14:42:29.709338, 1.66177
2022-12-14 14:42:29.709577, 1.66177
2022-12-14 14:42:29.710580, 1.65689
2022-12-14 14:42:29.742799, 1.65689
2022-12-14 14:42:29.743089, 1.66666
2022-12-14 14:42:29.744091, 1.66666
2022-12-14 14:42:29.776346, 1.65689
2022-12-14 14:42:29.776346, 1.66666
2022-12-14 14:42:29.809748, 1.66666
2022-12-14 14:42:29.809985, 1.66666
2022-12-14 14:42:29.810545, 1.66177
2022-12-14 14:42:29.843479, 1.66177
2022-12-14 14:42:29.843772, 1.66177
2022-12-14 14:42:29.843772, 1.67644
2022-12-14 14:42:29.877015, 1.65689
2022-12-14 14:42:29.877360, 1.66177
2022-12-14 14:42:29.910440, 1.66177
2022-12-14 14:42:29.911463, 1.68621
2022-12-14 14:42:29.911463, 1.65200
2022-12-14 14:42:29.943917, 1.67155
2022-12-14 14:42:29.944206, 1.67644
2022-12-14 14:42:29.945208, 1.66177
2022-12-14 14:42:29.977662, 1.65200
2022-12-14 14:42:29.978001, 1.65200
2022-12-14 14:42:30.011213, 1.65200
2022-12-14 14:42:30.011488, 1.65689
2022-12-14 14:42:30.011488, 1.65200
2022-12-14 14:42:30.044749, 1.64711
2022-12-14 14:42:30.045082, 1.64711
2022-12-14 14:42:30.045679, 1.65200
2022-12-14 14:42:30.078115, 1.64711
2022-12-14 14:42:30.078459, 1.64711
2022-12-14 14:42:30.111670, 1.64711
2022-12-14 14:42:30.111905, 1.65200
2022-12-14 14:42:30.111905, 1.64711
2022-12-14 14:42:30.145212, 1.64222
2022-12-14 14:42:30.145212, 1.64222
2022-12-14 14:42:30.146214, 1.64711
2022-12-14 14:42:30.177748, 1.64711
2022-12-14 14:42:30.178777, 1.64222
2022-12-14 14:42:30.211544, 1.64222
2022-12-14 14:42:30.211544, 1.65200
2022-12-14 14:42:30.212539, 1.64711
2022-12-14 14:42:30.245729, 1.64222
2022-12-14 14:42:30.246019, 1.64222
2022-12-14 14:42:30.246019, 1.65200
2022-12-14 14:42:30.279437, 1.65200
2022-12-14 14:42:30.279781, 1.63734
2022-12-14 14:42:30.312874, 1.65200
2022-12-14 14:42:30.313112, 1.64711
2022-12-14 14:42:30.313112, 1.64222
2022-12-14 14:42:30.346511, 1.63245
2022-12-14 14:42:30.346801, 1.63734
2022-12-14 14:42:30.346801, 1.64711
2022-12-14 14:42:30.379875, 1.64711
2022-12-14 14:42:30.379875, 1.64222
2022-12-14 14:42:30.413499, 1.65200
2022-12-14 14:42:30.413734, 1.66666
2022-12-14 14:42:30.413734, 1.67644
2022-12-14 14:42:30.446490, 1.66666
2022-12-14 14:42:30.446490, 1.67155
2022-12-14 14:42:30.447491, 1.68132
2022-12-14 14:42:30.480550, 1.71554
2022-12-14 14:42:30.481557, 1.70087
2022-12-14 14:42:30.513182, 1.68132
2022-12-14 14:42:30.513182, 1.68132
2022-12-14 14:42:30.514177, 1.68621
2022-12-14 14:42:30.547633, 1.67644
2022-12-14 14:42:30.547923, 1.67644
2022-12-14 14:42:30.547923, 1.68132
2022-12-14 14:42:30.581217, 1.68132
2022-12-14 14:42:30.581561, 1.67155
2022-12-14 14:42:30.614699, 1.67155
2022-12-14 14:42:30.614935, 1.67155
2022-12-14 14:42:30.615489, 1.67644
2022-12-14 14:42:30.648207, 1.69599
2022-12-14 14:42:30.648207, 1.66666
2022-12-14 14:42:30.649029, 1.67155
2022-12-14 14:42:30.681860, 1.67644
2022-12-14 14:42:30.682204, 1.66666
2022-12-14 14:42:30.715314, 1.66666
2022-12-14 14:42:30.715582, 1.67155
2022-12-14 14:42:30.715582, 1.67644
2022-12-14 14:42:30.748759, 1.67155
2022-12-14 14:42:30.748759, 1.66177
2022-12-14 14:42:30.749760, 1.67155
2022-12-14 14:42:30.782599, 1.67644
2022-12-14 14:42:30.782599, 1.67155
2022-12-14 14:42:30.815062, 1.66177
2022-12-14 14:42:30.815062, 1.66666
2022-12-14 14:42:30.816059, 1.67644
2022-12-14 14:42:30.849407, 1.66666
2022-12-14 14:42:30.849700, 1.66177
2022-12-14 14:42:30.849700, 1.69110
2022-12-14 14:42:30.882865, 1.66666
2022-12-14 14:42:30.883207, 1.66177
2022-12-14 14:42:30.916508, 1.65689
2022-12-14 14:42:30.916743, 1.65689
2022-12-14 14:42:30.916743, 1.66177
2022-12-14 14:42:30.950058, 1.66177
2022-12-14 14:42:30.950389, 1.65200
2022-12-14 14:42:30.950862, 1.65200
2022-12-14 14:42:30.983637, 1.66177
2022-12-14 14:42:30.983979, 1.66177
2022-12-14 14:42:31.017095, 1.65689
2022-12-14 14:42:31.017095, 1.65200
2022-12-14 14:42:31.018116, 1.66177
2022-12-14 14:42:31.050187, 1.66666
2022-12-14 14:42:31.050187, 1.64711
2022-12-14 14:42:31.051204, 1.67155
2022-12-14 14:42:31.083509, 1.67155
2022-12-14 14:42:31.083509, 1.65200
2022-12-14 14:42:31.117454, 1.64711
2022-12-14 14:42:31.117717, 1.64711
2022-12-14 14:42:31.117717, 1.65200
2022-12-14 14:42:31.151062, 1.65200
2022-12-14 14:42:31.151356, 1.63734
2022-12-14 14:42:31.151356, 1.64711
2022-12-14 14:42:31.184562, 1.65200
2022-12-14 14:42:31.184562, 1.65200
2022-12-14 14:42:31.218165, 1.64222
2022-12-14 14:42:31.218407, 1.64711
2022-12-14 14:42:31.219409, 1.64711
2022-12-14 14:42:31.251754, 1.66177
2022-12-14 14:42:31.252047, 1.64222
2022-12-14 14:42:31.252594, 1.67155
2022-12-14 14:42:31.285286, 1.66666
2022-12-14 14:42:31.285679, 1.65200
2022-12-14 14:42:31.318706, 1.64222
2022-12-14 14:42:31.318706, 1.64222
2022-12-14 14:42:31.319747, 1.64222
2022-12-14 14:42:31.352294, 1.64711
2022-12-14 14:42:31.352294, 1.63734
2022-12-14 14:42:31.353297, 1.63734
2022-12-14 14:42:31.385095, 1.64222
2022-12-14 14:42:31.385704, 1.64711
2022-12-14 14:42:31.419309, 1.63734
2022-12-14 14:42:31.419309, 1.64222
2022-12-14 14:42:31.420311, 1.64222
2022-12-14 14:42:31.452738, 1.66177
2022-12-14 14:42:31.453460, 1.65200
2022-12-14 14:42:31.453460, 1.65689
2022-12-14 14:42:31.486392, 1.67155
2022-12-14 14:42:31.486842, 1.68132
2022-12-14 14:42:31.519800, 1.69110
2022-12-14 14:42:31.520196, 1.68132
2022-12-14 14:42:31.520196, 1.68132
2022-12-14 14:42:31.553517, 1.68621
2022-12-14 14:42:31.553517, 1.68132
2022-12-14 14:42:31.554523, 1.67644
2022-12-14 14:42:31.586935, 1.68621
2022-12-14 14:42:31.587979, 1.68621
2022-12-14 14:42:31.620640, 1.67644
2022-12-14 14:42:31.620640, 1.67155
2022-12-14 14:42:31.621650, 1.67155
2022-12-14 14:42:31.654206, 1.70087
2022-12-14 14:42:31.655214, 1.69599
2022-12-14 14:42:31.655214, 1.66177
2022-12-14 14:42:31.686732, 1.66666
2022-12-14 14:42:31.687728, 1.67155
2022-12-14 14:42:31.720772, 1.66666
2022-12-14 14:42:31.720772, 1.66177
2022-12-14 14:42:31.721782, 1.66177
2022-12-14 14:42:31.754178, 1.68132
2022-12-14 14:42:31.754178, 1.66666
2022-12-14 14:42:31.755192, 1.65689
2022-12-14 14:42:31.787620, 1.66177
2022-12-14 14:42:31.788622, 1.66666
2022-12-14 14:42:31.820593, 1.66666
2022-12-14 14:42:31.821600, 1.66177
2022-12-14 14:42:31.821600, 1.66177
2022-12-14 14:42:31.854171, 1.67155
2022-12-14 14:42:31.855219, 1.67155
2022-12-14 14:42:31.855578, 1.66666
2022-12-14 14:42:31.888257, 1.66177
2022-12-14 14:42:31.888600, 1.66666
2022-12-14 14:42:31.921765, 1.66666
2022-12-14 14:42:31.921976, 1.65200
2022-12-14 14:42:31.921976, 1.65200
2022-12-14 14:42:31.955435, 1.65689
2022-12-14 14:42:31.955435, 1.65689
2022-12-14 14:42:31.955435, 1.64711
2022-12-14 14:42:31.989036, 1.64711
2022-12-14 14:42:31.989621, 1.65200
2022-12-14 14:42:32.022681, 1.65689
2022-12-14 14:42:32.022920, 1.66666
2022-12-14 14:42:32.022920, 1.65689
2022-12-14 14:42:32.056220, 1.66666
2022-12-14 14:42:32.056512, 1.65200
2022-12-14 14:42:32.056512, 1.64222
2022-12-14 14:42:32.089400, 1.63734
2022-12-14 14:42:32.089721, 1.64222
2022-12-14 14:42:32.123392, 1.64711
2022-12-14 14:42:32.123630, 1.63245
2022-12-14 14:42:32.124632, 1.63734
2022-12-14 14:42:32.156840, 1.64222
2022-12-14 14:42:32.157133, 1.65200
2022-12-14 14:42:32.157133, 1.63734
2022-12-14 14:42:32.190322, 1.63734
2022-12-14 14:42:32.190322, 1.63734
2022-12-14 14:42:32.223876, 1.63734
2022-12-14 14:42:32.224112, 1.63245
2022-12-14 14:42:32.224112, 1.62756
2022-12-14 14:42:32.257388, 1.63245
2022-12-14 14:42:32.257388, 1.64711
2022-12-14 14:42:32.258396, 1.63245
2022-12-14 14:42:32.289900, 1.63245
2022-12-14 14:42:32.290918, 1.63245
2022-12-14 14:42:32.324542, 1.63734
2022-12-14 14:42:32.324780, 1.63245
2022-12-14 14:42:32.324780, 1.62267
2022-12-14 14:42:32.358187, 1.62756
2022-12-14 14:42:32.358478, 1.63734
2022-12-14 14:42:32.359480, 1.64711
2022-12-14 14:42:32.391716, 1.63734
2022-12-14 14:42:32.392058, 1.62756
2022-12-14 14:42:32.425238, 1.63245
2022-12-14 14:42:32.425476, 1.62756
2022-12-14 14:42:32.425476, 1.62267
2022-12-14 14:42:32.458674, 1.62267
2022-12-14 14:42:32.458967, 1.62756
2022-12-14 14:42:32.459436, 1.63245
2022-12-14 14:42:32.492196, 1.64711
2022-12-14 14:42:32.492543, 1.63734
2022-12-14 14:42:32.525735, 1.67155
2022-12-14 14:42:32.525735, 1.64711
2022-12-14 14:42:32.526736, 1.64711
2022-12-14 14:42:32.559160, 1.65200
2022-12-14 14:42:32.559556, 1.66177
2022-12-14 14:42:32.559556, 1.66666
2022-12-14 14:42:32.591959, 1.65689
2022-12-14 14:42:32.591959, 1.68621
2022-12-14 14:42:32.626290, 1.66666
2022-12-14 14:42:32.626533, 1.66666
2022-12-14 14:42:32.626533, 1.65200
2022-12-14 14:42:32.659857, 1.65200
2022-12-14 14:42:32.660154, 1.65200
2022-12-14 14:42:32.660761, 1.65689
2022-12-14 14:42:32.693511, 1.64711
2022-12-14 14:42:32.693857, 1.64711
2022-12-14 14:42:32.726948, 1.65200
2022-12-14 14:42:32.727188, 1.65689
2022-12-14 14:42:32.727188, 1.64222
2022-12-14 14:42:32.760427, 1.64222
2022-12-14 14:42:32.760717, 1.64222
2022-12-14 14:42:32.761176, 1.65200
2022-12-14 14:42:32.793960, 1.65689
2022-12-14 14:42:32.794308, 1.63734
2022-12-14 14:42:32.827457, 1.67155
2022-12-14 14:42:32.827457, 1.64711
2022-12-14 14:42:32.828264, 1.63734
2022-12-14 14:42:32.860932, 1.63734
2022-12-14 14:42:32.861295, 1.64222
2022-12-14 14:42:32.862297, 1.65200
2022-12-14 14:42:32.894255, 1.64222
2022-12-14 14:42:32.894600, 1.63734
2022-12-14 14:42:32.928041, 1.64222
2022-12-14 14:42:32.928318, 1.64711
2022-12-14 14:42:32.929320, 1.64222
2022-12-14 14:42:32.961591, 1.64222
2022-12-14 14:42:32.961880, 1.64222
2022-12-14 14:42:32.961880, 1.64711
2022-12-14 14:42:32.995169, 1.64711
2022-12-14 14:42:32.995514, 1.66177
2022-12-14 14:42:33.028792, 1.66177
2022-12-14 14:42:33.028792, 1.63734
2022-12-14 14:42:33.029793, 1.63245
2022-12-14 14:42:33.062223, 1.62756
2022-12-14 14:42:33.062516, 1.62756
2022-12-14 14:42:33.062991, 1.63734
2022-12-14 14:42:33.095851, 1.63245
2022-12-14 14:42:33.096195, 1.63734
2022-12-14 14:42:33.129344, 1.64222
2022-12-14 14:42:33.129584, 1.63734
2022-12-14 14:42:33.130056, 1.63734
2022-12-14 14:42:33.162717, 1.63734
2022-12-14 14:42:33.163548, 1.63734
2022-12-14 14:42:33.163548, 1.63245
2022-12-14 14:42:33.195283, 1.62756
2022-12-14 14:42:33.196289, 1.62267
2022-12-14 14:42:33.229771, 1.62267
2022-12-14 14:42:33.230011, 1.62756
2022-12-14 14:42:33.230615, 1.62756
2022-12-14 14:42:33.263316, 1.64711
2022-12-14 14:42:33.263608, 1.62267
2022-12-14 14:42:33.263608, 1.62756
2022-12-14 14:42:33.296909, 1.62756
2022-12-14 14:42:33.297258, 1.61779
2022-12-14 14:42:33.330531, 1.61779
2022-12-14 14:42:33.330773, 1.62756
2022-12-14 14:42:33.330773, 1.63245
2022-12-14 14:42:33.364023, 1.61779
2022-12-14 14:42:33.364314, 1.62267
2022-12-14 14:42:33.364784, 1.62267
2022-12-14 14:42:33.397658, 1.62756
2022-12-14 14:42:33.398001, 1.62756
2022-12-14 14:42:33.431137, 1.61779
2022-12-14 14:42:33.431377, 1.62267
2022-12-14 14:42:33.431377, 1.63245
2022-12-14 14:42:33.464547, 1.62756
2022-12-14 14:42:33.464547, 1.63245
2022-12-14 14:42:33.465549, 1.64222
2022-12-14 14:42:33.498173, 1.65200
2022-12-14 14:42:33.499180, 1.65200
2022-12-14 14:42:33.530888, 1.65689
2022-12-14 14:42:33.530888, 1.66177
2022-12-14 14:42:33.531853, 1.66666
2022-12-14 14:42:33.564413, 1.66177
2022-12-14 14:42:33.564413, 1.65689
2022-12-14 14:42:33.565411, 1.68621
2022-12-14 14:42:33.598789, 1.67644
2022-12-14 14:42:33.599130, 1.66666
2022-12-14 14:42:33.632400, 1.65200
2022-12-14 14:42:33.632640, 1.65689
2022-12-14 14:42:33.633642, 1.66177
2022-12-14 14:42:33.665704, 1.65200
2022-12-14 14:42:33.666003, 1.68132
2022-12-14 14:42:33.666472, 1.65689
2022-12-14 14:42:33.699383, 1.66177
2022-12-14 14:42:33.699729, 1.65200
2022-12-14 14:42:33.732026, 1.64711
2022-12-14 14:42:33.732026, 1.67644
2022-12-14 14:42:33.733022, 1.66666
2022-12-14 14:42:33.766235, 1.65200
2022-12-14 14:42:33.767260, 1.64711
2022-12-14 14:42:33.767260, 1.64711
2022-12-14 14:42:33.799229, 1.65689
2022-12-14 14:42:33.799229, 1.67644
2022-12-14 14:42:33.833441, 1.65200
2022-12-14 14:42:33.833679, 1.65200
2022-12-14 14:42:33.833679, 1.66177
2022-12-14 14:42:33.866862, 1.65689
2022-12-14 14:42:33.867155, 1.65689
2022-12-14 14:42:33.867753, 1.65200
2022-12-14 14:42:33.900607, 1.65689
2022-12-14 14:42:33.900951, 1.65689
2022-12-14 14:42:33.934079, 1.65200
2022-12-14 14:42:33.934319, 1.65200
2022-12-14 14:42:33.934777, 1.65200
2022-12-14 14:42:33.967760, 1.65200
2022-12-14 14:42:33.968098, 1.64711
2022-12-14 14:42:33.968695, 1.64711
2022-12-14 14:42:34.001281, 1.65200
2022-12-14 14:42:34.001665, 1.65200
2022-12-14 14:42:34.034812, 1.63734
2022-12-14 14:42:34.034812, 1.64222
2022-12-14 14:42:34.035813, 1.65200
2022-12-14 14:42:34.068061, 1.64711
2022-12-14 14:42:34.068500, 1.64711
2022-12-14 14:42:34.068500, 1.66666
2022-12-14 14:42:34.101397, 1.65200
2022-12-14 14:42:34.102405, 1.67644
2022-12-14 14:42:34.133774, 1.63734
2022-12-14 14:42:34.134779, 1.64222
2022-12-14 14:42:34.134779, 1.65200
2022-12-14 14:42:34.168601, 1.65200
2022-12-14 14:42:34.168920, 1.64222
2022-12-14 14:42:34.169922, 1.64222
2022-12-14 14:42:34.202140, 1.64711
2022-12-14 14:42:34.202140, 1.64711
2022-12-14 14:42:34.235648, 1.64222
2022-12-14 14:42:34.235648, 1.64222
2022-12-14 14:42:34.236649, 1.64222
2022-12-14 14:42:34.269270, 1.65689
2022-12-14 14:42:34.269563, 1.63734
2022-12-14 14:42:34.270564, 1.63734
2022-12-14 14:42:34.302818, 1.66666
2022-12-14 14:42:34.303168, 1.64711
2022-12-14 14:42:34.336412, 1.64222
2022-12-14 14:42:34.336694, 1.63734
2022-12-14 14:42:34.337697, 1.63734
2022-12-14 14:42:34.369960, 1.64711
2022-12-14 14:42:34.369960, 1.64222
2022-12-14 14:42:34.370960, 1.64711
2022-12-14 14:42:34.404424, 1.65200
2022-12-14 14:42:34.404424, 1.67155
2022-12-14 14:42:34.436025, 1.66666
2022-12-14 14:42:34.437041, 1.66666
2022-12-14 14:42:34.437041, 1.68621
2022-12-14 14:42:34.469249, 1.68621
2022-12-14 14:42:34.470256, 1.68132
2022-12-14 14:42:34.470256, 1.67644
2022-12-14 14:42:34.503883, 1.68132
2022-12-14 14:42:34.504370, 1.68621
2022-12-14 14:42:34.537388, 1.68132
2022-12-14 14:42:34.538109, 1.67644
2022-12-14 14:42:34.538109, 1.67644
2022-12-14 14:42:34.570681, 1.71065
2022-12-14 14:42:34.571322, 1.69110
2022-12-14 14:42:34.571322, 1.67155
2022-12-14 14:42:34.603902, 1.67155
2022-12-14 14:42:34.604669, 1.67644
2022-12-14 14:42:34.638088, 1.67155
2022-12-14 14:42:34.638088, 1.66666
2022-12-14 14:42:34.639090, 1.66666
2022-12-14 14:42:34.671420, 1.67155
2022-12-14 14:42:34.671420, 1.67155
2022-12-14 14:42:34.672425, 1.66177
2022-12-14 14:42:34.704922, 1.66177
2022-12-14 14:42:34.705939, 1.66666
2022-12-14 14:42:34.738418, 1.66666
2022-12-14 14:42:34.738418, 1.66177
2022-12-14 14:42:34.739423, 1.66666
2022-12-14 14:42:34.772611, 1.67155
2022-12-14 14:42:34.772611, 1.67155
2022-12-14 14:42:34.773608, 1.66666
2022-12-14 14:42:34.805039, 1.66177
2022-12-14 14:42:34.805992, 1.67155
2022-12-14 14:42:34.838666, 1.68132
2022-12-14 14:42:34.839399, 1.66177
2022-12-14 14:42:34.839399, 1.67644
2022-12-14 14:42:34.871623, 1.66666
2022-12-14 14:42:34.872626, 1.66666
2022-12-14 14:42:34.873039, 1.65689
2022-12-14 14:42:34.905507, 1.65689
2022-12-14 14:42:34.905507, 1.65689
2022-12-14 14:42:34.939087, 1.66177
2022-12-14 14:42:34.939087, 1.65689
2022-12-14 14:42:34.940084, 1.66177
2022-12-14 14:42:34.972671, 1.66177
2022-12-14 14:42:34.972671, 1.67644
2022-12-14 14:42:34.973665, 1.65200
2022-12-14 14:42:35.006313, 1.65200
2022-12-14 14:42:35.006820, 1.65689
2022-12-14 14:42:35.039483, 1.66666
2022-12-14 14:42:35.040479, 1.65200
2022-12-14 14:42:35.040479, 1.65200
2022-12-14 14:42:35.073492, 1.65200
2022-12-14 14:42:35.073492, 1.66666
2022-12-14 14:42:35.074369, 1.65200
2022-12-14 14:42:35.107093, 1.64711
2022-12-14 14:42:35.107419, 1.65200
2022-12-14 14:42:35.140752, 1.65689
2022-12-14 14:42:35.141441, 1.65200
2022-12-14 14:42:35.141441, 1.64711
2022-12-14 14:42:35.174439, 1.64711
2022-12-14 14:42:35.174735, 1.65689
2022-12-14 14:42:35.174735, 1.65200
2022-12-14 14:42:35.207916, 1.64711
2022-12-14 14:42:35.207916, 1.64711
2022-12-14 14:42:35.241244, 1.65689
2022-12-14 14:42:35.241870, 1.65200
2022-12-14 14:42:35.241870, 1.65689
2022-12-14 14:42:35.275063, 1.67155
2022-12-14 14:42:35.275355, 1.66177
2022-12-14 14:42:35.275910, 1.66666
2022-12-14 14:42:35.308418, 1.64222
2022-12-14 14:42:35.308418, 1.64222
2022-12-14 14:42:35.341718, 1.64711
2022-12-14 14:42:35.341718, 1.64711
2022-12-14 14:42:35.342393, 1.63734
2022-12-14 14:42:35.375644, 1.64222
2022-12-14 14:42:35.375937, 1.64711
2022-12-14 14:42:35.375937, 1.65689
2022-12-14 14:42:35.409275, 1.67644
2022-12-14 14:42:35.409624, 1.67644
2022-12-14 14:42:35.442700, 1.68132
2022-12-14 14:42:35.442940, 1.67644
2022-12-14 14:42:35.442940, 1.68132
2022-12-14 14:42:35.476262, 1.67644
2022-12-14 14:42:35.476555, 1.68621
2022-12-14 14:42:35.476555, 1.68621
2022-12-14 14:42:35.509707, 1.68132
2022-12-14 14:42:35.509707, 1.68132
2022-12-14 14:42:35.543181, 1.68621
2022-12-14 14:42:35.543181, 1.68621
2022-12-14 14:42:35.544182, 1.67644
2022-12-14 14:42:35.576744, 1.67644
2022-12-14 14:42:35.576744, 1.71065
2022-12-14 14:42:35.577745, 1.70576
2022-12-14 14:42:35.609923, 1.68621
2022-12-14 14:42:35.609923, 1.67155
2022-12-14 14:42:35.643725, 1.67155
2022-12-14 14:42:35.643725, 1.67644
2022-12-14 14:42:35.644726, 1.66666
2022-12-14 14:42:35.677576, 1.66666
2022-12-14 14:42:35.677862, 1.67155
2022-12-14 14:42:35.677862, 1.68132
2022-12-14 14:42:35.711074, 1.66177
2022-12-14 14:42:35.711419, 1.66666
2022-12-14 14:42:35.744117, 1.66666
2022-12-14 14:42:35.744357, 1.67155
2022-12-14 14:42:35.744827, 1.66666
2022-12-14 14:42:35.778163, 1.66666
2022-12-14 14:42:35.778452, 1.66666
2022-12-14 14:42:35.778452, 1.67644
2022-12-14 14:42:35.811633, 1.66666
2022-12-14 14:42:35.811633, 1.66666
2022-12-14 14:42:35.845030, 1.66666
2022-12-14 14:42:35.845855, 1.67644
2022-12-14 14:42:35.845855, 1.68132
2022-12-14 14:42:35.877905, 1.66666
2022-12-14 14:42:35.877905, 1.66666
2022-12-14 14:42:35.878902, 1.68132
2022-12-14 14:42:35.912181, 1.68621
2022-12-14 14:42:35.912521, 1.65689
2022-12-14 14:42:35.945673, 1.65689
2022-12-14 14:42:35.945912, 1.66666
2022-12-14 14:42:35.946511, 1.65689
2022-12-14 14:42:35.979362, 1.65200
2022-12-14 14:42:35.979653, 1.65689
2022-12-14 14:42:35.979653, 1.66177
2022-12-14 14:42:36.012732, 1.67644
2022-12-14 14:42:36.013076, 1.66177
2022-12-14 14:42:36.046277, 1.65689
2022-12-14 14:42:36.046517, 1.65689
2022-12-14 14:42:36.046517, 1.67644
2022-12-14 14:42:36.079812, 1.64711
2022-12-14 14:42:36.080100, 1.64711
2022-12-14 14:42:36.080570, 1.65200
2022-12-14 14:42:36.113239, 1.65200
2022-12-14 14:42:36.113691, 1.64222
2022-12-14 14:42:36.145600, 1.64711
2022-12-14 14:42:36.146605, 1.65200
2022-12-14 14:42:36.146605, 1.68132
2022-12-14 14:42:36.180251, 1.64711
2022-12-14 14:42:36.180541, 1.64222
2022-12-14 14:42:36.180541, 1.64711
2022-12-14 14:42:36.213845, 1.64711
2022-12-14 14:42:36.213845, 1.64222
2022-12-14 14:42:36.247396, 1.64222
2022-12-14 14:42:36.247637, 1.64711
2022-12-14 14:42:36.247637, 1.64222
2022-12-14 14:42:36.281018, 1.65200
2022-12-14 14:42:36.281312, 1.64222
2022-12-14 14:42:36.281312, 1.64711
2022-12-14 14:42:36.314649, 1.64711
2022-12-14 14:42:36.314994, 1.63734
2022-12-14 14:42:36.348047, 1.63734
2022-12-14 14:42:36.348047, 1.63734
2022-12-14 14:42:36.349049, 1.64222
2022-12-14 14:42:36.381598, 1.65689
2022-12-14 14:42:36.381890, 1.63734
2022-12-14 14:42:36.381890, 1.64222
2022-12-14 14:42:36.415726, 1.67155
2022-12-14 14:42:36.415726, 1.63734
2022-12-14 14:42:36.448597, 1.63734
2022-12-14 14:42:36.448836, 1.64222
2022-12-14 14:42:36.449839, 1.65689
2022-12-14 14:42:36.482224, 1.65200
2022-12-14 14:42:36.482515, 1.65689
2022-12-14 14:42:36.482515, 1.66666
2022-12-14 14:42:36.515781, 1.67644
2022-12-14 14:42:36.516124, 1.67155
2022-12-14 14:42:36.549295, 1.68621
2022-12-14 14:42:36.549530, 1.67155
2022-12-14 14:42:36.550533, 1.68132
2022-12-14 14:42:36.582821, 1.66666
2022-12-14 14:42:36.583117, 1.66666
2022-12-14 14:42:36.583117, 1.67155
2022-12-14 14:42:36.616461, 1.68621
2022-12-14 14:42:36.616802, 1.68621
2022-12-14 14:42:36.649772, 1.66177
2022-12-14 14:42:36.650010, 1.66177
2022-12-14 14:42:36.650471, 1.66666
2022-12-14 14:42:36.683387, 1.66177
2022-12-14 14:42:36.683387, 1.65689
2022-12-14 14:42:36.684393, 1.65689
2022-12-14 14:42:36.716197, 1.66177
2022-12-14 14:42:36.717160, 1.65689
2022-12-14 14:42:36.749381, 1.64711
2022-12-14 14:42:36.750375, 1.65200
2022-12-14 14:42:36.750375, 1.65689
2022-12-14 14:42:36.783805, 1.65689
2022-12-14 14:42:36.784097, 1.65689
2022-12-14 14:42:36.784097, 1.65689
2022-12-14 14:42:36.817561, 1.66666
2022-12-14 14:42:36.817906, 1.67155
2022-12-14 14:42:36.851085, 1.65200
2022-12-14 14:42:36.851323, 1.65200
2022-12-14 14:42:36.851323, 1.65689
2022-12-14 14:42:36.884693, 1.65689
2022-12-14 14:42:36.884983, 1.64711
2022-12-14 14:42:36.885456, 1.64711
2022-12-14 14:42:36.918223, 1.65200
2022-12-14 14:42:36.918564, 1.65200
2022-12-14 14:42:36.951686, 1.64711
2022-12-14 14:42:36.951686, 1.64711
2022-12-14 14:42:36.952686, 1.64222
2022-12-14 14:42:36.985496, 1.65689
2022-12-14 14:42:36.985496, 1.63734
2022-12-14 14:42:36.986501, 1.63734
2022-12-14 14:42:37.017986, 1.64222
2022-12-14 14:42:37.018990, 1.64222
2022-12-14 14:42:37.052099, 1.63245
2022-12-14 14:42:37.052099, 1.63245
2022-12-14 14:42:37.053134, 1.64222
2022-12-14 14:42:37.085670, 1.64222
2022-12-14 14:42:37.085670, 1.65689
2022-12-14 14:42:37.086685, 1.66177
2022-12-14 14:42:37.119261, 1.66177
2022-12-14 14:42:37.119261, 1.63734
2022-12-14 14:42:37.152843, 1.62756
2022-12-14 14:42:37.153081, 1.62756
2022-12-14 14:42:37.153081, 1.62756
2022-12-14 14:42:37.186415, 1.63245
2022-12-14 14:42:37.186705, 1.64711
2022-12-14 14:42:37.187175, 1.65200
2022-12-14 14:42:37.219908, 1.62756
2022-12-14 14:42:37.220248, 1.63245
2022-12-14 14:42:37.253364, 1.62267
2022-12-14 14:42:37.253364, 1.64222
2022-12-14 14:42:37.254284, 1.64711
2022-12-14 14:42:37.285918, 1.62756
2022-12-14 14:42:37.286925, 1.62267
2022-12-14 14:42:37.286925, 1.61779
2022-12-14 14:42:37.320346, 1.61779
2022-12-14 14:42:37.320690, 1.62267
2022-12-14 14:42:37.353785, 1.62267
2022-12-14 14:42:37.353785, 1.61779
2022-12-14 14:42:37.354795, 1.62267
2022-12-14 14:42:37.387521, 1.63245
2022-12-14 14:42:37.387521, 1.62267
2022-12-14 14:42:37.388523, 1.61779
2022-12-14 14:42:37.421071, 1.62756
2022-12-14 14:42:37.421071, 1.63734
2022-12-14 14:42:37.454537, 1.64222
2022-12-14 14:42:37.454537, 1.64711
2022-12-14 14:42:37.455538, 1.65200
2022-12-14 14:42:37.488049, 1.66666
2022-12-14 14:42:37.488049, 1.65689
2022-12-14 14:42:37.489019, 1.65200
2022-12-14 14:42:37.521609, 1.65689
2022-12-14 14:42:37.522398, 1.67644
2022-12-14 14:42:37.555129, 1.68621
2022-12-14 14:42:37.555774, 1.65200
2022-12-14 14:42:37.556016, 1.64711
2022-12-14 14:42:37.588694, 1.65689
2022-12-14 14:42:37.589141, 1.65689
2022-12-14 14:42:37.589141, 1.64711
2022-12-14 14:42:37.622468, 1.64222
2022-12-14 14:42:37.622468, 1.65200
2022-12-14 14:42:37.655836, 1.65200
2022-12-14 14:42:37.655836, 1.67155
2022-12-14 14:42:37.656837, 1.65200
2022-12-14 14:42:37.689274, 1.64222
2022-12-14 14:42:37.690307, 1.64711
2022-12-14 14:42:37.690307, 1.66666
2022-12-14 14:42:37.722118, 1.64711
2022-12-14 14:42:37.722118, 1.66177
2022-12-14 14:42:37.755902, 1.64711
2022-12-14 14:42:37.756913, 1.64222
2022-12-14 14:42:37.756913, 1.64222
2022-12-14 14:42:37.789305, 1.64711
2022-12-14 14:42:37.789305, 1.65200
2022-12-14 14:42:37.789305, 1.64711
2022-12-14 14:42:37.822752, 1.64711
2022-12-14 14:42:37.823759, 1.64711
2022-12-14 14:42:37.856361, 1.65200
2022-12-14 14:42:37.856361, 1.64711
2022-12-14 14:42:37.857461, 1.64222
2022-12-14 14:42:37.889585, 1.65689
2022-12-14 14:42:37.890587, 1.65200
2022-12-14 14:42:37.890587, 1.64222
2022-12-14 14:42:37.923131, 1.64222
2022-12-14 14:42:37.924140, 1.64222
2022-12-14 14:42:37.956146, 1.64711
2022-12-14 14:42:37.957144, 1.64222
2022-12-14 14:42:37.957144, 1.64222
2022-12-14 14:42:37.990056, 1.64222
2022-12-14 14:42:37.991064, 1.64222
2022-12-14 14:42:37.991064, 1.64711
2022-12-14 14:42:38.024170, 1.66177
2022-12-14 14:42:38.024170, 1.65200
2022-12-14 14:42:38.056676, 1.66666
2022-12-14 14:42:38.057673, 1.63734
2022-12-14 14:42:38.057673, 1.63734
2022-12-14 14:42:38.091078, 1.63734
2022-12-14 14:42:38.091455, 1.64711
2022-12-14 14:42:38.091455, 1.63734
2022-12-14 14:42:38.124683, 1.63734
2022-12-14 14:42:38.125110, 1.63734
2022-12-14 14:42:38.158419, 1.64222
2022-12-14 14:42:38.158419, 1.63734
2022-12-14 14:42:38.159419, 1.63734
2022-12-14 14:42:38.192008, 1.63734
2022-12-14 14:42:38.192299, 1.64711
2022-12-14 14:42:38.192299, 1.66177
2022-12-14 14:42:38.225463, 1.63734
2022-12-14 14:42:38.225463, 1.66666
2022-12-14 14:42:38.259042, 1.64222
2022-12-14 14:42:38.259282, 1.64222
2022-12-14 14:42:38.259282, 1.63734
2022-12-14 14:42:38.292632, 1.63734
2022-12-14 14:42:38.292924, 1.64222
2022-12-14 14:42:38.292924, 1.64711
2022-12-14 14:42:38.326304, 1.64222
2022-12-14 14:42:38.326304, 1.65200
2022-12-14 14:42:38.359256, 1.66177
2022-12-14 14:42:38.359256, 1.67155
2022-12-14 14:42:38.359256, 1.66666
2022-12-14 14:42:38.393204, 1.69599
2022-12-14 14:42:38.393497, 1.68132
2022-12-14 14:42:38.394095, 1.68621
2022-12-14 14:42:38.426667, 1.67644
2022-12-14 14:42:38.426667, 1.67644
2022-12-14 14:42:38.460276, 1.67644
2022-12-14 14:42:38.460513, 1.68621
2022-12-14 14:42:38.461190, 1.67155
2022-12-14 14:42:38.493820, 1.70087
2022-12-14 14:42:38.494111, 1.67155
2022-12-14 14:42:38.494630, 1.68132
2022-12-14 14:42:38.527405, 1.67155
2022-12-14 14:42:38.527748, 1.66666
2022-12-14 14:42:38.560761, 1.67155
2022-12-14 14:42:38.560761, 1.67644
2022-12-14 14:42:38.561767, 1.66666
2022-12-14 14:42:38.593257, 1.66666
2022-12-14 14:42:38.594264, 1.66666
2022-12-14 14:42:38.594264, 1.67155
2022-12-14 14:42:38.627859, 1.66177
2022-12-14 14:42:38.628206, 1.66666
2022-12-14 14:42:38.661481, 1.66666
2022-12-14 14:42:38.661719, 1.67644
2022-12-14 14:42:38.661719, 1.66666
2022-12-14 14:42:38.695062, 1.66177
2022-12-14 14:42:38.695356, 1.66666
2022-12-14 14:42:38.695356, 1.67155
2022-12-14 14:42:38.728589, 1.68621
2022-12-14 14:42:38.728933, 1.66666
2022-12-14 14:42:38.762197, 1.66666
2022-12-14 14:42:38.762436, 1.67155
2022-12-14 14:42:38.763038, 1.66666
2022-12-14 14:42:38.795637, 1.65689
2022-12-14 14:42:38.795932, 1.66177
2022-12-14 14:42:38.796451, 1.66666
2022-12-14 14:42:38.829283, 1.66177
2022-12-14 14:42:38.829624, 1.65689
2022-12-14 14:42:38.862780, 1.66177
2022-12-14 14:42:38.863018, 1.66177
2022-12-14 14:42:38.863018, 1.67155
2022-12-14 14:42:38.896243, 1.66177
2022-12-14 14:42:38.896243, 1.66177
2022-12-14 14:42:38.897246, 1.68621
2022-12-14 14:42:38.929231, 1.65689
2022-12-14 14:42:38.930240, 1.65200
2022-12-14 14:42:38.962115, 1.65200
2022-12-14 14:42:38.962923, 1.65689
2022-12-14 14:42:38.962923, 1.65689
2022-12-14 14:42:38.996737, 1.64711
2022-12-14 14:42:38.997030, 1.64711
2022-12-14 14:42:38.997030, 1.65689
2022-12-14 14:42:39.030519, 1.66177
2022-12-14 14:42:39.030864, 1.67644
2022-12-14 14:42:39.063882, 1.67644
2022-12-14 14:42:39.064119, 1.68132
2022-12-14 14:42:39.064119, 1.65689
2022-12-14 14:42:39.097400, 1.64711
2022-12-14 14:42:39.097400, 1.64711
2022-12-14 14:42:39.098400, 1.65200
2022-12-14 14:42:39.131054, 1.65200
2022-12-14 14:42:39.131398, 1.64222
2022-12-14 14:42:39.164454, 1.64711
2022-12-14 14:42:39.164692, 1.65200
2022-12-14 14:42:39.165301, 1.65200
2022-12-14 14:42:39.198111, 1.64711
2022-12-14 14:42:39.198401, 1.64222
2022-12-14 14:42:39.198401, 1.64711
2022-12-14 14:42:39.231564, 1.65689
2022-12-14 14:42:39.231564, 1.65689
2022-12-14 14:42:39.264222, 1.64711
2022-12-14 14:42:39.265229, 1.65200
2022-12-14 14:42:39.265229, 1.66666
2022-12-14 14:42:39.298575, 1.67644
2022-12-14 14:42:39.298868, 1.69110
2022-12-14 14:42:39.299870, 1.67155
2022-12-14 14:42:39.332159, 1.69599
2022-12-14 14:42:39.332558, 1.68621
2022-12-14 14:42:39.365093, 1.68132
2022-12-14 14:42:39.365093, 1.68621
2022-12-14 14:42:39.366120, 1.69599
2022-12-14 14:42:39.399201, 1.69110
2022-12-14 14:42:39.399201, 1.68621
2022-12-14 14:42:39.400202, 1.68621
2022-12-14 14:42:39.432727, 1.69110
2022-12-14 14:42:39.432727, 1.68621
2022-12-14 14:42:39.466271, 1.68132
2022-12-14 14:42:39.466271, 1.68132
2022-12-14 14:42:39.467306, 1.68621
2022-12-14 14:42:39.499621, 1.68132
2022-12-14 14:42:39.500647, 1.67644
2022-12-14 14:42:39.500647, 1.69110
2022-12-14 14:42:39.532675, 1.68621
2022-12-14 14:42:39.532675, 1.67644
2022-12-14 14:42:39.566402, 1.67155
2022-12-14 14:42:39.566641, 1.67155
2022-12-14 14:42:39.566641, 1.67644
2022-12-14 14:42:39.600367, 1.67155
2022-12-14 14:42:39.600660, 1.66666
2022-12-14 14:42:39.600660, 1.67155
2022-12-14 14:42:39.633419, 1.68132
2022-12-14 14:42:39.633419, 1.69599
2022-12-14 14:42:39.667347, 1.67644
2022-12-14 14:42:39.667586, 1.68132
2022-12-14 14:42:39.668588, 1.68132
2022-12-14 14:42:39.700777, 1.68132
2022-12-14 14:42:39.701071, 1.67155
2022-12-14 14:42:39.701538, 1.68132
2022-12-14 14:42:39.734370, 1.68132
2022-12-14 14:42:39.734370, 1.70087
2022-12-14 14:42:39.767767, 1.69599
2022-12-14 14:42:39.767767, 1.67155
2022-12-14 14:42:39.768769, 1.67644
2022-12-14 14:42:39.800356, 1.69110
2022-12-14 14:42:39.801360, 1.66177
2022-12-14 14:42:39.801360, 1.66177
2022-12-14 14:42:39.834173, 1.66666
2022-12-14 14:42:39.835178, 1.66666
2022-12-14 14:42:39.868630, 1.65689
2022-12-14 14:42:39.868867, 1.65689
2022-12-14 14:42:39.868867, 1.66177
2022-12-14 14:42:39.902144, 1.66666
2022-12-14 14:42:39.902436, 1.65689
2022-12-14 14:42:39.902436, 1.65689
2022-12-14 14:42:39.935673, 1.65689
2022-12-14 14:42:39.936019, 1.66666
2022-12-14 14:42:39.969212, 1.68132
2022-12-14 14:42:39.969449, 1.68132
2022-12-14 14:42:39.969914, 1.67155
2022-12-14 14:42:40.002816, 1.66177
2022-12-14 14:42:40.003149, 1.65200
2022-12-14 14:42:40.004151, 1.64711
2022-12-14 14:42:40.036058, 1.65200
2022-12-14 14:42:40.036058, 1.65689
2022-12-14 14:42:40.069756, 1.64711
2022-12-14 14:42:40.070757, 1.64711
2022-12-14 14:42:40.070757, 1.65200
2022-12-14 14:42:40.102317, 1.65689
2022-12-14 14:42:40.103327, 1.65200
2022-12-14 14:42:40.103327, 1.65200
2022-12-14 14:42:40.136718, 1.65200
2022-12-14 14:42:40.137060, 1.67644
2022-12-14 14:42:40.170400, 1.64711
2022-12-14 14:42:40.170638, 1.64222
2022-12-14 14:42:40.170638, 1.67155
2022-12-14 14:42:40.203812, 1.65200
2022-12-14 14:42:40.203812, 1.64711
2022-12-14 14:42:40.204827, 1.64222
2022-12-14 14:42:40.237490, 1.64222
2022-12-14 14:42:40.237833, 1.65200
2022-12-14 14:42:40.270878, 1.66666
2022-12-14 14:42:40.271117, 1.64222
2022-12-14 14:42:40.271631, 1.64711
2022-12-14 14:42:40.304577, 1.66177
2022-12-14 14:42:40.304577, 1.66666
2022-12-14 14:42:40.305578, 1.66177
2022-12-14 14:42:40.338299, 1.67155
2022-12-14 14:42:40.338299, 1.71065
2022-12-14 14:42:40.370957, 1.68621
2022-12-14 14:42:40.370957, 1.68132
2022-12-14 14:42:40.371955, 1.67644
2022-12-14 14:42:40.405024, 1.68621
2022-12-14 14:42:40.405317, 1.68132
2022-12-14 14:42:40.406319, 1.67155
2022-12-14 14:42:40.438558, 1.67644
2022-12-14 14:42:40.438558, 1.69110
2022-12-14 14:42:40.471857, 1.68132
2022-12-14 14:42:40.472859, 1.67155
2022-12-14 14:42:40.472859, 1.67155
2022-12-14 14:42:40.505508, 1.67644
2022-12-14 14:42:40.505508, 1.67644
2022-12-14 14:42:40.506418, 1.66666
2022-12-14 14:42:40.539180, 1.66666
2022-12-14 14:42:40.539977, 1.66666
2022-12-14 14:42:40.572702, 1.67155
2022-12-14 14:42:40.572702, 1.66177
2022-12-14 14:42:40.573513, 1.66177
2022-12-14 14:42:40.606302, 1.66666
2022-12-14 14:42:40.607056, 1.66666
2022-12-14 14:42:40.607056, 1.66666
2022-12-14 14:42:40.639394, 1.66177
2022-12-14 14:42:40.639394, 1.66177
2022-12-14 14:42:40.672692, 1.67155
2022-12-14 14:42:40.672692, 1.66666
2022-12-14 14:42:40.673688, 1.66666
2022-12-14 14:42:40.706598, 1.66666
2022-12-14 14:42:40.706598, 1.67644
2022-12-14 14:42:40.707606, 1.66177
2022-12-14 14:42:40.740276, 1.65689
2022-12-14 14:42:40.740276, 1.66177
2022-12-14 14:42:40.773725, 1.66666
2022-12-14 14:42:40.774785, 1.65689
2022-12-14 14:42:40.774785, 1.65200
2022-12-14 14:42:40.807387, 1.65689
2022-12-14 14:42:40.808394, 1.65689
2022-12-14 14:42:40.808394, 1.65200
2022-12-14 14:42:40.840463, 1.64711
2022-12-14 14:42:40.841471, 1.65200
2022-12-14 14:42:40.873912, 1.65689
2022-12-14 14:42:40.874922, 1.65200
2022-12-14 14:42:40.874922, 1.65689
2022-12-14 14:42:40.907696, 1.66666
2022-12-14 14:42:40.907696, 1.65689
2022-12-14 14:42:40.908698, 1.64222
2022-12-14 14:42:40.941199, 1.63734
2022-12-14 14:42:40.942209, 1.63734
2022-12-14 14:42:40.974015, 1.64711
2022-12-14 14:42:40.975043, 1.64222
2022-12-14 14:42:40.975043, 1.64222
2022-12-14 14:42:41.007650, 1.64222
2022-12-14 14:42:41.008587, 1.66666
2022-12-14 14:42:41.008587, 1.63734
2022-12-14 14:42:41.041115, 1.63245
2022-12-14 14:42:41.042117, 1.63245
2022-12-14 14:42:41.075035, 1.63734
2022-12-14 14:42:41.075035, 1.63734
2022-12-14 14:42:41.076003, 1.62756
2022-12-14 14:42:41.108734, 1.62756
2022-12-14 14:42:41.108734, 1.63734
2022-12-14 14:42:41.108734, 1.63734
2022-12-14 14:42:41.142147, 1.63245
2022-12-14 14:42:41.142565, 1.64222
2022-12-14 14:42:41.175818, 1.66177
2022-12-14 14:42:41.176144, 1.64711
2022-12-14 14:42:41.176565, 1.62267
2022-12-14 14:42:41.208485, 1.62267
2022-12-14 14:42:41.209481, 1.62756
2022-12-14 14:42:41.209481, 1.62756
2022-12-14 14:42:41.242255, 1.61779
2022-12-14 14:42:41.243253, 1.62267
2022-12-14 14:42:41.276407, 1.62756
2022-12-14 14:42:41.276807, 1.64222
2022-12-14 14:42:41.276807, 1.64711
2022-12-14 14:42:41.310159, 1.65200
2022-12-14 14:42:41.310484, 1.65200
2022-12-14 14:42:41.310484, 1.68132
2022-12-14 14:42:41.343692, 1.65689
2022-12-14 14:42:41.344035, 1.65689
2022-12-14 14:42:41.377263, 1.66177
2022-12-14 14:42:41.377263, 1.67644
2022-12-14 14:42:41.378263, 1.68132
2022-12-14 14:42:41.410706, 1.65200
2022-12-14 14:42:41.410706, 1.65689
2022-12-14 14:42:41.411706, 1.65689
2022-12-14 14:42:41.444398, 1.65200
2022-12-14 14:42:41.444743, 1.64711
2022-12-14 14:42:41.477960, 1.65200
2022-12-14 14:42:41.478200, 1.65200
2022-12-14 14:42:41.478200, 1.64711
2022-12-14 14:42:41.511667, 1.64222
2022-12-14 14:42:41.512672, 1.64222
2022-12-14 14:42:41.512672, 1.64711
2022-12-14 14:42:41.544287, 1.63734
2022-12-14 14:42:41.544287, 1.63734
2022-12-14 14:42:41.578555, 1.63734
2022-12-14 14:42:41.578794, 1.64711
2022-12-14 14:42:41.579796, 1.64222
2022-12-14 14:42:41.612195, 1.64222
2022-12-14 14:42:41.612531, 1.64222
2022-12-14 14:42:41.612531, 1.64711
2022-12-14 14:42:41.645552, 1.65200
2022-12-14 14:42:41.645897, 1.65689
2022-12-14 14:42:41.679190, 1.65200
2022-12-14 14:42:41.679429, 1.64711
2022-12-14 14:42:41.680431, 1.64222
