1.62267
1.62267
1.62267
1.61290
1.62267
1.62267
1.63734
1.62267
1.61290
1.62756
1.61290
1.60312
1.62756
1.61290
1.60801
1.59824
1.59824
1.60801
1.60312
1.59824
1.59335
1.60312
1.61290
1.59335
1.59824
1.60801
1.61290
1.61290
1.62267
1.63734
1.64222
1.63245
1.64222
1.64711
1.68132
1.65689
1.64222
1.64711
1.64711
1.63734
1.66177
1.64222
1.64222
1.62756
1.63734
1.63245
1.63245
1.62267
1.62267
1.62756
1.63734
1.62756
1.62756
1.63245
1.64222
1.63245
1.63245
1.63734
1.64711
1.63734
1.63245
1.63734
1.66177
1.64222
1.62756
1.63245
1.63734
1.62756
1.62756
1.62756
1.63245
1.63245
1.62267
1.62756
1.63245
1.62756
1.62267
1.62267
1.62756
1.62756
1.61779
1.62267
1.62756
1.62756
1.61779
1.61779
1.62267
1.62756
1.61779
1.61779
1.65200
1.64222
1.63245
1.63734
1.65200
1.66177
1.65689
1.66177
1.67155
1.67155
1.66666
1.66666
1.67155
1.67644
1.66177
1.66666
1.66666
1.67155
1.66177
1.65689
1.66666
1.66177
1.65689
1.65200
1.68132
1.66666
1.65689
1.65689
1.66177
1.67155
1.66177
1.65689
1.67155
1.67155
1.66177
1.65689
1.65689
1.68132
1.65689
1.65200
1.65200
1.65689
1.65689
1.64711
1.65200
1.65200
1.64711
1.64222
1.64711
1.66666
1.64222
1.63734
1.63734
1.64222
1.64222
1.63245
1.63245
1.64222
1.64222
1.63245
1.62756
1.62756
1.63245
1.62756
1.62756
1.63245
1.63245
1.62267
1.62267
1.62756
1.63245
1.62267
1.62756
1.63734
1.65200
1.64711
1.65689
1.66666
1.68132
1.67644
1.70576
1.68621
1.69110
1.68132
1.67644
1.68132
1.69110
1.68132
1.69110
1.68132
1.68621
1.67644
1.67155
1.67644
1.68132
1.67644
1.67155
1.67155
1.69599
1.70087
1.67155
1.67155
1.68132
1.70576
1.67644
1.67155
1.67644
1.67644
1.66666
1.66666
1.67155
1.66666
1.65689
1.66177
1.66666
1.66666
1.65689
1.65689
1.65689
1.65689
1.65200
1.64711
1.65200
1.65200
1.64222
1.64222
1.64222
1.66666
1.63245
1.62756
1.62756
1.63245
1.62267
1.62267
1.62267
1.62756
1.62267
1.61779
1.62756
1.62756
1.62267
1.63245
1.63734
1.65200
1.65689
1.65689
1.66666
1.68132
1.69110
1.68132
1.68621
1.69110
1.68621
1.69110
1.68621
1.69110
1.68621
1.67644
1.68132
1.68621
1.69110
1.68621
1.68132
1.68621
1.68132
1.70087
1.67155
1.67644
1.68132
1.67644
1.67644
1.68132
1.68132
1.67155
1.67644
1.67644
1.67644
1.66666
1.66666
1.66666
1.66666
1.65689
1.65689
1.65689
1.66177
1.65200
1.65200
1.64711
1.65200
1.65689
1.66177
1.65689
1.64222
1.62756
1.62756
1.62756
1.63245
1.63245
1.63245
1.63245
1.65200
1.61779
1.61290
1.61779
1.62756
1.62267
1.62267
1.63245
1.64711
1.64711
1.65200
1.65200
1.66666
1.66666
1.66177
1.66177
1.66666
1.66177
1.65689
1.66177
1.66177
1.65689
1.65200
1.65200
1.65689
1.65200
1.64222
1.64222
1.64711
1.64711
1.64222
1.64222
1.64711
1.64711
1.64222
1.64222
1.64711
1.64711
1.64222
1.64222
1.64711
1.64711
1.63245
1.63734
1.63734
1.64222
1.63734
1.63245
1.63245
1.63245
1.62267
1.62267
1.62267
1.62756
1.61779
1.61290
1.61779
1.62267
1.61779
1.61779
1.61779
1.63245
1.60801
1.60801
1.61290
1.62267
1.61779
1.62267
1.63245
1.64222
1.65200
1.65200
1.65200
1.66177
1.65689
1.66666
1.65200
1.65689
1.65200
1.64711
1.66666
1.65200
1.64711
1.63734
1.64222
1.64711
1.64222
1.62756
1.63245
1.63734
1.63734
1.62756
1.63245
1.64222
1.64222
1.63734
1.64222
1.64222
1.64711
1.63245
1.63734
1.64222
1.64222
1.63245
1.62756
1.63245
1.64222
1.65689
1.63734
1.63245
1.65200
1.62267
1.62267
1.62756
1.63245
1.61779
1.61779
1.62267
1.62756
1.62267
1.62267
1.61779
1.63245
1.62756
1.62756
1.63734
1.64222
1.63734
1.63734
1.65200
1.66666
1.66666
1.67644
1.68132
1.68621
1.68621
1.68132
1.68621
1.69110
1.68621
1.67644
1.70576
1.69110
1.68621
1.67644
1.67644
1.68132
1.68621
1.67155
1.67155
1.67644
1.67644
1.67155
1.69599
1.68132
1.68132
1.67644
1.67644
1.68132
1.68621
1.68132
1.67155
1.67644
1.68132
1.66666
1.67644
1.69599
1.67155
1.66177
1.66177
1.66177
1.66666
1.65689
1.65689
1.65689
1.66177
1.65689
1.65200
1.65200
1.65689
1.64711
1.64711
1.64711
1.65689
1.67644
1.66177
1.64711
1.65689
1.63734
1.63734
1.67155
1.64711
1.65200
1.65200
1.66177
1.68132
1.69110
1.68621
1.69599
1.70087
1.70576
1.69599
1.70087
1.70576
1.70576
1.69599
1.70087
1.69599
1.70087
1.69110
1.69110
1.69599
1.69599
1.68621
1.69110
1.68621
1.69110
1.68132
1.69110
1.69110
1.69599
1.68621
1.69110
1.69110
1.72043
1.68132
1.68132
1.68132
1.68621
1.67644
1.67155
1.67155
1.67644
1.66666
1.66177
1.66666
1.66666
1.65689
1.65200
1.65200
1.66666
1.65200
1.66177
1.65200
1.65689
1.64711
1.64222
1.64711
1.65200
1.64222
1.64222
1.65200
1.66666
1.63734
1.63245
1.63245
1.63734
1.63734
1.62756
1.62756
1.63734
1.63245
1.63245
1.65200
1.64711
1.65200
1.65200
1.66666
1.67644
1.68132
1.68132
1.68621
1.68621
1.69110
1.68132
1.69110
1.68132
1.68621
1.67644
1.67155
1.67644
1.68621
1.67155
1.66666
1.67155
1.67155
1.68621
1.67644
1.66666
1.69110
1.65689
1.68621
1.66177
1.66666
1.65689
1.65689
1.65689
1.66666
1.65689
1.64711
1.65200
1.65689
1.64711
1.64222
1.64222
1.65200
1.64711
1.63734
1.63734
1.65689
1.63245
1.62267
1.62267
1.62756
1.62267
1.61290
1.61779
1.63734
1.61779
1.61290
1.61290
1.61779
1.61290
1.63734
1.63734
1.63734
1.60801
1.59824
1.59824
1.60312
1.60312
1.59335
1.59824
1.60801
1.59824
1.58357
1.58357
1.58846
1.58846
1.58357
1.58357
1.59824
1.62756
1.60312
1.61290
1.62267
1.63245
1.62267
1.62756
1.62756
1.63245
1.63734
1.62756
1.62756
1.63245
1.64222
1.64222
1.62267
1.62267
1.61779
1.60801
1.60801
1.63734
1.62756
1.60801
1.62756
1.62267
1.62756
1.60312
1.60801
1.61290
1.61290
1.60312
1.60801
1.61290
1.60801
1.59824
1.59824
1.60312
1.60801
1.61290
1.59824
1.59824
1.59824
1.58846
1.58846
1.59335
1.58846
1.57869
1.57869
1.58357
1.58846
1.59335
1.60801
1.59335
1.57869
1.56891
1.56891
1.57380
1.57869
1.56891
1.56891
1.56891
1.57869
1.56891
1.56402
1.56891
1.57869
1.58357
1.58357
1.57380
1.59335
1.57380
1.57869
1.58846
1.59824
1.60312
1.60312
1.60801
1.61290
1.61779
1.61290
1.61290
1.61779
1.61290
1.60801
1.60801
1.61290
1.61290
1.61290
1.60801
1.61290
1.60801
1.59824
1.60801
1.60312
1.60801
1.60312
1.60312
1.60801
1.61290
1.61290
1.60801
1.61290
1.64222
1.60312
1.60801
1.61290
1.64222
1.60312
1.59824
1.63734
1.61290
1.59824
1.59824
1.63245
1.63245
1.59335
1.60801
1.61779
1.60312
1.59335
1.59335
1.59824
1.60312
1.59335
1.59335
1.59824
1.60312
1.59335
1.59335
1.59824
1.60312
1.59824
1.58846
1.59335
1.60312
1.61779
1.62267
1.61290
1.61290
1.61779
1.61290
1.62267
1.63245
1.63245
1.63245
1.63734
1.64222
1.64222
1.63734
1.63245
1.64222
1.63734
1.62756
1.64222
1.63245
1.63245
1.62267
1.62267
1.65689
1.63245
1.62267
1.61779
1.62267
1.62756
1.64222
1.61779
1.62756
1.63245
1.63245
1.62267
1.62756
1.63245
1.62267
1.63245
1.62756
1.62756
1.61779
1.63245
1.62267
1.62267
1.61779
1.61290
1.61290
1.62267
1.61290
1.60801
1.61779
1.62267
1.61290
1.61290
1.61290
1.61779
1.61290
1.60801
1.60801
1.61779
1.61290
1.60801
1.60801
1.61290
1.60801
1.60312
1.60801
1.61290
1.61290
1.62267
1.61290
1.61290
1.62267
1.60312
1.60312
1.61779
1.63245
1.64222
1.62756
1.63734
1.64222
1.63734
1.64222
1.67644
1.67155
1.64222
1.64222
1.64711
1.67644
1.64222
1.63734
1.63734
1.64222
1.63245
1.63245
1.63734
1.63734
1.62756
1.64222
1.63245
1.63734
1.62756
1.62267
1.62756
1.63734
1.62756
1.62756
1.63245
1.63734
1.63245
1.62756
1.63245
1.63245
1.62756
1.62267
1.62267
1.62756
1.62267
1.61779
1.61779
1.62756
1.62267
1.61290
1.61290
1.62267
1.61779
1.61290
1.61290
1.63734
1.63245
1.64222
1.62267
1.64711
1.61779
1.60801
1.61290
1.61779
1.61779
1.60801
1.60801
1.61290
1.61779
1.60801
1.60801
1.61290
1.61290
1.60801
1.60801
1.61290
1.61290
1.60312
1.60801
1.61290
1.61290
1.60312
1.60801
1.61290
1.62267
1.61779
1.62267
1.63245
1.64711
1.63734
1.65200
1.64711
1.65200
1.64711
1.63734
1.64222
1.64711
1.65200
1.63245
1.63734
1.64222
1.63734
1.65200
1.63245
1.63734
1.63245
1.62756
1.63245
1.63245
1.62756
1.62267
1.62756
1.63245
1.63245
1.62756
1.62756
1.63734
1.63245
1.62267
1.62267
1.62756
1.62756
1.61779
1.61779
1.62267
1.62756
1.61779
1.61779
1.61779
1.62267
1.61290
1.61290
1.61290
1.61779
1.60801
1.60801
1.61290
1.61290
1.61290
1.60801
1.61290
1.61779
1.62267
1.60801
1.61290
1.62267
1.60312
1.60312
1.60312
1.61290
1.59824
1.59824
1.59824
1.60801
1.59824
1.59824
1.59824
1.60312
1.60312
1.59824
1.59824
1.60801
1.60801
1.60312
1.60801
1.60312
1.60312
1.60312
1.61290
1.62756
1.62756
1.62756
1.65689
1.63734
1.63245
1.62267
1.64222
1.63245
1.62756
1.61779
1.62756
1.63734
1.62267
1.60801
1.60801
1.61779
1.61290
1.60312
1.59824
1.60801
1.61290
1.60312
1.60312
1.60801
1.61290
1.60312
1.60801
1.61290
1.61779
1.60801
1.60312
1.60801
1.61290
1.60312
1.59824
1.60312
1.60801
1.60312
1.59824
1.60312
1.60312
1.59824
1.59335
1.59824
1.60801
1.61290
1.60801
1.60801
1.61779
1.59824
1.59335
1.59335
1.59824
1.59824
1.58846
1.58846
1.61290
1.59335
1.58846
1.58846
1.59824
1.59335
1.58846
1.58846
1.59824
1.59335
1.58846
1.58846
1.59824
1.59824
1.58846
1.59824
1.60801
1.61779
1.61290
1.61779
1.63245
1.63245
1.62267
1.62267
1.62267
1.64222
1.61290
1.61290
1.61779
1.62756
1.61290
1.60801
1.61290
1.61779
1.60801
1.60312
1.60801
1.61290
1.61290
1.60312
1.61290
1.62267
1.61779
1.60801
1.61779
1.62267
1.61779
1.62756
1.61290
1.61779
1.61779
1.61290
1.61779
1.61779
1.61779
1.62267
1.61290
1.61779
1.61779
1.60801
1.61290
1.61779
1.61779
1.60801
1.61290
1.61779
1.61779
1.61290
1.61290
1.61779
1.61779
1.60801
1.60801
1.61779
1.61779
1.61290
1.61290
1.61779
1.62267
1.61290
1.61290
1.61779
1.62267
1.61779
1.62267
1.63245
1.64711
1.64222
1.67155
1.65200
1.65689
1.65200
1.65200
1.65200
1.65689
1.64711
1.64711
1.64711
1.65200
1.64711
1.64222
1.67155
1.65200
1.64222
1.63734
1.63734
1.65200
1.64222
1.63245
1.63734
1.64222
1.64711
1.64222
1.64711
1.65200
1.64711
1.63734
1.64222
1.64711
1.64711
1.63734
1.64222
1.64711
1.64222
1.63245
1.63734
1.64222
1.64222
1.62756
1.62756
1.64222
1.64222
1.63245
1.63245
1.63734
1.63734
1.63245
1.63245
1.63734
1.64222
1.63245
1.62756
1.63245
1.63734
1.63245
1.63245
1.63245
1.65689
1.63734
1.65689
1.63245
1.64222
1.66177
1.63734
1.64711
1.66177
1.63734
1.65689
1.66666
1.65689
1.66666
1.66177
1.66666
1.67644
1.67155
1.68132
1.67155
1.67155
1.67155
1.66177
1.66177
1.66666
1.67155
1.67155
1.65200
1.65689
1.65689
1.67155
1.64711
1.65200
1.65200
1.64711
1.64711
1.65200
1.65200
1.64711
1.65200
1.65200
1.65689
1.64711
1.64711
1.65200
1.65689
1.64711
1.64711
1.64711
1.65200
1.64222
1.63734
1.64711
1.64711
1.64222
1.64222
1.64222
1.64711
1.63734
1.63734
1.64222
1.64222
1.63245
1.63245
1.63734
1.64711
1.64222
1.63734
1.64222
1.64222
1.64222
1.63734
1.63734
1.66666
1.63734
1.63245
1.64222
1.66177
1.63734
1.63245
1.63245
1.64222
1.63245
1.62756
1.64222
1.63734
1.63734
1.63245
1.63734
1.65200
1.65689
1.65689
1.66666
1.67155
1.67155
1.66666
1.67155
1.70576
1.69599
1.66666
1.66177
1.66666
1.66666
1.65689
1.66177
1.65689
1.66666
1.65200
1.65200
1.65689
1.65689
1.64711
1.64711
1.65200
1.66177
1.66177
1.66177
1.66177
1.69110
1.65689
1.68621
1.65689
1.66177
1.65689
1.65200
1.65200
1.65689
1.65200
1.64711
1.65200
1.65689
1.64711
1.64222
1.64222
1.64711
1.64222
1.63734
1.64222
1.64711
1.64222
1.63734
1.64222
1.64711
1.64711
1.64222
1.63734
1.65200
1.63734
1.62756
1.62756
1.63734
1.63734
1.62756
1.62756
1.63734
1.63245
1.62267
1.62756
1.63245
1.63734
1.62267
1.62267
1.62756
1.62756
1.61779
1.61779
1.62267
1.62756
1.62756
1.63245
1.64222
1.64711
1.64222
1.64711
1.65200
1.66177
1.65200
1.65689
1.64711
1.65200
1.64222
1.63734
1.65689
1.64222
1.63734
1.62756
1.62756
1.63245
1.63245
1.62267
1.62267
1.63245
1.63245
1.62267
1.62267
1.63245
1.65689
1.64711
1.63734
1.65200
1.62756
1.62267
1.64222
1.63734
1.65689
1.63245
1.62267
1.63245
1.62267
1.62756
1.61779
1.62267
1.62756
1.64222
1.61290
1.63734
1.61779
1.60801
1.60801
1.61290
1.61779
1.60801
1.60801
1.61290
1.61290
1.60801
1.60801
1.61290
1.61779
1.61779
1.61290
1.61290
1.62756
1.61290
1.63734
1.61779
1.64711
1.60801
1.61290
1.61779
1.65200
1.61779
1.63734
1.63734
1.67155
1.64222
1.64222
1.65689
1.65200
1.65200
1.64711
1.64711
1.65689
1.64711
1.65200
1.64222
1.64711
1.64222
1.63734
1.64222
1.64222
1.64222
1.63245
1.63734
1.64222
1.64222
1.63245
1.65200
1.64711
1.64222
1.63734
1.63734
1.65689
1.64222
1.63734
1.64222
1.64711
1.64222
1.63734
1.63734
1.65200
1.64711
1.63245
1.63734
1.63734
1.64222
1.63245
1.63245
1.63734
1.64711
1.63245
1.63245
1.63734
1.64222
1.63734
1.63245
1.63734
1.64222
1.64222
1.64222
1.64222
1.65200
1.65200
1.65200
1.63734
1.65200
1.63734
1.63245
1.63734
1.64222
1.63734
1.63245
1.63734
1.63734
1.64222
1.64222
1.64711
1.67644
1.67155
1.66177
1.67155
1.67644
1.67644
1.67155
1.67644
1.67644
1.67155
1.66666
1.66666
1.69599
1.67644
1.66666
1.66177
1.66177
1.66177
1.68132
1.65200
1.65689
1.66177
1.65689
1.65200
1.66177
1.66666
1.68132
1.67155
1.66666
1.67644
1.66177
1.66666
1.65689
1.66177
1.65200
1.65200
1.67644
1.66177
1.65200
1.66177
1.66666
1.67644
1.64711
1.64222
1.64711
1.65200
1.64222
1.64222
1.64222
1.64711
1.64711
1.64222
1.64222
1.65200
1.64711
1.64222
1.64222
1.64711
1.64222
1.63734
1.64222
1.64711
1.64711
1.64222
1.64222
1.64711
1.63734
1.63245
1.63245
1.64711
1.64222
1.63734
1.65200
1.64711
1.65689
1.63734
1.65200
1.64222
1.64222
1.63245
1.63245
1.66177
1.63734
1.63245
1.65689
1.65689
1.64222
1.63734
1.64222
1.65689
1.66666
1.66666
1.67155
1.67644
1.68132
1.67644
1.69110
1.68132
1.68132
1.66666
1.66666
1.66666
1.67155
1.67644
1.66177
1.66177
1.66666
1.68621
1.65689
1.65689
1.68621
1.66177
1.65200
1.67644
1.69110
1.66177
1.65200
1.65689
1.66177
1.66177
1.65689
1.65689
1.66177
1.66177
1.65200
1.65200
1.65689
1.65689
1.65200
1.65200
1.65689
1.65689
1.64711
1.64711
1.65200
1.65689
1.64222
1.64711
1.64711
1.65200
1.64711
1.64222
1.64222
1.65200
1.66666
1.64711
1.65200
1.65689
1.66666
1.64711
1.64222
1.65200
1.65689
1.64222
1.64222
1.64222
1.64222
1.64222
1.64222
1.64222
1.64222
1.63734
1.63734
1.64222
1.64222
1.63245
1.63734
1.64222
1.64222
1.64222
1.63245
1.65200
1.63245
1.65200
1.63734
1.64222
1.65200
1.64222
1.65200
1.66177
1.67155
1.66666
1.67155
1.67644
1.67644
1.69110
1.66666
1.67155
1.67155
1.66177
1.66177
1.66177
1.66666
1.65689
1.65689
1.65689
1.65689
1.65200
1.64711
1.65200
1.65689
1.64711
1.64711
1.64711
1.65200
1.64711
1.64711
1.65200
1.65689
1.65200
1.67644
1.66177
1.65689
1.66666
1.65689
1.64711
1.65200
1.64711
1.64222
1.64222
1.64711
1.64222
1.63734
1.63734
1.64711
1.66177
1.65689
1.65689
1.66666
1.63245
1.62756
1.66177
1.66177
1.63245
1.62756
1.62756
1.63245
1.63245
1.62267
1.62756
1.62756
1.62756
1.62267
1.62267
1.62267
1.62756
1.61779
1.64222
1.64711
1.62756
1.61779
1.62267
1.64222
1.63734
1.62756
1.62267
1.61290
1.62756
1.62267
1.62267
1.63245
1.64222
1.65200
1.63734
1.64222
1.65200
1.67155
1.64711
1.65689
1.66177
1.67155
1.64711
1.64711
1.65200
1.67644
1.64222
1.64222
1.65200
1.64222
1.63734
1.63734
1.65200
1.65689
1.64222
1.63245
1.64222
1.63734
1.63245
1.63734
1.63734
1.64222
1.63734
1.63734
1.64711
1.64711
1.64222
1.63734
1.63734
1.64222
1.63734
1.63734
1.63734
1.63734
1.63245
1.63245
1.63734
1.63734
1.63245
1.62756
1.64711
1.65200
1.65200
1.64222
1.64222
1.65689
1.62756
1.65200
1.65689
1.63734
1.62756
1.62756
1.63245
1.63734
1.63245
1.62756
1.63245
1.63734
1.62756
1.62756
1.62756
1.63245
1.63734
1.62756
1.63245
1.64711
1.66177
1.64711
1.65689
1.67155
1.67155
1.66666
1.67155
1.70576
1.68132
1.67155
1.67155
1.67644
1.67644
1.67644
1.66177
1.67155
1.67155
1.66666
1.69110
1.67155
1.66666
1.65689
1.65689
1.66177
1.68132
1.65689
1.67155
1.66666
1.67155
1.66177
1.66177
1.70087
1.67155
1.65689
1.66177
1.67155
1.67155
1.66177
1.66177
1.66177
1.67155
1.65689
1.65689
1.65689
1.66666
1.65689
1.65200
1.65689
1.65689
1.65689
1.65200
1.65689
1.66177
1.65200
1.65200
1.64711
1.65689
1.65200
1.64711
1.65200
1.65689
1.65200
1.65200
1.64711
1.65200
1.65200
1.65200
1.64711
1.65200
1.65689
1.65200
1.64711
1.65200
1.65200
1.64711
1.65200
1.66177
1.67644
1.67155
1.68621
1.69110
1.70087
1.69110
1.72043
1.70087
1.70087
1.69110
1.68621
1.69110
1.69599
1.70087
1.68132
1.68621
1.69110
1.67644
1.68132
1.68132
1.68621
1.67644
1.68132
1.67644
1.68621
1.67644
1.67644
1.68132
1.69110
1.68621
1.70087
1.68621
1.69110
1.71065
1.68132
1.67644
1.68621
1.68132
1.67155
1.67155
1.68132
1.67155
1.66177
1.66666
1.67155
1.67155
1.67155
1.66666
1.67644
1.67155
1.67155
1.66177
1.66666
1.66666
1.65689
1.66177
1.66666
1.66666
1.65689
1.66177
1.66666
1.66666
1.65689
1.65689
1.68621
1.68621
1.67155
1.65689
1.66177
1.66666
1.65689
1.65200
1.65200
1.66177
1.65200
1.64711
1.65200
1.65689
1.64711
1.65200
1.66177
1.67155
1.67644
1.68132
1.68621
1.70087
1.69599
1.70087
1.70576
1.71065
1.70576
1.70576
1.70087
1.70087
1.69599
1.69110
1.69599
1.69599
1.69599
1.71065
1.69110
1.69110
1.69110
1.68132
1.68621
1.69110
1.68621
1.67644
1.68621
1.69110
1.69110
1.68132
1.68621
1.69599
1.70576
1.68621
1.68132
1.68621
1.68621
1.67155
1.67644
1.68132
1.68132
1.66666
1.67155
1.67155
1.67644
1.67155
1.66666
1.67155
1.67644
1.66666
1.69110
1.69599
1.70087
1.66177
1.68132
1.66666
1.68132
1.67155
1.66177
1.66666
1.67155
1.68132
1.68132
1.66177
1.67644
1.65689
1.67155
1.66666
1.66177
1.65689
1.65200
1.65200
1.65689
1.65200
1.64711
1.64711
1.65200
1.65200
1.64222
1.64222
1.65200
1.66666
1.67155
1.67644
1.66177
1.66666
1.66666
1.67644
1.68621
1.69110
1.71065
1.69110
1.69599
1.69599
1.68621
1.68621
1.69599
1.70087
1.68621
1.67644
1.68132
1.68621
1.68132
1.67644
1.67644
1.68132
1.67155
1.67155
1.70087
1.67644
1.67155
1.67155
1.67155
1.68132
1.67155
1.67155
1.67155
1.67644
1.66666
1.66666
1.66666
1.67155
1.66666
1.65689
1.65689
1.66666
1.66666
1.66177
1.67155
1.69110
1.65689
1.64711
1.64711
1.65689
1.64711
1.64711
1.64711
1.64711
1.65689
1.66666
1.66177
1.64711
1.64711
1.63734
1.63734
1.64222
1.64711
1.65200
1.64222
1.65689
1.64222
1.62756
1.63245
1.63734
1.64222
1.63734
1.63734
1.63245
1.63245
1.62267
1.62267
1.62756
1.63245
1.62756
1.63245
1.64222
1.67155
1.64711
1.67155
1.69110
1.69599
1.67155
1.66666
1.66666
1.67644
1.69599
1.66177
1.66177
1.67155
1.66177
1.68132
1.65689
1.66177
1.65689
1.65200
1.64711
1.65689
1.65200
1.64711
1.64711
1.65689
1.65200
1.65200
1.65689
1.65689
1.65689
1.65200
1.65200
1.65689
1.65689
1.64711
1.64711
1.65689
1.65689
1.65200
1.64711
1.65200
1.65689
1.66666
1.66666
1.65200
1.66177
1.64222
1.67155
1.65689
1.64711
1.63734
1.63734
1.63734
1.64222
1.63245
1.63245
1.64222
1.65200
1.66177
1.66666
1.64222
1.64222
1.63734
1.63245
1.63734
1.63734
1.63245
1.62756
1.63245
1.64222
1.63734
1.63734
1.64222
1.65689
1.68132
1.66666
1.66666
1.69110
1.69110
1.68132
1.67644
1.68132
1.67644
1.67155
1.67155
1.67644
1.67155
1.69599
1.66177
1.67155
1.67155
1.66177
1.66177
1.67155
1.66177
1.65689
1.65689
1.66177
1.66177
1.65689
1.65689
1.66666
1.66666
1.65689
1.66666
1.66666
1.66666
1.66177
1.66177
1.66177
1.67644
1.65689
1.66177
1.66177
1.68621
1.65200
1.67155
1.67644
1.66177
1.65200
1.65200
1.65200
1.65689
1.65200
1.64711
1.64711
1.65200
1.64711
1.64711
1.64711
1.65200
1.64711
1.64222
1.64222
1.64711
1.64711
1.64222
1.64222
1.65200
1.64711
1.64222
1.64222
1.65200
1.65200
1.63734
1.65200
1.64711
1.64222
1.63245
1.63734
1.64711
1.64711
1.64222
1.65200
1.66666
1.67644
1.66666
1.67155
1.68132
1.71554
1.70087
1.68132
1.68132
1.68621
1.67644
1.67644
1.68132
1.68132
1.67155
1.67155
1.67155
1.67644
1.69599
1.66666
1.67155
1.67644
1.66666
1.66666
1.67155
1.67644
1.67155
1.66177
1.67155
1.67644
1.67155
1.66177
1.66666
1.67644
1.66666
1.66177
1.69110
1.66666
1.66177
1.65689
1.65689
1.66177
1.66177
1.65200
1.65200
1.66177
1.66177
1.65689
1.65200
1.66177
1.66666
1.64711
1.67155
1.67155
1.65200
1.64711
1.64711
1.65200
1.65200
1.63734
1.64711
1.65200
1.65200
1.64222
1.64711
1.64711
1.66177
1.64222
1.67155
1.66666
1.65200
1.64222
1.64222
1.64222
1.64711
1.63734
1.63734
1.64222
1.64711
1.63734
1.64222
1.64222
1.66177
1.65200
1.65689
1.67155
1.68132
1.69110
1.68132
1.68132
1.68621
1.68132
1.67644
1.68621
1.68621
1.67644
1.67155
1.67155
1.70087
1.69599
1.66177
1.66666
1.67155
1.66666
1.66177
1.66177
1.68132
1.66666
1.65689
1.66177
1.66666
1.66666
1.66177
1.66177
1.67155
1.67155
1.66666
1.66177
1.66666
1.66666
1.65200
1.65200
1.65689
1.65689
1.64711
1.64711
1.65200
1.65689
1.66666
1.65689
1.66666
1.65200
1.64222
1.63734
1.64222
1.64711
1.63245
1.63734
1.64222
1.65200
1.63734
1.63734
1.63734
1.63734
1.63245
1.62756
1.63245
1.64711
1.63245
1.63245
1.63245
1.63734
1.63245
1.62267
1.62756
1.63734
1.64711
1.63734
1.62756
1.63245
1.62756
1.62267
1.62267
1.62756
1.63245
1.64711
1.63734
1.67155
1.64711
1.64711
1.65200
1.66177
1.66666
1.65689
1.68621
1.66666
1.66666
1.65200
1.65200
1.65200
1.65689
1.64711
1.64711
1.65200
1.65689
1.64222
1.64222
1.64222
1.65200
1.65689
1.63734
1.67155
1.64711
1.63734
1.63734
1.64222
1.65200
1.64222
1.63734
1.64222
1.64711
1.64222
1.64222
1.64222
1.64711
1.64711
1.66177
1.66177
1.63734
1.63245
1.62756
1.62756
1.63734
1.63245
1.63734
1.64222
1.63734
1.63734
1.63734
1.63734
1.63245
1.62756
1.62267
1.62267
1.62756
1.62756
1.64711
1.62267
1.62756
1.62756
1.61779
1.61779
1.62756
1.63245
1.61779
1.62267
1.62267
1.62756
1.62756
1.61779
1.62267
1.63245
1.62756
1.63245
1.64222
1.65200
1.65200
1.65689
1.66177
1.66666
1.66177
1.65689
1.68621
1.67644
1.66666
1.65200
1.65689
1.66177
1.65200
1.68132
1.65689
1.66177
1.65200
1.64711
1.67644
1.66666
1.65200
1.64711
1.64711
1.65689
1.67644
1.65200
1.65200
1.66177
1.65689
1.65689
1.65200
1.65689
1.65689
1.65200
1.65200
1.65200
1.65200
1.64711
1.64711
1.65200
1.65200
1.63734
1.64222
1.65200
1.64711
1.64711
1.66666
1.65200
1.67644
1.63734
1.64222
1.65200
1.65200
1.64222
1.64222
1.64711
1.64711
1.64222
1.64222
1.64222
1.65689
1.63734
1.63734
1.66666
1.64711
1.64222
1.63734
1.63734
1.64711
1.64222
1.64711
1.65200
1.67155
1.66666
1.66666
1.68621
1.68621
1.68132
1.67644
1.68132
1.68621
1.68132
1.67644
1.67644
1.71065
1.69110
1.67155
1.67155
1.67644
1.67155
1.66666
1.66666
1.67155
1.67155
1.66177
1.66177
1.66666
1.66666
1.66177
1.66666
1.67155
1.67155
1.66666
1.66177
1.67155
1.68132
1.66177
1.67644
1.66666
1.66666
1.65689
1.65689
1.65689
1.66177
1.65689
1.66177
1.66177
1.67644
1.65200
1.65200
1.65689
1.66666
1.65200
1.65200
1.65200
1.66666
1.65200
1.64711
1.65200
1.65689
1.65200
1.64711
1.64711
1.65689
1.65200
1.64711
1.64711
1.65689
1.65200
1.65689
1.67155
1.66177
1.66666
1.64222
1.64222
1.64711
1.64711
1.63734
1.64222
1.64711
1.65689
1.67644
1.67644
1.68132
1.67644
1.68132
1.67644
1.68621
1.68621
1.68132
1.68132
1.68621
1.68621
1.67644
1.67644
1.71065
1.70576
1.68621
1.67155
1.67155
1.67644
1.66666
1.66666
1.67155
1.68132
1.66177
1.66666
1.66666
1.67155
1.66666
1.66666
1.66666
1.67644
1.66666
1.66666
1.66666
1.67644
1.68132
1.66666
1.66666
1.68132
1.68621
1.65689
1.65689
1.66666
1.65689
1.65200
1.65689
1.66177
1.67644
1.66177
1.65689
1.65689
1.67644
1.64711
1.64711
1.65200
1.65200
1.64222
1.64711
1.65200
1.68132
1.64711
1.64222
1.64711
1.64711
1.64222
1.64222
1.64711
1.64222
1.65200
1.64222
1.64711
1.64711
1.63734
1.63734
1.63734
1.64222
1.65689
1.63734
1.64222
1.67155
1.63734
1.63734
1.64222
1.65689
1.65200
1.65689
1.66666
1.67644
1.67155
1.68621
1.67155
1.68132
1.66666
1.66666
1.67155
1.68621
1.68621
1.66177
1.66177
1.66666
1.66177
1.65689
1.65689
1.66177
1.65689
1.64711
1.65200
1.65689
1.65689
1.65689
1.65689
1.66666
1.67155
1.65200
1.65200
1.65689
1.65689
1.64711
1.64711
1.65200
1.65200
1.64711
1.64711
1.64222
1.65689
1.63734
1.63734
1.64222
1.64222
1.63245
1.63245
1.64222
1.64222
1.65689
1.66177
1.66177
1.63734
1.62756
1.62756
1.62756
1.63245
1.64711
1.65200
1.62756
1.63245
1.62267
1.64222
1.64711
1.62756
1.62267
1.61779
1.61779
1.62267
1.62267
1.61779
1.62267
1.63245
1.62267
1.61779
1.62756
1.63734
1.64222
1.64711
1.65200
1.66666
1.65689
1.65200
1.65689
1.67644
1.68621
1.65200
1.64711
1.65689
1.65689
1.64711
1.64222
1.65200
1.65200
1.67155
1.65200
1.64222
1.64711
1.66666
1.64711
1.66177
1.64711
1.64222
1.64222
1.64711
1.65200
1.64711
1.64711
1.64711
1.65200
1.64711
1.64222
1.65689
1.65200
1.64222
1.64222
1.64222
1.64711
1.64222
1.64222
1.64222
1.64222
1.64711
1.66177
1.65200
1.66666
1.63734
1.63734
1.63734
1.64711
1.63734
1.63734
1.63734
1.64222
1.63734
1.63734
1.63734
1.64711
1.66177
1.63734
1.66666
1.64222
1.64222
1.63734
1.63734
1.64222
1.64711
1.64222
1.65200
1.66177
1.67155
1.66666
1.69599
1.68132
1.68621
1.67644
1.67644
1.67644
1.68621
1.67155
1.70087
1.67155
1.68132
1.67155
1.66666
1.67155
1.67644
1.66666
1.66666
1.66666
1.67155
1.66177
1.66666
1.66666
1.67644
1.66666
1.66177
1.66666
1.67155
1.68621
1.66666
1.66666
1.67155
1.66666
1.65689
1.66177
1.66666
1.66177
1.65689
1.66177
1.66177
1.67155
1.66177
1.66177
1.68621
1.65689
1.65200
1.65200
1.65689
1.65689
1.64711
1.64711
1.65689
1.66177
1.67644
1.67644
1.68132
1.65689
1.64711
1.64711
1.65200
1.65200
1.64222
1.64711
1.65200
1.65200
1.64711
1.64222
1.64711
1.65689
1.65689
1.64711
1.65200
1.66666
1.67644
1.69110
1.67155
1.69599
1.68621
1.68132
1.68621
1.69599
1.69110
1.68621
1.68621
1.69110
1.68621
1.68132
1.68132
1.68621
1.68132
1.67644
1.69110
1.68621
1.67644
1.67155
1.67155
1.67644
1.67155
1.66666
1.67155
1.68132
1.69599
1.67644
1.68132
1.68132
1.68132
1.67155
1.68132
1.68132
1.70087
1.69599
1.67155
1.67644
1.69110
1.66177
1.66177
1.66666
1.66666
1.65689
1.65689
1.66177
1.66666
1.65689
1.65689
1.65689
1.66666
1.68132
1.68132
1.67155
1.66177
1.65200
1.64711
1.65200
1.65689
1.64711
1.64711
1.65200
1.65689
1.65200
1.65200
1.65200
1.67644
1.64711
1.64222
1.67155
1.65200
1.64711
1.64222
1.64222
1.65200
1.66666
1.64222
1.64711
1.66177
1.66666
1.66177
1.67155
1.71065
1.68621
1.68132
1.67644
1.68621
1.68132
1.67155
1.67644
1.69110
1.68132
1.67155
1.67155
1.67644
1.67644
1.66666
1.66666
1.66666
1.67155
1.66177
1.66177
1.66666
1.66666
1.66666
1.66177
1.66177
1.67155
1.66666
1.66666
1.66666
1.67644
1.66177
1.65689
1.66177
1.66666
1.65689
1.65200
1.65689
1.65689
1.65200
1.64711
1.65200
1.65689
1.65200
1.65689
1.66666
1.65689
1.64222
1.63734
1.63734
1.64711
1.64222
1.64222
1.64222
1.66666
1.63734
1.63245
1.63245
1.63734
1.63734
1.62756
1.62756
1.63734
1.63734
1.63245
1.64222
1.66177
1.64711
1.62267
1.62267
1.62756
1.62756
1.61779
1.62267
1.62756
1.64222
1.64711
1.65200
1.65200
1.68132
1.65689
1.65689
1.66177
1.67644
1.68132
1.65200
1.65689
1.65689
1.65200
1.64711
1.65200
1.65200
1.64711
1.64222
1.64222
1.64711
1.63734
1.63734
1.63734
1.64711
1.64222
1.64222
1.64222
1.64711
1.65200
1.65689
1.65200
1.64711
1.64222
1.63734
1.63734
1.63734
1.63734
1.63245
1.62756
1.63734
1.63734
1.62756
1.62756
1.63245
1.63734
1.62756
1.63245
1.63734
1.62756
1.62267
1.62267
1.62756
1.62756
1.62267
1.62267
1.62756
1.62756
1.62267
1.62267
1.62267
1.63245
1.61779
1.61779
1.63245
1.62756
1.61779
1.61779
1.62267
1.62756
1.61779
1.62756
1.63734
1.64711
1.65200
1.64711
1.65689
1.66177
1.66177
1.65689
1.65689
1.66666
1.66177
1.65689
1.65689
1.66177
1.65689
1.65200
1.65689
1.66177
1.65689
1.64222
1.64711
1.65200
1.64711
1.66666
1.64711
1.65200
1.65200
1.64711
1.64711
1.65200
1.65689
1.65200
1.66666
1.65689
1.65689
1.64711
1.64711
1.65200
1.65200
1.64222
1.64222
1.64711
1.65200
1.64222
1.64222
1.64711
1.65200
1.64711
1.64222
1.64222
1.65200
1.64711
1.64711
1.64711
1.64711
1.63734
1.63734
1.64222
1.64711
1.64222
1.63734
1.63734
1.64711
1.65200
1.65200
1.64711
1.65689
1.66666
1.68132
1.66666
1.67155
1.67644
1.67155
1.68132
1.71554
1.71065
1.69599
1.68132
1.68621
1.68621
1.68132
1.67644
1.68132
1.68132
1.67644
1.67644
1.68132
1.67644
1.66666
1.66666
1.67644
1.70087
1.67155
1.67155
1.67644
1.68132
1.67155
1.67155
1.68132
1.68132
1.67155
1.69599
1.67155
1.67644
1.68621
1.67155
1.67155
1.68621
1.67155
1.66666
1.69599
1.67155
1.66177
1.66177
1.66177
1.66666
1.65689
1.65689
1.66177
1.66666
1.65689
1.65689
1.65689
1.66666
1.65689
1.65200
1.65200
1.65689
1.65689
1.65200
1.65689
1.66177
1.65689
1.64711
1.64711
1.65689
1.65200
1.64711
1.64711
1.65689
1.66177
1.65689
1.66666
1.67644
1.68621
1.68621
1.69110
1.70576
1.71065
1.72531
1.70087
1.69599
1.70087
1.69110
1.68621
1.69110
1.69599
1.68621
1.68621
1.69599
1.69599
1.68132
1.68132
1.68621
1.69599
1.68132
1.68132
1.69110
1.70087
1.68132
1.70576
1.68132
1.69110
1.68132
1.67644
1.68132
1.68621
1.68132
1.67644
1.67644
1.68621
1.67644
1.67155
1.67155
1.67644
1.67644
1.67155
1.67155
1.68621
1.69110
1.67644
1.67155
1.69110
1.69110
1.65689
1.66177
1.68621
1.67155
1.65689
1.66177
1.66666
1.66666
1.65689
1.65689
1.66177
1.66666
1.65200
1.65200
1.65689
1.67644
1.65200
1.65200
1.65689
1.66177
1.65200
1.64711
1.65200
1.66666
1.65200
1.66177
1.67155
1.68132
1.67644
1.69599
1.69110
1.70087
1.69599
1.69599
1.70087
1.70087
1.69599
1.69110
1.72043
1.70576
1.69599
1.68621
1.68621
1.69110
1.68621
1.68132
1.68132
1.68621
1.70087
1.67644
1.70576
1.71554
1.68132
1.67644
1.67644
1.68621
1.68132
1.67644
1.67644
1.68132
1.67644
1.67155
1.67644
1.67644
1.69110
1.69599
1.68621
1.67644
1.67155
1.66177
1.65689
1.66177
1.66666
1.65200
1.65689
1.66177
1.67155
1.65200
1.67644
1.67155
1.65689
1.64711
1.64711
1.64711
1.65689
1.64222
1.64222
1.64222
1.65200
1.65689
1.66177
1.64222
1.64711
1.63734
1.63245
1.63734
1.64711
1.63734
1.63245
1.63245
1.63734
1.62756
1.62267
1.62756
1.64222
1.64222
1.64222
1.65200
1.67644
1.66177
1.65689
1.66666
1.67644
1.67644
1.67155
1.67155
1.70576
1.70087
1.67644
1.66666
1.67155
1.67155
1.66177
1.69110
1.67644
1.67155
1.65689
1.65200
1.68621
1.66177
1.64711
1.65200
1.65689
1.66177
1.65200
1.65689
1.65689
1.66177
1.65200
1.65200
1.65689
1.66177
1.65689
1.64711
1.65200
1.66177
1.66177
1.64222
1.64711
1.65200
1.64222
1.63734
1.64222
1.64711
1.64222
1.63734
1.63734
1.64222
1.65200
1.63734
1.66177
1.65200
1.63734
1.63245
1.63245
1.63734
1.63734
1.62756
1.63245
1.64222
1.63734
1.63734
1.64711
1.66177
1.63734
1.62267
1.62756
1.63734
1.63734
1.63734
1.64222
1.65689
1.66177
1.66177
1.67155
1.67644
1.68132
1.67644
1.67155
1.70087
1.69110
1.70087
1.66666
1.67155
1.68132
1.67155
1.69599
1.67644
1.68621
1.67155
1.66177
1.66666
1.66666
1.66177
1.69110
1.68621
1.67155
1.66666
1.66666
1.67644
1.68132
1.67644
1.66666
1.66666
1.67155
1.67155
1.66177
1.66666
1.67155
1.66666
1.65689
1.65689
1.66177
1.67155
1.66666
1.66177
1.68621
1.65689
1.65200
1.65200
1.65689
1.65689
1.65200
1.65200
1.65689
1.65200
1.65200
1.65200
1.66177
1.65689
1.64711
1.64711
1.67644
1.65200
1.64222
1.64222
1.64711
1.65200
1.64222
1.64711
1.65200
1.66666
1.66177
1.67155
1.68621
1.69599
1.69110
1.69110
1.69599
1.70576
1.69599
1.69599
1.69599
1.70087
1.69599
1.71554
1.69599
1.69599
1.69110
1.68621
1.68621
1.69599
1.69599
1.68132
1.67644
1.69110
1.68621
1.68132
1.68621
1.69110
1.69599
1.68132
1.68621
1.69110
1.70087
1.71065
1.69110
1.69110
1.68621
1.67644
1.67644
1.68132
1.68132
1.67155
1.69599
1.70576
1.67644
1.66666
1.66666
1.66666
1.67155
1.66666
1.66177
1.66177
1.67644
1.66177
1.67644
1.69110
1.67155
1.65689
1.65689
1.65689
1.66666
1.65200
1.65200
1.65200
1.66666
1.65200
1.64711
1.64711
1.65689
1.64711
1.64711
1.64711
1.65200
1.65689
1.65200
1.65200
1.66666
1.67155
1.67644
1.68621
1.72043
1.71065
1.70087
1.70087
1.71065
1.70576
1.69599
1.70087
1.70576
1.70576
1.69599
1.72531
1.72043
1.71554
1.69599
1.69110
1.69599
1.69599
1.68621
1.69110
1.68621
1.70087
1.68132
1.68132
1.69110
1.69110
1.68621
1.68132
1.68621
1.69110
1.68132
1.68132
1.68132
1.69110
1.70087
1.67155
1.67644
1.68132
1.67155
1.66666
1.67155
1.67644
1.67155
1.66177
1.66177
1.67644
1.68621
1.65689
1.68132
1.66177
1.65689
1.65200
1.65200
1.65689
1.65200
1.64222
1.64711
1.65200
1.67155
1.64222
1.64222
1.64711
1.64711
1.63734
1.64222
1.64222
1.64222
1.64222
1.64711
1.64222
1.63734
1.62756
1.63245
1.64222
1.64711
1.65200
1.65689
1.67155
1.67644
1.67155
1.67644
1.68621
1.69110
1.68132
1.67644
1.68132
1.68621
1.68132
1.67155
1.70576
1.70087
1.68621
1.66666
1.67155
1.67644
1.66666
1.68132
1.66177
1.66666
1.66177
1.65689
1.66666
1.66666
1.67155
1.66666
1.66177
1.67644
1.66666
1.65689
1.66177
1.66666
1.66177
1.65200
1.65200
1.65689
1.66177
1.65200
1.65200
1.65689
1.66666
1.64711
1.65689
1.66177
1.64711
1.64222
1.64222
1.64711
1.64711
1.63734
1.64222
1.64222
1.65200
1.65689
1.64711
1.64711
1.63734
1.62756
1.62756
1.63245
1.63245
1.65200
1.65689
1.65689
1.63245
1.62756
1.62756
1.63245
1.64711
1.65200
1.65689
1.66177
1.68132
1.67644
1.67644
1.67644
1.68621
1.71065
1.68132
1.68132
1.68132
1.68132
1.67155
1.67155
1.67644
1.67644
1.66666
1.67644
1.67644
1.67155
1.66177
1.66177
1.66666
1.67155
1.66177
1.68621
1.68621
1.67644
1.67155
1.67155
1.67644
1.67644
1.67155
1.67155
1.67644
1.67644
1.66666
1.66666
1.66666
1.68621
1.68132
1.66666
1.66177
1.67155
1.66177
1.65689
1.65689
1.66177
1.65200
1.65200
1.65200
1.66666
1.68132
1.65689
1.65689
1.67155
1.65200
1.64711
1.64711
1.65689
1.64711
1.64222
1.64711
1.64711
1.64711
1.65689
1.65200
1.66177
1.68621
1.66177
1.67644
1.69110
1.69599
1.69110
1.70087
1.73509
1.70576
1.71065
1.70087
1.70576
1.70576
1.70087
1.70087
1.70576
1.70576
1.72531
1.70087
1.69599
1.70087
1.68621
1.69110
1.69599
1.69599
1.68621
1.68621
1.69599
1.69599
1.69110
1.69110
1.69599
1.71065
1.70087
1.69110
1.69110
1.71065
1.68132
1.68132
1.68621
1.68621
1.68132
1.68132
1.68132
1.68621
1.69110
1.68132
1.67155
1.67644
1.67155
1.66666
1.66666
1.67644
1.67644
1.66177
1.66177
1.66666
1.66177
1.65689
1.66177
1.68132
1.65689
1.65200
1.65689
1.65689
1.66177
1.66666
1.67155
1.65689
1.65689
1.64711
1.64711
1.65200
1.66666
1.68132
1.66177
1.67644
1.68621
1.68621
1.70087
1.70087
1.71554
1.71065
1.71065
1.71554
1.72043
1.71065
1.71065
1.71554
1.72043
1.70576
1.70576
1.73509
1.72043
1.70576
1.69599
1.70087
1.70576
1.69599
1.70576
1.70576
1.72531
1.73020
1.71554
1.71065
1.73020
1.70576
1.70576
1.72043
1.73509
1.70087
1.71554
1.72043
1.73509
1.70087
1.69110
1.69599
1.69599
1.69110
1.68132
1.68621
1.68621
1.68621
1.68132
1.68132
1.68132
1.70576
1.70087
1.68132
1.67644
1.67644
1.66666
1.66666
1.67155
1.67155
1.69110
1.66666
1.66666
1.66666
1.65689
1.65689
1.65689
1.66666
1.68132
1.67644
1.67155
1.65689
1.64711
1.64711
1.65200
1.65689
1.65200
1.66177
1.66177
1.66666
1.66666
1.67155
1.68621
1.70087
1.70087
1.70087
1.71065
1.71554
1.71554
1.71065
1.72043
1.72043
1.72043
1.70576
1.71065
1.71554
1.71554
1.70576
1.70576
1.73509
1.73020
1.70087
1.69599
1.70576
1.70087
1.69110
1.69599
1.70087
1.70087
1.69599
1.69599
1.70087
1.70087
1.69599
1.69599
1.70576
1.70576
1.68621
1.68621
1.69110
1.69110
1.67644
1.67644
1.67644
1.68132
1.67155
1.67155
1.67155
1.68132
1.69110
1.66666
1.66666
1.67155
1.65689
1.65689
1.66177
1.68132
1.65200
1.64711
1.65200
1.65689
1.64711
1.64711
1.67155
1.67155
1.64222
1.63734
1.63734
1.64711
1.63734
1.63245
1.63245
1.63734
1.63245
1.62756
1.63245
1.63245
1.63245
1.62756
1.63245
1.64222
1.65689
1.67155
1.67155
1.68132
1.70576
1.68132
1.69599
1.69110
1.69110
1.68621
1.68621
1.68621
1.69110
1.71065
1.68132
1.68621
1.68621
1.67644
1.67155
1.67644
1.67644
1.66666
1.67155
1.70087
1.67644
1.66666
1.66666
1.67155
1.68132
1.67155
1.67155
1.67155
1.67644
1.67155
1.66666
1.67155
1.67644
1.66666
1.66177
1.66666
1.66666
1.65689
1.65689
1.65200
1.65689
1.65200
1.64711
1.64222
1.65689
1.66177
1.66666
1.66666
1.64711
1.64711
1.63734
1.63734
1.64222
1.64711
1.66177
1.63245
1.63734
1.63734
1.62756
1.62756
1.63245
1.65200
1.62267
1.62267
1.62756
1.63245
1.62267
1.63245
1.64222
1.68132
1.64711
1.65689
1.66666
1.67644
1.67644
1.68132
1.68132
1.69110
1.68132
1.68132
1.68621
1.69110
1.68132
1.67644
1.71065
1.71065
1.70576
1.68621
1.67155
1.67644
1.67155
1.66177
1.66666
1.67644
1.67155
1.67155
1.67155
1.68132
1.70576
1.69599
1.67155
1.68132
1.67644
1.66666
1.69599
1.67155
1.67155
1.66177
1.66666
1.66666
1.66666
1.65689
1.65689
1.66177
1.66177
1.66177
1.68132
1.65689
1.65689
1.64711
1.64711
1.64711
1.65200
1.64222
1.64222
1.64222
1.65689
1.66666
1.66666
1.64222
1.64711
1.63734
1.63734
1.64222
1.64711
1.65200
1.66666
1.67155
1.69110
1.66666
1.67155
1.68621
1.70087
1.69599
1.70087
1.70576
1.71554
1.71065
1.70576
1.71065
1.71554
1.71065
1.70576
1.70576
1.71065
1.70576
1.69599
1.72531
1.70087
1.70087
1.68621
1.69110
1.72043
1.69599
1.69599
1.69599
1.70087
1.70576
1.69599
1.72531
1.70576
1.70087
1.69110
1.69599
1.70576
1.69599
1.68621
1.68621
1.69110
1.69110
1.68132
1.68132
1.68132
1.68621
1.68132
1.67155
1.67644
1.68621
1.67155
1.67155
1.67155
1.67644
1.66666
1.66666
1.66666
1.67644
1.68132
1.68621
1.66177
1.66666
1.65689
1.65689
1.65689
1.66177
1.65689
1.65689
1.66177
1.66666
1.67155
1.67155
1.68621
1.69599
1.72043
1.71065
1.71554
1.73020
1.73020
1.72531
1.72531
1.73509
1.73020
1.72531
1.73509
1.73998
1.75953
1.74486
1.73509
1.72531
1.72531
1.71065
1.71554
1.71554
1.72043
1.72043
1.71554
1.72043
1.72531
1.72531
1.73998
1.74975
1.73998
1.72043
1.72043
1.72043
1.72043
1.71554
1.71065
1.71554
1.74486
1.70576
1.70087
1.73020
1.70576
1.69599
1.69110
1.69110
1.69599
1.69110
1.68621
1.68621
1.69110
1.68132
1.67644
1.67644
1.68621
1.68132
1.67155
1.67644
1.68132
1.67644
1.66666
1.66666
1.67155
1.66666
1.66177
1.66177
1.67644
1.66177
1.65200
1.65200
1.66177
1.68621
1.64711
1.65200
1.66666
1.67155
1.69599
1.70087
1.70087
1.71065
1.71554
1.72043
1.73020
1.73509
1.73020
1.73020
1.73509
1.73509
1.73020
1.74486
1.73509
1.73998
1.74486
1.72531
1.72531
1.73020
1.72043
1.71554
1.72043
1.72531
1.74486
1.71065
1.72043
1.72531
1.72531
1.72531
1.72043
1.73020
1.72531
1.71554
1.71554
1.73020
1.71554
1.70576
1.70576
1.71065
1.70576
1.69599
1.69599
1.70087
1.69599
1.68621
1.68621
1.69110
1.68621
1.68132
1.68621
1.68621
1.70576
1.67155
1.67644
1.67644
1.67644
1.66666
1.66666
1.67155
1.69110
1.65689
1.65689
1.66177
1.66177
1.67644
1.67644
1.65200
1.65689
1.64222
1.65200
1.64711
1.64711
1.63245
1.64222
1.63734
1.64222
1.63245
1.62756
1.63734
1.64222
1.64222
1.65200
1.66177
1.70576
1.68132
1.68621
1.69599
1.71554
1.71554
1.70576
1.71554
1.71554
1.71554
1.71065
1.71065
1.71554
1.71065
1.73020
1.71065
1.70576
1.70576
1.69599
1.69599
1.73020
1.71065
1.69110
1.69110
1.69599
1.69599
1.69110
1.69599
1.70087
1.70087
1.69599
1.69599
1.70087
1.70576
1.69110
1.69110
1.69110
1.69110
1.67644
1.70576
1.67644
1.67644
1.66666
1.66666
1.66666
1.67155
1.65689
1.65689
1.65689
1.66177
1.67644
1.67155
1.64711
1.65200
1.64222
1.64222
1.64222
1.67155
1.63734
1.63245
1.63245
1.63245
1.65200
1.65200
1.62756
1.63245
1.62267
1.63245
1.63245
1.62267
1.61779
1.61779
1.64222
1.61779
1.61779
1.61290
1.62267
1.64711
1.64222
1.64711
1.65200
1.67644
1.69110
1.67155
1.67644
1.71065
1.70576
1.68621
1.68132
1.68621
1.68621
1.67644
1.67644
1.67644
1.67644
1.66666
1.67155
1.66666
1.67155
1.65689
1.67644
1.69110
1.66666
1.65689
1.66177
1.66666
1.67155
1.66177
1.66177
1.66666
1.67644
1.67644
1.68621
1.68621
1.66666
1.66177
1.65689
1.65689
1.66177
1.64711
1.64222
1.64222
1.65200
1.64711
1.64711
1.66666
1.64222
1.63734
1.62756
1.62756
1.63734
1.63245
1.62756
1.62267
1.62756
1.64222
1.61779
1.62267
1.62756
1.62267
1.61779
1.61779
1.62267
1.61779
1.60801
1.60801
1.61779
1.61779
1.61779
1.62267
1.64222
1.65689
1.65200
1.66177
1.67644
1.68621
1.68132
1.68621
1.72043
1.72531
1.70576
1.69110
1.69110
1.69599
1.69110
1.68621
1.68621
1.69110
1.67644
1.67644
1.68132
1.68621
1.67644
1.66666
1.67644
1.68132
1.67644
1.70576
1.68132
1.69110
1.68132
1.67644
1.67644
1.71065
1.69599
1.67644
1.67644
1.68621
1.68132
1.67155
1.67155
1.67644
1.67155
1.66177
1.66177
1.66177
1.68621
1.65689
1.65689
1.65689
1.65689
1.65200
1.65689
1.67155
1.65200
1.64222
1.64222
1.64711
1.64711
1.64711
1.66177
1.66666
1.64711
1.63245
1.63245
1.63734
1.64222
1.63734
1.64222
1.65200
1.69110
1.66177
1.67155
1.68621
1.71065
1.70087
1.70576
1.71554
1.72531
1.72043
1.71554
1.71554
1.72531
1.72043
1.71554
1.73509
1.73020
1.72531
1.71065
1.71065
1.71065
1.70576
1.70087
1.70087
1.71065
1.70576
1.70087
1.70087
1.70576
1.71065
1.70576
1.71065
1.73509
1.71065
1.70087
1.70087
1.70576
1.70576
1.69599
1.69110
1.69599
1.70087
1.68621
1.68621
1.68621
1.68621
1.67644
1.67644
1.68132
1.68621
1.67155
1.68621
1.69599
1.67155
1.66177
1.65689
1.65689
1.67155
1.65689
1.65200
1.65689
1.66177
1.66177
1.66666
1.64711
1.65200
1.64711
1.63734
1.64222
1.64222
1.66666
1.63734
1.63734
1.65200
1.64711
1.65689
1.67155
1.69110
1.69599
1.69599
1.71065
1.72043
1.72531
1.71554
1.72531
1.73998
1.73020
1.72531
1.72531
1.75464
1.73020
1.72043
1.72043
1.72043
1.72043
1.71065
1.71065
1.71554
1.71554
1.70576
1.73509
1.71065
1.71554
1.70576
1.71065
1.71554
1.72043
1.71554
1.71065
1.70576
1.71065
1.70576
1.71065
1.70087
1.72043
1.69599
1.69110
1.69110
1.69599
1.68132
1.67644
1.68132
1.68132
1.68132
1.70087
1.69599
1.67644
1.66666
1.66177
1.66177
1.66666
1.66177
1.65200
1.65200
1.65689
1.65689
1.65200
1.65200
1.66666
1.64711
1.64222
1.64222
1.67155
1.63734
1.63245
1.63245
1.63734
1.63245
1.64711
1.63245
1.62756
1.62756
1.62756
1.62756
1.63734
1.64711
1.64711
1.66177
1.68132
1.68621
1.69110
1.69599
1.73509
1.74486
1.71554
1.71065
1.71554
1.72043
1.71065
1.71065
1.71065
1.71554
1.70576
1.71554
1.70087
1.70576
1.70087
1.69599
1.69599
1.73020
1.69599
1.69110
1.71065
1.70087
1.70087
1.69599
1.70087
1.70087
1.69599
1.69110
1.69110
1.69599
1.69599
1.68621
1.68621
1.69110
1.71065
1.69599
1.67155
1.67155
1.67155
1.65689
1.65689
1.66177
1.66177
1.67644
1.65200
1.68132
1.65200
1.63734
1.64222
1.64711
1.64222
1.63245
1.63245
1.63734
1.64222
1.62267
1.62267
1.62756
1.62756
1.63734
1.61290
1.61290
1.61779
1.60312
1.60801
1.61290
1.61290
1.59824
1.59335
1.59824
1.60312
1.59824
1.59335
1.61290
1.62267
1.62756
1.63245
1.64222
1.66666
1.66666
1.66666
1.67155
1.68132
1.67644
1.67155
1.67644
1.68132
1.67644
1.70087
1.68132
1.68132
1.67644
1.66177
1.66177
1.66666
1.66177
1.65200
1.65689
1.66177
1.65689
1.65200
1.65200
1.66177
1.66177
1.65200
1.65689
1.66177
1.66177
1.65689
1.65200
1.65689
1.67644
1.64222
1.67155
1.67155
1.64711
1.63245
1.63734
1.63245
1.63734
1.62756
1.63245
1.64222
1.62756
1.61779
1.61779
1.61779
1.62267
1.61290
1.61290
1.61290
1.63245
1.60801
1.60312
1.60801
1.61290
1.60801
1.60312
1.60312
1.62756
1.59824
1.59335
1.59824
1.60801
1.61779
1.61290
1.62267
1.63734
1.64222
1.64711
1.66177
1.67644
1.68132
1.67644
1.68132
1.69110
1.69110
1.68132
1.68132
1.69110
1.71554
1.70087
1.68132
1.68621
1.69599
1.68621
1.67155
1.67155
1.67155
1.66177
1.66666
1.67155
1.67644
1.67155
1.68132
1.68132
1.68132
1.66666
1.67155
1.67155
1.67644
1.66666
1.67155
1.66666
1.67155
1.67644
1.66666
1.66666
1.68621
1.65200
1.64711
1.64711
1.65689
1.64711
1.64222
1.64222
1.66177
1.64222
1.63734
1.63734
1.64222
1.65200
1.63245
1.63245
1.63734
1.63245
1.64222
1.63245
1.63245
1.62756
1.61779
1.61779
1.62267
1.63245
1.63245
1.64222
1.65200
1.66666
1.67155
1.68132
1.69599
1.70576
1.69599
1.70576
1.71065
1.71554
1.70576
1.71065
1.71554
1.71554
1.70576
1.70576
1.70576
1.70576
1.69599
1.70576
1.69599
1.70087
1.69599
1.68621
1.68621
1.69599
1.69110
1.69110
1.69110
1.72043
1.69599
1.69110
1.69110
1.69599
1.69110
1.68621
1.68621
1.69110
1.68132
1.67644
1.68132
1.69110
1.67155
1.66177
1.66177
1.66666
1.66666
1.68132
1.67644
1.65689
1.65200
1.64711
1.64711
1.65200
1.65200
1.65200
1.63734
1.64222
1.63734
1.62756
1.63245
1.65200
1.63734
1.62756
1.62756
1.63245
1.63245
1.61779
1.61779
1.62267
1.62756
1.61779
1.62756
1.63245
1.63734
1.64222
1.65689
1.67155
1.68621
1.68621
1.69110
1.70576
1.72043
1.71065
1.70576
1.71554
1.72043
1.70576
1.70576
1.71065
1.71554
1.70576
1.70087
1.70576
1.71065
1.70087
1.69599
1.71065
1.70576
1.69599
1.68621
1.69110
1.70087
1.69599
1.69599
1.71554
1.70087
1.69599
1.68621
1.68621
1.69599
1.69110
1.70576
1.70087
1.71554
1.68132
1.67155
1.67155
1.67155
1.67155
1.67155
1.67644
1.67155
1.65689
1.64711
1.64711
1.64711
1.65689
1.63734
1.63734
1.63734
1.64222
1.62756
1.62756
1.62756
1.65200
1.61779
1.61779
1.62267
1.62267
1.61290
1.60801
1.61290
1.61290
1.60801
1.60312
1.60801
1.63245
1.59824
1.59824
1.60312
1.61290
1.61779
1.62267
1.63245
1.66177
1.65689
1.66666
1.67155
1.68621
1.68621
1.71554
1.69110
1.69110
1.69110
1.68132
1.68132
1.69110
1.68621
1.67644
1.67644
1.67644
1.67644
1.66666
1.67155
1.67155
1.67155
1.65689
1.66177
1.66666
1.66666
1.66177
1.66177
1.66666
1.67155
1.65689
1.65689
1.66177
1.66177
1.65200
1.64711
1.65200
1.65200
1.66666
1.65200
1.64222
1.64222
1.62756
1.62267
1.62267
1.64222
1.61779
1.61779
1.61779
1.62267
1.61779
1.62756
1.62756
1.61290
1.59824
1.59824
1.59335
1.63245
1.59335
1.58846
1.58846
1.59335
1.61779
1.58357
1.58357
1.58846
1.58846
1.57869
1.58357
1.59335
1.59335
1.60801
1.60801
1.62267
1.63734
1.64222
1.64711
1.66666
1.69110
1.66177
1.66666
1.67155
1.67155
1.66666
1.66666
1.67155
1.67155
1.66177
1.67155
1.66177
1.66666
1.65200
1.64711
1.65200
1.65200
1.64711
1.65200
1.65200
1.66177
1.65200
1.65689
1.68621
1.67644
1.66177
1.65689
1.66177
1.66177
1.65689
1.68132
1.65689
1.66177
1.64711
1.67155
1.65200
1.65200
1.64222
1.63734
1.63734
1.64711
1.63734
1.63734
1.63734
1.64222
1.63245
1.62756
1.62756
1.63245
1.62756
1.61779
1.61779
1.62267
1.63734
1.61779
1.61290
1.61779
1.61779
1.61779
1.63245
1.65689
1.64711
1.65200
1.66177
1.68132
1.69110
1.69110
1.73020
1.71065
1.71065
1.70087
1.70087
1.70576
1.71065
1.69599
1.69599
1.70087
1.73020
1.69110
1.71065
1.69599
1.70087
1.68132
1.67644
1.68132
1.68621
1.67644
1.67644
1.68621
1.69599
1.68621
1.69599
1.69599
1.70576
1.68621
1.71065
1.71065
1.68621
1.68132
1.67155
1.67155
1.67644
1.67155
1.66666
1.67644
1.66666
1.65689
1.65200
1.65200
1.65689
1.67644
1.64711
1.67155
1.64711
1.64222
1.63245
1.63734
1.67155
1.63734
1.62756
1.62756
1.63734
1.64222
1.62267
1.62267
1.62756
1.62756
1.62267
1.62756
1.62756
1.63734
1.63734
1.65200
1.67155
1.69110
1.69110
1.69599
1.73509
1.74486
1.71554
1.71554
1.72043
1.72531
1.71554
1.71065
1.71554
1.72043
1.71065
1.70576
1.70576
1.71065
1.70087
1.69599
1.69599
1.70576
1.69599
1.69599
1.73020
1.71554
1.71065
1.70576
1.70576
1.71554
1.71065
1.70087
1.70087
1.70576
1.70087
1.69110
1.69110
1.70087
1.68621
1.67644
1.67644
1.68132
1.67644
1.66177
1.66666
1.67155
1.66177
1.65200
1.65200
1.65200
1.65200
1.64222
1.64222
1.66666
1.64222
1.63245
1.63245
1.64222
1.63245
1.62267
1.62267
1.63734
1.62756
1.61290
1.61779
1.64222
1.61779
1.60312
1.60801
1.61779
1.60801
1.60312
1.60312
1.61290
1.63245
1.62756
1.63734
1.65689
1.67155
1.67155
1.68621
1.70087
1.70087
1.70087
1.69110
1.69599
1.70087
1.69599
1.69110
1.69110
1.69599
1.68621
1.68132
1.68132
1.71554
1.68621
1.68621
1.67644
1.68132
1.67644
1.66666
1.67155
1.67644
1.67644
1.67155
1.67644
1.69599
1.67644
1.66666
1.66666
1.67155
1.66666
1.65689
1.65689
1.66177
1.65200
1.64222
1.63734
1.63734
1.64222
1.64711
1.62756
1.62756
1.62756
1.61779
1.62267
1.62267
1.61779
1.60801
1.60312
1.61290
1.60801
1.59824
1.59824
1.59824
1.60801
1.59335
1.58846
1.59335
1.59335
1.58357
1.58357
1.61290
1.58357
1.57869
1.57869
1.57869
1.58846
1.59335
1.61779
1.60312
1.61779
1.63245
1.63734
1.65200
1.65689
1.66177
1.65689
1.66177
1.66666
1.66177
1.65689
1.65689
1.66177
1.65689
1.67155
1.65200
1.64711
1.64711
1.63734
1.63734
1.63734
1.63245
1.62756
1.62756
1.63734
1.64222
1.64222
1.64222
1.64711
1.64711
1.63734
1.63245
1.63734
1.63734
1.62267
1.62267
1.62756
1.62756
1.61779
1.61290
1.61290
1.62756
1.60801
1.60312
1.60312
1.60801
1.59824
1.59335
1.59824
1.61779
1.58846
1.58357
1.58357
1.58846
1.58846
1.60801
1.60312
1.58357
1.57869
1.56891
1.56891
1.58846
1.57380
1.56891
1.57380
1.58357
1.59824
1.59335
1.60801
1.62267
1.63245
1.63734
1.65200
1.65689
1.66177
1.65689
1.68621
1.67155
1.66666
1.66177
1.66177
1.66177
1.66177
1.65200
1.65200
1.65200
1.65689
1.64222
1.64222
1.64711
1.66177
1.66666
1.64222
1.65200
1.66177
1.65200
1.65689
1.68132
1.67155
1.66177
1.65689
1.65689
1.66177
1.64711
1.66666
1.65200
1.65200
1.64222
1.64222
1.64222
1.65689
1.63734
1.63245
1.63245
1.63734
1.63245
1.62756
1.62756
1.63245
1.62267
1.62267
1.62267
1.63245
1.61779
1.61290
1.61290
1.61779
1.61779
1.61290
1.61290
1.63734
1.63734
1.63734
1.65689
1.67644
1.68132
1.68621
1.69599
1.72043
1.71554
1.73998
1.72043
1.72043
1.72531
1.72531
1.71065
1.70576
1.70576
1.70087
1.70087
1.70087
1.70087
1.69110
1.69110
1.71065
1.71554
1.69599
1.68621
1.69599
1.69599
1.68621
1.69110
1.69599
1.70576
1.69110
1.69110
1.69110
1.70087
1.68621
1.68621
1.69599
1.68621
1.67644
1.67155
1.67155
1.67155
1.69110
1.66666
1.66666
1.69110
1.65689
1.65200
1.65200
1.65200
1.65200
1.65689
1.66666
1.64711
1.63734
1.63245
1.63734
1.64222
1.63245
1.62267
1.62267
1.62756
1.65200
1.62267
1.62756
1.63734
1.64711
1.65689
1.67155
1.69110
1.70576
1.70087
1.71065
1.74975
1.74975
1.72531
1.72043
1.72531
1.73020
1.72043
1.71554
1.74975
1.72531
1.71065
1.71554
1.71554
1.72043
1.70576
1.69599
1.70087
1.70087
1.69110
1.69599
1.69599
1.70576
1.70087
1.70087
1.71065
1.73998
1.70087
1.69599
1.69599
1.70087
1.69110
1.68132
1.67644
1.68621
1.67155
1.67155
1.67155
1.69110
1.66666
1.65689
1.65689
1.66177
1.67155
1.67644
1.64711
1.64711
1.64222
1.63734
1.63245
1.64222
1.63734
1.62756
1.62756
1.63245
1.64711
1.62267
1.61779
1.62756
1.62267
1.62756
1.61290
1.61779
1.61290
1.60801
1.60312
1.60801
1.63245
1.61779
1.62756
1.64222
1.66177
1.69110
1.68132
1.69110
1.70576
1.70087
1.71065
1.71554
1.72043
1.71554
1.71065
1.71065
1.71554
1.71065
1.70576
1.70576
1.73509
1.70087
1.70576
1.70576
1.71065
1.70087
1.69110
1.69110
1.69599
1.69599
1.68621
1.69599
1.70087
1.70087
1.69599
1.69599
1.70576
1.70576
1.68621
1.68621
1.69110
1.68621
1.67644
1.67155
1.67644
1.67644
1.66666
1.66666
1.66177
1.65689
1.64711
1.64711
1.64222
1.64711
1.63245
1.63245
1.63245
1.63245
1.63245
1.63734
1.62756
1.62267
1.64222
1.61290
1.61290
1.61779
1.60312
1.59824
1.60312
1.63734
1.59335
1.58846
1.59824
1.59824
1.58357
1.61290
1.58357
1.59335
1.61290
1.58846
1.59824
1.61779
1.61779
1.62756
1.63734
1.65689
1.66666
1.68132
1.69599
1.68621
1.68621
1.68132
1.68132
1.71065
1.68132
1.67644
1.70576
1.69599
1.68621
1.67155
1.66666
1.67155
1.66666
1.65689
1.66177
1.66177
1.66177
1.65200
1.65689
1.66177
1.66177
1.65689
1.65689
1.66666
1.66666
1.67155
1.66177
1.66177
1.65200
1.63734
1.64222
1.64222
1.64222
1.66177
1.62756
1.62756
1.62756
1.61290
1.60801
1.61290
1.64222
1.60801
1.60312
1.59824
1.60801
1.59335
1.59335
1.59335
1.60312
1.58846
1.58357
1.58357
1.60801
1.58357
1.57869
1.57380
1.60801
1.57380
1.56402
1.57380
1.59335
1.58357
1.57869
1.59824
1.61779
1.62756
1.63245
1.64711
1.65689
1.66177
1.66177
1.67155
1.67644
1.67644
1.66666
1.67155
1.69599
1.67155
1.67644
1.67155
1.66666
1.67644
1.66177
1.65200
1.65200
1.64711
1.64222
1.64711
1.65200
1.68132
1.65200
1.65200
1.67644
1.68132
1.67155
1.65689
1.65689
1.66177
1.65200
1.65200
1.68132
1.65689
1.64711
1.64222
1.64222
1.64711
1.63245
1.63734
1.63245
1.63734
1.62756
1.62267
1.62267
1.62756
1.61779
1.61779
1.61779
1.62756
1.64222
1.64222
1.64222
1.61779
1.61290
1.60312
1.60312
1.60801
1.61779
1.60801
1.61779
1.63734
1.64711
1.65200
1.66666
1.69110
1.69599
1.70087
1.70576
1.71554
1.71554
1.70576
1.70576
1.71554
1.71065
1.70576
1.70576
1.71065
1.70576
1.69599
1.71554
1.70087
1.70087
1.68621
1.68621
1.68621
1.69110
1.67644
1.68621
1.69110
1.69599
1.70087
1.71065
1.71065
1.69599
1.68621
1.68132
1.68621
1.68621
1.68132
1.67155
1.67155
1.68132
1.68132
1.68621
1.66177
1.66177
1.65200
1.65200
1.64711
1.65689
1.64711
1.63734
1.63734
1.64222
1.63734
1.63734
1.66177
1.63734
1.63245
1.63245
1.62267
1.62756
1.62267
1.61779
1.64222
1.61779
1.61290
1.60801
1.61290
1.63245
1.63734
1.64222
1.65689
1.67644
1.69110
1.69599
1.70576
1.71554
1.72043
1.71554
1.73998
1.72531
1.73998
1.74486
1.72043
1.72043
1.72531
1.71065
1.71065
1.71065
1.73020
1.73020
1.70576
1.70576
1.70576
1.69599
1.72531
1.70087
1.70576
1.70087
1.69599
1.70087
1.70576
1.70087
1.69599
1.69110
1.70087
1.71554
1.71065
1.71065
1.70576
1.67644
1.67155
1.67644
1.67644
1.66666
1.66177
1.66177
1.66666
1.68621
1.65200
1.65200
1.65689
1.64711
1.65200
1.66666
1.64222
1.63734
1.63245
1.63245
1.64222
1.63245
1.62267
1.62267
1.62756
1.62267
1.61290
1.61290
1.61779
1.61779
1.61290
1.62267
1.63245
1.64222
1.64711
1.66177
1.67644
1.69599
1.70576
1.69599
1.73020
1.73998
1.70087
1.70087
1.70576
1.71065
1.69599
1.69599
1.69599
1.69599
1.68621
1.71065
1.68621
1.68132
1.67644
1.68132
1.67644
1.67644
1.67155
1.67155
1.67155
1.67644
1.67155
1.67155
1.67644
1.67644
1.66666
1.66177
1.66177
1.66177
1.66177
1.66177
1.65689
1.68132
1.64222
1.63245
1.63245
1.63734
1.62756
1.63245
1.62756
1.63734
1.62267
1.61290
1.61290
1.61779
1.61290
1.59824
1.59824
1.60312
1.62756
1.58846
1.59335
1.58846
1.59335
1.58357
1.58357
1.58846
1.58846
1.57869
1.58846
1.60312
1.63734
1.61290
1.62267
1.64222
1.65200
1.68621
1.68132
1.66666
1.67644
1.67155
1.68132
1.67644
1.68132
1.66666
1.66666
1.66666
1.67155
1.66177
1.65689
1.65689
1.67644
1.67155
1.64711
1.65200
1.65689
1.66177
1.65200
1.66177
1.69110
1.67644
1.66177
1.66666
1.66666
1.66666
1.68132
1.65689
1.65689
1.65689
1.64711
1.64711
1.65200
1.65689
1.63734
1.66177
1.64222
1.64222
1.62756
1.63245
1.63245
1.63245
1.62267
1.62756
1.63245
1.65689
1.61779
1.62267
1.62267
1.62267
1.60801
1.60801
1.60801
1.62756
1.60801
1.61290
1.62756
1.64222
1.64222
1.65689
1.67155
1.69110
1.69110
1.70087
1.71065
1.72043
1.71065
1.70576
1.71065
1.71554
1.70576
1.70576
1.70576
1.71065
1.70087
1.69599
1.69110
1.69599
1.68621
1.68132
1.69599
1.68621
1.68621
1.68132
1.69110
1.70087
1.69110
1.68621
1.69110
1.69599
1.68621
1.67644
1.67644
1.68132
1.68132
1.67155
1.66666
1.69599
1.66666
1.65689
1.65689
1.65689
1.66177
1.65689
1.67155
1.64711
1.64711
1.63245
1.63245
1.64222
1.63734
1.63245
1.62756
1.63245
1.64711
1.62267
1.62267
1.62267
1.62267
1.61779
1.61779
1.61290
1.61779
1.61290
1.61290
1.62267
1.63245
1.63734
1.64711
1.66666
1.68132
1.69599
1.69599
1.73509
1.74486
1.71065
1.73020
1.71554
1.73509
1.74486
1.71554
1.71554
1.72043
1.71554
1.70087
1.70087
1.70576
1.70087
1.69110
1.69110
1.69110
1.69110
1.69110
1.69599
1.70087
1.72531
1.69110
1.69110
1.70087
1.69599
1.68621
1.68621
1.69110
1.68621
1.67644
1.67644
1.67644
1.68621
1.66177
1.66177
1.66177
1.66666
1.65200
1.65200
1.64711
1.65689
1.64222
1.63734
1.63734
1.64222
1.63245
1.65689
1.63245
1.63734
1.62756
1.62267
1.62267
1.65689
1.61779
1.61290
1.61290
1.64222
1.61290
1.60801
1.60801
1.61290
1.62267
1.59824
1.59824
1.60312
1.62756
1.59824
1.60312
1.61779
1.65200
1.63734
1.64711
1.66666
1.67644
1.68132
1.69110
1.70087
1.69599
1.69110
1.69110
1.70087
1.69599
1.68621
1.69110
1.69110
1.69110
1.69110
1.68621
1.68132
1.67644
1.66666
1.66666
1.68621
1.67155
1.66177
1.66177
1.66666
1.67644
1.66177
1.66177
1.69110
1.67155
1.65689
1.65689
1.65689
1.65689
1.64711
1.64222
1.64222
1.65689
1.63245
1.62756
1.62756
1.63245
1.62267
1.63245
1.63245
1.61779
1.60312
1.60312
1.60312
1.63245
1.60312
1.59335
1.59824
1.60312
1.59335
1.58846
1.58846
1.59335
1.61779
1.57869
1.57869
1.57869
1.57869
1.56891
1.56402
1.57380
1.56891
1.56402
1.56891
1.57869
1.61290
1.58846
1.60801
1.62267
1.64222
1.63245
1.64222
1.65200
1.65200
1.64222
1.64711
1.65200
1.65200
1.64222
1.64222
1.64222
1.64711
1.65200
1.62756
1.63245
1.63245
1.62267
1.62267
1.62756
1.63734
1.65689
1.63245
1.63245
1.64222
1.63734
1.63734
1.64711
1.65200
1.64222
1.63734
1.63734
1.64222
1.63245
1.65689
1.64711
1.63245
1.62756
1.61779
1.61779
1.62756
1.62267
1.61779
1.61779
1.64711
1.61290
1.60312
1.60312
1.60801
1.60801
1.59824
1.60312
1.60312
1.60312
1.59824
1.59335
1.60312
1.59335
1.58357
1.58846
1.59335
1.59824
1.62267
1.60801
1.62267
1.63734
1.63734
1.65200
1.66666
1.67644
1.67155
1.67155
1.67644
1.68621
1.67155
1.67644
1.67644
1.68621
1.67155
1.66666
1.70087
1.68132
1.67644
1.65689
1.65689
1.65689
1.65200
1.65200
1.65689
1.65689
1.65200
1.65200
1.66177
1.66666
1.68132
1.66666
1.67155
1.67155
1.65200
1.64711
1.64711
1.65200
1.64222
1.63734
1.63734
1.64711
1.66177
1.62267
1.62756
1.63245
1.62756
1.61779
1.61779
1.62267
1.63245
1.60801
1.60801
1.61290
1.60801
1.60801
1.62267
1.60801
1.60801
1.60312
1.60312
1.60312
1.60801
1.59335
1.59335
1.59335
1.59335
1.58846
1.59335
1.60312
1.61779
1.62267
1.64222
1.66177
1.66177
1.66177
1.66666
1.67644
1.68621
1.67644
1.68132
1.68621
1.68621
1.67644
1.67644
1.67644
1.68132
1.67644
1.67155
1.67155
1.69599
1.69599
1.66666
1.66666
1.67155
1.66666
1.66177
1.66666
1.67155
1.66666
1.66177
1.66177
1.66666
1.66177
1.65689
1.65689
1.66177
1.65689
1.64711
1.64711
1.65200
1.65200
1.66666
1.66177
1.63734
1.63734
1.62756
1.62756
1.62756
1.62756
1.61779
1.61290
1.61290
1.61779
1.60801
1.60312
1.60801
1.61290
1.59335
1.59335
1.59824
1.59824
1.60801
1.58357
1.58357
1.58846
1.57869
1.57380
1.57869
1.58357
1.57380
1.57380
1.57869
1.59335
1.60801
1.60312
1.61779
1.63245
1.64222
1.64222
1.65200
1.68621
1.65200
1.65200
1.64711
1.65200
1.64711
1.64222
1.65200
1.64711
1.64222
1.63245
1.63245
1.63734
1.63245
1.63245
1.65200
1.62756
1.62756
1.61779
1.62267
1.62756
1.62756
1.61779
1.62267
1.62267
1.62756
1.63734
1.62267
1.62756
1.61779
1.60801
1.60801
1.60801
1.61290
1.59824
1.59824
1.59824
1.61779
1.58846
1.58846
1.58357
1.58846
1.57869
1.57380
1.57380
1.59335
1.57380
1.57380
1.56891
1.57869
1.56402
1.55913
1.55913
1.56891
1.56402
1.55913
1.58357
1.55913
1.55425
1.54936
1.55425
1.58846
1.55913
1.56402
1.57869
1.58846
1.61779
1.62267
1.63245
1.62267
1.62267
1.61779
1.61779
1.62267
1.62756
1.61290
1.61779
1.62267
1.61779
1.61290
1.61779
1.61290
1.61290
1.60312
1.60312
1.63734
1.63734
1.60312
1.61290
1.61779
1.61779
1.61290
1.61779
1.63734
1.63245
1.62267
1.61779
1.62267
1.62756
1.61779
1.63734
1.62267
1.62267
1.61779
1.61290
1.61290
1.61779
1.60312
1.60312
1.60312
1.60801
1.60312
1.59335
1.60312
1.61290
1.60801
1.61779
1.62756
1.60312
1.59824
1.59335
1.59335
1.59824
1.58846
1.58357
1.58846
1.60312
1.62267
1.60801
1.61779
1.63734
1.64711
1.64711
1.65200
1.66666
1.66666
1.66666
1.66666
1.70576
1.67644
1.67644
1.68132
1.67155
1.67155
1.66177
1.65689
1.66177
1.66177
1.64711
1.65200
1.65689
1.65689
1.65689
1.64711
1.65689
1.65689
1.65200
1.65689
1.66177
1.67155
1.65689
1.65200
1.65200
1.66177
1.65200
1.64711
1.65200
1.65200
1.65689
1.65689
1.64711
1.66666
1.63734
1.63245
1.63245
1.63734
1.62756
1.62267
1.62756
1.65200
1.62267
1.61779
1.62267
1.62267
1.61779
1.61290
1.61290
1.62267
1.61779
1.63245
1.60801
1.61290
1.60801
1.60312
1.60801
1.61779
1.62756
1.63734
1.65200
1.68132
1.66177
1.66666
1.67155
1.69110
1.69599
1.71065
1.68621
1.68132
1.69110
1.68132
1.68132
1.68132
1.68132
1.67155
1.67155
1.67155
1.67644
1.66177
1.68621
1.67155
1.67155
1.66177
1.66177
1.69110
1.67644
1.66177
1.66177
1.66666
1.67155
1.68621
1.68132
1.67155
1.67644
1.65689
1.68132
1.66666
1.67644
1.65200
1.64711
1.64711
1.65200
1.64222
1.63245
1.63734
1.64222
1.64222
1.65200
1.65200
1.63245
1.63245
1.62267
1.61779
1.62756
1.64711
1.61290
1.61290
1.61779
1.61779
1.60801
1.60312
1.61290
1.62267
1.59824
1.59824
1.60312
1.60801
1.60312
1.60801
1.62267
1.65689
1.63245
1.64222
1.65689
1.66666
1.65689
1.66666
1.67644
1.68132
1.67155
1.66666
1.67155
1.67644
1.66177
1.66177
1.66666
1.67155
1.66177
1.65200
1.65200
1.65689
1.65200
1.64711
1.64711
1.65689
1.65200
1.64222
1.64711
1.65689
1.65200
1.67155
1.66666
1.68132
1.64711
1.63734
1.63734
1.64222
1.63734
1.62756
1.63245
1.63245
1.63734
1.64711
1.61779
1.62267
1.62267
1.61290
1.61290
1.61290
1.64222
1.60312
1.60312
1.60801
1.60801
1.59335
1.59335
1.61779
1.59824
1.58846
1.59335
1.59335
1.59335
1.60801
1.58357
1.58846
1.58846
1.57869
1.58357
1.58846
1.59824
1.59824
1.63245
1.61779
1.63245
1.62756
1.63245
1.64222
1.65689
1.64222
1.66666
1.64222
1.64711
1.64222
1.63734
1.63734
1.64711
1.66177
1.62756
1.62756
1.63245
1.63245
1.62756
1.62267
1.62756
1.62756
1.62267
1.62267
1.63245
1.62756
1.62756
1.62756
1.63734
1.63245
1.62756
1.62756
1.63245
1.63245
1.62267
1.62267
1.62756
1.63245
1.64222
1.62267
1.62756
1.61779
1.60801
1.60801
1.61290
1.61290
1.62267
1.62756
1.63734
1.61290
1.60312
1.60312
1.60312
1.60801
1.60312
1.60312
1.60312
1.60801
1.59824
1.59824
1.59824
1.60801
1.59824
1.60312
1.61290
1.62756
1.65689
1.64222
1.67644
1.67155
1.66666
1.66177
1.66666
1.67644
1.67155
1.66666
1.66666
1.67644
1.67155
1.66666
1.66666
1.67155
1.66666
1.67155
1.66177
1.66666
1.66177
1.65200
1.65689
1.67155
1.66666
1.66177
1.66177
1.66666
1.67155
1.69110
1.66177
1.66666
1.66666
1.65689
1.68621
1.66177
1.66177
1.65689
1.65200
1.65200
1.65689
1.64711
1.64222
1.64222
1.66177
1.63734
1.63734
1.63734
1.64222
1.63245
1.63245
1.63245
1.63734
1.63245
1.62267
1.63245
1.64222
1.62267
1.62267
1.62267
1.62756
1.62267
1.62267
1.62267
1.64222
1.62756
1.62756
1.63734
1.65689
1.66177
1.68132
1.67155
1.68621
1.69110
1.68621
1.72043
1.70576
1.70576
1.69110
1.68621
1.69599
1.69599
1.68621
1.68621
1.69110
1.68621
1.67644
1.67644
1.69110
1.68132
1.67155
1.68621
1.68132
1.68132
1.67155
1.67644
1.68132
1.68132
1.67644
1.67155
1.68132
1.70576
1.67155
1.66666
1.67155
1.67155
1.66177
1.66177
1.66177
1.66666
1.65200
1.65200
1.65200
1.66177
1.64711
1.65200
1.66177
1.65200
1.64222
1.63734
1.64222
1.65200
1.63734
1.63245
1.63245
1.63734
1.64711
1.65200
1.63245
1.63245
1.62756
1.61779
1.62756
1.64222
1.62267
1.61779
1.62267
1.63734
1.63734
1.63734
1.65200
1.66666
1.67155
1.67155
1.68132
1.69599
1.69110
1.68132
1.68621
1.69110
1.69110
1.68132
1.67644
1.68621
1.71554
1.67644
1.68132
1.68132
1.68132
1.67155
1.66666
1.66666
1.67155
1.66177
1.66177
1.66666
1.67155
1.66177
1.66177
1.66666
1.67644
1.68621
1.65689
1.66177
1.66666
1.65200
1.65200
1.65689
1.65689
1.64711
1.63734
1.64222
1.64711
1.64222
1.62756
1.63245
1.64711
1.63245
1.62267
1.62267
1.62756
1.62267
1.61779
1.61290
1.62756
1.61290
1.60312
1.60312
1.60801
1.62267
1.59824
1.59824
1.60801
1.60312
1.59824
1.60312
1.59335
1.59335
1.58846
1.59824
1.62756
1.61779
1.61779
1.62756
1.63734
1.65200
1.66666
1.65689
1.66177
1.65689
1.65200
1.68132
1.66177
1.66666
1.64711
1.65200
1.64222
1.64711
1.64222
1.63734
1.63734
1.66177
1.65200
1.63245
1.63734
1.64222
1.63734
1.63734
1.63734
1.64711
1.64222
1.64222
1.64222
1.65200
1.64222
1.63734
1.63734
1.64222
1.64222
1.63245
1.63245
1.64222
1.63734
1.63734
1.63245
1.64222
1.62756
1.61779
1.62267
1.62756
1.62756
1.61290
1.62267
1.62756
1.64711
1.61779
1.61779
1.62267
1.62267
1.61290
1.61779
1.61779
1.62756
1.60801
1.61290
1.62267
1.62756
1.62756
1.63734
1.64711
1.66177
1.66177
1.66666
1.67644
1.71065
1.70576
1.68621
1.69110
1.71065
1.68132
1.70087
1.68132
1.70087
1.70576
1.68132
1.67155
1.67155
1.66666
1.66177
1.66666
1.67155
1.66666
1.66177
1.66666
1.67155
1.68132
1.66666
1.66666
1.67644
1.67155
1.66177
1.66666
1.67155
1.67155
1.66666
1.66177
1.66177
1.67644
1.65200
1.66666
1.67644
1.65200
1.64222
1.64222
1.64711
1.64711
1.63245
1.64222
1.64711
1.64222
1.62756
1.62756
1.63245
1.64222
1.62267
1.62267
1.62756
1.62756
1.62267
1.63245
1.62267
1.62756
1.61779
1.62267
1.63245
1.63734
1.63734
1.64711
1.65689
1.67644
1.67644
1.67644
1.68621
1.70087
1.70576
1.70087
1.69110
1.70087
1.70576
1.69110
1.69110
1.70087
1.69599
1.69110
1.68621
1.69110
1.68621
1.68132
1.67644
1.68621
1.68132
1.68132
1.68132
1.68621
1.68621
1.68132
1.68132
1.69110
1.68621
1.67644
1.68132
1.68621
1.68621
1.67644
1.67155
1.67155
1.67155
1.66666
1.66666
1.67155
1.66177
1.65200
1.65200
1.65689
1.66177
1.65200
1.65689
1.65689
1.65200
1.64222
1.63734
1.64222
1.64711
1.63734
1.63245
1.63734
1.64711
1.63245
1.62756
1.63245
1.63734
1.62756
1.62756
1.64222
1.63734
1.63734
1.64711
1.65689
1.67644
1.69599
1.67644
1.69110
1.70087
1.70087
1.70087
1.70576
1.71065
1.70576
1.69599
1.69599
1.72043
1.69599
1.69110
1.69599
1.69110
1.69110
1.67644
1.68132
1.68621
1.68621
1.67155
1.67644
1.68132
1.68132
1.67644
1.67644
1.68621
1.68621
1.67155
1.67155
1.67644
1.67644
1.66666
1.66666
1.66666
1.67155
1.66666
1.68132
1.68621
1.65689
1.64711
1.64711
1.64711
1.64711
1.64711
1.63245
1.63245
1.64222
1.62756
1.62756
1.64711
1.63245
1.62267
1.61779
1.62267
1.63734
1.61779
1.61290
1.61290
1.61290
1.62756
1.60801
1.60312
1.60312
1.60312
1.62267
1.59824
1.60312
1.60312
1.60801
1.61779
1.63245
1.66177
1.64222
1.65200
1.66177
1.66177
1.66177
1.66177
1.68132
1.67155
1.66666
1.66177
1.66666
1.66666
1.65689
1.65200
1.66177
1.66177
1.64711
1.64711
1.64711
1.64711
1.64222
1.67155
1.64711
1.65200
1.64711
1.64711
1.65200
1.65689
1.65200
1.65200
1.65200
1.65200
1.64222
1.63734
1.63734
1.64222
1.63245
1.63245
1.63245
1.65689
1.62756
1.62267
1.61779
1.62756
1.62756
1.62267
1.62756
1.62267
1.61290
1.60801
1.61290
1.63245
1.60801
1.60312
1.60312
1.62756
1.60801
1.59824
1.59824
1.60312
1.62756
1.59335
1.59824
1.60801
1.61290
1.62267
1.64222
1.64222
1.65200
1.65200
1.66177
1.66666
1.67644
1.66666
1.66666
1.67155
1.67644
1.66177
1.66177
1.66666
1.67155
1.66177
1.68132
1.66666
1.67155
1.65200
1.65200
1.65200
1.65689
1.65200
1.66177
1.66177
1.67155
1.66666
1.65689
1.66177
1.67155
1.66177
1.68132
1.66177
1.66177
1.65689
1.65200
1.65200
1.65689
1.65200
1.64711
1.64711
1.65689
1.67644
1.64222
1.64222
1.64711
1.64222
1.63245
1.63245
1.64222
1.66177
1.62756
1.62756
1.63245
1.63245
1.62267
1.62756
1.63245
1.65689
1.61779
1.61779
1.62267
1.62756
1.62267
1.62756
1.64222
1.66177
1.66666
1.67155
1.68132
1.69110
1.68621
1.69599
1.72043
1.70576
1.69599
1.69599
1.70087
1.70576
1.70087
1.69110
1.69110
1.69599
1.69110
1.68132
1.69599
1.69599
1.68621
1.68132
1.67644
1.68621
1.68132
1.68132
1.68621
1.69110
1.69110
1.68132
1.68621
1.68621
1.68132
1.67644
1.67644
1.68132
1.67644
1.66666
1.66666
1.67155
1.67155
1.66666
1.66177
1.68132
1.65689
1.64711
1.64711
1.65200
1.67644
1.64222
1.64222
1.64222
1.64222
1.63245
1.63245
1.63734
1.64222
1.64711
1.62756
1.62756
1.63245
1.62756
1.62756
1.63734
1.62756
1.61779
1.61779
1.62267
1.63734
1.64711
1.65200
1.66666
1.68621
1.67644
1.68132
1.69110
1.70576
1.69599
1.69599
1.69599
1.71554
1.70087
1.69110
1.69599
1.69599
1.69599
1.69110
1.70087
1.69110
1.68621
1.68621
1.69110
1.68132
1.68621
1.67644
1.68132
1.68132
1.69110
1.68132
1.68132
1.68132
1.69599
1.69599
1.69110
1.71065
1.68132
1.67155
1.66666
1.67155
1.67155
1.66177
1.65689
1.66177
1.65689
1.65689
1.64711
1.65200
1.66177
1.64711
1.64222
1.64222
1.64222
1.63734
1.63245
1.63734
1.64222
1.63245
1.62756
1.63245
1.63245
1.62267
1.61779
1.61779
1.62267
1.63245
1.63734
1.60801
1.61290
1.60801
1.60312
1.60312
1.61290
1.60801
1.60801
1.61779
1.63245
1.64222
1.64222
1.64711
1.66177
1.67155
1.67155
1.66666
1.67644
1.67644
1.66666
1.66666
1.66666
1.66666
1.69110
1.66177
1.66177
1.66177
1.65200
1.65200
1.65200
1.65689
1.65200
1.64711
1.65200
1.65689
1.65689
1.64711
1.65689
1.65689
1.64222
1.64222
1.64711
1.64711
1.64222
1.63734
1.63734
1.63734
1.63245
1.62756
1.62756
1.63245
1.62267
1.61779
1.61779
1.61779
1.60801
1.61290
1.60801
1.61290
1.60312
1.60312
1.62756
1.60312
1.59824
1.59335
1.58846
1.59824
1.58846
1.58357
1.58357
1.59335
1.58846
1.57869
1.57869
1.57869
1.57869
1.56891
1.56891
1.57869
1.58357
1.58357
1.58846
1.60312
1.60312
1.61779
1.61779
1.62267
1.63245
1.62267
1.65689
1.64711
1.65200
1.64222
1.64222
1.63734
1.65200
1.61290
1.60801
1.61290
1.61290
1.60312
1.63245
1.61290
1.61290
1.60312
1.61290
1.61290
1.64222
1.61290
1.63734
1.63734
1.61779
1.61290
1.60801
1.61290
1.61779
1.61290
1.60801
1.62267
1.61290
1.60801
1.60312
1.60801
1.60801
1.60312
1.59824
1.59824
1.60312
1.60312
1.59824
1.59824
1.60801
1.60312
1.59335
1.59824
1.60312
1.60312
1.58846
1.59335
1.59824
1.59335
1.58846
1.58846
1.59335
1.59824
1.59335
1.59335
1.60312
1.60801
1.61290
1.62756
1.65200
1.63734
1.63734
1.64711
1.64711
1.65689
1.64711
1.65200
1.65689
1.66177
1.64711
1.64711
1.64711
1.65200
1.64222
1.63734
1.66666
1.64711
1.64222
1.63245
1.63245
1.64222
1.63734
1.64222
1.63245
1.64222
1.63734
1.63245
1.63245
1.64222
1.64222
1.64222
1.64711
1.63245
1.62756
1.61779
1.61779
1.61290
1.60801
1.59824
1.59335
1.59824
1.59335
1.57869
1.57869
1.58357
1.60312
1.57380
1.57869
1.58357
1.58846
1.57380
1.58357
1.59824
1.58846
1.58357
1.58357
1.58846
1.58846
1.58357
1.58846
1.59824
1.59335
1.58846
1.59335
1.59335
1.60312
1.59824
1.60312
1.60801
1.62756
1.64222
1.64711
1.66666
1.66177
1.65200
1.65200
1.65200
1.66177
1.65200
1.66666
1.65689
1.66177
1.65689
1.64711
1.64711
1.65689
1.65200
1.64222
1.64222
1.68132
1.65200
1.64222
1.64222
1.64711
1.64711
1.63734
1.64222
1.65200
1.65200
1.64222
1.64222
1.64711
1.66177
1.64222
1.63734
1.64222
1.64222
1.63734
1.63245
1.63734
1.65200
1.65689
1.63245
1.62756
1.62756
1.61779
1.61779
1.62267
1.62756
1.62267
1.61290
1.62267
1.64711
1.61290
1.60801
1.61290
1.61779
1.60801
1.60801
1.60801
1.61290
1.60801
1.60312
1.60312
1.60801
1.60312
1.60801
1.62756
1.60312
1.59824
1.58846
1.59335
1.60312
1.61290
1.59824
1.60312
1.61779
1.62267
1.61779
1.62756
1.64222
1.64222
1.64711
1.63734
1.63734
1.63734
1.63245
1.63734
1.63245
1.63245
1.62756
1.62756
1.62756
1.62756
1.63734
1.61779
1.61779
1.62267
1.61779
1.61779
1.61779
1.64711
1.61779
1.64222
1.64222
1.62267
1.60801
1.61290
1.61290
1.61779
1.61290
1.60312
1.60801
1.61779
1.63245
1.60312
1.60312
1.61779
1.59824
1.61779
1.61779
1.60312
1.59335
1.58846
1.59335
1.59335
1.59335
1.59335
1.59335
1.60312
1.58846
1.57869
1.58357
1.58846
1.58357
1.57380
1.57869
1.58357
1.58357
1.56891
1.56891
1.57869
1.57869
1.56891
1.56891
1.57380
1.57869
1.56402
1.56891
1.57869
1.58846
1.58357
1.58846
1.60312
1.61779
1.59824
1.60312
1.60801
1.61290
1.60312
1.60312
1.60312
1.60801
1.59824
1.59824
1.60312
1.60801
1.59824
1.59824
1.59824
1.60312
1.62267
1.62267
1.62756
1.60312
1.59824
1.59824
1.60312
1.60801
1.60801
1.60312
1.60801
1.61290
1.60801
1.60801
1.62267
1.61779
1.61290
1.60312
1.60801
1.61290
1.63734
1.60312
1.60801
1.61290
1.63734
1.60312
1.60312
1.61290
1.61290
1.60312
1.60312
1.61290
1.60801
1.60312
1.60312
1.60801
1.60801
1.60312
1.59824
1.60801
1.60801
1.59824
1.60312
1.60801
1.60801
1.61290
1.61779
1.63734
1.66666
1.64711
1.63734
1.64711
1.65200
1.64711
1.65689
1.65200
1.65689
1.65689
1.64222
1.64711
1.65200
1.64222
1.64222
1.64222
1.64711
1.63734
1.64222
1.64222
1.64711
1.63245
1.63245
1.63245
1.64222
1.63734
1.64222
1.63734
1.64222
1.64222
1.63245
1.63734
1.64711
1.64222
1.63245
1.63245
1.63734
1.64222
1.63245
1.63245
1.63734
1.65200
1.62267
1.62267
1.62756
1.62756
1.61779
1.61779
1.62267
1.62756
1.63245
1.63734
1.65200
1.62267
1.61779
1.61779
1.61779
1.62267
1.60801
1.60801
1.61290
1.63245
1.61290
1.60801
1.61290
1.61779
1.61290
1.60801
1.61779
1.63245
1.62267
1.65689
1.65689
1.65200
1.65200
1.64711
1.65689
1.66177
1.65689
1.65200
1.66177
1.68621
1.68132
1.64222
1.64711
1.65200
1.64711
1.64222
1.64222
1.65200
1.64711
1.63245
1.63734
1.64222
1.64222
1.63245
1.63245
1.64222
1.64222
1.63734
1.63734
1.64222
1.64222
1.63734
1.64222
1.64711
1.64222
1.63245
1.66177
1.65689
1.63734
1.62756
1.62756
1.63245
1.63734
1.62756
1.62756
1.62756
1.63245
1.63245
1.63245
1.63245
1.63245
1.62267
1.61779
1.62267
1.62756
1.62267
1.61779
1.61779
1.62756
1.64711
1.63734
1.61779
1.62756
1.61779
1.61779
1.61779
1.62267
1.62267
1.61290
1.61779
1.62756
1.63245
1.64222
1.64711
1.65689
1.65200
1.65200
1.66177
1.67155
1.66666
1.65200
1.65689
1.66177
1.65689
1.64711
1.64711
1.66177
1.66666
1.64711
1.64222
1.64222
1.64711
1.66666
1.64222
1.64222
1.67155
1.66177
1.64711
1.64711
1.67155
1.63245
1.65689
1.65689
1.64222
1.63245
1.63245
1.63734
1.64222
1.63245
1.62756
1.62756
1.64222
1.65200
1.65200
1.65689
1.63245
1.62267
1.61779
1.61779
1.61779
1.62756
1.61779
1.61779
1.64711
1.61779
1.60801
1.61290
1.61779
1.61290
1.60801
1.60801
1.61290
1.61779
1.60312
1.60312
1.60801
1.60801
1.59824
1.59824
1.59824
1.60801
1.60801
1.61290
1.63734
1.61779
1.61290
1.62267
1.62756
1.62756
1.62267
1.61779
1.61779
1.63245
1.64222
1.63734
1.64222
1.62756
1.62267
1.62267
1.62756
1.63245
1.62756
1.63734
1.62756
1.63245
1.62267
1.62267
1.63245
1.63245
1.62267
1.61779
1.62267
1.62756
1.62267
1.61779
1.62267
1.62756
1.62756
1.61779
1.61779
1.62267
1.62267
1.61779
1.61779
1.62267
1.61779
1.60801
1.60801
1.61779
1.62267
1.63245
1.60801
1.61290
1.60801
1.59824
1.59824
1.60312
1.60312
1.59824
1.59824
1.59824
1.60312
1.59335
1.59824
1.59824
1.60312
1.60312
1.59824
1.59824
1.60312
1.60312
1.62267
1.60312
1.61779
1.61290
1.61779
1.62756
1.63734
1.63245
1.63245
1.63734
1.65200
1.64711
1.63734
1.63734
1.64222
1.63245
1.63245
1.63245
1.63734
1.62756
1.62267
1.63245
1.63245
1.63245
1.62756
1.62756
1.63245
1.63245
1.62756
1.63245
1.63734
1.63734
1.65689
1.62756
1.63734
1.63734
1.62756
1.63734
1.63734
1.63245
1.62756
1.64711
1.63734
1.63245
1.62756
1.62267
1.62756
1.62756
1.62267
1.62756
1.62756
1.63245
1.62267
1.62267
1.62756
1.63245
1.62267
1.62756
1.62756
1.63245
1.63245
1.62756
1.65200
1.64711
1.62267
1.62267
1.62756
1.63734
1.63245
1.63734
1.64711
1.65689
1.66177
1.68132
1.66666
1.67644
1.67644
1.67155
1.67155
1.68621
1.68621
1.67155
1.66666
1.67155
1.66666
1.66666
1.67155
1.66666
1.66666
1.65689
1.65689
1.66177
1.65689
1.65689
1.67644
1.67155
1.66177
1.65689
1.68132
1.66177
1.66666
1.65689
1.66177
1.69599
1.66666
1.65689
1.65689
1.65689
1.66177
1.65200
1.65200
1.65689
1.65689
1.65200
1.65200
1.65200
1.65689
1.64711
1.64711
1.65200
1.65200
1.64222
1.64222
1.64711
1.65200
1.64711
1.64222
1.64222
1.65200
1.66666
1.65689
1.65689
1.65200
1.64222
1.63734
1.65200
1.64711
1.64222
1.63734
1.64222
1.65689
1.66177
1.66177
1.67155
1.68132
1.68621
1.69599
1.68132
1.69110
1.69110
1.68132
1.68621
1.69110
1.68621
1.68132
1.67644
1.71065
1.69110
1.67155
1.67644
1.67644
1.67644
1.69110
1.66666
1.67155
1.67644
1.66666
1.67155
1.67644
1.68132
1.67644
1.67155
1.67644
1.67644
1.67155
1.67155
1.67155
1.67644
1.66666
1.66666
1.66666
1.66666
1.66666
1.66177
1.66177
1.66666
1.67644
1.67155
1.66666
1.68132
1.65689
1.65200
1.65200
1.65689
1.65689
1.65200
1.65200
1.65689
1.65200
1.65200
1.65200
1.65689
1.65200
1.64711
1.64711
1.65200
1.65200
1.64222
1.64222
1.64711
1.65200
1.65689
1.64222
1.64711
1.66177
1.66177
1.66177
1.66666
1.66177
1.66177
1.68132
1.68132
1.68621
1.67644
1.68132
1.71065
1.72531
1.71065
1.68621
1.68621
1.69110
1.68132
1.69110
1.68132
1.68621
1.67644
1.69599
1.67155
1.67644
1.67644
1.68132
1.67155
1.67644
1.67155
1.67155
1.69599
1.68132
1.69110
1.68132
1.67644
1.69599
1.67155
1.66666
1.69110
1.69599
1.67644
1.68621
1.66666
1.68132
1.66177
1.65689
1.65689
1.65689
1.65689
1.64711
1.64711
1.65200
1.65200
1.64222
1.64222
1.64711
1.64711
1.64222
1.63245
1.64222
1.64711
1.65200
1.63734
1.65689
1.66666
1.63245
1.62756
1.62756
1.63734
1.62756
1.62267
1.62267
1.63245
1.62267
1.61779
1.61779
1.62756
1.62267
1.62267
1.63245
1.64711
1.64222
1.65200
1.66177
1.66666
1.66666
1.66177
1.67644
1.67155
1.66666
1.66177
1.65689
1.66177
1.66177
1.66666
1.65200
1.65689
1.65689
1.64711
1.66177
1.65200
1.65200
1.64711
1.64711
1.65200
1.65689
1.65200
1.65689
1.66177
1.65689
1.65200
1.66666
1.66177
1.65689
1.65200
1.65689
1.65200
1.65689
1.65200
1.65200
1.65689
1.66177
1.65689
1.64711
1.65200
1.65200
1.65689
1.65200
1.65200
1.66177
1.64222
1.64222
1.64222
1.64711
1.64711
1.63734
1.64711
1.64711
1.64711
1.64222
1.64222
1.64711
1.64222
1.64222
1.64222
1.64711
1.65200
1.64711
1.64711
1.66177
1.67155
1.66666
1.67644
1.68621
1.69110
1.69110
1.72043
1.71065
1.70576
1.69599
1.69599
1.69599
1.70087
1.69599
1.69599
1.72531
1.70087
1.69110
1.68621
1.68621
1.69110
1.71065
1.68132
1.68621
1.69110
1.68621
1.70087
1.68621
1.69599
1.69110
1.69110
1.68621
1.69110
1.68621
1.68132
1.68132
1.69110
1.68132
1.67644
1.68132
1.68621
1.67644
1.67644
1.69110
1.67644
1.67644
1.66666
1.66666
1.67155
1.66666
1.66177
1.66177
1.66666
1.66177
1.65689
1.65689
1.66666
1.66177
1.65200
1.65200
1.66177
1.67644
1.65200
1.68132
1.66177
1.66177
1.65200
1.65200
1.65200
1.65689
1.65200
1.65200
1.66177
1.67644
1.68621
1.68621
1.69599
1.70087
1.70576
1.71065
1.71554
1.72531
1.71554
1.74486
1.72043
1.72531
1.72043
1.72043
1.72043
1.73020
1.72531
1.73020
1.72531
1.73020
1.72531
1.74486
1.72043
1.72531
1.72531
1.71554
1.74486
1.73998
1.73020
1.72531
1.72531
1.73020
1.75464
1.72043
1.72043
1.72043
1.72043
1.71065
1.71065
1.71065
1.70576
1.69599
1.69110
1.69110
1.69110
1.68132
1.68132
1.68132
1.70087
1.66666
1.66177
1.66666
1.66666
1.65689
1.65200
1.65689
1.65689
1.64711
1.64711
1.64711
1.65200
1.64711
1.66666
1.64222
1.64711
1.64222
1.63245
1.64222
1.66177
1.63734
1.63245
1.63734
1.64222
1.63734
1.63245
1.65689
1.63734
1.63245
1.62756
1.63734
1.65689
1.65689
1.65689
1.66666
1.68132
1.68132
1.68132
1.68132
1.68621
1.69599
1.68621
1.67644
1.68132
1.68132
1.67155
1.67644
1.67644
1.67644
1.66666
1.66666
1.66666
1.66177
1.66177
1.65689
1.66666
1.66666
1.66177
1.66177
1.68132
1.66177
1.65200
1.65200
1.65689
1.65689
1.65200
1.65200
1.65200
1.65200
1.64711
1.64222
1.64222
1.64711
1.64222
1.63245
1.63245
1.64222
1.63734
1.63734
1.65689
1.63245
1.62756
1.62267
1.62267
1.62756
1.61779
1.61290
1.61290
1.62267
1.62756
1.63734
1.64222
1.61290
1.61290
1.60801
1.60801
1.61290
1.61290
1.60312
1.60801
1.61290
1.63245
1.59824
1.59824
1.60312
1.60312
1.60801
1.60312
1.61290
1.63245
1.61779
1.62756
1.63734
1.64711
1.63734
1.64222
1.64711
1.65689
1.64222
1.63734
1.63734
1.64222
1.66177
1.63245
1.63245
1.63734
1.62756
1.62756
1.62756
1.63245
1.62756
1.62267
1.62756
1.63245
1.63245
1.62756
1.63245
1.64222
1.63734
1.63245
1.63734
1.64222
1.64222
1.63245
1.63245
1.64711
1.64222
1.65689
1.63734
1.64222
1.63245
1.62756
1.64711
1.65689
1.63245
1.62756
1.62267
1.62756
1.62756
1.62267
1.62267
1.62756
1.62756
1.61779
1.62267
1.62756
1.62756
1.62267
1.62267
1.62756
1.62756
1.62756
1.62267
1.62267
1.62756
1.62756
1.62267
1.62756
1.64222
1.65200
1.65200
1.66177
1.69599
1.68621
1.67155
1.67644
1.68132
1.67644
1.67155
1.67644
1.68132
1.67644
1.66177
1.66666
1.67155
1.66666
1.65689
1.67155
1.66177
1.66177
1.65689
1.65689
1.66177
1.65689
1.65689
1.65689
1.65689
1.67155
1.68132
1.66666
1.66666
1.66666
1.65689
1.67644
1.66177
1.66177
1.65200
1.65200
1.65689
1.65689
1.64711
1.64711
1.65200
1.65689
1.64711
1.64711
1.64711
1.64711
1.64222
1.64222
1.64222
1.65200
1.67155
1.65689
1.65689
1.66666
1.63734
1.63734
1.64222
1.64711
1.64222
1.63245
1.63734
1.64222
1.63734
1.63734
1.63734
1.65200
1.63734
1.63245
1.63245
1.63734
1.63734
1.64222
1.65200
1.66666
1.69599
1.67155
1.67644
1.68621
1.68621
1.68132
1.68132
1.68621
1.69599
1.68621
1.68132
1.68132
1.67644
1.67155
1.67155
1.67155
1.70087
1.67155
1.66177
1.66666
1.67155
1.68132
1.68621
1.68132
1.66666
1.66177
1.66177
1.66666
1.66666
1.66666
1.66177
1.66666
1.66666
1.65689
1.65689
1.65689
1.66666
1.65200
1.64711
1.65200
1.65689
1.64711
1.64222
1.64711
1.67644
1.64222
1.64222
1.64222
1.65200
1.64222
1.64222
1.64711
1.67155
1.64222
1.63245
1.63734
1.64222
1.64222
1.63245
1.63245
1.65200
1.63734
1.63245
1.62756
1.63734
1.63245
1.63245
1.64222
1.65689
1.63734
1.62756
1.62756
1.62756
1.65200
1.63734
1.64711
1.65689
1.66666
1.65689
1.66666
1.67155
1.67644
1.66666
1.69110
1.67644
1.69599
1.66177
1.66177
1.66177
1.66177
1.65689
1.64711
1.65200
1.66666
1.64711
1.64222
1.64222
1.65200
1.64222
1.64222
1.64222
1.67644
1.64222
1.63734
1.64222
1.64711
1.64711
1.66666
1.66666
1.64222
1.63734
1.62756
1.62756
1.63245
1.64222
1.62267
1.62267
1.62756
1.63245
1.62756
1.64711
1.62756
1.63245
1.62267
1.63245
1.65689
1.62756
1.61779
1.61779
1.62267
1.62756
1.60801
1.60801
1.60801
1.61290
1.60312
1.63245
1.63245
1.60801
1.60312
1.60312
1.60312
1.61779
1.60312
1.60312
1.60312
1.61290
1.61779
1.62756
1.62756
1.63734
1.63734
1.64222
1.64711
1.68621
1.67644
1.66666
1.64711
1.65200
1.64711
1.63734
1.63734
1.64222
1.64222
1.65200
1.63734
1.64222
1.63734
1.62267
1.62756
1.63245
1.63245
1.64711
1.64222
1.64711
1.63734
1.62756
1.63245
1.63734
1.64222
1.63245
1.63734
1.65689
1.63734
1.62756
1.63245
1.63734
1.63734
1.62756
1.62267
1.63734
1.60312
1.58846
1.57869
1.57380
1.57380
1.55913
1.54936
1.54447
1.54936
1.53958
1.52981
1.54447
1.53958
1.52981
1.52492
1.54447
1.53470
1.52981
1.53470
1.54936
1.54447
1.54447
1.55913
1.55913
1.57380
1.57869
1.61290
1.59824
1.61779
1.62267
1.62267
1.63245
1.65689
1.63734
1.63734
1.66177
1.66177
1.67155
1.63734
1.64222
1.64711
1.64711
1.63245
1.64711
1.64222
1.64711
1.64222
1.64222
1.64711
1.65200
1.64711
1.64711
1.65689
1.66666
1.65689
1.68621
1.66666
1.68621
1.67644
1.66177
1.66177
1.66666
1.66177
1.66177
1.66666
1.67155
1.66666
1.66666
1.69110
1.68132
1.68621
1.67644
1.67644
1.68132
1.68132
1.67644
1.67644
1.68621
1.67644
1.67644
1.68132
1.68621
1.68132
1.67644
1.70576
1.70576
1.70087
1.68132
1.68132
1.68621
1.68621
1.67644
1.70576
1.73020
1.71554
1.70576
1.71554
1.72531
1.73020
1.73020
1.72531
1.73020
1.72531
1.72043
1.71554
1.72043
1.72043
1.70576
1.71065
1.71065
1.71065
1.70087
1.71554
1.71554
1.71065
1.69599
1.69599
1.70576
1.71554
1.70576
1.70576
1.71065
1.72043
1.71065
1.71554
1.71065
1.72043
1.71554
1.70576
1.70576
1.71554
1.71065
1.70576
1.71065
1.72043
1.70576
1.70087
1.69599
1.70087
1.70087
1.71554
1.69599
1.69599
1.69599
1.68621
1.68132
1.69110
1.68621
1.67644
1.67644
1.68621
1.68132
1.67155
1.67644
1.69599
1.67644
1.66666
1.66666
1.66666
1.66666
1.66177
1.66666
1.68621
1.66177
1.65689
1.65689
1.67155
1.69599
1.67644
1.68132
1.68621
1.70087
1.72043
1.69110
1.70576
1.70087
1.69110
1.69110
1.69110
1.69110
1.68132
1.67155
1.67155
1.67644
1.67155
1.66177
1.66177
1.66666
1.65689
1.65689
1.65689
1.66177
1.69110
1.65200
1.65200
1.65689
1.66177
1.65200
1.65200
1.65689
1.65689
1.65200
1.65200
1.67644
1.65200
1.63734
1.64711
1.64711
1.65689
1.63734
1.63734
1.64222
1.63734
1.63245
1.62756
1.64222
1.64711
1.63245
1.63245
1.63734
1.64711
1.63245
1.63245
1.63245
1.63734
1.62756
1.62756
1.63245
1.63734
1.62756
1.62756
1.62756
1.63734
1.62756
1.62756
1.62756
1.63245
1.64222
1.65200
1.65689
1.65200
1.65200
1.65689
1.66177
1.67155
1.67155
1.66666
1.66666
1.67644
1.67155
1.66666
1.66666
1.67155
1.66666
1.65689
1.65689
1.67155
1.67644
1.65689
1.65200
1.65689
1.65689
1.68132
1.66666
1.65689
1.66177
1.65689
1.66177
1.66666
1.66666
1.65689
1.66177
1.66177
1.66666
1.68621
1.66177
1.67155
1.66177
1.65200
1.65200
1.65689
1.66177
1.66177
1.66666
1.66177
1.69110
1.65200
1.64711
1.65200
1.65689
1.65689
1.65200
1.66666
1.65200
1.64711
1.64711
1.64222
1.65689
1.64711
1.64222
1.64222
1.64711
1.64711
1.63734
1.64711
1.65689
1.66666
1.66177
1.67155
1.69110
1.70576
1.69599
1.69599
1.70576
1.72043
1.70087
1.69599
1.70087
1.71065
1.71554
1.69110
1.69599
1.70087
1.69599
1.68621
1.68621
1.69110
1.67644
1.68132
1.68132
1.69110
1.68132
1.68621
1.68621
1.69599
1.68621
1.68621
1.69599
1.70087
1.69110
1.68621
1.69110
1.69110
1.70087
1.71065
1.69110
1.72043
1.68132
1.67155
1.67155
1.66177
1.64711
1.63245
1.61779
1.61290
1.59824
1.58357
1.57869
1.58357
1.59824
1.57380
1.57869
1.58846
1.59335
1.62267
1.60312
1.62267
1.65689
1.63245
1.64222
1.68132
1.66666
1.66177
1.67155
1.68132
1.71065
1.68621
1.69599
1.71065
1.72043
1.72531
1.73509
1.74486
1.75953
1.75464
1.74975
1.75464
1.75953
1.77419
1.76441
1.74486
1.74975
1.75953
1.73020
1.72043
1.72043
1.71065
1.70087
1.70087
1.70576
1.69599
1.69110
1.69110
1.69110
1.68132
1.68132
1.68132
1.71554
1.68621
1.68132
1.68621
1.69110
1.68621
1.67644
1.68132
1.69599
1.69110
1.68132
1.68621
1.69110
1.68621
1.68621
1.68621
1.69110
1.68621
1.67644
1.67644
1.68621
1.68132
1.67644
1.67155
1.68132
1.67644
1.66666
1.67155
1.67644
1.68132
1.68132
1.70087
1.71065
1.68621
1.67644
1.67644
1.68132
1.68621
1.67155
1.67155
1.67155
1.67644
1.67644
1.66177
1.66177
1.66666
1.65689
1.65689
1.67155
1.68132
1.69599
1.71065
1.73020
1.74486
1.74486
1.73509
1.72043
1.72043
1.72043
1.71065
1.71065
1.71554
1.71065
1.70087
1.70576
1.70576
1.70087
1.71065
1.69599
1.69599
1.69599
1.68132
1.68132
1.68621
1.69599
1.68132
1.68132
1.68621
1.68621
1.68132
1.68132
1.68132
1.69110
1.67155
1.67155
1.67155
1.67644
1.66177
1.66177
1.66177
1.68621
1.65689
1.65200
1.65200
1.65200
1.65689
1.66666
1.66177
1.64711
1.63734
1.63245
1.63734
1.66666
1.63245
1.62756
1.62756
1.65689
1.62756
1.62267
1.61779
1.63245
1.63734
1.61779
1.61779
1.62267
1.61779
1.61290
1.61290
1.62267
1.61779
1.60801
1.61290
1.63245
1.61779
1.61779
1.63734
1.63734
1.64711
1.65200
1.65689
1.67155
1.67155
1.66666
1.66666
1.67155
1.67644
1.66177
1.66177
1.68621
1.66666
1.65689
1.65689
1.65689
1.66177
1.65200
1.64711
1.64711
1.65200
1.64711
1.64711
1.64711
1.65689
1.65689
1.66666
1.65200
1.65689
1.65200
1.64711
1.64711
1.65200
1.65200
1.67644
1.67155
1.65200
1.64711
1.64222
1.64222
1.67155
1.64222
1.63245
1.63734
1.63734
1.64222
1.63245
1.63734
1.64222
1.65689
1.62756
1.62756
1.63734
1.63245
1.65689
1.62756
1.63245
1.63734
1.62756
1.62756
1.63245
1.63245
1.62267
1.62756
1.63245
1.64222
1.63734
1.65200
1.66177
1.70576
1.67644
1.69110
1.69110
1.71065
1.71065
1.70576
1.70576
1.71554
1.70087
1.70087
1.70576
1.71065
1.70576
1.69599
1.69599
1.70576
1.69599
1.68621
1.70576
1.70087
1.69110
1.69110
1.69110
1.70087
1.70087
1.69599
1.72531
1.72043
1.71065
1.69599
1.69599
1.70087
1.70087
1.69110
1.70087
1.69599
1.69110
1.68132
1.68132
1.68132
1.68621
1.67155
1.67155
1.68132
1.67155
1.65689
1.66177
1.66177
1.69110
1.65689
1.64711
1.64711
1.64711
1.66666
1.63734
1.64222
1.64222
1.64711
1.63245
1.63245
1.63734
1.62267
1.64711
1.62267
1.62756
1.62756
1.63734
1.67155
1.66177
1.66666
1.67644
1.70087
1.69599
1.69599
1.69110
1.69599
1.70576
1.70576
1.69599
1.70087
1.70576
1.70576
1.69599
1.70087
1.70576
1.70087
1.69599
1.72531
1.70576
1.72043
1.70087
1.70087
1.70576
1.71065
1.70087
1.70576
1.71554
1.71554
1.71065
1.71065
1.73509
1.71554
1.70576
1.73020
1.71065
1.71065
1.70087
1.70087
1.70576
1.71554
1.70087
1.71065
1.71065
1.70087
1.69110
1.68621
1.68621
1.69110
1.69110
1.71065
1.68132
1.68621
1.67644
1.67155
1.67155
1.68621
1.67644
1.67155
1.67644
1.68132
1.67155
1.66666
1.66666
1.67155
1.67155
1.67644
1.67155
1.67155
1.66666
1.66666
1.68132
1.70087
1.70576
1.71065
1.72531
1.73998
1.74975
1.74486
1.74975
1.78396
1.75953
1.74975
1.75953
1.78396
1.75953
1.74975
1.75464
1.75464
1.76441
1.74975
1.74975
1.75953
1.75464
1.74975
1.73998
1.73998
1.74486
1.75953
1.74486
1.76441
1.73998
1.73509
1.73020
1.73509
1.73998
1.72531
1.71554
1.71554
1.72531
1.71554
1.72043
1.73509
1.71554
1.70576
1.70087
1.70087
1.71065
1.70087
1.69110
1.69110
1.69599
1.69110
1.68621
1.69110
1.68132
1.68132
1.67644
1.70087
1.67155
1.67155
1.67644
1.66177
1.66666
1.66666
1.65200
1.65200
1.65689
1.65689
1.67644
1.64711
1.65200
1.65200
1.65200
1.64711
1.65200
1.66666
1.66177
1.67155
1.68621
1.70087
1.71554
1.72043
1.71554
1.72531
1.72043
1.74975
1.73998
1.75464
1.74486
1.72043
1.71554
1.72043
1.71554
1.70087
1.69599
1.70576
1.69599
1.68621
1.68621
1.71065
1.68621
1.67644
1.68132
1.69110
1.68621
1.68132
1.69599
1.68621
1.68132
1.67155
1.67155
1.67155
1.69599
1.65689
1.65200
1.65200
1.65200
1.63734
1.63245
1.63245
1.63245
1.62756
1.61779
1.61779
1.61779
1.63734
1.60801
1.60312
1.60801
1.59335
1.59824
1.59824
1.60312
1.58846
1.58846
1.59335
1.59335
1.58357
1.58357
1.58846
1.58846
1.58846
1.57869
1.58357
1.61290
1.59824
1.61290
1.62267
1.64222
1.64711
1.65200
1.66177
1.67155
1.69599
1.67155
1.67644
1.68621
1.67644
1.68132
1.68621
1.69599
1.70087
1.67644
1.67155
1.68132
1.67644
1.66666
1.67155
1.67644
1.67644
1.67155
1.67155
1.70576
1.72043
1.71065
1.70087
1.69599
1.70087
1.69110
1.69110
1.69599
1.69599
1.68621
1.69110
1.69110
1.70087
1.69110
1.68132
1.68621
1.69110
1.67644
1.67644
1.67644
1.68621
1.67644
1.67644
1.67644
1.68132
1.67155
1.66666
1.67155
1.67155
1.68621
1.69110
1.69110
1.66666
1.66177
1.65689
1.65689
1.66177
1.66177
1.66177
1.68132
1.67644
1.68132
1.68621
1.70087
1.73020
1.73020
1.72531
1.72531
1.73509
1.73998
1.73020
1.73509
1.73998
1.73998
1.73020
1.73020
1.73509
1.73509
1.72043
1.72043
1.73998
1.72043
1.71065
1.72043
1.71554
1.72043
1.71065
1.71065
1.71065
1.72531
1.71554
1.71554
1.71554
1.71554
1.70576
1.70576
1.70576
1.71065
1.70087
1.70576
1.69599
1.69599
1.68621
1.68132
1.68132
1.69599
1.68132
1.67644
1.67644
1.68132
1.68132
1.66666
1.67155
1.67644
1.66666
1.67644
1.66177
1.66177
1.66177
1.67644
1.64711
1.65200
1.64711
1.64222
1.64222
1.64222
1.64222
1.63245
1.64222
1.63245
1.63245
1.62756
1.64222
1.64222
1.65200
1.65200
1.67155
1.71554
1.70576
1.70576
1.73509
1.73020
1.73998
1.73509
1.73509
1.73509
1.73998
1.73020
1.73020
1.73020
1.73509
1.73020
1.72043
1.73020
1.73509
1.72531
1.71065
1.71554
1.71554
1.72043
1.70576
1.72531
1.71554
1.71554
1.71065
1.71554
1.72043
1.71554
1.72043
1.71554
1.72531
1.70576
1.69599
1.69599
1.70087
1.69110
1.68621
1.68621
1.70576
1.67644
1.66666
1.66177
1.66177
1.66177
1.66666
1.63734
1.63245
1.63245
1.61290
1.60312
1.60312
1.59824
1.57869
1.57869
1.57869
1.57380
1.56402
1.56891
1.55913
1.55913
1.54447
1.53470
1.52981
1.52003
1.52981
1.49071
1.48582
1.51026
1.49560
1.48582
1.49071
1.50537
1.51515
1.52981
1.54936
1.57380
1.61290
1.59824
1.61290
1.62756
1.64222
1.63245
1.63734
1.64222
1.64222
1.64222
1.64222
1.65200
1.65200
1.64222
1.64222
1.64711
1.64711
1.66666
1.66666
1.64711
1.65200
1.63734
1.64222
1.66177
1.66177
1.66177
1.67155
1.69599
1.71554
1.72043
1.73509
1.74486
1.74975
1.74975
1.75464
1.76441
1.77419
1.76930
1.76930
1.77419
1.77908
1.77908
1.76930
1.77419
1.77419
1.76441
1.75464
1.75953
1.76441
1.75464
1.77908
1.75464
1.75953
1.75953
1.76441
1.76441
1.75464
1.74975
1.74486
1.74975
1.76441
1.75953
1.75953
1.76441
1.77908
1.78885
1.78885
1.79863
1.81818
1.82306
1.82306
1.82306
1.83284
1.83284
1.82306
1.82306
1.82306
1.81329
1.79863
1.81818
1.79863
1.78885
1.76930
1.76441
1.76441
1.75953
1.74486
1.73998
1.73998
1.73998
1.72531
1.72531
1.73020
1.73509
1.72531
1.72043
1.72531
1.72531
1.71065
1.73509
1.71065
1.71065
1.71554
1.69599
1.69110
1.69599
1.68621
1.68621
1.67644
1.69110
1.67155
1.66666
1.66666
1.68621
1.66666
1.65200
1.65200
1.65200
1.64711
1.64222
1.64222
1.64711
1.64222
1.64222
1.63245
1.63734
1.63734
1.62756
1.62267
1.62756
1.62756
1.61779
1.61779
1.62756
1.63245
1.62756
1.63245
1.64711
1.67155
1.66666
1.67644
1.68621
1.72043
1.69599
1.70087
1.70576
1.71065
1.70087
1.69599
1.70087
1.70087
1.69110
1.71065
1.69110
1.69599
1.67644
1.67644
1.67155
1.69599
1.66666
1.66177
1.66666
1.67155
1.66177
1.67644
1.68621
1.67155
1.67155
1.66666
1.66666
1.67644
1.67155
1.66177
1.66666
1.66666
1.66666
1.68621
1.65689
1.66177
1.66177
1.64711
1.65200
1.66177
1.65200
1.63734
1.64222
1.64711
1.64711
1.66177
1.66666
1.64222
1.64222
1.63245
1.62756
1.63245
1.64222
1.63734
1.62267
1.62756
1.63245
1.62267
1.63245
1.64222
1.62756
1.62267
1.62267
1.65200
1.62756
1.61290
1.61290
1.61779
1.65200
1.62756
1.63734
1.65200
1.67644
1.67644
1.68621
1.69599
1.71065
1.71065
1.71065
1.71554
1.71554
1.71554
1.70576
1.70576
1.71554
1.71065
1.73020
1.71554
1.71065
1.72531
1.71065
1.69110
1.68621
1.69110
1.68132
1.68132
1.68621
1.68621
1.68132
1.68132
1.70087
1.69110
1.68132
1.68132
1.68621
1.69110
1.69599
1.67155
1.67644
1.67644
1.65689
1.66177
1.66666
1.69599
1.65200
1.64711
1.65200
1.64711
1.65200
1.65200
1.63734
1.64222
1.63245
1.64711
1.65689
1.62756
1.62267
1.61779
1.64711
1.61779
1.60801
1.60801
1.63245
1.60801
1.60312
1.61290
1.59335
1.59824
1.62267
1.58357
1.58357
1.59335
1.58846
1.58357
1.61779
1.60312
1.60312
1.60801
1.61779
1.63245
1.64222
1.66666
1.64222
1.65200
1.65200
1.64222
1.64711
1.65200
1.65689
1.65689
1.63734
1.64222
1.64222
1.63245
1.62756
1.63245
1.62756
1.62267
1.62267
1.64711
1.62756
1.61779
1.61779
1.63245
1.64711
1.63734
1.63734
1.64222
1.64711
1.64711
1.64222
1.64222
1.68132
1.67155
1.67155
1.64711
1.64711
1.64222
1.64222
1.64222
1.64711
1.64711
1.64222
1.65200
1.65200
1.64222
1.64222
1.63734
1.64711
1.64711
1.63734
1.64222
1.64711
1.67155
1.65200
1.65200
1.64711
1.64711
1.63734
1.64222
1.64711
1.65200
1.66177
1.65689
1.67644
1.69110
1.69599
1.70576
1.72531
1.73998
1.73509
1.73998
1.74486
1.75464
1.74486
1.73998
1.74486
1.74975
1.73998
1.73509
1.73509
1.74486
1.73020
1.74975
1.73020
1.73020
1.72043
1.71554
1.71554
1.72043
1.72531
1.74486
1.72043
1.72531
1.72043
1.72043
1.72043
1.72531
1.73020
1.71065
1.71065
1.71554
1.71065
1.69599
1.69599
1.70087
1.72531
1.68621
1.68132
1.68621
1.69599
1.70087
1.70087
1.67644
1.67644
1.67644
1.66177
1.66666
1.66666
1.66177
1.66177
1.68621
1.66177
1.64711
1.65200
1.66177
1.65689
1.64222
1.64711
1.64222
1.64222
1.64222
1.63245
1.63734
1.65200
1.65200
1.65689
1.67644
1.72043
1.70576
1.71065
1.74975
1.75953
1.75953
1.73998
1.74486
1.74975
1.74975
1.73998
1.73998
1.73998
1.73020
1.73020
1.72531
1.73020
1.72531
1.71554
1.71554
1.71554
1.71554
1.71065
1.71554
1.73998
1.71554
1.70576
1.71065
1.71554
1.72043
1.70576
1.70576
1.70576
1.70576
1.69110
1.70087
1.69599
1.69599
1.68621
1.68132
1.68621
1.71065
1.67155
1.67155
1.67644
1.67155
1.69110
1.65689
1.65689
1.66177
1.65689
1.64711
1.64711
1.65689
1.64222
1.63734
1.64222
1.67155
1.63734
1.62756
1.63245
1.63245
1.62756
1.62756
1.61779
1.61779
1.64711
1.60801
1.60801
1.61290
1.60801
1.60801
1.60312
1.61779
1.63245
1.62756
1.64711
1.66177
1.68621
1.67644
1.68621
1.69599
1.70576
1.69599
1.72043
1.71554
1.71065
1.70087
1.70087
1.69599
1.70087
1.68621
1.68621
1.68621
1.69110
1.67644
1.67155
1.67644
1.68132
1.67644
1.70087
1.67644
1.68132
1.67644
1.67155
1.67155
1.68621
1.69110
1.70087
1.70087
1.67644
1.66666
1.66177
1.66177
1.67644
1.65689
1.64711
1.65200
1.65200
1.64222
1.63734
1.66666
1.63734
1.63245
1.62267
1.62267
1.62756
1.61779
1.60801
1.60801
1.61290
1.60801
1.59824
1.59335
1.60312
1.59824
1.58846
1.58846
1.61779
1.58846
1.58846
1.60312
1.57869
1.58357
1.56891
1.56891
1.57380
1.57869
1.58357
1.60801
1.59824
1.61290
1.61779
1.64711
1.64222
1.65689
1.65200
1.65200
1.66177
1.66666
1.65689
1.65689
1.66177
1.66666
1.65689
1.65689
1.65689
1.68132
1.64711
1.64222
1.65200
1.65689
1.64711
1.64222
1.64222
1.65200
1.65200
1.64711
1.68132
1.66666
1.66666
1.65200
1.65689
1.66666
1.66177
1.65689
1.65689
1.66177
1.65689
1.64711
1.65200
1.65689
1.65200
1.63734
1.63734
1.63734
1.64222
1.63245
1.63245
1.63734
1.63734
1.62267
1.62756
1.63245
1.63245
1.61779
1.61779
1.62267
1.62267
1.64222
1.61779
1.62267
1.62267
1.61290
1.61290
1.63734
1.62267
1.61779
1.62267
1.63734
1.68621
1.66177
1.67155
1.68621
1.70576
1.71065
1.71065
1.71554
1.72531
1.72043
1.71554
1.71554
1.72043
1.72043
1.70576
1.70576
1.71065
1.70576
1.69599
1.69599
1.70087
1.69599
1.68621
1.71065
1.69110
1.69599
1.68621
1.69110
1.69599
1.71065
1.70576
1.70087
1.73509
1.72043
1.73509
1.75464
1.77908
1.80351
1.80351
1.81329
1.81329
1.81818
1.80351
1.79374
1.78885
1.78885
1.76930
1.75953
1.74975
1.74975
1.75953
1.74975
1.71554
1.71065
1.69599
1.68132
1.69599
1.67644
1.67644
1.65200
1.65200
1.65689
1.64711
1.64711
1.64222
1.64222
1.63245
1.65200
1.62756
1.63245
1.63245
1.63245
1.64222
1.65689
1.67155
1.68132
1.70087
1.72043
1.75953
1.73020
1.73998
1.75464
1.77908
1.78885
1.76930
1.76930
1.77419
1.76930
1.77419
1.78396
1.79374
1.78885
1.78396
1.77908
1.78885
1.77419
1.77419
1.77908
1.78396
1.77908
1.77908
1.80840
1.80351
1.78885
1.79374
1.78885
1.78885
1.78396
1.77419
1.77419
1.77419
1.75953
1.74975
1.74975
1.77419
1.73020
1.72043
1.71554
1.71554
1.70087
1.69110
1.69110
1.72043
1.68621
1.68621
1.67644
1.67155
1.66666
1.65200
1.65689
1.64222
1.64222
1.62267
1.63734
1.61779
1.61290
1.60312
1.60801
1.60312
1.59824
1.59335
1.58357
1.58357
1.58357
1.59335
1.57380
1.57380
1.59824
1.56891
1.57380
1.58357
1.59824
1.60801
1.63734
1.63734
1.65200
1.65689
1.69110
1.67155
1.70576
1.67155
1.66666
1.67155
1.67644
1.66666
1.66177
1.66177
1.66666
1.68621
1.65689
1.65689
1.67155
1.68132
1.70087
1.73509
1.72043
1.73509
1.73998
1.74975
1.76441
1.76930
1.77419
1.75953
1.75953
1.75464
1.74486
1.73020
1.73020
1.72531
1.71065
1.70087
1.69599
1.69599
1.68621
1.69110
1.66666
1.65689
1.64222
1.65689
1.63734
1.63734
1.61779
1.61779
1.61779
1.65200
1.62756
1.61290
1.62756
1.63734
1.63734
1.64222
1.64711
1.66177
1.66666
1.65689
1.65689
1.67155
1.65689
1.64711
1.64711
1.65689
1.64222
1.63734
1.64222
1.65200
1.64222
1.64222
1.65200
1.66666
1.66666
1.67644
1.68132
1.69599
1.66177
1.64711
1.63734
1.63734
1.65200
1.61290
1.60312
1.59824
1.59335
1.59824
1.56891
1.56402
1.57380
1.54447
1.56891
1.54447
1.54447
1.52981
1.53470
1.54936
1.54936
1.53470
1.53958
1.54936
1.56891
1.54447
1.55913
1.54936
1.56402
1.54447
1.54936
1.55425
1.54936
1.54447
1.53958
1.53958
1.55913
1.54447
1.54447
1.56402
1.54936
1.54447
1.54447
1.56891
1.54936
1.54447
1.54447
1.57380
1.54936
1.54447
1.56402
1.54936
1.55425
1.55425
1.54447
1.54936
1.55425
1.55425
1.56891
1.56402
1.58357
1.59335
1.60312
1.61779
1.64222
1.65689
1.65689
1.66177
1.67644
1.67644
1.67155
1.67155
1.68132
1.68132
1.67644
1.67155
1.67155
1.67644
1.69599
1.68621
1.66666
1.67644
1.65689
1.66666
1.66177
1.66177
1.66177
1.66177
1.66666
1.67644
1.66666
1.66666
1.69110
1.68132
1.67155
1.69110
1.66666
1.67155
1.66177
1.65689
1.66177
1.66177
1.66666
1.64711
1.67155
1.65200
1.64711
1.63734
1.63734
1.64222
1.64222
1.64711
1.63245
1.63734
1.62756
1.62267
1.62756
1.62756
1.62267
1.61290
1.62267
1.62267
1.61779
1.61290
1.60801
1.61290
1.61779
1.61290
1.62756
1.64222
1.65689
1.68132
1.71065
1.69599
1.71065
1.71065
1.72043
1.72531
1.73020
1.73998
1.72043
1.73020
1.75953
1.72043
1.73998
1.72043
1.73020
1.71554
1.71065
1.71065
1.71065
1.70087
1.69599
1.70087
1.70576
1.69599
1.70087
1.70087
1.72043
1.70576
1.70576
1.70576
1.71554
1.71065
1.70576
1.70087
1.70576
1.69110
1.67644
1.67155
1.67644
1.66666
1.65689
1.65200
1.66177
1.65200
1.63734
1.64222
1.64222
1.63734
1.62756
1.62267
1.65200
1.61779
1.61290
1.62756
1.61290
1.62267
1.59824
1.60312
1.59824
1.60312
1.59335
1.59335
1.59824
1.60312
1.58846
1.58357
1.58846
1.59335
1.58846
1.59824
1.60801
1.63245
1.63734
1.65200
1.66666
1.69110
1.69110
1.70087
1.72043
1.71554
1.71065
1.73998
1.71554
1.72531
1.73509
1.70576
1.70576
1.72043
1.71554
1.71065
1.70576
1.71065
1.71065
1.69599
1.69599
1.70087
1.70087
1.69599
1.70087
1.71065
1.71065
1.70576
1.70576
1.73509
1.72531
1.71065
1.69110
1.70576
1.67155
1.65200
1.64222
1.63734
1.61290
1.57380
1.54936
1.52003
1.50048
1.47605
1.46627
1.45650
1.45650
1.47605
1.45161
1.46138
1.48582
1.47605
1.49071
1.52003
1.53958
1.54447
1.55425
1.59824
1.58357
1.58357
1.58846
1.61290
1.62267
1.60801
1.61779
1.63734
1.64222
1.64711
1.65200
1.66666
1.68621
1.70576
1.73020
1.72043
1.74486
1.76930
1.74486
1.74975
1.75464
1.75464
1.74975
1.74975
1.75464
1.74975
1.73998
1.73998
1.74486
1.73998
1.72531
1.72531
1.73020
1.73998
1.72043
1.72043
1.74486
1.73020
1.72531
1.72531
1.73020
1.73020
1.72043
1.72043
1.72043
1.72531
1.71554
1.71554
1.71554
1.71065
1.70087
1.69599
1.69599
1.69599
1.68621
1.68132
1.67644
1.67644
1.67644
1.68621
1.66666
1.66666
1.66666
1.65689
1.65689
1.66177
1.66177
1.64711
1.64711
1.65200
1.64711
1.63734
1.63734
1.64222
1.63734
1.62756
1.63734
1.64222
1.64711
1.65200
1.67644
1.68621
1.70087
1.70576
1.72043
1.73509
1.73998
1.73509
1.73998
1.73998
1.74486
1.73509
1.73509
1.73509
1.73998
1.72531
1.72043
1.72043
1.72531
1.71065
1.71554
1.70576
1.74486
1.70576
1.70576
1.71065
1.71065
1.71554
1.73998
1.71065
1.71554
1.71065
1.70576
1.70576
1.71554
1.69599
1.69110
1.69110
1.69110
1.70087
1.67644
1.67644
1.67644
1.67155
1.68132
1.69110
1.66177
1.65689
1.65200
1.65689
1.65200
1.65200
1.64711
1.66666
1.64222
1.64222
1.64222
1.63245
1.63734
1.63245
1.62267
1.62267
1.62267
1.61779
1.60801
1.61290
1.61290
1.61290
1.63734
1.61779
1.63245
1.64711
1.65200
1.66666
1.68132
1.70576
1.70576
1.71554
1.72531
1.73509
1.72531
1.72531
1.73020
1.73509
1.73020
1.72043
1.72043
1.72531
1.72043
1.71554
1.71554
1.71554
1.71065
1.70087
1.70087
1.73509
1.70087
1.70576
1.70576
1.71065
1.70576
1.70087
1.70576
1.71065
1.70576
1.72043
1.69599
1.72043
1.69110
1.68132
1.67644
1.68132
1.68132
1.67155
1.66177
1.66666
1.66177
1.64711
1.65200
1.65200
1.65200
1.63245
1.65200
1.63734
1.63245
1.62267
1.63245
1.62267
1.62756
1.61290
1.60801
1.61290
1.61290
1.60312
1.60801
1.59824
1.60312
1.58846
1.58846
1.58357
1.58846
1.58846
1.57380
1.57380
1.57380
1.56402
1.56402
1.55913
1.56402
1.55913
1.56402
1.57380
1.59824
1.61290
1.61779
1.63245
1.65689
1.65689
1.65200
1.65689
1.65689
1.65689
1.63245
1.62756
1.62756
1.61779
1.61290
1.63245
1.63734
1.60312
1.59335
1.58846
1.59335
1.58846
1.57869
1.57869
1.58846
1.58357
1.57869
1.57869
1.58357
1.58846
1.58357
1.58357
1.58846
1.59824
1.59824
1.58357
1.58846
1.58846
1.60312
1.58357
1.58846
1.59335
1.58846
1.60312
1.61779
1.59824
1.59335
1.59824
1.60801
1.61290
1.63734
1.60801
1.64222
1.62756
1.61779
1.62267
1.62756
1.63734
1.62756
1.62756
1.64222
1.64711
1.63734
1.62267
1.62756
1.63734
1.62756
1.62756
1.62756
1.63734
1.63734
1.64222
1.65689
1.69599
1.71065
1.71554
1.71065
1.73020
1.75953
1.73998
1.74486
1.74486
1.74486
1.73509
1.73509
1.73998
1.73998
1.73020
1.72531
1.73998
1.74975
1.74486
1.71065
1.71065
1.71554
1.70087
1.70087
1.70576
1.70576
1.71554
1.71554
1.73509
1.71554
1.70576
1.70576
1.70576
1.71554
1.70087
1.69599
1.69599
1.69599
1.68621
1.68132
1.68132
1.68132
1.67155
1.66666
1.67644
1.66666
1.65689
1.65200
1.65200
1.65689
1.64711
1.64711
1.63734
1.64222
1.64222
1.64711
1.62756
1.63245
1.63734
1.61779
1.61779
1.62756
1.61779
1.61290
1.61290
1.61290
1.61290
1.59824
1.59824
1.61290
1.61779
1.61779
1.64222
1.67644
1.67644
1.67644
1.69110
1.70576
1.71065
1.70576
1.71065
1.71554
1.72043
1.70576
1.70576
1.70576
1.71554
1.70576
1.70087
1.70087
1.70576
1.69599
1.70087
1.69110
1.69110
1.68132
1.68132
1.68132
1.69110
1.68621
1.68132
1.68132
1.69110
1.68621
1.68621
1.70576
1.68132
1.67644
1.66666
1.66666
1.66666
1.68132
1.67644
1.65200
1.65200
1.64711
1.64222
1.64711
1.65200
1.63734
1.62756
1.62267
1.63734
1.62756
1.61290
1.61779
1.61290
1.61290
1.60801
1.60312
1.60312
1.60801
1.59824
1.59335
1.59335
1.62756
1.58846
1.58357
1.60312
1.58846
1.58357
1.57380
1.57380
1.58357
1.56891
1.56402
1.58357
1.57380
1.57869
1.57869
1.59335
1.61779
1.62267
1.63245
1.64711
1.66177
1.67644
1.68132
1.67155
1.69110
1.69110
1.67155
1.66666
1.67155
1.66666
1.66177
1.65689
1.66177
1.66177
1.65200
1.64711
1.65200
1.64711
1.64222
1.63734
1.64222
1.64711
1.63734
1.64222
1.64222
1.65200
1.65689
1.64711
1.65200
1.64222
1.62756
1.62756
1.62756
1.64222
1.61779
1.61779
1.61779
1.62267
1.61290
1.60312
1.60312
1.60801
1.59824
1.61290
1.61779
1.59335
1.58846
1.58846
1.60801
1.58357
1.57869
1.59824
1.57380
1.57869
1.57380
1.56402
1.55913
1.56891
1.56402
1.55425
1.55913
1.56402
1.55913
1.54936
1.54936
1.54936
1.57869
1.53958
1.53958
1.54447
1.53958
1.53958
1.54447
1.55913
1.56402
1.55913
1.57869
1.59335
1.62267
1.60801
1.61779
1.62756
1.63245
1.61779
1.61779
1.62267
1.62756
1.61779
1.62756
1.61290
1.62267
1.60801
1.60801
1.60801
1.61290
1.59824
1.59824
1.59824
1.60312
1.59824
1.58846
1.59824
1.60312
1.63245
1.60312
1.60801
1.61290
1.60312
1.59824
1.59824
1.60801
1.61290
1.61290
1.59824
1.59824
1.59335
1.58846
1.58357
1.60312
1.58846
1.58357
1.58357
1.58846
1.58846
1.60312
1.57869
1.58357
1.58357
1.57869
1.58357
1.58357
1.57869
1.56891
1.57380
1.59824
1.57869
1.57380
1.56891
1.56891
1.57869
1.55913
1.55913
1.56402
1.56402
1.55425
1.55425
1.55913
1.56402
1.55425
1.55425
1.54447
1.52492
1.49071
1.46627
1.44183
1.44183
1.38807
1.36852
1.34897
1.35386
1.31476
1.28543
1.26588
1.25122
1.22189
1.20234
1.16813
1.16324
1.14858
1.14369
1.15347
1.19745
1.18279
1.19745
1.21212
1.23655
1.23655
1.22678
1.23167
1.25122
1.23655
1.22678
1.23655
1.26588
1.24144
1.23655
1.24144
1.25122
1.27077
1.25610
1.26099
1.27565
1.29032
1.29032
1.30498
1.31964
1.33919
1.34408
1.36363
1.38318
1.41251
1.41251
1.42717
1.44183
1.45650
1.47116
1.50537
1.49071
1.51515
1.52492
1.54447
1.57869
1.63734
1.64222
1.67155
1.71065
1.75464
1.78396
1.80840
1.84261
1.88660
1.93548
1.95014
1.95503
1.99902
2.00879
2.00879
1.99413
2.01368
1.99413
1.98435
2.00879
1.98924
1.98435
1.96969
1.99413
1.99413
1.95992
1.96969
1.94037
1.93548
1.94037
1.91104
1.90615
1.90127
1.90127
1.88660
1.91104
1.88660
1.88660
1.87194
1.88172
1.86217
1.86217
1.85239
1.85728
1.84261
1.84261
1.84750
1.82306
1.82795
1.84261
1.82306
1.81329
1.82306
1.82306
1.81329
1.83284
1.80840
1.81329
1.82306
1.79863
1.79374
1.79863
1.78885
1.77419
1.77419
1.76930
1.75953
1.76930
1.73998
1.73998
1.73020
1.72043
1.71065
1.71554
1.70576
1.69110
1.68621
1.68132
1.67155
1.65200
1.63734
1.62756
1.63734
1.59335
1.57869
1.59335
1.57869
1.56891
1.58357
1.58846
1.59335
1.61779
1.58846
1.59335
1.60312
1.58846
1.58846
1.59335
1.59824
1.59824
1.59335
1.59335
1.59824
1.58357
1.57869
1.57869
1.58357
1.57380
1.57380
1.57869
1.58846
1.61290
1.58357
1.58846
1.59824
1.59335
1.59824
1.63245
1.60801
1.60801
1.60312
1.60312
1.61290
1.60801
1.60801
1.61779
1.61779
1.60801
1.60801
1.63245
1.61779
1.61290
1.60801
1.61290
1.62267
1.62267
1.61779
1.61779
1.63245
1.63245
1.63245
1.63245
1.63734
1.66177
1.64222
1.64222
1.64711
1.65689
1.67155
1.67155
1.66177
1.66177
1.65689
1.65689
1.66177
1.66666
1.68621
1.65689
1.66666
1.67644
1.67644
1.68132
1.69110
1.70576
1.70576
1.70576
1.71554
1.72043
1.71065
1.70576
1.71065
1.71554
1.70576
1.70087
1.70576
1.71065
1.70576
1.72043
1.70087
1.70087
1.70576
1.69110
1.69599
1.70087
1.72043
1.69599
1.70087
1.70576
1.73998
1.71065
1.71065
1.71554
1.71554
1.71065
1.71554
1.71554
1.71554
1.73509
1.71554
1.71065
1.71554
1.70087
1.70087
1.71554
1.70576
1.69599
1.69599
1.70087
1.70576
1.70087
1.69599
1.72531
1.70576
1.69599
1.69110
1.69599
1.69599
1.71554
1.71065
1.68132
1.68621
1.68132
1.70087
1.67644
1.67644
1.67155
1.66666
1.66666
1.68132
1.70087
1.68621
1.69599
1.70576
1.70576
1.71065
1.71554
1.72531
1.72043
1.71065
1.71065
1.71065
1.70576
1.69599
1.71554
1.70087
1.69599
1.68621
1.68132
1.68132
1.69599
1.67644
1.67155
1.67644
1.67644
1.66177
1.66666
1.69599
1.67155
1.66177
1.67155
1.67155
1.67644
1.66177
1.66177
1.66177
1.66177
1.67155
1.68132
1.65689
1.65689
1.65200
1.64222
1.65689
1.65689
1.64222
1.63734
1.63734
1.64222
1.67155
1.63245
1.63245
1.64222
1.63734
1.62756
1.64222
1.63734
1.62756
1.62267
1.61779
1.62756
1.62267
1.61779
1.61779
1.62756
1.62267
1.61779
1.64222
1.61779
1.61290
1.60801
1.61290
1.64222
1.62756
1.62756
1.63245
1.66666
1.65689
1.65200
1.65689
1.66666
1.69599
1.66666
1.66177
1.66177
1.66666
1.65200
1.65200
1.65689
1.65689
1.64711
1.64711
1.66666
1.66666
1.63734
1.63734
1.64222
1.64711
1.64711
1.66666
1.64222
1.64711
1.64222
1.64222
1.64222
1.65200
1.64711
1.64222
1.64222
1.64711
1.64222
1.63245
1.63245
1.64222
1.63245
1.62756
1.62756
1.63245
1.63245
1.62267
1.62267
1.62756
1.62267
1.61779
1.61779
1.61779
1.62756
1.63734
1.61290
1.61290
1.61290
1.60801
1.60801
1.63245
1.61290
1.59824
1.59824
1.60312
1.63245
1.59824
1.59824
1.59824
1.60312
1.59335
1.59335
1.59335
1.59824
1.59824
1.61779
1.60312
1.61290
1.61290
1.62756
1.64222
1.67155
1.63734
1.63734
1.64222
1.65200
1.64222
1.63734
1.63734
1.64222
1.63734
1.64711
1.64222
1.64711
1.65689
1.64222
1.63245
1.63245
1.62756
1.63245
1.62756
1.63734
1.64222
1.61779
1.62267
1.62756
1.62756
1.62756
1.62756
1.63245
1.66177
1.62267
1.62267
1.62756
1.62756
1.61779
1.61779
1.63734
1.61779
1.60801
1.60801
1.61290
1.64222
1.60312
1.59824
1.59824
1.60801
1.59335
1.58846
1.58846
1.58357
1.58846
1.56891
1.56891
1.57380
1.59824
1.59824
1.56891
1.57869
1.56891
1.57380
1.60312
1.57869
1.57869
1.57380
1.58357
1.60801
1.57869
1.57869
1.57869
1.58846
1.61779
1.59824
1.60801
1.61779
1.62756
1.62267
1.62267
1.63245
1.61779
1.60312
1.59824
1.59824
1.59335
1.57869
1.56402
1.58357
1.54936
1.52981
1.52981
1.53470
1.53470
1.52981
1.52981
1.53958
1.54447
1.54447
1.55425
1.59335
1.57869
1.57869
1.58846
1.60312
1.60801
1.60312
1.61290
1.61779
1.62267
1.63734
1.62267
1.62267
1.62756
1.62756
1.62267
1.62756
1.63734
1.63245
1.62756
1.63245
1.63734
1.63734
1.62756
1.65689
1.63734
1.63245
1.62756
1.63734
1.63734
1.64711
1.64222
1.62267
1.62756
1.62756
1.61779
1.61290
1.61779
1.62756
1.62267
1.63245
1.67155
1.68132
1.66666
1.66177
1.66177
1.67155
1.66177
1.66177
1.66666
1.67155
1.65689
1.65689
1.65689
1.66177
1.65200
1.64711
1.67155
1.66666
1.66666
1.64222
1.64222
1.64711
1.65200
1.66666
1.66666
1.65200
1.64711
1.64222
1.64711
1.65200
1.67155
1.64222
1.64711
1.65200
1.64711
1.63734
1.64222
1.65200
1.66177
1.63734
1.64222
1.64711
1.64222
1.63245
1.63245
1.64711
1.64222
1.63245
1.63245
1.63734
1.64222
1.63734
1.64222
1.63245
1.63245
1.62756
1.62756
1.63245
1.66177
1.62267
1.62756
1.63734
1.64711
1.64222
1.65200
1.67155
1.67644
1.67155
1.67644
1.68621
1.69110
1.68621
1.68621
1.69110
1.69599
1.68621
1.68132
1.68621
1.69110
1.68621
1.67644
1.68132
1.68621
1.67644
1.70087
1.68132
1.68621
1.68132
1.67155
1.67644
1.68621
1.68621
1.67644
1.68132
1.68621
1.68132
1.67155
1.68132
1.68132
1.71065
1.69110
1.67644
1.69110
1.67644
1.66666
1.66666
1.66666
1.67155
1.66177
1.66666
1.69110
1.66666
1.65200
1.65200
1.65689
1.66666
1.64711
1.64711
1.65200
1.65200
1.64711
1.65689
1.66666
1.64711
1.64222
1.64222
1.64222
1.65689
1.64222
1.64711
1.65689
1.67155
1.67155
1.68132
1.69110
1.71065
1.70576
1.71065
1.70576
1.71065
1.72043
1.70576
1.70087
1.70087
1.70087
1.69599
1.69599
1.70087
1.69599
1.69110
1.69110
1.69599
1.71554
1.68132
1.68621
1.69110
1.69110
1.69110
1.69110
1.70087
1.69599
1.69110
1.69599
1.71065
1.70087
1.68621
1.68621
1.68621
1.69110
1.68132
1.68132
1.68132
1.70576
1.67155
1.67155
1.69599
1.67644
1.66666
1.66666
1.66666
1.67644
1.66177
1.65689
1.66177
1.66666
1.66177
1.65689
1.66666
1.65689
1.65200
1.65200
1.64711
1.65689
1.64711
1.64222
1.64711
1.64711
1.65200
1.63734
1.64222
1.64711
1.64222
1.64222
1.64711
1.66177
1.67644
1.66666
1.67644
1.69110
1.70087
1.69599
1.70087
1.71065
1.71554
1.70576
1.70576
1.71065
1.71065
1.70576
1.70087
1.73020
1.72531
1.72043
1.70087
1.70087
1.70087
1.69110
1.69599
1.69599
1.70087
1.69110
1.71554
1.72531
1.70087
1.69110
1.69599
1.69599
1.70087
1.69599
1.69599
1.69599
1.72043
1.71554
1.68621
1.69110
1.68621
1.68132
1.67155
1.67155
1.68132
1.69110
1.66666
1.66177
1.66666
1.66177
1.66177
1.66177
1.68132
1.65689
1.65200
1.65200
1.65200
1.68132
1.64222
1.64222
1.64711
1.65200
1.66177
1.63734
1.64222
1.63734
1.63245
1.63734
1.64222
1.64222
1.62756
1.62756
1.63245
1.63245
1.61779
1.61779
1.62267
1.65200
1.61779
1.61779
1.62756
1.64711
1.63734
1.64711
1.65689
1.67155
1.67155
1.67155
1.68132
1.69110
1.68132
1.68132
1.68132
1.69110
1.68132
1.68132
1.68132
1.69110
1.67644
1.67155
1.67644
1.68132
1.67155
1.66666
1.69110
1.69599
1.67155
1.67644
1.67155
1.67644
1.67644
1.67155
1.67155
1.68132
1.68132
1.69599
1.66666
1.67155
1.66666
1.65689
1.66177
1.66177
1.67644
1.65200
1.65200
1.65689
1.65689
1.64222
1.64222
1.64711
1.65689
1.63734
1.63734
1.64222
1.64711
1.63245
1.63245
1.66177
1.63734
1.62756
1.61779
1.62267
1.64222
1.62267
1.61779
1.62267
1.62756
1.62267
1.62756
1.63734
1.62267
1.61290
1.61290
1.61290
1.61779
1.61290
1.61290
1.61779
1.63245
1.65689
1.64711
1.65689
1.67155
1.67644
1.67155
1.67644
1.68132
1.68132
1.67155
1.67644
1.67644
1.67644
1.66666
1.67155
1.67644
1.67155
1.66177
1.66177
1.69599
1.69110
1.68132
1.66177
1.66177
1.66666
1.65689
1.66666
1.67155
1.67644
1.68132
1.66177
1.66666
1.67155
1.66177
1.66177
1.67155
1.66666
1.65689
1.65200
1.65689
1.66177
1.67644
1.67155
1.64711
1.65200
1.64711
1.64222
1.64222
1.64711
1.65200
1.65689
1.64711
1.64711
1.63734
1.63245
1.63245
1.64222
1.64222
1.62756
1.62756
1.63245
1.63245
1.62756
1.63734
1.64711
1.62267
1.61779
1.61779
1.62267
1.64222
1.62267
1.62756
1.64222
1.65200
1.65689
1.66666
1.67644
1.68132
1.67155
1.67155
1.67644
1.67644
1.66666
1.66666
1.67155
1.67644
1.66666
1.66666
1.66666
1.66666
1.65689
1.68621
1.66666
1.66666
1.65200
1.65200
1.65689
1.68621
1.65200
1.65200
1.65200
1.65689
1.65689
1.65689
1.65689
1.67155
1.65200
1.64711
1.64711
1.65200
1.64711
1.64222
1.64222
1.64711
1.63734
1.63245
1.63245
1.63734
1.63245
1.63734
1.62756
1.63245
1.62756
1.62267
1.62756
1.63734
1.62267
1.61779
1.61290
1.62267
1.64222
1.61290
1.61290
1.61779
1.61779
1.61290
1.62756
1.60801
1.61290
1.60312
1.60801
1.61779
1.60801
1.59824
1.59824
1.60312
1.60801
1.59824
1.60312
1.60801
1.62267
1.62267
1.63245
1.64222
1.65200
1.64711
1.64711
1.65200
1.66177
1.65200
1.64711
1.65200
1.68621
1.67644
1.64711
1.64222
1.65200
1.64711
1.63734
1.63734
1.65200
1.67155
1.63734
1.63245
1.64711
1.64222
1.62756
1.63245
1.63734
1.63734
1.63734
1.63734
1.64711
1.63734
1.63245
1.62756
1.63734
1.63734
1.62267
1.62756
1.62267
1.63245
1.61779
1.61779
1.61779
1.62267
1.60801
1.61290
1.61779
1.63734
1.60801
1.60801
1.61290
1.61290
1.60801
1.60801
1.60801
1.62267
1.60312
1.59824
1.60312
1.61290
1.61779
1.62756
1.62756
1.60312
1.59824
1.59335
1.58846
1.60312
1.60312
1.60312
1.60312
1.59335
1.58846
1.58357
1.57869
1.59335
1.61290
1.57869
1.57869
1.59335
1.59335
1.61779
1.60312
1.61779
1.62267
1.62267
1.62267
1.63734
1.63734
1.65200
1.62267
1.63245
1.63245
1.62267
1.62267
1.62267
1.62756
1.61779
1.62756
1.61779
1.62267
1.60801
1.61290
1.61779
1.61290
1.60312
1.60312
1.60801
1.61290
1.62267
1.63245
1.62756
1.61290
1.59824
1.59824
1.59824
1.61290
1.62756
1.59824
1.59824
1.60312
1.59824
1.58846
1.59824
1.59824
1.59335
1.58357
1.58846
1.58846
1.60312
1.58357
1.58357
1.58846
1.57869
1.57869
1.58357
1.58846
1.58357
1.57380
1.57869
1.57869
1.58357
1.57869
1.58357
1.59335
1.57869
1.56402
1.56402
1.57869
1.57380
1.56402
1.56891
1.56891
1.57869
1.56402
1.56402
1.56402
1.57380
1.56402
1.56891
1.57869
1.59335
1.58846
1.59335
1.60312
1.61290
1.60801
1.61290
1.61290
1.61290
1.60801
1.60312
1.60312
1.61290
1.60312
1.63245
1.60312
1.60801
1.60312
1.59335
1.59824
1.60801
1.59824
1.59335
1.59824
1.60312
1.61290
1.59824
1.60312
1.61290
1.61290
1.60312
1.60801
1.61779
1.61290
1.60801
1.61290
1.61779
1.61779
1.60312
1.60801
1.61290
1.61290
1.60312
1.63734
1.62267
1.61779
1.61779
1.60801
1.61290
1.61290
1.60801
1.60801
1.61290
1.61779
1.60801
1.61779
1.61779
1.62267
1.60801
1.60801
1.60801
1.61779
1.60801
1.61290
1.61290
1.61779
1.60801
1.60801
1.61290
1.62267
1.62267
1.62756
1.63734
1.64711
1.64711
1.66666
1.65689
1.66177
1.65689
1.64711
1.64711
1.65200
1.67644
1.66177
1.64711
1.65200
1.64711
1.63245
1.63734
1.64222
1.63734
1.62756
1.63245
1.63734
1.63734
1.62267
1.63245
1.64711
1.63734
1.63245
1.63245
1.63734
1.64222
1.63245
1.62756
1.63245
1.64711
1.62267
1.62267
1.62756
1.63245
1.62267
1.62756
1.65200
1.62756
1.61779
1.61779
1.61779
1.62267
1.62267
1.63245
1.61779
1.62267
1.61290
1.61290
1.62267
1.65200
1.61290
1.60801
1.61290
1.62267
1.61290
1.60801
1.61290
1.61779
1.61290
1.60312
1.61290
1.62267
1.61290
1.60312
1.60801
1.61290
1.61290
1.62267
1.60801
1.61779
1.61779
1.61779
1.62756
1.64222
1.64711
1.64222
1.64711
1.65689
1.65689
1.64711
1.64711
1.64711
1.64711
1.63734
1.63734
1.67155
1.65200
1.63734
1.63734
1.63734
1.63734
1.62756
1.62756
1.63245
1.63734
1.62267
1.62267
1.62756
1.64222
1.65200
1.62756
1.63245
1.63734
1.62756
1.62756
1.62756
1.63245
1.65689
1.62267
1.63245
1.63245
1.62756
1.61779
1.62267
1.62756
1.62267
1.61779
1.62267
1.63245
1.62267
1.61779
1.61779
1.62267
1.61779
1.61779
1.61290
1.62267
1.62756
1.60801
1.61290
1.61779
1.61779
1.63734
1.61779
1.64222
1.61779
1.60801
1.60801
1.61290
1.61290
1.60801
1.60801
1.63734
1.61290
1.59824
1.60312
1.60312
1.63734
1.59824
1.59824
1.60312
1.61290
1.64222
1.64222
1.65689
1.63734
1.63245
1.64222
1.64222
1.64711
1.64222
1.63734
1.64222
1.64222
1.65200
1.63245
1.63245
1.63245
1.62756
1.61779
1.62267
1.62756
1.61779
1.61290
1.61779
1.61779
1.62267
1.61779
1.62267
1.63245
1.61779
1.61290
1.61779
1.62267
1.62756
1.63245
1.62267
1.64711
1.61779
1.60801
1.60801
1.61290
1.61290
1.61779
1.62756
1.61290
1.60801
1.60312
1.60312
1.61779
1.60312
1.59335
1.59335
1.59824
1.60312
1.59824
1.60312
1.61290
1.60312
1.59335
1.58846
1.59824
1.62756
1.59335
1.58846
1.59335
1.59824
1.59335
1.59335
1.60801
1.62756
1.58846
1.58846
1.58846
1.59335
1.60801
1.58357
1.58846
1.59824
1.60312
1.61779
1.62756
1.62267
1.62267
1.61779
1.65200
1.63734
1.63734
1.62267
1.61779
1.62267
1.62267
1.61290
1.61779
1.64222
1.64222
1.61779
1.60801
1.61779
1.61779
1.60801
1.61290
1.61290
1.61779
1.63245
1.63734
1.61779
1.64711
1.63734
1.62267
1.62267
1.62756
1.61779
1.61779
1.62756
1.65689
1.64711
1.62267
1.62267
1.62756
1.62267
1.61779
1.61779
1.62756
1.61779
1.61779
1.62756
1.62756
1.62267
1.61779
1.61779
1.62756
1.62267
1.64711
1.62267
1.62756
1.62267
1.61779
1.62267
1.62756
1.62756
1.64711
1.62267
1.62756
1.62756
1.62267
1.62267
1.63245
1.65689
1.63734
1.64222
1.65689
1.65689
1.65689
1.66177
1.66666
1.67155
1.66177
1.65689
1.66177
1.66177
1.65200
1.65200
1.65200
1.65689
1.66177
1.64222
1.64711
1.65200
1.63734
1.64222
1.67155
1.65200
1.64222
1.64222
1.64222
1.65689
1.67155
1.64222
1.65200
1.65689
1.64711
1.64711
1.64711
1.65200
1.67644
1.65689
1.64222
1.64711
1.64222
1.63245
1.63245
1.64711
1.65689
1.65200
1.63734
1.64222
1.63734
1.62756
1.63245
1.63734
1.63245
1.63734
1.64222
1.66666
1.63245
1.62756
1.62756
1.63734
1.64222
1.62756
1.62756
1.63245
1.63245
1.62267
1.62756
1.63245
1.63245
1.62267
1.62267
1.62756
1.63245
1.62756
1.63245
1.64711
1.66666
1.65200
1.65200
1.66666
1.67155
1.66177
1.66177
1.66666
1.66666
1.65689
1.65200
1.65200
1.65689
1.64711
1.64711
1.64711
1.65200
1.64222
1.64711
1.65200
1.64711
1.64222
1.63734
1.63734
1.64222
1.64222
1.64222
1.66666
1.64711
1.64711
1.63734
1.64222
1.64222
1.65200
1.65689
1.63245
1.63734
1.63734
1.62756
1.62756
1.63734
1.64222
1.62756
1.62756
1.63245
1.63245
1.62267
1.62756
1.62756
1.64711
1.62267
1.62756
1.62756
1.63245
1.62267
1.62267
1.62756
1.63245
1.64711
1.63245
1.62756
1.63245
1.62267
1.62267
1.62756
1.63245
1.61779
1.61779
1.62267
1.62756
1.64711
1.62267
1.62267
1.62756
1.61779
1.61779
1.62756
1.64222
1.66666
1.64711
1.65689
1.66177
1.66177
1.65689
1.66177
1.66666
1.66177
1.67644
1.65689
1.68132
1.67644
1.67155
1.65200
1.64711
1.64222
1.63734
1.63734
1.64222
1.63734
1.63245
1.63245
1.63734
1.64711
1.63245
1.63245
1.63734
1.64222
1.63734
1.64711
1.66666
1.64222
1.63245
1.63245
1.63734
1.64222
1.62756
1.62756
1.62756
1.63245
1.62267
1.62267
1.64222
1.62756
1.61779
1.62267
1.62267
1.65200
1.62267
1.61779
1.61779
1.62267
1.64222
1.64222
1.61779
1.62267
1.61290
1.61779
1.61779
1.63245
1.61779
1.61290
1.61779
1.61779
1.61290
1.61779
1.62756
1.61779
1.61290
1.60312
1.60312
1.61779
1.60801
1.60312
1.60801
1.61779
1.62267
1.62756
1.63734
1.64711
1.64711
1.64222
1.63734
1.64711
1.64711
1.63734
1.63245
1.66177
1.65689
1.62756
1.62756
1.62756
1.62756
1.61779
1.61779
1.61779
1.62756
1.61290
1.61290
1.61290
1.61779
1.60801
1.61290
1.61779
1.63245
1.61779
1.61290
1.61779
1.62756
1.62267
1.62267
1.62267
1.61779
1.60801
1.61290
1.61779
1.64711
1.61290
1.61290
1.61290
1.62267
1.62267
1.63734
1.64222
1.61779
1.61779
1.61290
1.62267
1.64222
1.62267
1.61290
1.61779
1.62756
1.63245
1.61779
1.61779
1.62756
1.62267
1.62267
1.62267
1.62756
1.62756
1.61779
1.62756
1.63245
1.64222
1.64222
1.67644
1.66177
1.66666
1.66666
1.66177
1.66666
1.67155
1.66177
1.66177
1.66666
1.67155
1.65689
1.65689
1.66177
1.66177
1.65200
1.64711
1.65689
1.65689
1.65200
1.64222
1.64711
1.66177
1.65200
1.64711
1.65200
1.65689
1.65689
1.65200
1.66177
1.66666
1.66177
1.65200
1.65200
1.65689
1.65689
1.65200
1.65200
1.65689
1.65200
1.64711
1.64711
1.65200
1.65200
1.64222
1.64711
1.65689
1.65200
1.64222
1.64222
1.64711
1.64711
1.64222
1.64222
1.65200
1.67644
1.64222
1.63734
1.64222
1.64711
1.64222
1.64222
1.64222
1.65200
1.65689
1.66177
1.66666
1.64711
1.64222
1.64711
1.65689
1.67155
1.67155
1.67644
1.68132
1.69110
1.68621
1.68132
1.69110
1.69110
1.68132
1.67155
1.67155
1.67644
1.66666
1.66177
1.66666
1.67155
1.66177
1.67155
1.65689
1.66177
1.66177
1.65200
1.65689
1.66177
1.67155
1.67644
1.66177
1.66666
1.66666
1.65689
1.65689
1.66666
1.66177
1.66177
1.66666
1.68621
1.65689
1.65200
1.65200
1.65689
1.65689
1.65200
1.65200
1.66666
1.65200
1.64222
1.64222
1.64711
1.64711
1.64222
1.64711
1.64711
1.67644
1.63734
1.63734
1.64222
1.64711
1.63245
1.63245
1.63734
1.63734
1.63245
1.63245
1.63245
1.66666
1.63245
1.63245
1.63734
1.64711
1.63734
1.63734
1.63734
1.65200
1.65689
1.66177
1.70087
1.70576
1.71065
1.70087
1.69110
1.70087
1.70576
1.70576
1.67644
1.67644
1.67155
1.66666
1.66666
1.67155
1.66666
1.65689
1.65689
1.69110
1.66177
1.65689
1.65689
1.65689
1.66177
1.65200
1.65689
1.67644
1.66177
1.65200
1.65200
1.65689
1.66666
1.65200
1.65200
1.65689
1.65689
1.64711
1.65200
1.66177
1.65200
1.64222
1.64222
1.64222
1.65200
1.64222
1.63734
1.64222
1.64711
1.64222
1.63734
1.63734
1.64711
1.63245
1.63245
1.63245
1.64222
1.65200
1.62756
1.63245
1.63734
1.63245
1.62756
1.64222
1.63245
1.63245
1.62267
1.62756
1.63245
1.63734
1.62267
1.62267
1.62756
1.62756
1.64711
1.62267
1.63245
1.63734
1.64222
1.64711
1.66177
1.67155
1.66666
1.66666
1.67155
1.67644
1.66666
1.66177
1.66177
1.66177
1.65200
1.66177
1.65689
1.66177
1.65200
1.64711
1.64711
1.65200
1.63734
1.63734
1.64222
1.64711
1.64222
1.64222
1.64711
1.68132
1.64711
1.64711
1.64711
1.66177
1.64711
1.64222
1.64222
1.65200
1.64222
1.64222
1.64222
1.65200
1.66666
1.63245
1.63245
1.64222
1.63734
1.62756
1.63245
1.64222
1.66177
1.62756
1.63245
1.63734
1.63245
1.62756
1.63245
1.65689
1.63245
1.62756
1.62756
1.63734
1.63245
1.62756
1.62756
1.63734
1.65200
1.62756
1.62756
1.63245
1.63734
1.63245
1.64222
1.65200
1.68621
1.65689
1.66666
1.67644
1.68621
1.68132
1.68621
1.69110
1.71065
1.71065
1.70087
1.70087
1.70576
1.70087
1.68132
1.68132
1.68621
1.67644
1.67155
1.67644
1.68132
1.67155
1.67155
1.67644
1.68621
1.68132
1.70576
1.68132
1.69110
1.69110
1.68132
1.68621
1.69110
1.68621
1.67644
1.69599
1.69110
1.68621
1.68132
1.68132
1.68621
1.67644
1.67155
1.68132
1.68132
1.68621
1.67155
1.67155
1.67644
1.68132
1.67644
1.67644
1.68132
1.70576
1.66666
1.67155
1.67644
1.67644
1.66666
1.66666
1.66666
1.68132
1.68621
1.68621
1.69599
1.67155
1.66666
1.66666
1.67644
1.68621
1.70087
1.69599
1.71554
1.72531
1.72531
1.72531
1.73020
1.74486
1.73998
1.73998
1.73998
1.74975
1.74975
1.73998
1.73998
1.74975
1.73998
1.73998
1.73998
1.74975
1.73998
1.73509
1.73998
1.74975
1.74975
1.76930
1.74486
1.75464
1.75464
1.74486
1.74975
1.74975
1.74975
1.74486
1.74486
1.76930
1.76930
1.73998
1.73509
