HR_time,RR-interval,heart_rate
2.2254986691713228,980.0,61.261058108108095
3.1559331410282603,1005.0,61.5127413359562
4.149234806929585,930.0,61.267272508795706
5.167683350448665,993.0,59.9068226285357
6.16098501634999,1018.0,60.70161176910865
7.116566365824682,993.0,60.947080596269146
8.122441470534884,955.0,60.44992854126055
9.140890014053964,1005.0,61.0155892809476
10.071324485910901,1018.0,61.0155892809476
11.077199590621104,930.0,61.261058108108095
12.083074695331307,1005.0,60.69539736842104
13.038656044805998,1005.0,62.90461681286549
13.94394363904518,955.0,63.156300040713596
14.937245304946506,905.0,62.361510900140644
15.93054697084783,993.0,62.9927164556962
16.810687687469258,993.0,63.78750559626915
17.76626903694395,880.0,66.05619948109711
18.658983192374254,955.0,67.43337523867285
19.488830153760173,892.0,69.55665250793297
20.35639743157272,829.0,69.8767003952569
21.23653814819415,867.0,68.49952463768115
22.116678864815576,880.0,69.18766567164178
22.95909926501037,880.0,69.85600096575942
23.81409310401404,842.0,69.53595307843548
24.706807259444346,855.0,68.19843951946976
25.59952141487465,892.0,67.85942886303326
26.467088692687202,892.0,66.38552411877826
27.422670042161894,867.0,63.8651470061022
28.428545146872096,955.0,61.7418697368421
29.384126496346788,1005.0,63.535822368421044
30.264267212968214,955.0,64.86135403508771
31.20727512363403,880.0,64.06656489451476
32.200576789535354,943.0,63.43535933895921
33.10586438377454,993.0,62.88448903592891
34.07401917205811,905.0,62.88448903592891
35.06732083795943,968.0,61.44993095512083
36.035475626243,993.0,63.19564670416052
36.928189781673304,968.0,64.85055012014803
37.846050814721366,892.0,66.2851082009561
38.75133840896055,917.0,67.2734913823977
39.60633224796422,905.0,69.22479541020387
40.448752648159015,855.0,70.18532560344059
41.31631992597156,842.0,69.196942421999
42.20903408140187,867.0,69.196942421999
43.051454481596664,892.0,68.86761778431784
43.93159519821809,842.0,68.2538273154774
44.84945623126615,880.0,66.30252328767122
45.76731726431421,917.0,66.30252328767122
46.647457980935634,917.0,65.44240901225666
47.60303933041033,880.0,64.86135403508771
48.546047241076145,955.0,64.23014847953216
49.45133483531533,943.0,65.39289555555555
50.356622429554506,905.0,65.39289555555555
51.299630340220325,905.0,63.69349598290598
52.28035856731277,943.0,63.69349598290598
53.18564616155195,980.0,58.23388040534822
54.45556348124858,905.0,79.69998027039546
54.93335415598593,1269.0,95.48011915928434
55.46143858595879,477.0,110.32042037786773
56.11525740402042,1181.0,98.47356337687468
56.78164966089093,666.0,85.45494879354135
57.58634974465909,804.0,75.25855135764391
58.56707797175154,980.0,66.74162172990297
59.49751244360847,930.0,61.28592737014687
60.52853442593643,1031.0,60.2911568885959
61.559556408264385,1031.0,59.45368514412416
62.527711196547955,968.0,60.19031898172836
63.52101286244928,993.0,60.67526959148446
64.52688796715948,1005.0,61.807194871683706
65.44474900020755,917.0,62.60198401225666
66.40033034968224,955.0,62.60198401225666
67.40620545439243,1005.0,62.30753047652915
68.33663992624938,930.0,61.77087797990297
69.31736815334182,980.0,62.81735034832403
70.27294950281652,955.0,64.37496687789708
71.14051678062907,867.0,65.77173364993781
72.05837781367713,917.0,66.93448072596121
72.96366540791631,905.0,65.67131773211567
73.88152644096436,917.0,64.53939245191643
74.84968122924793,968.0,62.581856235320075
75.84298289514926,993.0,62.581856235320075
76.76084392819732,917.0,62.05887809953181
77.75414559409865,993.0,60.860386538350376
78.81031445404436,1056.0,59.463619766309634
79.7910426811368,980.0,59.721756410256404
80.77177090822926,980.0,60.42309591642924
81.79021945174833,1018.0,60.687937408270734
82.7583742400319,968.0,62.38733698092031
83.66366183427108,905.0,64.24493891618891
84.59409630612802,930.0,64.79580921921922
85.53710421679384,943.0,65.42701477477476
86.41724493341526,880.0,65.14041333333333
87.36025284408107,943.0,64.32470153846154
88.34098107117353,980.0,62.530748906882586
89.29656242064821,955.0,63.414436684660366
90.2018500148874,905.0,63.95108918128655
91.1574313643621,955.0,63.414436684660366
92.13815959145454,980.0,63.11180388405153
93.05602062450261,917.0,62.839992879266845
94.02417541278616,968.0,63.10483437110834
94.99233020106973,968.0,62.24472009569378
95.94791155054443,955.0,64.3104837320574
96.82805226716586,880.0,66.05619948109711
97.72076642259617,892.0,66.91631375651167
98.63862745564423,917.0,66.2851082009561
99.54391504988341,905.0,67.62262175992184
100.3863354500782,842.0,68.55646011608623
101.26647616669963,880.0,99.48553233830845
101.64367933096595,917.0,112.73624806201549
102.18433719974769,880.0,112.73624806201549
103.06447791636911,842.0,83.45584706699061
103.90689831656391,855.0,69.85600096575942
104.76189215556758,867.0,70.18532560344059
105.62945943338013,855.0,69.83619522591644
106.4844532723838,817.0,70.91581377795265
107.30172679496084,892.0,70.26644125294754
108.19444095039115,943.0,68.08321262549657
109.13744886105697,880.0,66.33525877934272
110.0175895776784,955.0,64.86135403508771
110.97317092715308,993.0,63.78750559626915
111.9664725930544,993.0,61.19876382411725
112.95977425895573,917.0,62.05887809953181
113.87763529200379,943.0,63.132726538350376
114.8206432026696,968.0,63.65570467413864
115.78879799095317,917.0,63.65570467413864
116.70665902400124,930.0,63.94230611558008
117.63709349585817,943.0,64.49317641861037
118.580101406524,880.0,65.42701477477476
119.46024212314542,855.0,67.3236419607843
120.31523596214909,892.0,68.5184874067937
121.20795011757939,880.0,68.5184874067937
122.08809083420081,829.0,69.2273278702518
122.91793779558674,905.0,68.9161702020202
123.82322538982592,980.0,66.58556507381508
124.80395361691836,943.0,63.69349598290598
125.74696152758418,892.0,64.00465365113759
126.63967568301449,968.0,64.26949514297908
127.60783047129806,980.0,63.45378334810729
128.5885586983905,930.0,62.54553934353934
129.51899317024743,880.0,64.61130297990297
130.39913388686887,917.0,66.00806975194371
131.31699491991694,930.0,66.00806975194371
132.24742939177386,867.0,66.33739438962488
133.11499666958642,905.0,66.64002719023371
134.0202842638256,930.0,66.6400271902337
134.95071873568253,930.0,65.08241066066066
135.88115320753946,855.0,66.38195151033385
136.73614704654315,867.0,67.9395680399069
137.60371432435568,905.0,68.53665437624323
138.50900191859486,917.0,66.93448072596121
139.42686295164293,892.0,66.2851082009561
140.31957710707323,943.0,65.40142042317834
141.26258501773904,1005.0,63.49483377934271
142.26846012244926,993.0,61.22613989451476
143.26176178835058,930.0,61.5127413359562
144.1921962602075,980.0,62.022561207751075
145.17292448729995,955.0,62.81735034832403
146.12850583677465,892.0,63.725594352891974
147.02121999220495,867.0,66.38552411877826
147.8887872700175,867.0,68.50880138803836
148.75635454783006,829.0,70.20602503293807
149.58620150921598,943.0,68.36180706192357
150.5292094198818,704.0,73.71333242424241
151.23332199317895,905.0,71.7049511111111
152.1386095874181,855.0,73.88817973856207
152.9936034264218,917.0,67.2734913823977
153.91146445946984,980.0,65.57409180974813
154.89219268656228,943.0,63.390863182297146
155.83520059722812,917.0,63.390863182297146
156.75306163027616,943.0,64.20657497716894
157.69606954094198,955.0,63.92751567892333
158.65165089041668,855.0,65.52968932920535
159.50664472942034,829.0,68.42175842011444
160.33649169080627,817.0,71.96366489784724
161.1537652133833,804.0,73.4256483537296
161.95846529715146,779.0,74.98052420905707
162.73801850330187,1005.0,70.39214536290322
163.7438936080121,792.0,70.78664883512545
164.53602025297135,917.0,66.92075886605782
165.45388128601942,880.0,69.76118386605782
166.33402200264084,980.0,64.90575651563049
167.3147502297333,1043.0,62.280508124806914
168.35834565087012,980.0,59.949902996601786
169.3390738779626,1043.0,58.72142137781896
170.3826692990994,1056.0,58.49327479147358
171.43883815904513,980.0,58.49327479147358
172.41956638613757,892.0,61.73231365113759
173.31228054156787,943.0,64.00465365113759
174.25528845223369,980.0,64.00465365113759
175.23601667932613,968.0,62.2589379020979
176.2041714676097,930.0,62.54553934353934
177.13460593946664,980.0,62.54553934353934
178.11533416655908,1005.0,61.77087797990297
179.1212092712693,980.0,60.668564743589734
180.10193749836174,930.0,61.77087797990297
181.0323719702187,955.0,62.81735034832403
181.98795331969336,1005.0,62.30753047652915
182.99382842440357,930.0,62.30753047652915
183.9242628962605,892.0,63.781435220784154
184.81697705169083,905.0,65.9906546652286
185.72226464593,892.0,66.89889866979655
186.6149788013603,829.0,68.59612231469626
187.44482576274623,842.0,70.2447935418936
188.28724616294102,855.0,71.23317672333518
189.14224000194469,880.0,69.85600096575942
190.02238071856613,817.0,70.58648914027148
190.83965424114317,817.0,71.66610769230769
191.6569277637202,867.0,71.99543232998884
192.52449504153273,880.0,70.247478483835
193.40463575815417,855.0,69.16785993179879
194.25962959715784,855.0,69.50687058823527
195.1146234361615,892.0,69.18682270091134
196.0073375915918,905.0,67.88728185123814
196.912625185831,867.0,67.54827119480166
197.78019246364354,867.0,68.19764371980675
198.6477597414561,905.0,68.19764371980676
199.55304733569528,930.0,66.6400271902337
200.4834818075522,855.0,66.9790378466702
201.33847564655588,867.0,67.9395680399069
202.20604292436843,867.0,69.49718456947996
203.073610202181,855.0,69.49718456947996
203.92860404118466,817.0,70.91581377795265
204.7458775637617,804.0,72.71680789027148
205.55057764752988,804.0,74.17879134615384
206.35527773129803,804.0,74.56115625
207.15997781506618,792.0,74.95565972222221
207.95210446002548,766.0,76.17797375910746
208.719084227367,817.0,75.7956088552613
209.53635774994405,867.0,73.60011127072025
210.4039250277566,855.0,70.91581377795264
211.25891886676027,829.0,70.54503568937454
212.08876582814617,880.0,70.21571105169339
212.9689065447676,943.0,68.03248242424242
213.91191445543342,892.0,66.33525877934272
214.80462861086372,842.0,67.35272445098451
215.64704901105853,930.0,67.63932589242594
216.57748348291545,955.0,66.16542114817095
217.53306483239015,880.0,65.14795547652915
218.41320554901156,892.0,66.05619948109711
219.3059197044419,905.0,67.21894655712049
220.21120729868107,867.0,67.54827119480166
221.0787745764936,804.0,69.9986378321256
221.88347466026178,792.0,73.15466560990336
222.67560130522105,917.0,71.89150261605783
223.59346233826912,729.0,74.4625769695061
224.32272178918402,804.0,74.06807349728388
225.12742187295217,880.0,75.00191185344826
226.0075625895736,930.0,69.07222685810811
226.93799706143054,943.0,65.42701477477476
227.88100497209635,892.0,65.10696688745082
228.77371912752668,980.0,64.00465365113759
229.75444735461912,955.0,63.725594352891974
230.71002870409382,892.0,63.725594352891974
231.6027428595241,892.0,65.73615159377316
232.4954570149544,905.0,66.89889866979655
233.4007446091936,892.0,66.89889866979655
234.2934587646239,867.0,67.54827119480166
235.16102604243645,917.0,67.24563839419282
236.07888707548452,955.0,65.77173364993781
237.0344684249592,905.0,64.81120345670111
237.93975601919837,930.0,64.51674992097361
238.87019049105533,930.0,65.08241066066066
239.80062496291225,892.0,65.39356832889226
240.69333911834255,829.0,67.99903597835991
241.52318607972848,980.0,66.89672274204668
242.50391430682092,880.0,67.21677062937061
243.38405502344236,716.0,71.02212469635626
244.10074103554837,829.0,74.72990558213715
244.9305879969343,804.0,76.86022433213715
245.73528808070245,741.0,75.91426060927066
246.47712097042623,729.0,79.23847795514318
247.20638042134112,766.0,80.46079199202842
247.97336018868265,792.0,78.74904811255573
248.76548683364194,792.0,76.57247723132969
249.5576134786012,779.0,76.15189605734766
250.33716668475162,804.0,75.75739258512544
251.14186676851978,855.0,73.90090565702086
251.99686060752347,855.0,71.63718933823527
252.85185444652714,829.0,70.88404634581104
253.68170140791304,817.0,71.96366489784724
254.49897493049008,842.0,72.31279527537139
255.3413953306849,892.0,70.61557163047169
256.2341094861152,855.0,69.53595307843548
257.08910332511886,829.0,69.89566316436945
257.91895028650475,855.0,70.88404634581103
258.7739441255084,867.0,70.54503568937454
259.641511403321,829.0,70.54503568937454
260.47135836470693,829.0,71.25387615283266
261.3012053260928,842.0,71.9420171867933
262.1436257262876,855.0,71.23317672333518
262.9986195652913,804.0,71.98631971575944
263.80331964905946,804.0,73.09917279411764
264.60801973282764,804.0,74.56115625
265.41271981659577,842.0,73.44830317164178
266.2551402167906,817.0,73.06593826779563
267.0724137393676,779.0,73.86767113069885
267.85196694551803,754.0,76.6374387923904
268.60637327405067,792.0,77.41430716845878
269.39849991900996,804.0,76.61257430555554
270.20320000277815,779.0,75.75739258512544
270.98275320892856,754.0,77.01980369623655
271.7371595374612,779.0,77.82153655913977
272.5167127436116,817.0,76.6374387923904
273.3339862661886,804.0,74.98052420905707
274.1386863499568,754.0,75.83570592948718
274.89309267848944,741.0,78.32431818502823
275.6349255682132,792.0,78.71882165725046
276.4270522131725,804.0,77.06190707391713
277.23175229694067,779.0,75.75739258512544
278.0113055030911,766.0,76.58520314978847
278.7782852704326,792.0,76.9797066220107
279.5704119153919,829.0,75.42483076668321
280.4002588767778,817.0,73.82015182595183
281.21753239935487,779.0,74.22738121663282
281.9970856055052,804.0,74.98052420905707
282.8017856892734,842.0,74.250036034545
283.6442060894682,880.0,71.31798442164178
284.5243468060896,855.0,69.85600096575942
285.3793406450933,842.0,69.85600096575942
286.2217610452881,880.0,69.85600096575942
287.1019017619095,892.0,68.86761778431784
287.99461591733984,829.0,69.2273278702518
288.82446287872574,804.0,71.35764662025181
289.6291629624939,829.0,73.05487026515151
290.4590099238798,842.0,72.69516017921754
291.3014303240746,804.0,72.69516017921754
292.1061304078428,855.0,71.98631971575942
292.96112424684645,917.0,70.03501568795325
293.8789852798945,880.0,67.90469693795325
294.75912599651593,829.0,68.61353740141136
295.58897295790183,842.0,70.56484142921754
296.43139335809667,842.0,71.58230710085932
297.27381375829145,829.0,71.58230710085934
298.10366071967735,817.0,72.31279527537139
298.9209342422544,817.0,73.04328344988345
299.73820776483143,930.0,70.43781580041579
300.66864223668836,955.0,66.895909322683
301.62422358616305,867.0,65.47728011421032
302.4917908639756,892.0,66.38552411877825
303.38450501940594,892.0,67.85942886303326
304.2772191748362,867.0,67.85942886303326
305.14478645264876,792.0,70.70429897257944
305.93691309760806,829.0,72.40152261747913
306.766760058994,817.0,73.82015182595183
307.584033581571,804.0,73.4256483537296
308.3887336653392,766.0,75.4011053830391
309.1557134326807,766.0,77.00578432377048
309.92269320002225,779.0,77.8075171866737
310.70224640617266,792.0,76.9797066220107
311.49437305113196,766.0,76.9797066220107
312.2613528184735,729.0,78.74904811255573
312.99061226938835,729.0,80.9256189937818
313.7198717203033,729.0,82.27437931034481
314.44913117121814,729.0,82.27437931034481
315.17839062213307,729.0,82.27437931034481
315.90765007304793,754.0,81.36021954022988
316.66205640158057,804.0,78.78914518678161
317.46675648534875,842.0,75.10521775497511
318.30917688554354,829.0,72.69516017921754
319.1390238469295,779.0,73.49689304212076
319.9185770530799,792.0,75.0042495927012
320.71070369803914,804.0,75.75739258512544
321.5154037818073,842.0,73.84280664386401
322.3578241820021,804.0,73.44830317164178
323.1625242657703,792.0,73.84280664386401
323.9546509107296,817.0,74.57329481837607
324.7719244333066,842.0,73.46044174001786
325.6143448335014,880.0,70.93561951779563
326.4944855501228,829.0,70.56484142921754
327.32433251150877,817.0,71.2953296037296
328.1416060340858,867.0,71.62465424141075
329.00917331189834,880.0,70.247478483835
329.8893140285198,905.0,67.8683190821256
330.79460162275893,892.0,67.21894655712049
331.68731577818926,829.0,68.59612231469626
332.51716273957516,792.0,71.75215009247403
333.30928938453445,842.0,73.08966365143976
334.15170978472923,867.0,72.04181253154516
335.0192770625418,829.0,70.89416606689869
335.8491240239277,792.0,72.40152261747912
336.641250668887,855.0,72.74053327391562
337.49624450789065,880.0,71.36335751633986
338.3763852245121,905.0,68.20732973856208
339.2816728187513,829.0,68.9161702020202
340.1115197801372,804.0,71.0464889520202
340.9162198639053,855.0,72.34602980169339
341.77121370290905,892.0,70.64880615679368
342.6639278583393,892.0,68.19843951946976
343.55664201376965,817.0,69.27805807150595
344.37391553634666,842.0,70.61557163047169
345.2163359365415,892.0,70.61557163047169
346.10905009197177,905.0,68.23641222876229
347.014337686211,842.0,68.23641222876229
347.85675808640576,880.0,68.55646011608623
348.7368988030272,930.0,67.95937377974988
349.66733327488413,930.0,65.71361621621621
350.59776774674106,855.0,66.38195151033385
351.4527615857447,892.0,67.2901955149018
352.34547574117505,917.0,67.58464905062931
353.2633367742231,917.0,65.98247540034728
354.18119780727113,829.0,67.67969904524698
355.0110447686571,867.0,68.94286203909252
355.87861204646964,905.0,69.24549483970135
356.7838996407088,892.0,67.54827119480166
357.6766137961391,842.0,68.23641222876229
358.5190341963339,829.0,70.2447935418936
359.3488811577198,892.0,70.24479354189359
360.2415953131501,917.0,68.29348951408741
361.15945634619817,855.0,67.58464905062931
362.01445018520184,955.0,66.1107443063743
362.97003153467654,980.0,64.71397753433357
363.950759761769,880.0,64.04564224021593
364.8309004783904,905.0,65.2083893162393
365.7361880726296,892.0,67.21894655712049
366.6289022280599,892.0,66.89889866979655
367.5216163834902,867.0,67.85942886303326
368.38918366130275,817.0,69.92743059651106
369.2064571838798,855.0,70.91581377795264
370.0614510228835,880.0,70.58648914027148
370.9415917395049,905.0,68.20732973856208
371.8468793337441,855.0,68.20732973856208
372.70187317274775,842.0,69.22479541020387
373.54429357294254,905.0,69.22479541020388
374.44958116718175,943.0,67.0415667827529
375.39258907784756,968.0,63.95833747474747
376.3607438661311,892.0,64.26949514297908
377.2534580215614,880.0,65.78438847631242
378.13359873818285,905.0,67.21894655712049
379.038886332422,930.0,66.31070255255256
379.96932080427894,867.0,66.64002719023371
380.8368880820915,955.0,65.47728011421032
381.7924694315662,955.0,64.91161937452326
382.7480507810409,930.0,63.35400284495021
383.6784852528978,867.0,65.47728011421032
384.54605253071037,892.0,66.95118485846533
385.4387666861407,943.0,66.66458341702388
386.3817745968065,943.0,64.82036544600939
387.3247825074723,855.0,65.80874862745097
388.179776346476,930.0,66.0953500688924
389.1102108183329,968.0,65.54447976586212
390.0783656066165,917.0,63.94230611558008
390.99622663966454,867.0,65.49992264515313
391.8637939174771,955.0,65.77173364993781
392.8193752669518,955.0,64.91161937452326
393.7749566164265,905.0,63.95108918128655
394.68024421066565,980.0,63.414436684660366
395.6609724377581,943.0,63.69349598290598
396.60398034842393,892.0,64.00465365113759
397.49669450385426,943.0,64.82036544600939
398.43970241452007,955.0,64.54130614776378
399.39528376399477,917.0,63.92751567892333
400.3131447970428,917.0,64.50857065609227
401.23100583009085,955.0,64.50857065609227
402.18658717956555,955.0,63.648456380677715
403.14216852904025,892.0,64.26224684951816
404.0348826844706,880.0,66.05619948109711
404.91502340109196,917.0,66.91631375651167
405.83288443414006,930.0,66.00806975194371
406.763318905997,880.0,66.00806975194371
407.6434596226184,842.0,67.9593737797499
408.4858800228132,917.0,68.2538273154774
409.40374105586125,917.0,67.31998895931301
410.32160208890934,917.0,65.36868493150683
411.2394631219574,829.0,67.67969904524698
412.0693100833433,880.0,68.61353740141136
412.9494507999647,905.0,68.9161702020202
413.85473839420393,880.0,67.53899444444444
414.7348791108253,842.0,68.55646011608623
415.5772995110201,892.0,68.86761778431784
416.4700136664504,905.0,68.23641222876229
417.37530126068964,892.0,66.89889866979655
418.2680154161199,829.0,68.59612231469626
419.09786237750586,842.0,70.2447935418936
419.94028277770065,880.0,70.56484142921754
420.8204234943221,905.0,68.55646011608623
421.72571108856124,917.0,66.60515608828005
422.6435721216093,867.0,66.93448072596121
423.51113939942184,943.0,66.05079294818343
424.45414731008765,980.0,64.65402617614268
425.4348755371801,955.0,62.530748906882586
426.3904568866548,943.0,62.530748906882586
427.33346479732063,980.0,62.530748906882586
428.31419302441304,968.0,62.2589379020979
429.2823478126966,880.0,63.77383123543123
430.16248852931807,880.0,66.10443636363635
431.0426292459395,905.0,67.53899444444444
431.94791684017866,917.0,66.60515608828005
432.8657778732267,867.0,66.93448072596121
433.73334515103926,968.0,65.49992264515313
434.70149993932284,1005.0,63.59333600131752
435.70737504403303,968.0,61.19824772727272
436.6755298323166,892.0,62.94396347631241
437.56824398774694,867.0,66.11371311399357
438.4358112655595,905.0,67.54827119480166
439.34109885979865,943.0,66.35342574879226
440.28410677046446,892.0,65.70405322378716
441.1768209258948,892.0,66.01521089201877
442.06953508132506,930.0,66.30181233346022
442.99996955318204,968.0,64.55609658442052
443.96812434146557,905.0,64.24493891618891
444.8734119357048,930.0,64.24493891618891
445.8038464075617,968.0,64.24493891618891
446.7720011958453,955.0,63.08219184016552
447.72758254532,892.0,63.99043584473347
448.62029670075026,943.0,64.54130614776378
449.5633046114161,955.0,64.54130614776378
450.51888596089077,905.0,64.23014847953216
451.42417355513,955.0,63.95108918128655
452.3797549046047,955.0,63.95108918128655
453.3353362540794,892.0,64.26224684951816
454.22805040950965,943.0,64.54130614776378
455.17105832017546,1005.0,63.49483377934271
456.17693342488565,955.0,62.02092903508771
457.13251477436035,930.0,62.30753047652915
458.06294924621733,1005.0,62.30753047652915
459.0688243509275,1018.0,61.0155892809476
460.0872728944466,930.0,61.0155892809476
461.0177073663035,955.0,62.06206164936866
461.9732887157782,943.0,63.63306214319582
462.916296626444,892.0,64.54130614776378
463.80901078187435,842.0,67.35272445098451
464.65143118206913,855.0,69.53595307843548
465.5064250210728,892.0,69.53595307843548
466.3991391765031,930.0,67.2901955149018
467.32957364836005,867.0,66.95118485846531
468.1971409261726,930.0,66.04294085389736
469.12757539802953,980.0,64.94062761758414
470.108303625122,930.0,63.38301108801108
471.03873809697893,880.0,64.61130297990297
471.9188788136003,917.0,66.00806975194371
472.8367398466484,930.0,66.00806975194371
473.76717431850534,892.0,65.68802186461977
474.65988847393567,855.0,67.2901955149018
475.51488231293933,892.0,68.19843951946976
476.4075964683696,930.0,67.2901955149018
477.33803094022653,892.0,66.30181233346022
478.23074509565686,867.0,66.95118485846531
479.0983123734694,930.0,66.95118485846533
480.02874684532634,968.0,65.20546910942562
480.9969016336099,892.0,64.55609658442052
481.88961578904025,880.0,65.78438847631242
482.76975650566163,880.0,67.85015211267606
483.6498972222831,855.0,68.83853529411763
484.50489106128674,804.0,70.96885404411763
485.3095911450549,842.0,71.98631971575942
486.1520115452497,880.0,71.31798442164178
487.03215226187115,930.0,67.95937377974988
487.9625867337281,905.0,66.31070255255256
488.86787432796723,955.0,64.51674992097361
489.8234556774419,993.0,63.156300040713596
490.8167573433433,917.0,62.85366724010476
491.7346183763913,955.0,62.85366724010476
492.690199725866,1005.0,62.60198401225666
493.6960748305762,968.0,61.47005873205741
494.6642296188598,943.0,61.74911803030302
495.6072375295256,1005.0,61.74911803030302
496.6131126342358,1005.0,60.974456666666654
497.61898773894603,955.0,60.69539736842104
498.57456908842073,943.0,62.02092903508771
499.51757699908654,943.0,63.34646070175438
500.46058490975236,867.0,65.46973797101448
501.3281521875649,867.0,67.31395594202897
502.1957194653774,917.0,67.89501091919792
503.1135804984255,905.0,66.93448072596121
504.01886809266466,867.0,66.93448072596121
504.8864353704772,968.0,65.80255544576195
505.8545901587608,1018.0,63.347867174157024
506.87303870227987,943.0,61.50364920314253
507.8160466129457,1018.0,60.48351901234567
508.83449515646475,1031.0,60.24403722975006
509.8655171387927,930.0,60.530638671191504
510.79595161064964,943.0,62.10163916501867
511.7389595213155,943.0,63.912121441441435
512.6819674319813,880.0,65.14041333333333
513.5621081486028,867.0,66.98463130434781
514.4296754264153,892.0,68.1794767503572
515.3223895818455,917.0,67.24563839419282
516.2402506148936,880.0,66.91631375651167
517.1203913315151,930.0,66.00806975194371
518.050825803372,917.0,66.00806975194371
518.96868683642,842.0,67.02553542358551
519.8111072366148,880.0,68.2538273154774
520.6912479532363,955.0,67.39371304006283
521.646829302711,930.0,65.14795547652915
522.5772637745679,892.0,64.82790758920521
523.4699779299982,955.0,64.82790758920521
524.425559279473,1005.0,63.2157744810971
525.4314343841831,943.0,62.02092903508771
526.3744422948489,968.0,61.74911803030302
527.3425970831325,980.0,62.2589379020979
528.323325310225,905.0,63.14262567987568
529.2286129044642,855.0,65.87672461035696
530.0836067434678,892.0,67.88728185123813
530.976320898898,917.0,67.58464905062931
531.8941819319462,930.0,65.68802186461977
532.8246164038031,930.0,64.77977786005182
533.75505087566,867.0,66.04294085389736
534.6226181534726,892.0,66.95118485846533
535.5153323089029,930.0,66.95118485846533
536.4457667807599,943.0,65.10696688745082
537.3887746914256,892.0,65.10696688745082
538.281488846856,917.0,65.40142042317834
539.199349879904,930.0,65.68802186461977
540.1297843517609,930.0,64.77977786005182
541.0602188236179,867.0,66.04294085389736
541.9277861014305,930.0,66.04294085389736
542.8582205732873,993.0,64.68249097363736
543.8515222391887,917.0,63.41932797979182
544.7693832722367,968.0,62.581856235320075
545.7375380605204,955.0,63.37664537589303
546.693119409995,917.0,63.37664537589303
547.6109804430431,892.0,65.12236112493272
548.5036945984734,980.0,64.58570862830653
549.4844228255658,1005.0,62.67912198447092
550.490297930276,943.0,61.48427653846153
551.4333058409419,1018.0,60.72898783950616
552.451754384461,1005.0,60.72898783950616
553.4576294891712,930.0,61.0155892809476
554.388063961028,917.0,63.16764475194371
555.3059249940761,955.0,64.21411712036476
556.2615063435508,968.0,63.37664537589303
557.2296611318344,917.0,63.37664537589303
558.1475221648824,930.0,63.94230611558008
559.0779566367394,905.0,65.37686419638817
559.9832442309786,829.0,67.6878783101283
560.8130911923645,880.0,68.9161702020202
561.6932319089859,968.0,67.48161212121212
562.6613866972694,905.0,65.47323080808081
563.5666742915087,943.0,63.95833747474747
564.5096822021744,993.0,63.43535933895921
565.5029838680758,980.0,61.735959766309634
566.4837120951682,905.0,62.619647544087414
567.3889996894075,1005.0,62.36796431623931
568.3948747941176,1018.0,61.61267561728394
569.4133233376367,930.0,61.0155892809476
570.3437578094937,1005.0,61.0155892809476
571.3496329142039,1031.0,60.776107498352
572.3806548965318,993.0,59.41565761809199
573.3739565624331,943.0,60.74118928475866
574.3169644730989,1005.0,61.22613989451476
575.3228395778092,955.0,62.02092903508771
576.2784209272838,842.0,64.55328804006284
577.1208413274786,867.0,67.72303767774399
577.9884086052912,880.0,69.51699030932295
578.8685493219126,905.0,67.8683190821256
579.7738369161518,880.0,67.53899444444444
580.6539776327733,829.0,68.9161702020202
581.4838245941592,892.0,69.2273278702518
582.3765387495895,968.0,67.16156423388817
583.344693537873,930.0,64.55609658442052
584.27512800973,930.0,63.647852579852575
585.2055624815869,1018.0,62.62772238905571
586.2240110251059,1005.0,61.0155892809476
587.2298861298161,930.0,61.0155892809476
588.1603206016731,1018.0,61.0155892809476
589.1787691451922,1043.0,60.29692753395965
590.222364566329,993.0,58.93647765369965
591.2156662322303,930.0,60.79407958896825
592.1461007040873,968.0,62.28740269959257
593.1142554923708,968.0,62.81038083538083
594.0824102806545,892.0,63.71862483994878
594.9751244360847,993.0,63.19564670416052
595.9684261019861,1018.0,62.175516513363654
596.9868746455052,930.0,61.267272508795706
597.917309117362,905.0,63.22480872539205
598.8225967116012,968.0,64.24493891618891
599.7907514998848,968.0,63.40746717171717
600.7589062881684,917.0,63.10483437110834
601.6767673212164,1018.0,62.084704180311476
602.6952158647356,1005.0,61.31004281667511
603.7010909694458,993.0,59.655139400687595
604.6943926353471,1043.0,59.18194648086014
605.7379880564839,1031.0,58.69699587110404
606.7690100388119,917.0,60.351899287091555
607.68687107186,930.0,62.682694142187614
608.6173055437168,955.0,64.21411712036476
609.5728868931916,930.0,63.91966358463726
610.5033213650485,905.0,64.51674992097361
611.4086089592877,1056.0,62.523469219219216
612.4647778192334,993.0,61.16301933895921
613.4580794851347,943.0,60.27933156118143
614.4010873958005,1043.0,60.50747814752681
615.4446828169373,1043.0,59.53713317269076
616.4882782380741,980.0,58.72142137781896
617.4690064651667,1056.0,58.49327479147358
618.5251753251124,993.0,59.463619766309634
619.5184769910137,917.0,60.860386538350376
620.4363380240617,955.0,62.85366724010476
621.3919193735364,1005.0,62.60198401225666
622.3977944782466,930.0,62.30753047652915
623.3282289501036,980.0,61.77087797990297
624.308957177196,993.0,62.022561207751075
625.3022588430973,905.0,62.619647544087414
626.2075464373365,968.0,62.88448903592891
627.1757012256201,993.0,62.88448903592891
628.1690028915214,917.0,62.581856235320075
629.0868639245695,1018.0,61.56172604452321
630.1053124680885,1043.0,60.59138106968716
631.1489078892254,905.0,60.89401387029599
632.0541954834646,502.0,62.18595506587754
633.0097768329392,452.0,63.67927817650186
633.9779316212229,968.0,63.67927817650186
634.883219215462,905.0,65.80255544576197
635.7507864932745,867.0,65.02789408212558
636.7566615979848,1005.0,62.33372402792505
637.7876835803128,1031.0,60.21044675866494
638.7432649297874,955.0,59.04085999395906
639.812007228542,1068.0,57.71826742189698
640.9184698437232,1106.0,56.42632622631543
641.9369183872423,1018.0,56.87725124403336
642.9805138083791,1043.0,58.43932559869105
643.9989623518982,1018.0,59.19461429764642
644.9796905789907,980.0,63.08302568231552
645.8472578568033,867.0,65.23508115331164
646.7651188898512,917.0,65.23508115331163
647.7458471169438,980.0,63.390863182297146
648.6888550276095,943.0,63.390863182297146
649.6067160606576,917.0,62.63557448334178
650.6251646041767,1018.0,60.36323448334178
651.6813334641224,1056.0,60.06878094761427
652.6117679359793,930.0,61.088911138411135
653.5799227242629,968.0,61.317057724756516
654.6235181453998,1043.0,61.317057724756516
655.5539526172566,930.0,59.8237346141322
656.5975480383935,1043.0,59.59558802778682
657.6537168983392,1056.0,58.23513814752681
658.6470185642405,993.0,59.205483122362864
659.6403202301419,993.0,60.66211132749107
660.6210484572343,980.0,61.18508946327933
661.5892032455179,968.0,64.10315587311239
662.4567705233304,867.0,64.63980836973857
663.4123518728052,955.0,64.63980836973857
664.3805066610887,968.0,63.67927817650186
665.2857942553279,905.0,63.95833747474747
666.2288021659937,943.0,64.23014847953216
667.1843835154684,955.0,63.92751567892333
668.1022445485164,917.0,64.21411712036476
669.0326790203734,930.0,63.94230611558008
670.0008338086569,968.0,62.81038083538083
670.9689885969406,968.0,62.24472009569378
671.9245699464152,955.0,60.75139698506946
672.968165367552,1043.0,59.7312667942726
673.9866139110711,1018.0,59.7312667942726
674.9421952605459,955.0,60.204459714100054
675.960643804065,1018.0,59.96497793150445
676.9916657863929,1031.0,60.530638671191504
677.9221002582498,930.0,62.682694142187614
678.8399612912979,917.0,64.21411712036476
679.7955426407725,955.0,64.21411712036476
680.7259771126295,930.0,65.47728011421032
681.593544390442,867.0,97.56909941245593
681.9707475547084,980.0,109.21228297101447
682.5742726175345,1005.0,106.04253333333332
683.5801477222446,943.0,74.22977333333333
684.5231556329105,993.0,61.22613989451476
685.5164572988118,1005.0,61.22613989451476
686.522332403522,955.0,60.947080596269146
687.4779137529968,917.0,62.60198401225666
688.3957747860447,905.0,64.81120345670111
689.301062380284,930.0,65.37686419638817
690.2314968521409,880.0,66.31070255255256
691.1116375687624,1005.0,64.1014831081081
692.1175126734726,980.0,62.99916987179486
693.098240900565,905.0,62.36796431623931
694.0035284948042,993.0,62.619647544087414
694.9968301607055,1043.0,61.39116592530459
696.0404255818423,993.0,59.433629708708246
697.0337272477436,980.0,59.691766352655016
698.014455474836,1081.0,59.023243797317384
699.0957712123995,1068.0,57.601973804763404
700.1645135111542,980.0,57.6019738047634
701.1452417382466,1043.0,58.27049636010103
702.1888371593834,1068.0,58.270496360101035
703.257579458138,955.0,58.80714885672721
704.2131608076127,892.0,62.04618771639122
705.105874963043,993.0,63.467457708945204
706.0991766289443,1005.0,62.42098534052415
707.1050517336546,930.0,61.5127413359562
708.0354862055115,1043.0,60.54239636112015
709.0790816266483,1093.0,58.942616763419004
710.1729708030207,993.0,57.582166883159
711.166272468922,1081.0,56.913644327821366
712.2475882064855,616.0,71.09244892552252
712.8636867081204,515.0,89.7538394781622
713.3791976992844,1031.0,90.6560731707317
714.4102196816124,1031.0,77.59209756097559
715.4412416639403,1018.0,58.433554953327295
716.4596902074594,993.0,59.1701887909315
717.4529918733607,943.0,60.980671067354265
718.3959997840266,968.0,62.00080125815113
719.3641545723101,955.0,62.79559039872408
720.3197359217849,892.0,63.99043584473347
721.2124500772152,968.0,63.99043584473347
722.1806048654987,1546.0,63.99043584473347
723.1361862149733,880.0,105.2126037320574
723.4505221851954,666.0,101.84451084668191
724.6072785556121,880.0,110.92710121410991
725.2736708124826,817.0,70.02498121410991
726.153811529104,578.0,77.2067915820029
726.971085051681,578.0,81.77384080267558
727.5494632368894,993.0,93.62952775919732
728.1278414220977,917.0,89.29283214089156
729.1211430879991,955.0,76.50330682820544
730.0390041210471,1018.0,62.85366724010476
730.9945854705219,943.0,62.356515185096164
732.013034014041,905.0,61.77546020792722
732.9560419247067,1005.0,62.93820728395061
733.8613295189459,1068.0,63.183676111111104
734.8672046236561,968.0,60.68855767973855
735.9359469224107,1031.0,59.25399959893047
736.9041017106942,1005.0,58.76904898917437
737.9351236930222,955.0,59.938635753880256
738.9409987977325,1043.0,60.21044675866494
739.8965801472071,1018.0,59.97673562143309
740.940175568344,930.0,59.7312667942726
741.9586241118631,993.0,60.29692753395965
742.88905858372,955.0,61.267272508795706
743.8823602496213,917.0,62.55921370437726
744.837941599096,917.0,62.85366724010476
745.7558026321441,917.0,64.50857065609227
746.6736636651922,855.0,65.36868493150683
747.5915246982402,943.0,66.97085858178886
748.4465185372438,993.0,66.38980360461991
749.3895264479097,930.0,64.7349001886324
750.382828113811,980.0,62.83827300262287
751.313262585668,1056.0,62.022561207751075
752.2939908127604,993.0,60.82406964656964
753.3501596727061,943.0,59.463619766309634
754.3434613386074,980.0,60.27933156118143
755.2864692492733,980.0,61.735959766309634
756.2671974763657,905.0,61.994096410256404
757.2479257034581,1005.0,62.877784188034184
758.1532132976973,1018.0,62.36796431623931
759.1590884024075,917.0,61.61267561728394
760.1775369459266,1043.0,61.31004281667511
761.0953979789747,1043.0,60.59138106968716
762.1389934001115,980.0,60.118188149859705
763.1825888212484,905.0,58.72142137781896
764.1633170483408,917.0,61.64930256925136
765.06860464258,892.0,64.27455096007492
765.986465675628,842.0,66.2851082009561
766.8791798310583,829.0,67.93377942815346
767.7216002312531,943.0,70.2447935418936
768.551447192639,1005.0,69.0499480958842
769.4944551033049,955.0,65.19205742424242
770.500330208015,1043.0,62.02092903508771
771.4559115574898,1093.0,59.97673562143309
772.4995069786265,993.0,58.37695602373195
773.5933961549989,917.0,57.582166883159
774.5866978209002,1018.0,60.20741527398256
775.5045588539483,1031.0,61.56172604452321
776.5230073974674,943.0,60.82509220691901
777.5540293797953,1031.0,60.24403722975006
778.4970372904612,1031.0,60.00455544715446
779.5280592727892,943.0,60.00455544715446
780.5590812551171,980.0,60.00455544715446
781.5020891657829,1005.0,60.99932592870543
782.4828173928753,930.0,61.48427653846153
783.4886924975856,968.0,61.77087797990297
784.4191269694425,980.0,62.035719471744464
785.3872817577261,930.0,62.54553934353934
786.3680099848185,829.0,62.54553934353934
787.2984444566754,842.0,65.98847873747873
788.1282914180614,917.0,69.33654953732565
788.9707118182562,930.0,69.63100307305315
789.8885728513042,892.0,67.0255354235855
790.8190073231611,1043.0,65.68802186461977
791.7117214785915,1005.0,63.062773473796206
792.7553168997283,1018.0,61.450640365688095
793.7611920044385,1081.0,58.68479442585154
794.7796405479576,1018.0,58.01627187051391
795.8609562855211,1005.0,57.77080304335342
796.8794048290401,1018.0,58.01627187051391
797.8852799337503,968.0,59.157987345679
798.9037284772694,930.0,60.17811753647586
799.8718832655529,980.0,61.79025064458397
800.8023177374099,968.0,62.54553934353934
801.7830459645023,905.0,62.54553934353934
802.751200752786,943.0,63.14262567987568
803.6564883470251,968.0,63.95833747474747
804.5994962576909,905.0,63.95833747474747
805.5676510459745,980.0,63.95833747474747
806.4729386402137,943.0,63.14262567987568
807.4536668673061,1093.0,63.69349598290598
808.396674777972,666.0,59.884496940760386
809.4905639543442,968.0,69.50373980481457
810.1569562112148,917.0,68.95286950178428
811.1251109994984,968.0,72.45923574332103
812.0429720325465,1081.0,63.10483437110834
813.01112682083,1031.0,60.94298870514639
814.0924425583935,993.0,58.55145145155468
815.1234645407214,1119.0,58.02847331576641
816.1167662066227,1068.0,57.40501969674368
817.2358022606128,980.0,56.72038354179389
818.3045445593674,1043.0,56.97852018574067
819.2852727864598,1043.0,58.27049636010103
820.3288682075967,955.0,58.72142137781896
821.3724636287335,980.0,59.258073874445145
822.3280449782083,980.0,60.48655549322797
823.3087732053007,892.0,61.71503711201079
824.2895014323931,892.0,63.18894185626579
825.1822155878234,955.0,65.19949909714697
826.0749297432537,968.0,65.73615159377316
827.0305110927284,905.0,63.99043584473347
827.998665881012,1056.0,63.67927817650186
828.9039534752512,1056.0,61.685997474747474
829.9601223351968,993.0,59.964527777777775
831.0162911951426,1043.0,58.00699156118143
832.009592861044,1081.0,58.23513814752681
833.0531882821807,1031.0,57.79476217853456
834.1345040197442,968.0,57.05812834093036
835.1655260020722,1031.0,58.55145145155468
836.1336807903558,1043.0,59.45368514412416
837.1647027726838,968.0,59.21997400689231
838.2082981938205,1043.0,59.21997400689231
839.1764529821041,1018.0,58.98626286966046
840.220048403241,917.0,59.45945578948791
841.23849694676,980.0,60.59138106968716
842.1563579798081,1031.0,61.81986268846998
843.1370862069006,968.0,61.58038090587438
844.1681081892285,943.0,60.44845562567513
845.136262977512,1031.0,61.264167420546926
846.0792708881779,1005.0,61.264167420546926
847.1102928705059,930.0,60.48950605691056
848.1161679752161,930.0,60.776107498352
849.0466024470729,955.0,62.873191216216206
849.9770369189299,867.0,63.91966358463726
850.9326182684047,955.0,65.47728011421032
851.8001855462171,968.0,64.91161937452326
852.7557668956919,880.0,64.63980836973857
853.7239216839754,968.0,64.3104837320574
854.6040624005968,943.0,64.03867272727273
855.5722171888805,867.0,64.58954303030302
856.5152250995462,842.0,64.91886766798419
857.3827923773588,842.0,68.0020969759896
858.2252127775536,892.0,70.53445598096474
859.0676331777483,804.0,69.88508345595963
859.9603473331787,892.0,70.99793653431784
860.7650474169468,1005.0,69.6604229753521
861.6577615723771,955.0,67.14004586267605
862.6636366770873,980.0,63.2157744810971
863.6192180265621,1056.0,61.205217240215916
864.5999462536545,1043.0,60.258408906882586
865.6561151136002,968.0,58.49327479147358
866.699710534737,1031.0,58.758116283315076
867.6678653230206,1018.0,59.21997400689231
868.6988873053485,892.0,59.69316692671976
869.7173358488676,905.0,61.43888267575945
870.6100500042979,930.0,64.13305272996
871.5153375985371,917.0,65.9906546652286
872.445772070394,855.0,65.37686419638817
873.3636331034421,880.0,66.67640504606136
874.2186269424458,917.0,67.90469693795325
875.0987676590672,917.0,67.90469693795325
876.0166286921153,842.0,66.30252328767122
876.9344897251633,917.0,67.31998895931301
877.7769101253581,943.0,67.31998895931301
878.6947711584062,917.0,66.73893398214406
879.637779069072,943.0,64.78762995433789
880.55564010212,1005.0,64.20657497716894
881.4986480127859,968.0,62.88104331050227
882.5045231174961,955.0,61.74911803030302
883.4726779057796,993.0,61.47005873205741
884.4282592552544,980.0,61.721741959905515
885.4215609211557,880.0,61.45690046806402
886.4022891482481,892.0,63.25085309964297
887.2824298648695,905.0,65.51954698447092
888.1751440202999,880.0,67.21894655712049
889.0804316145391,930.0,67.21894655712049
889.9605723311605,993.0,66.31070255255256
890.8910068030174,980.0,64.3531663359562
891.8843084689187,980.0,62.022561207751075
892.8650366960112,1068.0,60.92024797143784
893.8457649231036,1043.0,59.49897797888386
894.9145072218582,1018.0,58.27049636010103
895.9581026429951,1093.0,57.51520766114566
896.9765511865141,1018.0,57.0850148281504
898.0704403628865,930.0,57.55820774797785
899.0888889064056,968.0,59.41580968324646
900.0193233782625,955.0,61.79025064458397
900.9874781665461,905.0,63.08219184016552
901.9430595160208,993.0,63.67927817650186
902.84834711026,1031.0,63.156300040713596
903.8416487761613,943.0,61.62487706253644
904.8726707584892,1043.0,60.74118928475866
905.815678669155,1068.0,59.77084430992261
906.8592740902918,968.0,59.08620815497282
907.9280163890464,1031.0,58.53533785194252
908.8961711773301,1018.0,58.76904898917437
909.927193159658,980.0,59.69316692671976
910.9456417031771,1056.0,59.42832543487827
911.9263699302695,1018.0,58.966467711301036
912.9825387902152,917.0,58.966467711301036
914.0009873337343,993.0,60.36323448334178
914.9188483667824,1018.0,61.56172604452321
915.9121500326837,930.0,61.56172604452321
916.9305985762028,1018.0,61.267272508795706
917.8610330480597,1018.0,60.77012045378711
918.8794815915788,917.0,60.77012045378711
919.8979301350979,855.0,61.064573989514614
920.8157911681459,867.0,64.81880311079276
921.6707850071496,905.0,68.2340215756344
922.5383522849621,880.0,68.53665437624323
923.4436398792013,1031.0,67.8683190821256
924.3237805958228,1068.0,64.21361883468833
925.3548025781507,968.0,60.83481262553801
926.4235448769053,653.0,58.76904898917437
927.3916996651889,465.0,57.24336167758216
928.510735719179,653.0,69.11916574998034
929.1645545372406,490.0,89.24711912993372
929.6549186507868,1056.0,90.3109487179487
930.7110875107326,1068.0,78.43514464555052
931.7798298094872,1119.0,55.521891980612466
932.8988658634772,1093.0,54.86892071624465
933.9927550398496,980.0,56.5483273527454
934.973483266942,993.0,58.81064850194182
935.9667849328433,993.0,60.66211132749107
936.9600865987446,917.0,62.05887809953181
937.8779476317927,1005.0,61.807194871683706
938.8838227365029,993.0,61.807194871683706
939.8771244024042,968.0,60.67526959148446
940.8452791906878,905.0,62.88448903592891
941.7505667849271,930.0,64.24493891618891
942.6810012567839,955.0,64.51674992097361
943.6365826062587,943.0,63.63306214319582
944.5795905169244,905.0,64.23014847953216
945.4848781111637,993.0,63.43535933895921
946.478179777065,1043.0,61.39116592530459
947.5217751982018,1005.0,59.18194648086014
948.527650302912,980.0,59.44008312480691
949.5083785300044,1043.0,59.44008312480691
950.5519739511412,1043.0,58.72142137781896
951.5955693722781,943.0,59.53713317269076
952.538577282944,1043.0,59.53713317269076
953.5821727040808,1018.0,60.01032609251821
954.6006212475999,993.0,58.93647765369965
955.5939229135012,930.0,61.267272508795706
956.5243573853581,829.0,65.73034209353196
957.354204346744,855.0,68.9874191598015
958.2091981857477,930.0,68.9874191598015
959.1396326576047,980.0,65.27963827402061
960.1203608846971,905.0,63.98009742434742
961.0256484789363,1018.0,62.122495489078815
962.0440970224554,1056.0,60.66586728395061
963.100265882401,968.0,59.23130920314253
964.0684206706846,1068.0,58.30719126559714
965.1371629694393,1093.0,57.654220001229326
966.2310521458115,955.0,57.926031006014014
967.1866334952863,930.0,60.70775087882801
968.1170679671432,930.0,63.91966358463726
969.0475024390001,968.0,63.647852579852575
970.0156572272837,930.0,63.647852579852575
970.9460916991407,980.0,62.54553934353934
971.9268199262331,1068.0,60.601291215197094
972.9955622249877,980.0,59.49897797888385
973.9762904520801,1093.0,57.38937850938783
975.0701796284525,1081.0,57.171780971768136
976.151495366016,1018.0,56.41649227281277
977.169943909535,1093.0,56.41649227281277
978.2638330859073,1018.0,57.55820774797785
979.2822816294264,930.0,59.41580968324646
980.2127161012834,980.0,61.525409152742476
981.1934443283758,1005.0,61.77087797990297
982.199319433086,943.0,61.48427653846153
983.1423273437518,1056.0,85.27587055555554
983.5949711408714,1068.0,98.53118722222221
984.1984962036976,968.0,96.03606879084967
985.2672385024522,1018.0,72.50931626559714
986.2353932907357,1043.0,59.008530771769976
987.2538418342548,980.0,59.45945578948791
988.2974372553916,1043.0,59.19461429764642
989.278165482484,1005.0,58.72142137781896
990.3217609036209,930.0,59.44008312480691
991.3276360083311,968.0,60.54239636112015
992.258070480188,980.0,62.035719471744464
993.2262252684716,917.0,62.54553934353934
994.2069534955641,943.0,62.839992879266845
995.1248145286121,1005.0,63.390863182297146
996.067822439278,943.0,62.88104331050227
997.0736975439881,892.0,62.299988333333324
998.016705454654,867.0,63.49483377934271
998.9094196100842,817.0,66.66458341702388
999.7769868878968,804.0,69.92743059651106
1000.5942604104739,880.0,72.377797233835
1001.398960494242,968.0,72.04847259615384
1002.2791012108635,892.0,68.23475511363637
1003.247255999147,993.0,65.78438847631242
1004.1399701545773,1031.0,63.19564670416052
1005.1332718204786,993.0,61.93603473076805
1006.1642938028066,980.0,59.667340845940096
1007.1575954687079,1093.0,59.925477489886866
1008.1383236958004,1056.0,58.81064850194182
1009.2322128721727,968.0,57.612156940760386
1010.2883817321184,993.0,57.87699843260188
1011.256536520402,980.0,59.72846125815113
1012.2498381863034,892.0,61.18508946327933
1013.2305664133958,955.0,62.93080521231902
1014.1232805688261,993.0,63.725594352891974
1015.0788619183007,955.0,63.467457708945204
1016.0721635842021,968.0,61.9935529646902
1017.0277449336768,1068.0,61.721741959905515
1017.9958997219603,1056.0,60.30047196735153
1019.0646420207149,1018.0,58.30719126559714
1020.1208108806607,1081.0,57.287061074800285
1021.1392594241797,1068.0,57.06946353718058
1022.2205751617432,993.0,56.846685105808035
1023.2893174604978,1005.0,57.343837160816626
1024.2826191263991,1018.0,58.731021463142206
1025.2884942311093,943.0,59.655139400687595
1026.3069427746284,993.0,60.72898783950616
1027.2499506852942,1031.0,60.980671067354265
1028.2432523511955,943.0,60.74118928475866
1029.2742743335234,1031.0,60.74118928475866
1030.2172822441894,1043.0,60.00455544715446
1031.2483042265173,943.0,59.77084430992261
1032.2918996476542,1005.0,59.77084430992261
1033.23490755832,1031.0,60.255794919678706
1034.2407826630301,955.0,60.48950605691056
1035.271804645358,968.0,60.21044675866494
1036.2273859948327,980.0,60.98510812230131
1037.1955407831163,993.0,61.979878603852285
1038.176269010209,917.0,61.18508946327933
1039.1695706761102,1005.0,62.31701474347858
1040.0874317091582,1031.0,61.807194871683706
1041.0933068138684,1018.0,61.0705610340795
1042.1243287961963,930.0,58.91850556308339
1043.1427773397154,993.0,60.530638671191504
1044.0732118115723,1005.0,61.267272508795706
1045.0665134774738,955.0,61.5127413359562
1046.072388582184,968.0,60.947080596269146
1047.0279699316586,1005.0,61.47005873205741
1047.9961247199421,1005.0,61.47005873205741
1049.0019998246523,930.0,60.42358636363635
1050.0078749293625,980.0,61.261058108108095
1050.9383094012194,1031.0,61.77087797990297
1051.919037628312,955.0,61.28592737014687
1052.95005961064,880.0,60.72026663045982
1053.9056409601146,905.0,63.05087175866495
1054.785781676736,905.0,65.7450418128655
1055.6910692709753,880.0,66.90778888888889
1056.5963568652144,968.0,66.90778888888889
1057.4764975818357,1031.0,65.47323080808081
1058.4446523701195,955.0,62.77906075388026
1059.4756743524474,1005.0,60.98510812230131
1060.431255701922,1005.0,60.21044675866494
1061.4371308066322,930.0,60.69539736842104
1062.4430059113424,917.0,61.261058108108095
1063.3734403831993,968.0,63.16764475194371
1064.2913014162475,943.0,63.94230611558008
1065.259456204531,905.0,63.65570467413864
1066.2024641151968,1018.0,63.95833747474747
1067.107751709436,1043.0,62.93820728395061
1068.126200252955,955.0,60.89401387029599
1069.1697956740918,993.0,59.7312667942726
1070.1253770235667,968.0,60.2284188492812
1071.118678689468,892.0,61.721741959905515
1072.0868334777515,880.0,63.19564670416052
1072.9795476331817,917.0,65.78438847631242
1073.8596883498033,917.0,66.91631375651167
1074.7775493828512,842.0,66.30252328767122
1075.6954104158992,943.0,67.31998895931301
1076.5378308160941,1005.0,66.73893398214406
1077.4808387267599,943.0,64.83234733830844
1078.48671383147,968.0,62.299988333333324
1079.429721742136,993.0,61.74911803030302
1080.3978765304196,892.0,62.00080125815113
1081.3911781963209,943.0,63.19564670416052
1082.283892351751,1005.0,63.74651700719082
1083.226900262417,968.0,63.49483377934271
1084.2327753671273,892.0,61.74911803030302
1085.2009301554108,993.0,62.94396347631241
1086.093644310841,1018.0,63.19564670416052
1087.0869459767423,968.0,62.175516513363654
1088.1053945202614,980.0,60.429800764323964
1089.0735493085451,1031.0,60.687937408270734
1090.0542775356375,1043.0,60.44845562567513
1091.0852995179655,968.0,58.95513251505081
1092.1288949391023,1018.0,59.21997400689231
1093.0970497273859,1031.0,59.45945578948791
1094.115498270905,955.0,59.69316692671976
1095.146520253233,892.0,59.96497793150445
1096.1021016027075,955.0,62.730823871341
1096.994815758138,1005.0,64.26224684951816
1097.9503971076126,930.0,63.2157744810971
1098.9562722123228,930.0,62.30753047652915
1099.8867066841797,905.0,62.873191216216206
1100.8171411560365,905.0,65.08241066066066
1101.7224287502759,867.0,65.67949699699699
1102.627716344515,968.0,67.23711352657004
1103.4952836223276,1005.0,65.80255544576195
1104.4634384106112,943.0,63.59333600131752
1105.4693135153213,1005.0,61.74911803030302
1106.412321425987,1043.0,60.974456666666654
1107.4181965306973,1018.0,60.255794919678706
1108.4617919518341,968.0,58.68479442585154
1109.4802404953532,1043.0,59.45945578948791
1110.4483952836367,1005.0,59.45945578948791
1111.4919907047736,917.0,59.704924616648405
1112.497865809484,892.0,60.83684989684765
1113.415726842532,892.0,64.07588875651166
1114.3084409979622,905.0,66.59626586918772
1115.2011551533926,867.0,66.89889866979655
1116.1064427476317,880.0,67.54827119480166
1116.9740100254444,905.0,67.8683190821256
1117.8541507420657,943.0,67.8683190821256
1118.7594383363048,892.0,66.02410111111111
1119.7024462469708,943.0,65.70405322378716
1120.595160402401,1005.0,64.82036544600939
1121.5381683130668,980.0,63.49483377934271
1122.544043417777,968.0,61.48427653846153
1123.5247716448694,1031.0,60.93340623543123
1124.4929264331531,1043.0,60.44845562567513
1125.523948415481,930.0,59.21997400689231
1126.567543836618,955.0,60.05744575136405
1127.4979783084748,943.0,61.588868729541204
1128.4535596579494,892.0,63.63306214319582
1129.3965675686152,955.0,64.54130614776378
1130.2892817240456,980.0,64.54130614776378
1131.2448630735203,930.0,63.725594352891974
1132.2255913006127,1005.0,62.81735034832403
1133.1560257724695,1031.0,61.77087797990297
1134.16190087718,1005.0,60.776107498352
1135.192922859508,930.0,59.16397439024389
1136.198797964218,943.0,60.776107498352
1137.129232436075,943.0,62.586589774774765
1138.0722403467407,892.0,63.912121441441435
1139.0152482574065,930.0,64.82036544600939
1139.907962412837,943.0,65.10696688745082
1140.8383968846938,892.0,65.10696688745082
1141.7814047953595,917.0,65.10696688745082
1142.67411895079,943.0,65.40142042317834
1143.591979983838,892.0,65.40142042317834
1144.5349878945037,880.0,65.40142042317834
1145.4277020499342,892.0,66.33525877934272
1146.3078427665555,855.0,67.5301042253521
1147.200556921986,855.0,68.5184874067937
1148.0555507609895,905.0,69.18682270091134
1148.9105445999933,917.0,68.87566503267973
1149.8158321942324,855.0,67.2734913823977
1150.7336932272804,905.0,67.2734913823977
1151.5886870662841,955.0,67.2734913823977
1152.4939746605232,930.0,66.41337710698313
1153.4495560099979,905.0,64.51674992097361
1154.379990481855,1018.0,64.51674992097361
1155.285278076094,1056.0,63.22480872539205
1156.3037266196131,955.0,60.66586728395061
1157.3598954795589,1005.0,59.50312020792722
1158.3154768290335,1056.0,59.74858903508771
1159.3213519337437,943.0,59.74858903508771
1160.3775207936894,1018.0,60.027648333333325
1161.3205287043554,1031.0,59.78217950617283
1162.3389772478745,980.0,60.24403722975006
1163.3699992302024,968.0,59.42832543487827
1164.3507274572949,993.0,60.44845562567513
1165.3188822455784,955.0,61.18508946327933
1166.3121839114797,892.0,61.721741959905515
1167.2677652609543,930.0,63.467457708945204
1168.1604794163848,955.0,64.82790758920521
1169.0909138882416,930.0,64.82790758920521
1170.0464952377163,917.0,63.91966358463726
1170.9769297095734,968.0,64.21411712036476
1171.8947907426214,968.0,63.94230611558008
1172.8629455309049,943.0,63.10483437110834
1173.8311003191884,1031.0,62.52377939393939
1174.7741082298544,1043.0,61.264167420546926
1175.8051302121823,980.0,59.77084430992261
1176.848725633319,1018.0,58.95513251505081
1177.8294538604116,1068.0,59.19461429764642
1178.8479024039307,968.0,58.74368927992849
1179.9166447026853,905.0,59.008530771769976
1180.8847994909688,867.0,61.46321904337492
1181.790087085208,842.0,65.80255544576197
1182.6576543630206,792.0,68.88578475376738
1183.5000747632153,855.0,72.04181253154516
1184.2922014081746,968.0,72.38082318798165
1185.1471952471782,968.0,69.29759387997623
1186.115350035462,943.0,64.70700802139038
1187.0835048237454,1068.0,62.52377939393939
1188.0265127344112,1093.0,60.57953126559714
1189.0952550331658,993.0,58.205090304259635
1190.1891442095382,1106.0,57.13124186544106
1191.1824458754395,1068.0,56.49328544832876
1192.2889084906208,1005.0,56.92347828132402
1193.3576507893752,N/A,56.671795053475925
1194.3635258940856,N/A,58.4793382352941
