2022-12-14 17:20:07.767846, 1.51026
2022-12-14 17:20:07.768097, 1.51026
2022-12-14 17:20:07.768588, 1.50048
2022-12-14 17:20:07.801388, 1.49071
2022-12-14 17:20:07.801742, 1.50048
2022-12-14 17:20:07.802422, 1.48582
2022-12-14 17:20:07.834932, 1.48093
2022-12-14 17:20:07.834932, 1.46627
2022-12-14 17:20:07.868374, 1.46627
2022-12-14 17:20:07.868910, 1.46138
2022-12-14 17:20:07.868910, 1.46627
2022-12-14 17:20:07.900787, 1.47605
2022-12-14 17:20:07.901794, 1.48582
2022-12-14 17:20:07.901794, 1.52003
2022-12-14 17:20:07.935445, 1.55425
2022-12-14 17:20:07.935803, 1.58846
2022-12-14 17:20:07.969095, 1.61290
2022-12-14 17:20:07.969344, 1.64222
2022-12-14 17:20:07.969344, 1.69110
2022-12-14 17:20:08.002569, 1.66666
2022-12-14 17:20:08.002874, 1.66177
2022-12-14 17:20:08.002874, 1.66666
2022-12-14 17:20:08.036270, 1.66666
2022-12-14 17:20:08.036628, 1.65200
2022-12-14 17:20:08.069674, 1.66177
2022-12-14 17:20:08.069922, 1.64711
2022-12-14 17:20:08.069922, 1.65200
2022-12-14 17:20:08.103356, 1.64711
2022-12-14 17:20:08.103658, 1.64222
2022-12-14 17:20:08.103658, 1.64711
2022-12-14 17:20:08.136894, 1.65200
2022-12-14 17:20:08.136894, 1.64711
2022-12-14 17:20:08.170342, 1.63245
2022-12-14 17:20:08.171344, 1.63245
2022-12-14 17:20:08.171344, 1.63245
2022-12-14 17:20:08.203841, 1.61290
2022-12-14 17:20:08.203841, 1.61290
2022-12-14 17:20:08.204843, 1.60801
2022-12-14 17:20:08.237398, 1.61290
2022-12-14 17:20:08.238423, 1.60801
2022-12-14 17:20:08.270098, 1.60312
2022-12-14 17:20:08.270098, 1.60801
2022-12-14 17:20:08.271094, 1.61290
2022-12-14 17:20:08.304115, 1.61290
2022-12-14 17:20:08.305118, 1.60312
2022-12-14 17:20:08.305118, 1.60801
2022-12-14 17:20:08.337527, 1.64222
2022-12-14 17:20:08.338529, 1.59824
2022-12-14 17:20:08.370955, 1.59335
2022-12-14 17:20:08.371990, 1.59824
2022-12-14 17:20:08.371990, 1.59335
2022-12-14 17:20:08.404317, 1.57869
2022-12-14 17:20:08.405319, 1.56891
2022-12-14 17:20:08.405319, 1.59335
2022-12-14 17:20:08.437698, 1.56402
2022-12-14 17:20:08.438701, 1.56402
2022-12-14 17:20:08.470638, 1.54447
2022-12-14 17:20:08.471637, 1.53958
2022-12-14 17:20:08.471637, 1.54447
2022-12-14 17:20:08.504465, 1.53958
2022-12-14 17:20:08.505466, 1.52492
2022-12-14 17:20:08.505466, 1.54936
2022-12-14 17:20:08.538594, 1.52492
2022-12-14 17:20:08.538594, 1.52981
2022-12-14 17:20:08.572372, 1.51026
2022-12-14 17:20:08.572372, 1.51515
2022-12-14 17:20:08.573373, 1.51515
2022-12-14 17:20:08.605657, 1.51026
2022-12-14 17:20:08.606038, 1.50537
2022-12-14 17:20:08.606448, 1.50048
2022-12-14 17:20:08.639300, 1.51026
2022-12-14 17:20:08.639706, 1.50537
2022-12-14 17:20:08.672819, 1.49560
2022-12-14 17:20:08.672819, 1.51026
2022-12-14 17:20:08.673819, 1.49560
2022-12-14 17:20:08.706214, 1.49560
2022-12-14 17:20:08.706600, 1.51026
2022-12-14 17:20:08.706600, 1.48093
2022-12-14 17:20:08.739652, 1.48582
2022-12-14 17:20:08.740085, 1.50537
2022-12-14 17:20:08.773666, 1.48093
2022-12-14 17:20:08.773915, 1.47116
2022-12-14 17:20:08.773915, 1.50048
2022-12-14 17:20:08.806563, 1.48093
2022-12-14 17:20:08.807365, 1.46627
2022-12-14 17:20:08.807365, 1.47605
2022-12-14 17:20:08.839949, 1.47116
2022-12-14 17:20:08.840875, 1.47605
2022-12-14 17:20:08.873204, 1.49071
2022-12-14 17:20:08.874199, 1.49071
2022-12-14 17:20:08.874199, 1.52003
2022-12-14 17:20:08.907900, 1.56402
2022-12-14 17:20:08.907900, 1.59335
2022-12-14 17:20:08.908930, 1.62756
2022-12-14 17:20:08.941431, 1.65689
2022-12-14 17:20:08.941752, 1.68621
2022-12-14 17:20:08.974897, 1.71554
2022-12-14 17:20:08.974897, 1.69110
2022-12-14 17:20:08.975904, 1.70087
2022-12-14 17:20:09.008396, 1.70087
2022-12-14 17:20:09.008396, 1.70576
2022-12-14 17:20:09.009401, 1.70087
2022-12-14 17:20:09.041546, 1.68621
2022-12-14 17:20:09.041908, 1.70087
2022-12-14 17:20:09.075224, 1.67155
2022-12-14 17:20:09.075490, 1.66666
2022-12-14 17:20:09.075490, 1.67155
2022-12-14 17:20:09.108998, 1.68132
2022-12-14 17:20:09.108998, 1.68621
2022-12-14 17:20:09.110002, 1.67644
2022-12-14 17:20:09.142421, 1.67644
2022-12-14 17:20:09.142421, 1.67644
2022-12-14 17:20:09.176119, 1.66666
2022-12-14 17:20:09.176365, 1.65200
2022-12-14 17:20:09.176365, 1.65200
2022-12-14 17:20:09.209621, 1.65689
2022-12-14 17:20:09.209920, 1.65689
2022-12-14 17:20:09.210524, 1.64711
2022-12-14 17:20:09.243233, 1.65200
2022-12-14 17:20:09.243586, 1.66177
2022-12-14 17:20:09.276449, 1.66177
2022-12-14 17:20:09.277114, 1.65200
2022-12-14 17:20:09.277114, 1.65689
2022-12-14 17:20:09.310292, 1.67644
2022-12-14 17:20:09.310292, 1.65689
2022-12-14 17:20:09.311292, 1.64222
2022-12-14 17:20:09.343830, 1.64222
2022-12-14 17:20:09.343830, 1.64711
2022-12-14 17:20:09.377274, 1.64222
2022-12-14 17:20:09.377761, 1.62756
2022-12-14 17:20:09.378795, 1.61779
2022-12-14 17:20:09.410776, 1.62267
2022-12-14 17:20:09.410776, 1.62267
2022-12-14 17:20:09.411776, 1.61290
2022-12-14 17:20:09.444455, 1.61290
2022-12-14 17:20:09.444817, 1.61290
2022-12-14 17:20:09.477991, 1.64711
2022-12-14 17:20:09.478242, 1.60801
2022-12-14 17:20:09.478242, 1.60312
2022-12-14 17:20:09.511445, 1.60312
2022-12-14 17:20:09.511750, 1.61290
2022-12-14 17:20:09.512284, 1.59824
2022-12-14 17:20:09.544913, 1.59335
2022-12-14 17:20:09.545272, 1.59824
2022-12-14 17:20:09.578458, 1.61290
2022-12-14 17:20:09.578710, 1.59335
2022-12-14 17:20:09.579200, 1.59335
2022-12-14 17:20:09.612045, 1.59335
2022-12-14 17:20:09.612045, 1.59824
2022-12-14 17:20:09.613046, 1.58846
2022-12-14 17:20:09.645392, 1.59335
2022-12-14 17:20:09.645392, 1.58846
2022-12-14 17:20:09.678209, 1.59335
2022-12-14 17:20:09.679216, 1.58357
2022-12-14 17:20:09.679216, 1.58357
2022-12-14 17:20:09.712123, 1.57869
2022-12-14 17:20:09.712123, 1.58357
2022-12-14 17:20:09.712123, 1.57869
2022-12-14 17:20:09.745021, 1.58846
2022-12-14 17:20:09.746016, 1.57380
2022-12-14 17:20:09.779636, 1.57869
2022-12-14 17:20:09.779884, 1.59335
2022-12-14 17:20:09.779884, 1.56891
2022-12-14 17:20:09.813359, 1.56891
2022-12-14 17:20:09.813664, 1.59824
2022-12-14 17:20:09.814274, 1.56891
2022-12-14 17:20:09.846943, 1.55913
2022-12-14 17:20:09.847348, 1.56891
2022-12-14 17:20:09.880439, 1.57869
2022-12-14 17:20:09.880689, 1.60312
2022-12-14 17:20:09.880689, 1.62267
2022-12-14 17:20:09.913916, 1.68132
2022-12-14 17:20:09.913916, 1.69599
2022-12-14 17:20:09.914806, 1.72531
2022-12-14 17:20:09.947496, 1.73998
2022-12-14 17:20:09.947854, 1.75464
2022-12-14 17:20:09.980943, 1.76930
2022-12-14 17:20:09.980943, 1.76930
2022-12-14 17:20:09.981944, 1.75953
2022-12-14 17:20:10.013420, 1.75464
2022-12-14 17:20:10.014429, 1.76441
2022-12-14 17:20:10.014429, 1.78396
2022-12-14 17:20:10.047907, 1.73509
2022-12-14 17:20:10.048269, 1.73509
2022-12-14 17:20:10.081408, 1.73998
2022-12-14 17:20:10.081656, 1.73998
2022-12-14 17:20:10.081656, 1.73020
2022-12-14 17:20:10.114962, 1.73509
2022-12-14 17:20:10.115267, 1.73998
2022-12-14 17:20:10.115267, 1.73998
2022-12-14 17:20:10.148582, 1.72531
2022-12-14 17:20:10.148941, 1.72043
2022-12-14 17:20:10.182237, 1.72531
2022-12-14 17:20:10.182487, 1.72531
2022-12-14 17:20:10.182487, 1.71554
2022-12-14 17:20:10.215670, 1.72043
2022-12-14 17:20:10.216020, 1.72043
2022-12-14 17:20:10.216509, 1.72531
2022-12-14 17:20:10.249185, 1.72043
2022-12-14 17:20:10.249576, 1.72531
2022-12-14 17:20:10.282700, 1.73020
2022-12-14 17:20:10.282700, 1.73020
2022-12-14 17:20:10.283702, 1.71065
2022-12-14 17:20:10.315776, 1.70576
2022-12-14 17:20:10.316060, 1.70576
2022-12-14 17:20:10.316545, 1.71065
2022-12-14 17:20:10.349628, 1.69110
2022-12-14 17:20:10.349990, 1.68621
2022-12-14 17:20:10.383248, 1.68132
2022-12-14 17:20:10.383498, 1.68132
2022-12-14 17:20:10.383498, 1.67644
2022-12-14 17:20:10.416780, 1.65689
2022-12-14 17:20:10.417087, 1.65689
2022-12-14 17:20:10.417702, 1.67155
2022-12-14 17:20:10.450297, 1.64711
2022-12-14 17:20:10.450297, 1.63734
2022-12-14 17:20:10.483874, 1.64711
2022-12-14 17:20:10.484127, 1.63734
2022-12-14 17:20:10.485128, 1.62756
2022-12-14 17:20:10.517427, 1.61779
2022-12-14 17:20:10.517740, 1.62267
2022-12-14 17:20:10.518274, 1.62267
2022-12-14 17:20:10.550971, 1.60801
2022-12-14 17:20:10.551975, 1.59824
2022-12-14 17:20:10.584428, 1.59824
2022-12-14 17:20:10.585179, 1.61779
2022-12-14 17:20:10.586182, 1.59824
2022-12-14 17:20:10.616688, 1.58357
2022-12-14 17:20:10.617697, 1.57869
2022-12-14 17:20:10.617697, 1.57869
2022-12-14 17:20:10.651280, 1.56891
2022-12-14 17:20:10.651280, 1.57380
2022-12-14 17:20:10.685050, 1.55913
2022-12-14 17:20:10.685050, 1.55913
2022-12-14 17:20:10.685977, 1.55425
2022-12-14 17:20:10.718566, 1.54936
2022-12-14 17:20:10.718868, 1.53958
2022-12-14 17:20:10.719473, 1.53470
2022-12-14 17:20:10.752153, 1.53958
2022-12-14 17:20:10.752513, 1.52492
2022-12-14 17:20:10.785719, 1.51515
2022-12-14 17:20:10.785968, 1.52003
2022-12-14 17:20:10.785968, 1.52492
2022-12-14 17:20:10.819330, 1.55913
2022-12-14 17:20:10.819673, 1.55425
2022-12-14 17:20:10.820164, 1.57869
2022-12-14 17:20:10.852931, 1.61290
2022-12-14 17:20:10.852931, 1.65689
2022-12-14 17:20:10.886514, 1.65689
2022-12-14 17:20:10.886514, 1.67155
2022-12-14 17:20:10.887515, 1.68132
2022-12-14 17:20:10.920257, 1.67155
2022-12-14 17:20:10.920257, 1.66666
2022-12-14 17:20:10.921258, 1.66666
2022-12-14 17:20:10.952763, 1.66666
2022-12-14 17:20:10.953770, 1.64711
2022-12-14 17:20:10.985757, 1.63734
2022-12-14 17:20:10.986447, 1.63734
2022-12-14 17:20:10.986447, 1.64222
2022-12-14 17:20:11.020345, 1.63734
2022-12-14 17:20:11.020649, 1.63734
2022-12-14 17:20:11.020649, 1.62756
2022-12-14 17:20:11.053934, 1.63734
2022-12-14 17:20:11.054299, 1.62267
2022-12-14 17:20:11.087395, 1.62756
2022-12-14 17:20:11.088308, 1.61290
2022-12-14 17:20:11.088308, 1.61779
2022-12-14 17:20:11.121085, 1.59824
2022-12-14 17:20:11.121388, 1.59335
2022-12-14 17:20:11.122389, 1.60801
2022-12-14 17:20:11.154648, 1.60312
2022-12-14 17:20:11.154648, 1.59335
2022-12-14 17:20:11.188132, 1.59335
2022-12-14 17:20:11.189139, 1.62267
2022-12-14 17:20:11.189139, 1.59824
2022-12-14 17:20:11.221600, 1.59335
2022-12-14 17:20:11.221600, 1.60801
2022-12-14 17:20:11.222602, 1.58846
2022-12-14 17:20:11.255004, 1.58846
2022-12-14 17:20:11.256011, 1.57380
2022-12-14 17:20:11.288324, 1.56891
2022-12-14 17:20:11.288324, 1.56402
2022-12-14 17:20:11.289327, 1.56891
2022-12-14 17:20:11.321915, 1.56402
2022-12-14 17:20:11.322919, 1.55425
2022-12-14 17:20:11.322919, 1.54447
2022-12-14 17:20:11.355347, 1.55425
2022-12-14 17:20:11.356355, 1.54936
2022-12-14 17:20:11.388613, 1.54447
2022-12-14 17:20:11.389624, 1.53470
2022-12-14 17:20:11.389624, 1.53958
2022-12-14 17:20:11.421826, 1.55913
2022-12-14 17:20:11.422852, 1.52492
2022-12-14 17:20:11.422852, 1.52492
2022-12-14 17:20:11.455484, 1.54936
2022-12-14 17:20:11.456486, 1.52492
2022-12-14 17:20:11.488859, 1.53958
2022-12-14 17:20:11.489870, 1.51515
2022-12-14 17:20:11.489870, 1.52003
2022-12-14 17:20:11.522214, 1.52003
2022-12-14 17:20:11.523217, 1.51026
2022-12-14 17:20:11.523217, 1.51515
2022-12-14 17:20:11.556595, 1.51515
2022-12-14 17:20:11.556595, 1.51515
2022-12-14 17:20:11.589973, 1.51026
2022-12-14 17:20:11.589973, 1.50048
2022-12-14 17:20:11.590970, 1.50537
2022-12-14 17:20:11.623284, 1.51515
2022-12-14 17:20:11.624292, 1.50048
2022-12-14 17:20:11.624292, 1.50048
2022-12-14 17:20:11.656398, 1.50537
2022-12-14 17:20:11.657395, 1.50537
2022-12-14 17:20:11.691010, 1.49560
2022-12-14 17:20:11.691010, 1.49560
2022-12-14 17:20:11.692011, 1.52492
2022-12-14 17:20:11.724450, 1.50048
2022-12-14 17:20:11.724756, 1.49071
2022-12-14 17:20:11.724756, 1.49560
2022-12-14 17:20:11.757751, 1.49560
2022-12-14 17:20:11.758374, 1.49560
2022-12-14 17:20:11.791429, 1.49071
2022-12-14 17:20:11.791429, 1.49560
2022-12-14 17:20:11.792430, 1.51026
2022-12-14 17:20:11.824923, 1.54447
2022-12-14 17:20:11.825384, 1.56402
2022-12-14 17:20:11.825915, 1.59824
2022-12-14 17:20:11.858319, 1.63245
2022-12-14 17:20:11.858854, 1.67155
2022-12-14 17:20:11.892002, 1.68132
2022-12-14 17:20:11.892327, 1.69110
2022-12-14 17:20:11.892327, 1.70576
2022-12-14 17:20:11.925391, 1.70576
2022-12-14 17:20:11.925758, 1.69599
2022-12-14 17:20:11.925758, 1.68621
2022-12-14 17:20:11.959189, 1.68132
2022-12-14 17:20:11.959189, 1.68621
2022-12-14 17:20:11.992639, 1.67155
2022-12-14 17:20:11.992639, 1.66666
2022-12-14 17:20:11.993672, 1.66666
2022-12-14 17:20:12.025431, 1.67644
2022-12-14 17:20:12.025431, 1.67644
2022-12-14 17:20:12.026389, 1.66666
2022-12-14 17:20:12.059618, 1.67644
2022-12-14 17:20:12.060025, 1.68132
2022-12-14 17:20:12.092712, 1.68132
2022-12-14 17:20:12.093197, 1.66666
2022-12-14 17:20:12.093737, 1.66177
2022-12-14 17:20:12.126406, 1.66177
2022-12-14 17:20:12.126406, 1.65689
2022-12-14 17:20:12.127408, 1.65200
2022-12-14 17:20:12.160282, 1.65689
2022-12-14 17:20:12.160645, 1.66177
2022-12-14 17:20:12.193835, 1.66666
2022-12-14 17:20:12.194085, 1.65689
2022-12-14 17:20:12.194705, 1.67644
2022-12-14 17:20:12.227286, 1.66177
2022-12-14 17:20:12.227592, 1.66177
2022-12-14 17:20:12.228072, 1.64711
2022-12-14 17:20:12.260775, 1.64222
2022-12-14 17:20:12.261137, 1.64711
2022-12-14 17:20:12.294194, 1.64711
2022-12-14 17:20:12.294194, 1.62756
2022-12-14 17:20:12.295195, 1.62267
2022-12-14 17:20:12.327221, 1.62267
2022-12-14 17:20:12.327863, 1.62756
2022-12-14 17:20:12.327863, 1.60801
2022-12-14 17:20:12.361165, 1.60312
2022-12-14 17:20:12.361529, 1.60801
2022-12-14 17:20:12.394238, 1.60801
2022-12-14 17:20:12.394238, 1.60312
2022-12-14 17:20:12.395235, 1.59335
2022-12-14 17:20:12.428552, 1.59335
2022-12-14 17:20:12.428856, 1.58846
2022-12-14 17:20:12.428856, 1.60801
2022-12-14 17:20:12.462128, 1.57869
2022-12-14 17:20:12.462128, 1.57869
2022-12-14 17:20:12.495567, 1.60312
2022-12-14 17:20:12.495816, 1.57380
2022-12-14 17:20:12.496294, 1.56891
2022-12-14 17:20:12.528836, 1.57869
2022-12-14 17:20:12.528836, 1.57869
2022-12-14 17:20:12.528836, 1.56402
2022-12-14 17:20:12.562634, 1.57380
2022-12-14 17:20:12.562994, 1.55913
2022-12-14 17:20:12.596280, 1.56891
2022-12-14 17:20:12.596529, 1.57380
2022-12-14 17:20:12.596529, 1.54936
2022-12-14 17:20:12.629534, 1.55425
2022-12-14 17:20:12.630541, 1.55425
2022-12-14 17:20:12.630541, 1.54936
2022-12-14 17:20:12.662666, 1.54936
2022-12-14 17:20:12.662666, 1.53958
2022-12-14 17:20:12.696674, 1.54447
2022-12-14 17:20:12.696922, 1.56891
2022-12-14 17:20:12.697545, 1.53470
2022-12-14 17:20:12.730321, 1.53958
2022-12-14 17:20:12.730321, 1.53958
2022-12-14 17:20:12.731322, 1.52981
2022-12-14 17:20:12.764036, 1.52981
2022-12-14 17:20:12.764395, 1.52981
2022-12-14 17:20:12.797619, 1.53470
2022-12-14 17:20:12.797905, 1.52981
2022-12-14 17:20:12.797905, 1.52981
2022-12-14 17:20:12.830315, 1.54936
2022-12-14 17:20:12.830813, 1.57380
2022-12-14 17:20:12.831293, 1.59824
2022-12-14 17:20:12.864523, 1.63734
2022-12-14 17:20:12.864523, 1.66177
2022-12-14 17:20:12.898169, 1.69599
2022-12-14 17:20:12.898418, 1.71554
2022-12-14 17:20:12.898953, 1.72043
2022-12-14 17:20:12.931494, 1.72531
2022-12-14 17:20:12.931985, 1.73509
2022-12-14 17:20:12.932987, 1.73020
2022-12-14 17:20:12.964338, 1.71554
2022-12-14 17:20:12.965345, 1.70576
2022-12-14 17:20:12.997873, 1.70576
2022-12-14 17:20:12.997873, 1.71065
2022-12-14 17:20:12.998837, 1.69599
2022-12-14 17:20:13.032133, 1.70087
2022-12-14 17:20:13.032437, 1.70087
2022-12-14 17:20:13.032437, 1.71065
2022-12-14 17:20:13.064961, 1.70087
2022-12-14 17:20:13.064961, 1.70087
2022-12-14 17:20:13.099309, 1.70576
2022-12-14 17:20:13.099555, 1.71065
2022-12-14 17:20:13.099555, 1.69599
2022-12-14 17:20:13.132979, 1.69110
2022-12-14 17:20:13.133312, 1.69110
2022-12-14 17:20:13.134005, 1.70087
2022-12-14 17:20:13.166502, 1.69110
2022-12-14 17:20:13.166906, 1.68621
2022-12-14 17:20:13.199992, 1.69599
2022-12-14 17:20:13.200290, 1.70576
2022-12-14 17:20:13.200864, 1.69599
2022-12-14 17:20:13.233385, 1.69599
2022-12-14 17:20:13.233693, 1.72531
2022-12-14 17:20:13.233693, 1.72043
2022-12-14 17:20:13.266804, 1.69599
2022-12-14 17:20:13.266804, 1.69110
2022-12-14 17:20:13.299735, 1.68621
2022-12-14 17:20:13.299735, 1.68621
2022-12-14 17:20:13.300742, 1.67644
2022-12-14 17:20:13.332666, 1.67644
2022-12-14 17:20:13.333673, 1.66666
2022-12-14 17:20:13.333673, 1.67155
2022-12-14 17:20:13.367012, 1.66177
2022-12-14 17:20:13.367012, 1.65200
2022-12-14 17:20:13.399659, 1.65689
2022-12-14 17:20:13.400675, 1.65689
2022-12-14 17:20:13.400675, 1.64711
2022-12-14 17:20:13.434583, 1.63734
2022-12-14 17:20:13.434889, 1.64711
2022-12-14 17:20:13.434889, 1.64711
2022-12-14 17:20:13.468109, 1.63734
2022-12-14 17:20:13.468470, 1.62756
2022-12-14 17:20:13.501643, 1.65200
2022-12-14 17:20:13.501939, 1.63734
2022-12-14 17:20:13.502467, 1.63245
2022-12-14 17:20:13.535334, 1.62267
2022-12-14 17:20:13.535334, 1.64222
2022-12-14 17:20:13.536335, 1.63245
2022-12-14 17:20:13.568629, 1.62756
2022-12-14 17:20:13.568629, 1.64222
2022-12-14 17:20:13.602145, 1.61779
2022-12-14 17:20:13.602145, 1.62756
2022-12-14 17:20:13.603183, 1.62267
2022-12-14 17:20:13.635100, 1.62756
2022-12-14 17:20:13.636107, 1.61290
2022-12-14 17:20:13.636107, 1.61290
2022-12-14 17:20:13.668246, 1.61290
2022-12-14 17:20:13.669042, 1.60801
2022-12-14 17:20:13.702614, 1.60312
2022-12-14 17:20:13.702863, 1.61290
2022-12-14 17:20:13.703484, 1.60801
2022-12-14 17:20:13.736170, 1.59824
2022-12-14 17:20:13.736170, 1.61290
2022-12-14 17:20:13.737171, 1.59824
2022-12-14 17:20:13.769779, 1.59824
2022-12-14 17:20:13.770143, 1.58846
2022-12-14 17:20:13.803316, 1.58357
2022-12-14 17:20:13.803565, 1.58846
2022-12-14 17:20:13.803565, 1.60801
2022-12-14 17:20:13.836929, 1.61290
2022-12-14 17:20:13.837236, 1.63734
2022-12-14 17:20:13.837843, 1.67644
2022-12-14 17:20:13.870428, 1.71554
2022-12-14 17:20:13.870786, 1.73020
2022-12-14 17:20:13.903868, 1.77419
2022-12-14 17:20:13.903868, 1.77419
2022-12-14 17:20:13.904786, 1.76930
2022-12-14 17:20:13.937503, 1.75953
2022-12-14 17:20:13.937810, 1.75464
2022-12-14 17:20:13.938414, 1.75464
2022-12-14 17:20:13.971029, 1.75464
2022-12-14 17:20:13.971029, 1.73998
2022-12-14 17:20:14.003936, 1.73998
2022-12-14 17:20:14.004568, 1.73509
2022-12-14 17:20:14.005161, 1.75953
2022-12-14 17:20:14.038122, 1.73020
2022-12-14 17:20:14.038122, 1.72531
2022-12-14 17:20:14.039125, 1.73020
2022-12-14 17:20:14.071838, 1.73020
2022-12-14 17:20:14.072840, 1.72531
2022-12-14 17:20:14.104019, 1.74486
2022-12-14 17:20:14.105027, 1.73020
2022-12-14 17:20:14.105027, 1.72531
2022-12-14 17:20:14.137831, 1.71554
2022-12-14 17:20:14.138371, 1.71554
2022-12-14 17:20:14.138371, 1.71554
2022-12-14 17:20:14.171769, 1.72531
2022-12-14 17:20:14.172104, 1.72043
2022-12-14 17:20:14.205697, 1.72043
2022-12-14 17:20:14.205947, 1.72043
2022-12-14 17:20:14.205947, 1.74486
2022-12-14 17:20:14.239294, 1.74975
2022-12-14 17:20:14.240296, 1.70576
2022-12-14 17:20:14.240296, 1.70087
2022-12-14 17:20:14.272726, 1.70087
2022-12-14 17:20:14.273728, 1.69110
2022-12-14 17:20:14.306033, 1.68132
2022-12-14 17:20:14.307034, 1.67155
2022-12-14 17:20:14.307034, 1.67155
2022-12-14 17:20:14.339715, 1.66666
2022-12-14 17:20:14.340722, 1.65689
2022-12-14 17:20:14.340722, 1.65689
2022-12-14 17:20:14.373245, 1.65200
2022-12-14 17:20:14.374246, 1.64711
2022-12-14 17:20:14.406554, 1.63245
2022-12-14 17:20:14.407556, 1.62756
2022-12-14 17:20:14.407556, 1.63245
2022-12-14 17:20:14.439994, 1.62267
2022-12-14 17:20:14.439994, 1.60801
2022-12-14 17:20:14.440997, 1.60801
2022-12-14 17:20:14.473378, 1.61779
2022-12-14 17:20:14.474380, 1.62756
2022-12-14 17:20:14.506828, 1.59824
2022-12-14 17:20:14.506828, 1.59335
2022-12-14 17:20:14.507832, 1.59824
2022-12-14 17:20:14.540149, 1.59824
2022-12-14 17:20:14.541149, 1.60312
2022-12-14 17:20:14.541149, 1.58357
2022-12-14 17:20:14.574415, 1.57869
2022-12-14 17:20:14.574415, 1.57869
2022-12-14 17:20:14.607541, 1.56402
2022-12-14 17:20:14.607872, 1.56891
2022-12-14 17:20:14.608280, 1.56402
2022-12-14 17:20:14.641495, 1.56402
2022-12-14 17:20:14.641801, 1.54936
2022-12-14 17:20:14.641801, 1.55425
2022-12-14 17:20:14.674979, 1.54936
2022-12-14 17:20:14.675341, 1.55425
2022-12-14 17:20:14.708555, 1.53958
2022-12-14 17:20:14.708801, 1.53470
2022-12-14 17:20:14.708801, 1.54936
2022-12-14 17:20:14.742035, 1.54447
2022-12-14 17:20:14.742349, 1.52492
2022-12-14 17:20:14.742349, 1.53470
2022-12-14 17:20:14.775491, 1.54936
2022-12-14 17:20:14.776158, 1.57869
2022-12-14 17:20:14.809010, 1.61290
2022-12-14 17:20:14.809566, 1.62756
2022-12-14 17:20:14.809566, 1.65200
2022-12-14 17:20:14.842554, 1.68132
2022-12-14 17:20:14.843046, 1.69110
2022-12-14 17:20:14.843459, 1.72043
2022-12-14 17:20:14.876086, 1.69599
2022-12-14 17:20:14.876473, 1.70087
2022-12-14 17:20:14.909601, 1.69110
2022-12-14 17:20:14.909876, 1.70576
2022-12-14 17:20:14.909876, 1.70087
2022-12-14 17:20:14.942655, 1.67644
2022-12-14 17:20:14.943286, 1.66666
2022-12-14 17:20:14.943286, 1.65689
2022-12-14 17:20:14.976664, 1.65689
2022-12-14 17:20:14.977073, 1.66666
2022-12-14 17:20:15.010280, 1.66666
2022-12-14 17:20:15.010280, 1.65689
2022-12-14 17:20:15.011305, 1.66177
2022-12-14 17:20:15.043857, 1.68132
2022-12-14 17:20:15.043857, 1.67155
2022-12-14 17:20:15.044832, 1.65200
2022-12-14 17:20:15.076963, 1.64222
2022-12-14 17:20:15.076963, 1.65200
2022-12-14 17:20:15.110888, 1.66666
2022-12-14 17:20:15.111139, 1.63734
2022-12-14 17:20:15.111669, 1.64222
2022-12-14 17:20:15.144485, 1.64711
2022-12-14 17:20:15.144790, 1.64711
2022-12-14 17:20:15.144790, 1.64222
2022-12-14 17:20:15.177839, 1.64222
2022-12-14 17:20:15.177839, 1.65200
2022-12-14 17:20:15.211444, 1.64222
2022-12-14 17:20:15.211444, 1.62756
2022-12-14 17:20:15.212418, 1.62267
2022-12-14 17:20:15.244951, 1.62267
2022-12-14 17:20:15.244951, 1.63734
2022-12-14 17:20:15.245960, 1.60801
2022-12-14 17:20:15.277690, 1.60312
2022-12-14 17:20:15.278600, 1.59824
2022-12-14 17:20:15.312075, 1.60312
2022-12-14 17:20:15.312327, 1.59824
2022-12-14 17:20:15.312327, 1.58357
2022-12-14 17:20:15.345793, 1.58846
2022-12-14 17:20:15.346101, 1.59824
2022-12-14 17:20:15.346101, 1.57380
2022-12-14 17:20:15.379145, 1.57380
2022-12-14 17:20:15.379548, 1.57869
2022-12-14 17:20:15.412656, 1.59824
2022-12-14 17:20:15.412656, 1.56891
2022-12-14 17:20:15.413440, 1.56402
2022-12-14 17:20:15.446363, 1.56891
2022-12-14 17:20:15.446668, 1.56891
2022-12-14 17:20:15.446668, 1.55913
2022-12-14 17:20:15.479882, 1.55425
2022-12-14 17:20:15.479882, 1.55913
2022-12-14 17:20:15.513352, 1.56891
2022-12-14 17:20:15.514382, 1.55425
2022-12-14 17:20:15.514382, 1.54936
2022-12-14 17:20:15.546016, 1.54936
2022-12-14 17:20:15.547013, 1.55425
2022-12-14 17:20:15.547013, 1.54936
2022-12-14 17:20:15.579943, 1.54447
2022-12-14 17:20:15.580270, 1.56402
2022-12-14 17:20:15.613928, 1.54936
2022-12-14 17:20:15.613928, 1.54447
2022-12-14 17:20:15.614929, 1.55425
2022-12-14 17:20:15.647505, 1.53958
2022-12-14 17:20:15.647811, 1.54447
2022-12-14 17:20:15.647811, 1.55913
2022-12-14 17:20:15.681197, 1.52981
2022-12-14 17:20:15.681602, 1.52981
2022-12-14 17:20:15.714647, 1.53958
2022-12-14 17:20:15.714897, 1.53470
2022-12-14 17:20:15.714897, 1.52492
2022-12-14 17:20:15.748055, 1.54447
2022-12-14 17:20:15.748362, 1.53470
2022-12-14 17:20:15.748853, 1.53958
2022-12-14 17:20:15.781629, 1.57869
2022-12-14 17:20:15.781991, 1.57380
2022-12-14 17:20:15.815144, 1.60801
2022-12-14 17:20:15.815394, 1.64711
2022-12-14 17:20:15.815932, 1.66177
2022-12-14 17:20:15.848707, 1.69110
2022-12-14 17:20:15.849015, 1.71065
2022-12-14 17:20:15.849015, 1.72043
2022-12-14 17:20:15.882141, 1.72043
2022-12-14 17:20:15.882141, 1.72043
2022-12-14 17:20:15.915067, 1.72531
2022-12-14 17:20:15.915067, 1.74486
2022-12-14 17:20:15.916075, 1.70087
2022-12-14 17:20:15.948809, 1.70087
2022-12-14 17:20:15.948809, 1.70087
2022-12-14 17:20:15.948809, 1.70087
2022-12-14 17:20:15.982424, 1.69110
2022-12-14 17:20:15.982762, 1.69110
2022-12-14 17:20:16.016217, 1.70087
2022-12-14 17:20:16.016463, 1.70087
2022-12-14 17:20:16.016463, 1.69110
2022-12-14 17:20:16.049775, 1.69110
2022-12-14 17:20:16.050080, 1.69599
2022-12-14 17:20:16.050692, 1.69599
2022-12-14 17:20:16.083468, 1.68132
2022-12-14 17:20:16.083834, 1.67644
2022-12-14 17:20:16.116965, 1.68621
2022-12-14 17:20:16.117216, 1.69110
2022-12-14 17:20:16.117216, 1.67644
2022-12-14 17:20:16.150488, 1.68132
2022-12-14 17:20:16.150795, 1.68621
2022-12-14 17:20:16.151270, 1.69599
2022-12-14 17:20:16.184185, 1.68621
2022-12-14 17:20:16.184551, 1.68621
2022-12-14 17:20:16.217549, 1.68621
2022-12-14 17:20:16.217549, 1.72043
2022-12-14 17:20:16.218550, 1.67644
2022-12-14 17:20:16.251021, 1.67155
2022-12-14 17:20:16.251507, 1.67155
2022-12-14 17:20:16.252509, 1.67644
2022-12-14 17:20:16.283893, 1.66177
2022-12-14 17:20:16.283893, 1.65200
2022-12-14 17:20:16.316667, 1.65200
2022-12-14 17:20:16.317675, 1.65689
2022-12-14 17:20:16.317675, 1.64222
2022-12-14 17:20:16.351506, 1.64222
2022-12-14 17:20:16.351812, 1.63734
2022-12-14 17:20:16.351812, 1.64222
2022-12-14 17:20:16.385117, 1.63245
2022-12-14 17:20:16.385479, 1.64222
2022-12-14 17:20:16.418663, 1.62756
2022-12-14 17:20:16.418914, 1.63245
2022-12-14 17:20:16.419534, 1.63245
2022-12-14 17:20:16.452233, 1.64222
2022-12-14 17:20:16.452540, 1.62267
2022-12-14 17:20:16.453150, 1.62756
2022-12-14 17:20:16.485806, 1.63245
2022-12-14 17:20:16.486167, 1.61290
2022-12-14 17:20:16.519378, 1.61290
2022-12-14 17:20:16.519629, 1.62267
2022-12-14 17:20:16.520238, 1.61779
2022-12-14 17:20:16.552949, 1.60801
2022-12-14 17:20:16.553281, 1.61290
2022-12-14 17:20:16.553914, 1.61779
2022-12-14 17:20:16.585426, 1.61290
2022-12-14 17:20:16.586428, 1.60312
2022-12-14 17:20:16.619865, 1.60801
2022-12-14 17:20:16.620896, 1.60801
2022-12-14 17:20:16.620896, 1.60801
2022-12-14 17:20:16.652230, 1.59335
2022-12-14 17:20:16.653240, 1.60312
2022-12-14 17:20:16.653240, 1.60312
2022-12-14 17:20:16.686954, 1.60312
2022-12-14 17:20:16.687315, 1.62267
2022-12-14 17:20:16.720373, 1.59335
2022-12-14 17:20:16.720373, 1.59824
2022-12-14 17:20:16.721373, 1.59335
2022-12-14 17:20:16.753955, 1.61290
2022-12-14 17:20:16.754258, 1.58357
2022-12-14 17:20:16.754258, 1.59335
2022-12-14 17:20:16.787555, 1.63245
2022-12-14 17:20:16.787916, 1.61290
2022-12-14 17:20:16.821053, 1.64222
2022-12-14 17:20:16.821303, 1.69110
2022-12-14 17:20:16.821897, 1.71065
2022-12-14 17:20:16.854647, 1.73020
2022-12-14 17:20:16.854953, 1.74975
2022-12-14 17:20:16.855518, 1.76930
2022-12-14 17:20:16.888253, 1.78396
2022-12-14 17:20:16.888253, 1.77908
2022-12-14 17:20:16.921748, 1.77419
2022-12-14 17:20:16.921748, 1.77419
2022-12-14 17:20:16.922749, 1.77908
2022-12-14 17:20:16.955300, 1.75953
2022-12-14 17:20:16.955300, 1.75464
2022-12-14 17:20:16.956302, 1.75464
2022-12-14 17:20:16.988862, 1.75953
2022-12-14 17:20:16.988862, 1.75464
2022-12-14 17:20:17.022216, 1.74486
2022-12-14 17:20:17.022216, 1.74975
2022-12-14 17:20:17.023218, 1.75953
2022-12-14 17:20:17.055567, 1.75464
2022-12-14 17:20:17.055567, 1.74975
2022-12-14 17:20:17.056605, 1.74486
2022-12-14 17:20:17.089039, 1.74975
2022-12-14 17:20:17.089039, 1.73998
2022-12-14 17:20:17.122842, 1.73998
2022-12-14 17:20:17.123093, 1.74486
2022-12-14 17:20:17.123672, 1.75464
2022-12-14 17:20:17.156392, 1.74975
2022-12-14 17:20:17.156704, 1.74486
2022-12-14 17:20:17.156704, 1.74975
2022-12-14 17:20:17.189891, 1.75953
2022-12-14 17:20:17.190254, 1.75464
2022-12-14 17:20:17.223421, 1.75464
2022-12-14 17:20:17.223671, 1.76930
2022-12-14 17:20:17.224672, 1.74486
2022-12-14 17:20:17.256939, 1.74975
2022-12-14 17:20:17.257941, 1.72531
2022-12-14 17:20:17.257941, 1.71554
2022-12-14 17:20:17.290154, 1.72531
2022-12-14 17:20:17.290154, 1.72531
2022-12-14 17:20:17.322948, 1.73020
2022-12-14 17:20:17.323943, 1.70087
2022-12-14 17:20:17.323943, 1.70576
2022-12-14 17:20:17.356177, 1.69599
2022-12-14 17:20:17.357174, 1.68132
2022-12-14 17:20:17.357174, 1.71554
2022-12-14 17:20:17.390338, 1.68621
2022-12-14 17:20:17.390338, 1.68132
2022-12-14 17:20:17.424125, 1.70087
2022-12-14 17:20:17.424125, 1.67155
2022-12-14 17:20:17.425123, 1.67155
2022-12-14 17:20:17.457529, 1.68132
2022-12-14 17:20:17.457529, 1.65689
2022-12-14 17:20:17.458532, 1.65689
2022-12-14 17:20:17.490441, 1.66666
2022-12-14 17:20:17.491439, 1.66177
2022-12-14 17:20:17.523952, 1.65200
2022-12-14 17:20:17.524949, 1.64711
2022-12-14 17:20:17.525947, 1.64711
2022-12-14 17:20:17.557995, 1.66177
2022-12-14 17:20:17.557995, 1.64222
2022-12-14 17:20:17.558994, 1.63734
2022-12-14 17:20:17.591710, 1.64222
2022-12-14 17:20:17.591710, 1.64222
2022-12-14 17:20:17.625390, 1.63245
2022-12-14 17:20:17.625633, 1.62756
2022-12-14 17:20:17.626162, 1.62756
2022-12-14 17:20:17.658917, 1.63245
2022-12-14 17:20:17.658917, 1.65200
2022-12-14 17:20:17.659914, 1.61779
2022-12-14 17:20:17.691672, 1.61290
2022-12-14 17:20:17.692652, 1.61779
2022-12-14 17:20:17.725919, 1.60801
2022-12-14 17:20:17.725919, 1.64711
2022-12-14 17:20:17.726923, 1.64222
2022-12-14 17:20:17.759237, 1.66666
2022-12-14 17:20:17.759237, 1.69110
2022-12-14 17:20:17.760238, 1.72043
2022-12-14 17:20:17.792885, 1.73998
2022-12-14 17:20:17.793503, 1.76930
2022-12-14 17:20:17.826534, 1.76930
2022-12-14 17:20:17.826534, 1.77419
2022-12-14 17:20:17.827536, 1.77419
2022-12-14 17:20:17.859740, 1.77419
2022-12-14 17:20:17.859740, 1.75953
2022-12-14 17:20:17.860741, 1.74975
2022-12-14 17:20:17.893575, 1.73998
2022-12-14 17:20:17.894548, 1.73998
2022-12-14 17:20:17.927094, 1.72531
2022-12-14 17:20:17.927975, 1.71554
2022-12-14 17:20:17.927975, 1.71554
2022-12-14 17:20:17.960514, 1.72043
2022-12-14 17:20:17.961506, 1.71554
2022-12-14 17:20:17.961702, 1.70576
2022-12-14 17:20:17.993843, 1.71554
2022-12-14 17:20:17.994518, 1.70576
2022-12-14 17:20:18.026946, 1.69110
2022-12-14 17:20:18.027948, 1.68132
2022-12-14 17:20:18.028295, 1.68132
2022-12-14 17:20:18.061135, 1.68621
2022-12-14 17:20:18.061135, 1.67644
2022-12-14 17:20:18.062139, 1.66666
2022-12-14 17:20:18.094708, 1.67155
2022-12-14 17:20:18.094708, 1.69110
2022-12-14 17:20:18.128511, 1.67155
2022-12-14 17:20:18.129155, 1.65689
2022-12-14 17:20:18.129155, 1.66177
2022-12-14 17:20:18.161647, 1.65689
2022-12-14 17:20:18.162610, 1.65200
2022-12-14 17:20:18.162610, 1.63734
2022-12-14 17:20:18.195385, 1.65689
2022-12-14 17:20:18.196386, 1.63245
2022-12-14 17:20:18.229192, 1.65689
2022-12-14 17:20:18.229192, 1.61290
2022-12-14 17:20:18.230193, 1.62756
2022-12-14 17:20:18.262608, 1.60801
2022-12-14 17:20:18.262608, 1.60312
2022-12-14 17:20:18.263610, 1.58846
2022-12-14 17:20:18.296040, 1.58846
2022-12-14 17:20:18.296454, 1.58846
2022-12-14 17:20:18.329598, 1.60801
2022-12-14 17:20:18.330320, 1.57380
2022-12-14 17:20:18.331316, 1.56891
2022-12-14 17:20:18.363094, 1.56891
2022-12-14 17:20:18.363094, 1.57380
2022-12-14 17:20:18.364091, 1.55913
2022-12-14 17:20:18.395992, 1.56402
2022-12-14 17:20:18.396992, 1.54936
2022-12-14 17:20:18.430353, 1.55913
2022-12-14 17:20:18.430799, 1.54447
2022-12-14 17:20:18.431801, 1.53958
2022-12-14 17:20:18.463359, 1.54936
2022-12-14 17:20:18.463359, 1.54447
2022-12-14 17:20:18.464401, 1.52981
2022-12-14 17:20:18.497505, 1.52981
2022-12-14 17:20:18.498507, 1.54447
2022-12-14 17:20:18.530697, 1.53470
2022-12-14 17:20:18.530697, 1.52492
2022-12-14 17:20:18.531699, 1.51515
2022-12-14 17:20:18.563975, 1.52003
2022-12-14 17:20:18.564972, 1.52981
2022-12-14 17:20:18.564972, 1.52003
2022-12-14 17:20:18.597502, 1.51026
2022-12-14 17:20:18.598499, 1.51515
2022-12-14 17:20:18.631276, 1.52003
2022-12-14 17:20:18.631710, 1.53958
2022-12-14 17:20:18.632725, 1.51026
2022-12-14 17:20:18.664884, 1.50537
2022-12-14 17:20:18.665422, 1.51515
2022-12-14 17:20:18.665422, 1.51026
2022-12-14 17:20:18.697692, 1.50048
2022-12-14 17:20:18.698690, 1.53470
2022-12-14 17:20:18.731742, 1.53958
2022-12-14 17:20:18.731742, 1.53958
2022-12-14 17:20:18.731742, 1.56402
2022-12-14 17:20:18.765547, 1.59335
2022-12-14 17:20:18.766550, 1.63245
2022-12-14 17:20:18.766550, 1.66177
2022-12-14 17:20:18.798989, 1.70087
2022-12-14 17:20:18.798989, 1.70087
2022-12-14 17:20:18.832125, 1.71554
2022-12-14 17:20:18.833126, 1.71554
2022-12-14 17:20:18.833126, 1.71065
2022-12-14 17:20:18.866077, 1.71065
2022-12-14 17:20:18.866077, 1.71065
2022-12-14 17:20:18.867041, 1.70087
2022-12-14 17:20:18.898955, 1.68621
2022-12-14 17:20:18.899923, 1.68621
2022-12-14 17:20:18.932201, 1.69110
2022-12-14 17:20:18.933199, 1.69110
2022-12-14 17:20:18.933199, 1.68621
2022-12-14 17:20:18.966391, 1.68132
2022-12-14 17:20:18.966391, 1.69110
2022-12-14 17:20:18.967391, 1.69599
2022-12-14 17:20:19.000290, 1.69110
2022-12-14 17:20:19.000290, 1.68621
2022-12-14 17:20:19.032734, 1.69110
2022-12-14 17:20:19.033733, 1.68621
2022-12-14 17:20:19.033733, 1.67155
2022-12-14 17:20:19.066629, 1.67155
2022-12-14 17:20:19.067591, 1.68132
2022-12-14 17:20:19.067591, 1.68621
2022-12-14 17:20:19.100710, 1.67644
2022-12-14 17:20:19.101121, 1.67644
2022-12-14 17:20:19.133767, 1.68621
2022-12-14 17:20:19.133767, 1.69110
2022-12-14 17:20:19.134765, 1.67644
2022-12-14 17:20:19.167729, 1.67155
2022-12-14 17:20:19.168214, 1.67644
2022-12-14 17:20:19.168214, 1.70576
2022-12-14 17:20:19.201209, 1.65689
2022-12-14 17:20:19.201747, 1.65200
2022-12-14 17:20:19.234842, 1.64711
2022-12-14 17:20:19.234842, 1.65689
2022-12-14 17:20:19.234842, 1.63734
2022-12-14 17:20:19.267954, 1.62756
2022-12-14 17:20:19.267954, 1.62756
2022-12-14 17:20:19.268950, 1.63245
2022-12-14 17:20:19.301233, 1.64711
2022-12-14 17:20:19.302229, 1.60801
2022-12-14 17:20:19.335333, 1.61290
2022-12-14 17:20:19.335333, 1.61779
2022-12-14 17:20:19.336331, 1.60312
2022-12-14 17:20:19.368766, 1.59824
2022-12-14 17:20:19.368766, 1.60312
2022-12-14 17:20:19.369762, 1.59824
2022-12-14 17:20:19.402740, 1.58846
2022-12-14 17:20:19.403743, 1.61290
2022-12-14 17:20:19.435990, 1.57869
2022-12-14 17:20:19.435990, 1.59335
2022-12-14 17:20:19.436987, 1.57869
2022-12-14 17:20:19.468795, 1.56891
2022-12-14 17:20:19.469793, 1.56891
2022-12-14 17:20:19.469793, 1.57380
2022-12-14 17:20:19.502845, 1.57380
2022-12-14 17:20:19.503839, 1.56402
2022-12-14 17:20:19.536102, 1.55913
2022-12-14 17:20:19.537101, 1.56402
2022-12-14 17:20:19.537101, 1.56402
2022-12-14 17:20:19.569929, 1.55425
2022-12-14 17:20:19.570931, 1.55425
2022-12-14 17:20:19.571195, 1.55913
2022-12-14 17:20:19.603675, 1.55913
2022-12-14 17:20:19.604212, 1.54447
2022-12-14 17:20:19.637144, 1.54936
2022-12-14 17:20:19.637144, 1.54936
2022-12-14 17:20:19.638141, 1.54936
2022-12-14 17:20:19.670546, 1.54447
2022-12-14 17:20:19.670980, 1.53958
2022-12-14 17:20:19.670980, 1.54447
2022-12-14 17:20:19.704288, 1.57380
2022-12-14 17:20:19.705290, 1.54447
2022-12-14 17:20:19.737939, 1.57380
2022-12-14 17:20:19.738941, 1.58846
2022-12-14 17:20:19.738941, 1.62267
2022-12-14 17:20:19.771150, 1.64711
2022-12-14 17:20:19.771150, 1.68132
2022-12-14 17:20:19.772149, 1.71065
2022-12-14 17:20:19.804708, 1.73998
2022-12-14 17:20:19.805710, 1.73998
2022-12-14 17:20:19.837860, 1.74486
2022-12-14 17:20:19.838857, 1.75953
2022-12-14 17:20:19.838857, 1.75953
2022-12-14 17:20:19.871796, 1.74486
2022-12-14 17:20:19.871796, 1.73998
2022-12-14 17:20:19.872793, 1.74486
2022-12-14 17:20:19.905342, 1.76930
2022-12-14 17:20:19.905959, 1.72531
2022-12-14 17:20:19.938847, 1.73020
2022-12-14 17:20:19.938847, 1.73509
2022-12-14 17:20:19.939876, 1.73509
2022-12-14 17:20:19.971936, 1.73020
2022-12-14 17:20:19.972933, 1.73020
2022-12-14 17:20:19.972933, 1.73509
2022-12-14 17:20:20.006247, 1.73998
2022-12-14 17:20:20.007068, 1.72531
2022-12-14 17:20:20.039177, 1.72043
2022-12-14 17:20:20.039689, 1.74975
2022-12-14 17:20:20.040691, 1.73020
2022-12-14 17:20:20.073123, 1.73020
2022-12-14 17:20:20.074125, 1.71065
2022-12-14 17:20:20.074125, 1.72043
2022-12-14 17:20:20.105802, 1.72531
2022-12-14 17:20:20.106835, 1.72043
2022-12-14 17:20:20.139933, 1.72043
2022-12-14 17:20:20.140384, 1.72531
2022-12-14 17:20:20.141385, 1.74975
2022-12-14 17:20:20.173733, 1.71554
2022-12-14 17:20:20.174736, 1.70576
2022-12-14 17:20:20.174736, 1.70576
2022-12-14 17:20:20.207201, 1.71065
2022-12-14 17:20:20.207201, 1.70087
2022-12-14 17:20:20.240033, 1.71065
2022-12-14 17:20:20.241034, 1.69110
2022-12-14 17:20:20.241034, 1.69110
2022-12-14 17:20:20.273937, 1.68132
2022-12-14 17:20:20.273937, 1.67155
2022-12-14 17:20:20.274937, 1.68621
2022-12-14 17:20:20.307895, 1.67155
2022-12-14 17:20:20.307895, 1.66666
2022-12-14 17:20:20.341411, 1.65200
2022-12-14 17:20:20.342412, 1.66177
2022-12-14 17:20:20.342412, 1.66177
2022-12-14 17:20:20.374743, 1.65689
2022-12-14 17:20:20.374743, 1.68132
2022-12-14 17:20:20.375743, 1.64711
2022-12-14 17:20:20.407625, 1.65200
2022-12-14 17:20:20.408625, 1.65200
2022-12-14 17:20:20.441956, 1.64222
2022-12-14 17:20:20.442958, 1.63734
2022-12-14 17:20:20.442958, 1.64222
2022-12-14 17:20:20.474745, 1.64711
2022-12-14 17:20:20.475745, 1.62756
2022-12-14 17:20:20.475745, 1.62756
2022-12-14 17:20:20.508210, 1.64222
2022-12-14 17:20:20.509205, 1.63734
2022-12-14 17:20:20.541653, 1.62267
2022-12-14 17:20:20.542650, 1.65200
2022-12-14 17:20:20.542650, 1.62756
2022-12-14 17:20:20.575218, 1.63245
2022-12-14 17:20:20.576220, 1.61779
2022-12-14 17:20:20.576790, 1.61779
2022-12-14 17:20:20.609743, 1.62267
2022-12-14 17:20:20.609743, 1.62267
2022-12-14 17:20:20.642848, 1.61290
2022-12-14 17:20:20.642848, 1.60801
2022-12-14 17:20:20.643847, 1.61290
2022-12-14 17:20:20.676170, 1.61290
2022-12-14 17:20:20.677169, 1.60801
2022-12-14 17:20:20.678165, 1.62267
2022-12-14 17:20:20.710238, 1.65200
2022-12-14 17:20:20.710238, 1.68132
2022-12-14 17:20:20.742983, 1.70576
2022-12-14 17:20:20.743979, 1.73509
2022-12-14 17:20:20.743979, 1.76441
2022-12-14 17:20:20.776971, 1.79374
2022-12-14 17:20:20.777972, 1.79863
2022-12-14 17:20:20.777972, 1.80351
2022-12-14 17:20:20.810107, 1.82795
2022-12-14 17:20:20.811073, 1.83284
2022-12-14 17:20:20.844096, 1.79863
2022-12-14 17:20:20.844096, 1.78396
2022-12-14 17:20:20.845096, 1.77908
2022-12-14 17:20:20.877128, 1.80840
2022-12-14 17:20:20.878093, 1.77419
2022-12-14 17:20:20.879120, 1.76441
2022-12-14 17:20:20.911574, 1.79374
2022-12-14 17:20:20.911574, 1.80351
2022-12-14 17:20:20.944058, 1.76930
2022-12-14 17:20:20.945055, 1.75953
2022-12-14 17:20:20.945055, 1.78396
2022-12-14 17:20:20.977992, 1.76441
2022-12-14 17:20:20.978971, 1.75953
2022-12-14 17:20:20.978971, 1.74975
2022-12-14 17:20:21.011091, 1.75464
2022-12-14 17:20:21.012089, 1.76441
2022-12-14 17:20:21.044816, 1.76930
2022-12-14 17:20:21.045815, 1.75953
2022-12-14 17:20:21.045815, 1.76441
2022-12-14 17:20:21.078795, 1.77419
2022-12-14 17:20:21.079552, 1.77419
2022-12-14 17:20:21.079552, 1.75953
2022-12-14 17:20:21.112116, 1.75953
2022-12-14 17:20:21.113081, 1.75953
2022-12-14 17:20:21.145151, 1.75464
2022-12-14 17:20:21.146178, 1.75464
2022-12-14 17:20:21.146178, 1.74975
2022-12-14 17:20:21.179343, 1.72531
2022-12-14 17:20:21.179343, 1.71554
2022-12-14 17:20:21.180346, 1.70576
2022-12-14 17:20:21.213141, 1.70087
2022-12-14 17:20:21.213141, 1.71554
2022-12-14 17:20:21.246358, 1.69110
2022-12-14 17:20:21.246358, 1.67644
2022-12-14 17:20:21.247355, 1.67644
2022-12-14 17:20:21.280353, 1.70087
2022-12-14 17:20:21.280353, 1.67155
2022-12-14 17:20:21.280353, 1.68621
2022-12-14 17:20:21.313266, 1.64711
2022-12-14 17:20:21.313266, 1.65200
2022-12-14 17:20:21.347176, 1.65200
2022-12-14 17:20:21.347176, 1.66666
2022-12-14 17:20:21.348173, 1.63245
2022-12-14 17:20:21.380087, 1.62756
2022-12-14 17:20:21.381085, 1.62756
2022-12-14 17:20:21.381085, 1.61290
2022-12-14 17:20:21.413998, 1.60801
2022-12-14 17:20:21.413998, 1.60801
2022-12-14 17:20:21.446910, 1.60801
2022-12-14 17:20:21.447907, 1.59335
2022-12-14 17:20:21.447907, 1.58846
2022-12-14 17:20:21.480818, 1.59335
2022-12-14 17:20:21.481816, 1.59335
2022-12-14 17:20:21.481816, 1.57380
2022-12-14 17:20:21.514727, 1.56891
2022-12-14 17:20:21.515725, 1.58357
2022-12-14 17:20:21.548000, 1.56402
2022-12-14 17:20:21.548000, 1.55425
2022-12-14 17:20:21.548998, 1.54447
2022-12-14 17:20:21.581836, 1.54936
2022-12-14 17:20:21.581836, 1.54936
2022-12-14 17:20:21.581836, 1.55425
2022-12-14 17:20:21.614749, 1.56891
2022-12-14 17:20:21.615747, 1.59335
2022-12-14 17:20:21.648827, 1.63245
2022-12-14 17:20:21.648827, 1.66177
2022-12-14 17:20:21.649827, 1.71065
2022-12-14 17:20:21.682675, 1.71065
2022-12-14 17:20:21.682675, 1.73020
2022-12-14 17:20:21.682675, 1.73020
2022-12-14 17:20:21.715462, 1.73020
2022-12-14 17:20:21.716462, 1.72531
2022-12-14 17:20:21.749414, 1.72531
2022-12-14 17:20:21.749414, 1.72043
2022-12-14 17:20:21.749414, 1.70576
2022-12-14 17:20:21.782792, 1.69599
2022-12-14 17:20:21.783792, 1.69599
2022-12-14 17:20:21.783792, 1.69599
2022-12-14 17:20:21.816179, 1.68621
2022-12-14 17:20:21.817150, 1.69110
2022-12-14 17:20:21.849454, 1.69599
2022-12-14 17:20:21.850409, 1.69599
2022-12-14 17:20:21.850409, 1.69110
2022-12-14 17:20:21.882883, 1.69110
2022-12-14 17:20:21.883916, 1.71065
2022-12-14 17:20:21.883916, 1.69110
2022-12-14 17:20:21.916914, 1.66666
2022-12-14 17:20:21.916914, 1.66666
2022-12-14 17:20:21.949825, 1.67155
2022-12-14 17:20:21.950851, 1.67155
2022-12-14 17:20:21.951817, 1.67644
2022-12-14 17:20:21.983507, 1.66666
2022-12-14 17:20:21.984545, 1.67155
2022-12-14 17:20:21.984545, 1.67644
2022-12-14 17:20:22.017782, 1.66177
2022-12-14 17:20:22.017782, 1.66177
2022-12-14 17:20:22.050455, 1.67644
2022-12-14 17:20:22.051455, 1.66177
2022-12-14 17:20:22.051455, 1.64711
2022-12-14 17:20:22.084338, 1.64222
2022-12-14 17:20:22.085336, 1.64222
2022-12-14 17:20:22.085336, 1.67155
2022-12-14 17:20:22.117740, 1.61779
2022-12-14 17:20:22.118737, 1.62267
2022-12-14 17:20:22.151975, 1.63734
2022-12-14 17:20:22.151975, 1.61290
2022-12-14 17:20:22.152973, 1.60312
2022-12-14 17:20:22.185323, 1.59824
2022-12-14 17:20:22.185323, 1.59824
2022-12-14 17:20:22.186322, 1.60312
2022-12-14 17:20:22.219233, 1.58846
2022-12-14 17:20:22.219233, 1.57869
2022-12-14 17:20:22.252145, 1.61290
2022-12-14 17:20:22.252145, 1.58846
2022-12-14 17:20:22.253144, 1.60801
2022-12-14 17:20:22.286054, 1.57380
2022-12-14 17:20:22.286054, 1.57380
2022-12-14 17:20:22.287053, 1.57380
2022-12-14 17:20:22.318966, 1.56891
2022-12-14 17:20:22.319965, 1.56402
2022-12-14 17:20:22.352878, 1.56402
2022-12-14 17:20:22.352878, 1.56891
2022-12-14 17:20:22.353873, 1.55913
2022-12-14 17:20:22.386785, 1.55425
2022-12-14 17:20:22.386785, 1.57869
2022-12-14 17:20:22.387784, 1.56402
2022-12-14 17:20:22.419697, 1.54936
2022-12-14 17:20:22.420695, 1.54447
2022-12-14 17:20:22.453606, 1.54447
2022-12-14 17:20:22.453606, 1.55425
2022-12-14 17:20:22.454605, 1.56891
2022-12-14 17:20:22.486518, 1.53958
2022-12-14 17:20:22.487516, 1.53958
2022-12-14 17:20:22.487516, 1.53958
2022-12-14 17:20:22.520515, 1.56402
2022-12-14 17:20:22.520515, 1.53470
2022-12-14 17:20:22.553617, 1.52981
2022-12-14 17:20:22.554615, 1.53958
2022-12-14 17:20:22.554615, 1.53470
2022-12-14 17:20:22.587568, 1.53470
2022-12-14 17:20:22.588482, 1.54936
2022-12-14 17:20:22.588482, 1.58357
2022-12-14 17:20:22.621366, 1.61290
2022-12-14 17:20:22.621366, 1.64222
2022-12-14 17:20:22.655224, 1.70087
2022-12-14 17:20:22.655475, 1.72043
2022-12-14 17:20:22.656099, 1.74486
2022-12-14 17:20:22.688956, 1.74975
2022-12-14 17:20:22.689271, 1.75464
2022-12-14 17:20:22.689271, 1.76441
2022-12-14 17:20:22.721549, 1.76441
2022-12-14 17:20:22.721549, 1.74486
2022-12-14 17:20:22.755061, 1.73998
2022-12-14 17:20:22.755061, 1.73998
2022-12-14 17:20:22.756060, 1.76441
2022-12-14 17:20:22.788852, 1.72531
2022-12-14 17:20:22.788852, 1.72043
2022-12-14 17:20:22.789886, 1.72531
2022-12-14 17:20:22.822105, 1.73020
2022-12-14 17:20:22.823104, 1.72531
2022-12-14 17:20:22.856076, 1.72531
2022-12-14 17:20:22.856076, 1.73020
2022-12-14 17:20:22.857077, 1.73020
2022-12-14 17:20:22.889336, 1.72043
2022-12-14 17:20:22.889336, 1.71554
2022-12-14 17:20:22.890303, 1.71554
2022-12-14 17:20:22.923131, 1.75464
2022-12-14 17:20:22.923131, 1.73998
2022-12-14 17:20:22.955927, 1.73998
2022-12-14 17:20:22.956933, 1.72043
2022-12-14 17:20:22.956933, 1.72531
2022-12-14 17:20:22.990729, 1.72043
2022-12-14 17:20:22.991730, 1.72043
2022-12-14 17:20:22.991730, 1.72043
2022-12-14 17:20:23.023872, 1.72531
2022-12-14 17:20:23.024516, 1.71065
2022-12-14 17:20:23.057847, 1.70576
2022-12-14 17:20:23.058855, 1.70087
2022-12-14 17:20:23.058855, 1.70576
2022-12-14 17:20:23.090656, 1.71554
2022-12-14 17:20:23.091662, 1.68621
2022-12-14 17:20:23.091662, 1.68132
2022-12-14 17:20:23.124803, 1.68621
2022-12-14 17:20:23.125159, 1.67155
2022-12-14 17:20:23.158375, 1.67155
2022-12-14 17:20:23.158619, 1.69599
2022-12-14 17:20:23.159273, 1.66666
2022-12-14 17:20:23.191982, 1.66177
2022-12-14 17:20:23.192281, 1.67644
2022-12-14 17:20:23.192281, 1.65200
2022-12-14 17:20:23.225273, 1.65689
2022-12-14 17:20:23.225273, 1.65689
2022-12-14 17:20:23.259122, 1.64711
2022-12-14 17:20:23.259366, 1.64222
2022-12-14 17:20:23.260368, 1.64711
2022-12-14 17:20:23.292657, 1.63734
2022-12-14 17:20:23.292657, 1.63245
2022-12-14 17:20:23.293658, 1.63734
2022-12-14 17:20:23.325924, 1.64222
2022-12-14 17:20:23.326926, 1.66666
2022-12-14 17:20:23.359554, 1.62756
2022-12-14 17:20:23.359554, 1.62756
2022-12-14 17:20:23.360556, 1.64711
2022-12-14 17:20:23.393157, 1.63245
2022-12-14 17:20:23.394159, 1.62756
2022-12-14 17:20:23.394159, 1.61779
2022-12-14 17:20:23.426130, 1.62267
2022-12-14 17:20:23.427124, 1.61779
2022-12-14 17:20:23.459665, 1.60801
2022-12-14 17:20:23.460702, 1.62756
2022-12-14 17:20:23.460702, 1.61290
2022-12-14 17:20:23.493302, 1.62267
2022-12-14 17:20:23.494313, 1.60312
2022-12-14 17:20:23.494313, 1.60801
2022-12-14 17:20:23.526624, 1.61290
2022-12-14 17:20:23.527630, 1.60801
2022-12-14 17:20:23.560083, 1.60801
2022-12-14 17:20:23.561087, 1.59824
2022-12-14 17:20:23.561087, 1.61290
2022-12-14 17:20:23.593434, 1.63734
2022-12-14 17:20:23.594436, 1.66177
2022-12-14 17:20:23.594436, 1.70576
2022-12-14 17:20:23.626619, 1.75953
2022-12-14 17:20:23.627621, 1.77908
2022-12-14 17:20:23.659952, 1.79374
2022-12-14 17:20:23.660953, 1.80840
2022-12-14 17:20:23.660953, 1.81818
2022-12-14 17:20:23.693578, 1.83284
2022-12-14 17:20:23.694580, 1.84261
2022-12-14 17:20:23.694580, 1.83773
2022-12-14 17:20:23.728348, 1.80840
2022-12-14 17:20:23.728348, 1.80840
2022-12-14 17:20:23.760580, 1.79374
2022-12-14 17:20:23.761581, 1.78396
2022-12-14 17:20:23.761581, 1.78885
2022-12-14 17:20:23.794971, 1.78885
2022-12-14 17:20:23.794971, 1.78396
2022-12-14 17:20:23.795972, 1.78396
2022-12-14 17:20:23.828103, 1.78885
2022-12-14 17:20:23.829103, 1.80840
2022-12-14 17:20:23.862180, 1.77908
2022-12-14 17:20:23.862538, 1.79374
2022-12-14 17:20:23.862538, 1.77419
2022-12-14 17:20:23.895490, 1.77419
2022-12-14 17:20:23.895490, 1.76930
2022-12-14 17:20:23.896488, 1.76441
2022-12-14 17:20:23.929484, 1.77419
2022-12-14 17:20:23.929878, 1.77419
2022-12-14 17:20:23.962936, 1.76441
2022-12-14 17:20:23.962936, 1.75464
2022-12-14 17:20:23.963940, 1.75464
2022-12-14 17:20:23.996333, 1.75464
2022-12-14 17:20:23.996333, 1.73998
2022-12-14 17:20:23.997335, 1.73509
2022-12-14 17:20:24.029913, 1.73509
2022-12-14 17:20:24.029913, 1.72043
2022-12-14 17:20:24.062295, 1.71065
2022-12-14 17:20:24.063294, 1.69599
2022-12-14 17:20:24.063294, 1.69599
2022-12-14 17:20:24.096916, 1.68621
2022-12-14 17:20:24.097560, 1.67644
2022-12-14 17:20:24.097560, 1.66177
2022-12-14 17:20:24.130604, 1.65689
2022-12-14 17:20:24.130604, 1.65200
2022-12-14 17:20:24.163714, 1.64711
2022-12-14 17:20:24.163714, 1.63245
2022-12-14 17:20:24.164714, 1.62756
2022-12-14 17:20:24.197753, 1.65200
2022-12-14 17:20:24.198060, 1.63245
2022-12-14 17:20:24.198677, 1.61290
2022-12-14 17:20:24.231286, 1.60801
2022-12-14 17:20:24.231647, 1.62756
2022-12-14 17:20:24.264817, 1.61290
2022-12-14 17:20:24.265068, 1.58846
2022-12-14 17:20:24.265684, 1.59335
2022-12-14 17:20:24.298342, 1.61779
2022-12-14 17:20:24.298647, 1.59335
2022-12-14 17:20:24.299183, 1.58357
2022-12-14 17:20:24.331640, 1.57869
2022-12-14 17:20:24.331640, 1.60312
2022-12-14 17:20:24.364494, 1.57380
2022-12-14 17:20:24.364494, 1.56402
2022-12-14 17:20:24.365491, 1.55913
2022-12-14 17:20:24.399003, 1.57869
2022-12-14 17:20:24.399003, 1.56402
2022-12-14 17:20:24.400018, 1.54936
2022-12-14 17:20:24.432485, 1.54447
2022-12-14 17:20:24.432918, 1.55425
2022-12-14 17:20:24.466068, 1.54936
2022-12-14 17:20:24.466319, 1.54447
2022-12-14 17:20:24.466929, 1.55425
2022-12-14 17:20:24.499497, 1.60801
2022-12-14 17:20:24.499801, 1.62267
2022-12-14 17:20:24.500339, 1.64711
2022-12-14 17:20:24.533153, 1.67644
2022-12-14 17:20:24.533515, 1.71065
2022-12-14 17:20:24.566459, 1.75464
2022-12-14 17:20:24.566809, 1.73509
2022-12-14 17:20:24.567812, 1.72531
2022-12-14 17:20:24.598918, 1.72043
2022-12-14 17:20:24.599913, 1.72043
2022-12-14 17:20:24.600435, 1.70576
2022-12-14 17:20:24.633529, 1.69110
2022-12-14 17:20:24.633529, 1.68621
2022-12-14 17:20:24.667287, 1.69110
2022-12-14 17:20:24.667537, 1.67644
2022-12-14 17:20:24.667537, 1.66666
2022-12-14 17:20:24.699911, 1.66666
2022-12-14 17:20:24.699911, 1.67155
2022-12-14 17:20:24.700940, 1.69110
2022-12-14 17:20:24.734242, 1.66666
2022-12-14 17:20:24.734601, 1.67644
2022-12-14 17:20:24.767905, 1.68132
2022-12-14 17:20:24.768154, 1.68132
2022-12-14 17:20:24.768154, 1.70087
2022-12-14 17:20:24.801418, 1.67644
2022-12-14 17:20:24.801722, 1.68621
2022-12-14 17:20:24.802260, 1.69110
2022-12-14 17:20:24.834946, 1.69110
2022-12-14 17:20:24.834946, 1.69110
2022-12-14 17:20:24.868592, 1.71065
2022-12-14 17:20:24.868592, 1.71554
2022-12-14 17:20:24.869594, 1.71065
2022-12-14 17:20:24.901500, 1.72043
2022-12-14 17:20:24.901500, 1.73020
2022-12-14 17:20:24.902496, 1.73020
2022-12-14 17:20:24.935274, 1.72043
2022-12-14 17:20:24.935632, 1.72531
2022-12-14 17:20:24.968955, 1.73020
2022-12-14 17:20:24.968955, 1.73509
2022-12-14 17:20:24.969957, 1.72531
2022-12-14 17:20:25.002598, 1.72043
2022-12-14 17:20:25.002903, 1.72531
2022-12-14 17:20:25.002903, 1.72531
2022-12-14 17:20:25.036168, 1.73509
2022-12-14 17:20:25.036573, 1.72043
2022-12-14 17:20:25.069621, 1.71554
2022-12-14 17:20:25.069870, 1.71065
2022-12-14 17:20:25.070486, 1.69599
2022-12-14 17:20:25.103080, 1.69110
2022-12-14 17:20:25.103396, 1.69110
2022-12-14 17:20:25.103927, 1.69599
2022-12-14 17:20:25.136565, 1.68621
2022-12-14 17:20:25.137292, 1.71065
2022-12-14 17:20:25.169499, 1.67644
2022-12-14 17:20:25.170506, 1.68132
2022-12-14 17:20:25.170506, 1.67155
2022-12-14 17:20:25.203574, 1.66666
2022-12-14 17:20:25.203879, 1.66177
2022-12-14 17:20:25.204491, 1.66666
2022-12-14 17:20:25.237216, 1.65689
2022-12-14 17:20:25.237576, 1.66666
2022-12-14 17:20:25.270835, 1.64222
2022-12-14 17:20:25.271083, 1.64711
2022-12-14 17:20:25.271692, 1.65200
2022-12-14 17:20:25.304459, 1.65689
2022-12-14 17:20:25.304764, 1.67644
2022-12-14 17:20:25.305370, 1.70087
2022-12-14 17:20:25.337793, 1.69599
2022-12-14 17:20:25.337793, 1.69599
2022-12-14 17:20:25.371531, 1.70087
2022-12-14 17:20:25.371781, 1.70576
2022-12-14 17:20:25.371781, 1.70087
2022-12-14 17:20:25.404967, 1.69599
2022-12-14 17:20:25.405315, 1.70576
2022-12-14 17:20:25.405315, 1.68621
2022-12-14 17:20:25.438575, 1.70087
2022-12-14 17:20:25.438575, 1.72531
2022-12-14 17:20:25.471233, 1.75464
2022-12-14 17:20:25.471233, 1.78885
2022-12-14 17:20:25.471900, 1.80840
2022-12-14 17:20:25.505429, 1.80840
2022-12-14 17:20:25.505734, 1.82306
2022-12-14 17:20:25.506346, 1.83773
2022-12-14 17:20:25.538978, 1.82795
2022-12-14 17:20:25.539340, 1.81329
2022-12-14 17:20:25.572516, 1.80351
2022-12-14 17:20:25.572764, 1.79863
2022-12-14 17:20:25.572764, 1.78885
2022-12-14 17:20:25.606116, 1.76441
2022-12-14 17:20:25.606423, 1.75464
2022-12-14 17:20:25.606423, 1.74975
2022-12-14 17:20:25.639700, 1.73998
2022-12-14 17:20:25.640097, 1.73509
2022-12-14 17:20:25.673263, 1.72043
2022-12-14 17:20:25.673263, 1.71554
2022-12-14 17:20:25.674277, 1.71065
2022-12-14 17:20:25.706143, 1.70576
2022-12-14 17:20:25.706143, 1.68132
2022-12-14 17:20:25.707140, 1.67155
2022-12-14 17:20:25.739914, 1.68132
2022-12-14 17:20:25.739914, 1.64711
2022-12-14 17:20:25.773539, 1.64222
2022-12-14 17:20:25.773794, 1.64222
2022-12-14 17:20:25.774415, 1.64222
2022-12-14 17:20:25.807074, 1.63734
2022-12-14 17:20:25.807074, 1.63245
2022-12-14 17:20:25.807937, 1.62756
2022-12-14 17:20:25.840510, 1.62756
2022-12-14 17:20:25.840510, 1.61290
2022-12-14 17:20:25.874369, 1.61290
2022-12-14 17:20:25.874614, 1.60801
2022-12-14 17:20:25.874614, 1.59824
2022-12-14 17:20:25.908065, 1.58846
2022-12-14 17:20:25.908399, 1.58846
2022-12-14 17:20:25.908914, 1.57380
2022-12-14 17:20:25.941500, 1.57380
2022-12-14 17:20:25.941500, 1.55913
2022-12-14 17:20:25.974860, 1.55913
2022-12-14 17:20:25.975890, 1.55425
2022-12-14 17:20:25.975890, 1.55425
2022-12-14 17:20:26.007991, 1.54447
2022-12-14 17:20:26.007991, 1.56402
2022-12-14 17:20:26.007991, 1.53958
2022-12-14 17:20:26.041790, 1.54936
2022-12-14 17:20:26.042175, 1.55913
2022-12-14 17:20:26.075309, 1.53470
2022-12-14 17:20:26.075309, 1.53470
2022-12-14 17:20:26.076309, 1.54447
2022-12-14 17:20:26.108939, 1.53470
2022-12-14 17:20:26.109243, 1.52981
2022-12-14 17:20:26.109840, 1.53470
2022-12-14 17:20:26.142545, 1.53958
2022-12-14 17:20:26.142904, 1.52981
2022-12-14 17:20:26.176232, 1.52492
2022-12-14 17:20:26.176482, 1.53470
2022-12-14 17:20:26.177100, 1.53470
2022-12-14 17:20:26.209643, 1.52981
2022-12-14 17:20:26.209949, 1.52003
2022-12-14 17:20:26.210481, 1.52492
2022-12-14 17:20:26.243358, 1.52981
2022-12-14 17:20:26.243720, 1.55913
2022-12-14 17:20:26.276774, 1.51515
2022-12-14 17:20:26.277024, 1.52003
2022-12-14 17:20:26.277024, 1.52981
2022-12-14 17:20:26.310364, 1.53958
2022-12-14 17:20:26.311392, 1.56891
2022-12-14 17:20:26.311392, 1.58357
2022-12-14 17:20:26.343095, 1.62267
2022-12-14 17:20:26.343516, 1.66666
2022-12-14 17:20:26.377246, 1.68621
2022-12-14 17:20:26.377246, 1.72043
2022-12-14 17:20:26.378248, 1.74486
2022-12-14 17:20:26.410749, 1.75953
2022-12-14 17:20:26.411751, 1.75464
2022-12-14 17:20:26.411751, 1.74975
2022-12-14 17:20:26.444310, 1.75464
2022-12-14 17:20:26.445311, 1.74975
2022-12-14 17:20:26.477897, 1.73509
2022-12-14 17:20:26.478205, 1.73020
2022-12-14 17:20:26.479040, 1.73509
2022-12-14 17:20:26.511273, 1.73509
2022-12-14 17:20:26.511273, 1.72531
2022-12-14 17:20:26.512275, 1.73020
2022-12-14 17:20:26.544651, 1.73509
2022-12-14 17:20:26.545653, 1.73998
2022-12-14 17:20:26.578033, 1.73020
2022-12-14 17:20:26.579036, 1.73020
2022-12-14 17:20:26.579036, 1.73020
2022-12-14 17:20:26.611361, 1.73020
2022-12-14 17:20:26.611813, 1.74975
2022-12-14 17:20:26.612816, 1.73509
2022-12-14 17:20:26.644538, 1.74975
2022-12-14 17:20:26.645546, 1.75953
2022-12-14 17:20:26.677614, 1.72531
2022-12-14 17:20:26.678611, 1.74975
2022-12-14 17:20:26.678611, 1.74486
2022-12-14 17:20:26.712138, 1.74975
2022-12-14 17:20:26.712138, 1.73020
2022-12-14 17:20:26.713134, 1.71554
2022-12-14 17:20:26.745071, 1.71065
2022-12-14 17:20:26.746068, 1.73020
2022-12-14 17:20:26.779433, 1.70087
2022-12-14 17:20:26.779784, 1.69110
2022-12-14 17:20:26.780341, 1.69110
2022-12-14 17:20:26.812774, 1.69110
2022-12-14 17:20:26.813190, 1.68132
2022-12-14 17:20:26.813741, 1.66666
2022-12-14 17:20:26.846043, 1.66666
2022-12-14 17:20:26.846559, 1.69599
2022-12-14 17:20:26.879991, 1.66177
2022-12-14 17:20:26.880299, 1.65200
2022-12-14 17:20:26.880299, 1.66666
2022-12-14 17:20:26.913406, 1.65689
2022-12-14 17:20:26.913406, 1.64711
2022-12-14 17:20:26.914439, 1.66666
2022-12-14 17:20:26.946992, 1.63734
2022-12-14 17:20:26.947419, 1.64222
2022-12-14 17:20:26.980521, 1.63245
2022-12-14 17:20:26.980850, 1.62756
2022-12-14 17:20:26.981852, 1.62267
2022-12-14 17:20:27.014094, 1.63734
2022-12-14 17:20:27.014094, 1.61779
2022-12-14 17:20:27.015124, 1.61290
2022-12-14 17:20:27.047213, 1.62756
2022-12-14 17:20:27.047860, 1.61290
2022-12-14 17:20:27.081055, 1.60312
2022-12-14 17:20:27.081701, 1.59335
2022-12-14 17:20:27.081701, 1.58846
2022-12-14 17:20:27.114914, 1.59335
2022-12-14 17:20:27.115221, 1.59335
2022-12-14 17:20:27.115832, 1.58846
2022-12-14 17:20:27.148376, 1.64222
2022-12-14 17:20:27.148376, 1.64222
2022-12-14 17:20:27.181810, 1.68132
2022-12-14 17:20:27.182063, 1.70087
2022-12-14 17:20:27.182677, 1.73509
2022-12-14 17:20:27.215359, 1.76441
2022-12-14 17:20:27.215736, 1.77908
2022-12-14 17:20:27.216346, 1.77419
2022-12-14 17:20:27.248917, 1.77908
2022-12-14 17:20:27.249277, 1.77419
2022-12-14 17:20:27.282393, 1.77419
2022-12-14 17:20:27.282643, 1.75953
2022-12-14 17:20:27.283222, 1.74975
2022-12-14 17:20:27.315917, 1.74975
2022-12-14 17:20:27.315917, 1.74975
2022-12-14 17:20:27.316817, 1.73509
2022-12-14 17:20:27.349521, 1.73020
2022-12-14 17:20:27.349881, 1.73509
2022-12-14 17:20:27.383102, 1.73509
2022-12-14 17:20:27.383351, 1.72043
2022-12-14 17:20:27.383351, 1.70576
2022-12-14 17:20:27.416490, 1.69599
2022-12-14 17:20:27.417181, 1.69599
2022-12-14 17:20:27.417181, 1.70087
2022-12-14 17:20:27.449765, 1.67155
2022-12-14 17:20:27.449765, 1.66666
2022-12-14 17:20:27.483636, 1.67644
2022-12-14 17:20:27.483917, 1.66177
2022-12-14 17:20:27.484613, 1.65689
2022-12-14 17:20:27.517181, 1.66177
2022-12-14 17:20:27.517487, 1.66177
2022-12-14 17:20:27.517487, 1.65200
2022-12-14 17:20:27.550743, 1.64711
2022-12-14 17:20:27.551104, 1.64222
2022-12-14 17:20:27.584273, 1.64222
2022-12-14 17:20:27.584523, 1.62756
2022-12-14 17:20:27.584523, 1.61779
2022-12-14 17:20:27.617958, 1.60801
2022-12-14 17:20:27.618264, 1.60801
2022-12-14 17:20:27.618264, 1.59335
2022-12-14 17:20:27.651455, 1.57869
2022-12-14 17:20:27.651814, 1.58357
2022-12-14 17:20:27.685006, 1.57380
2022-12-14 17:20:27.685256, 1.56891
2022-12-14 17:20:27.685909, 1.55913
2022-12-14 17:20:27.718518, 1.54936
2022-12-14 17:20:27.718518, 1.55913
2022-12-14 17:20:27.719519, 1.54447
2022-12-14 17:20:27.751989, 1.53958
2022-12-14 17:20:27.752731, 1.53470
2022-12-14 17:20:27.784930, 1.56402
2022-12-14 17:20:27.785937, 1.53470
2022-12-14 17:20:27.785937, 1.52492
2022-12-14 17:20:27.818396, 1.52492
2022-12-14 17:20:27.818396, 1.54936
2022-12-14 17:20:27.819359, 1.52981
2022-12-14 17:20:27.852445, 1.51026
2022-12-14 17:20:27.852803, 1.51026
2022-12-14 17:20:27.886164, 1.51515
2022-12-14 17:20:27.886414, 1.54447
2022-12-14 17:20:27.886414, 1.51515
2022-12-14 17:20:27.919687, 1.50537
2022-12-14 17:20:27.920034, 1.50537
2022-12-14 17:20:27.920646, 1.51026
2022-12-14 17:20:27.953334, 1.50048
2022-12-14 17:20:27.953697, 1.51026
2022-12-14 17:20:27.986899, 1.51026
2022-12-14 17:20:27.987179, 1.52492
2022-12-14 17:20:27.987717, 1.52981
2022-12-14 17:20:28.020329, 1.55913
2022-12-14 17:20:28.020329, 1.60801
2022-12-14 17:20:28.021298, 1.64222
2022-12-14 17:20:28.053906, 1.67155
2022-12-14 17:20:28.054265, 1.70576
2022-12-14 17:20:28.087488, 1.73509
2022-12-14 17:20:28.087741, 1.76441
2022-12-14 17:20:28.087741, 1.76441
2022-12-14 17:20:28.120881, 1.76441
2022-12-14 17:20:28.120881, 1.76441
2022-12-14 17:20:28.121882, 1.76930
2022-12-14 17:20:28.153300, 1.76930
2022-12-14 17:20:28.154311, 1.77908
2022-12-14 17:20:28.186836, 1.76441
2022-12-14 17:20:28.187829, 1.76930
2022-12-14 17:20:28.187952, 1.76441
2022-12-14 17:20:28.221409, 1.76441
2022-12-14 17:20:28.221715, 1.76930
2022-12-14 17:20:28.222323, 1.76930
2022-12-14 17:20:28.254980, 1.75953
2022-12-14 17:20:28.255340, 1.73998
2022-12-14 17:20:28.288535, 1.73998
2022-12-14 17:20:28.288783, 1.73998
2022-12-14 17:20:28.288783, 1.72043
2022-12-14 17:20:28.322121, 1.70576
2022-12-14 17:20:28.322428, 1.70087
2022-12-14 17:20:28.323046, 1.70576
2022-12-14 17:20:28.355043, 1.71065
2022-12-14 17:20:28.355319, 1.68621
2022-12-14 17:20:28.389101, 1.68621
2022-12-14 17:20:28.389351, 1.69599
2022-12-14 17:20:28.389967, 1.72043
2022-12-14 17:20:28.422648, 1.68132
2022-12-14 17:20:28.422955, 1.67644
2022-12-14 17:20:28.423489, 1.69110
2022-12-14 17:20:28.456263, 1.67644
2022-12-14 17:20:28.456263, 1.66177
2022-12-14 17:20:28.489637, 1.66177
2022-12-14 17:20:28.489637, 1.65689
2022-12-14 17:20:28.490644, 1.64711
2022-12-14 17:20:28.522325, 1.63245
2022-12-14 17:20:28.523334, 1.62267
2022-12-14 17:20:28.523334, 1.62756
2022-12-14 17:20:28.556607, 1.62267
2022-12-14 17:20:28.556967, 1.60312
2022-12-14 17:20:28.590186, 1.60801
2022-12-14 17:20:28.590442, 1.59824
2022-12-14 17:20:28.590442, 1.59824
2022-12-14 17:20:28.623736, 1.58357
2022-12-14 17:20:28.624035, 1.61290
2022-12-14 17:20:28.624644, 1.58846
2022-12-14 17:20:28.657109, 1.58357
2022-12-14 17:20:28.658000, 1.56891
2022-12-14 17:20:28.690832, 1.56891
2022-12-14 17:20:28.691078, 1.56891
2022-12-14 17:20:28.691078, 1.59824
2022-12-14 17:20:28.724399, 1.55913
2022-12-14 17:20:28.724698, 1.55425
2022-12-14 17:20:28.725263, 1.55913
2022-12-14 17:20:28.757073, 1.55913
2022-12-14 17:20:28.758070, 1.57380
2022-12-14 17:20:28.791560, 1.54447
2022-12-14 17:20:28.791804, 1.54447
2022-12-14 17:20:28.792282, 1.54936
2022-12-14 17:20:28.825192, 1.53958
2022-12-14 17:20:28.825192, 1.54447
2022-12-14 17:20:28.826204, 1.53470
2022-12-14 17:20:28.859007, 1.53470
2022-12-14 17:20:28.859007, 1.52003
2022-12-14 17:20:28.891435, 1.52492
2022-12-14 17:20:28.891435, 1.53470
2022-12-14 17:20:28.892460, 1.56402
2022-12-14 17:20:28.925166, 1.57869
2022-12-14 17:20:28.925166, 1.60312
2022-12-14 17:20:28.926164, 1.63734
2022-12-14 17:20:28.957979, 1.66666
2022-12-14 17:20:28.958843, 1.67644
2022-12-14 17:20:28.992424, 1.68621
2022-12-14 17:20:28.992670, 1.70576
2022-12-14 17:20:28.993280, 1.70087
2022-12-14 17:20:29.026166, 1.69110
2022-12-14 17:20:29.026166, 1.68132
2022-12-14 17:20:29.027175, 1.67155
2022-12-14 17:20:29.059661, 1.68132
2022-12-14 17:20:29.060021, 1.67644
2022-12-14 17:20:29.093347, 1.66666
2022-12-14 17:20:29.093598, 1.67155
2022-12-14 17:20:29.094205, 1.68621
2022-12-14 17:20:29.126876, 1.68132
2022-12-14 17:20:29.127182, 1.67644
2022-12-14 17:20:29.127832, 1.68132
2022-12-14 17:20:29.160419, 1.68132
2022-12-14 17:20:29.160782, 1.67155
2022-12-14 17:20:29.193955, 1.66177
2022-12-14 17:20:29.193955, 1.67155
2022-12-14 17:20:29.194740, 1.68132
2022-12-14 17:20:29.227537, 1.65200
2022-12-14 17:20:29.227845, 1.67155
2022-12-14 17:20:29.227845, 1.64222
2022-12-14 17:20:29.261052, 1.64711
2022-12-14 17:20:29.261052, 1.65200
2022-12-14 17:20:29.294530, 1.65200
2022-12-14 17:20:29.295562, 1.63734
2022-12-14 17:20:29.295562, 1.64222
2022-12-14 17:20:29.327656, 1.64222
2022-12-14 17:20:29.327656, 1.63245
2022-12-14 17:20:29.327656, 1.65689
2022-12-14 17:20:29.361150, 1.62756
2022-12-14 17:20:29.361150, 1.62756
2022-12-14 17:20:29.395047, 1.62756
2022-12-14 17:20:29.395047, 1.61290
2022-12-14 17:20:29.396049, 1.61290
2022-12-14 17:20:29.428500, 1.61290
2022-12-14 17:20:29.428500, 1.59824
2022-12-14 17:20:29.429501, 1.59824
2022-12-14 17:20:29.462074, 1.59824
2022-12-14 17:20:29.463078, 1.60312
2022-12-14 17:20:29.495526, 1.58846
2022-12-14 17:20:29.496530, 1.59335
2022-12-14 17:20:29.496530, 1.58846
2022-12-14 17:20:29.529099, 1.58846
2022-12-14 17:20:29.529099, 1.57869
2022-12-14 17:20:29.530101, 1.57380
2022-12-14 17:20:29.562470, 1.59824
2022-12-14 17:20:29.563476, 1.57869
2022-12-14 17:20:29.595816, 1.57380
2022-12-14 17:20:29.595816, 1.56891
2022-12-14 17:20:29.596932, 1.56891
2022-12-14 17:20:29.629191, 1.59335
2022-12-14 17:20:29.630195, 1.56402
2022-12-14 17:20:29.630195, 1.56402
2022-12-14 17:20:29.662440, 1.56402
2022-12-14 17:20:29.663443, 1.56402
2022-12-14 17:20:29.695884, 1.55425
2022-12-14 17:20:29.696893, 1.54936
2022-12-14 17:20:29.696893, 1.57869
2022-12-14 17:20:29.729696, 1.55425
2022-12-14 17:20:29.729696, 1.55913
2022-12-14 17:20:29.730701, 1.53958
2022-12-14 17:20:29.763369, 1.54447
2022-12-14 17:20:29.763369, 1.58846
2022-12-14 17:20:29.797175, 1.56891
2022-12-14 17:20:29.797734, 1.59335
2022-12-14 17:20:29.797734, 1.62267
2022-12-14 17:20:29.830687, 1.64711
2022-12-14 17:20:29.831130, 1.66177
2022-12-14 17:20:29.831130, 1.69599
2022-12-14 17:20:29.864568, 1.68132
2022-12-14 17:20:29.864568, 1.68132
2022-12-14 17:20:29.897925, 1.68132
2022-12-14 17:20:29.898084, 1.67155
2022-12-14 17:20:29.898573, 1.68132
2022-12-14 17:20:29.931338, 1.68621
2022-12-14 17:20:29.931338, 1.68621
2022-12-14 17:20:29.932341, 1.64711
2022-12-14 17:20:29.964774, 1.65200
2022-12-14 17:20:29.965200, 1.65689
2022-12-14 17:20:29.998263, 1.65689
2022-12-14 17:20:29.998263, 1.65200
2022-12-14 17:20:29.999269, 1.65689
2022-12-14 17:20:30.031822, 1.66177
2022-12-14 17:20:30.031822, 1.65689
2022-12-14 17:20:30.032831, 1.64711
2022-12-14 17:20:30.065129, 1.64711
2022-12-14 17:20:30.065739, 1.64222
2022-12-14 17:20:30.098754, 1.64711
2022-12-14 17:20:30.098754, 1.63734
2022-12-14 17:20:30.099753, 1.63734
2022-12-14 17:20:30.132201, 1.64711
2022-12-14 17:20:30.132599, 1.67155
2022-12-14 17:20:30.132599, 1.63734
2022-12-14 17:20:30.165845, 1.63734
2022-12-14 17:20:30.166483, 1.64222
2022-12-14 17:20:30.199791, 1.64711
2022-12-14 17:20:30.200073, 1.62756
2022-12-14 17:20:30.200073, 1.62756
2022-12-14 17:20:30.233208, 1.62756
2022-12-14 17:20:30.233513, 1.62756
2022-12-14 17:20:30.233513, 1.62267
2022-12-14 17:20:30.266752, 1.60801
2022-12-14 17:20:30.267117, 1.60801
2022-12-14 17:20:30.300349, 1.60801
2022-12-14 17:20:30.300598, 1.60312
2022-12-14 17:20:30.301203, 1.59335
2022-12-14 17:20:30.333834, 1.59335
2022-12-14 17:20:30.334139, 1.60801
2022-12-14 17:20:30.334710, 1.58357
2022-12-14 17:20:30.367370, 1.57869
2022-12-14 17:20:30.367370, 1.58357
2022-12-14 17:20:30.400846, 1.58357
2022-12-14 17:20:30.400846, 1.56891
2022-12-14 17:20:30.401848, 1.57869
2022-12-14 17:20:30.434460, 1.56891
2022-12-14 17:20:30.434460, 1.56891
2022-12-14 17:20:30.435456, 1.56402
2022-12-14 17:20:30.467894, 1.56402
2022-12-14 17:20:30.467894, 1.56402
2022-12-14 17:20:30.501517, 1.56402
2022-12-14 17:20:30.501517, 1.55425
2022-12-14 17:20:30.502518, 1.56402
2022-12-14 17:20:30.535101, 1.55425
2022-12-14 17:20:30.535411, 1.56402
2022-12-14 17:20:30.535411, 1.55425
2022-12-14 17:20:30.568486, 1.54447
2022-12-14 17:20:30.568852, 1.54447
2022-12-14 17:20:30.602044, 1.54447
2022-12-14 17:20:30.602296, 1.53958
2022-12-14 17:20:30.602779, 1.53470
2022-12-14 17:20:30.635603, 1.54447
2022-12-14 17:20:30.635912, 1.58846
2022-12-14 17:20:30.635912, 1.59335
2022-12-14 17:20:30.669121, 1.60801
2022-12-14 17:20:30.669486, 1.62756
2022-12-14 17:20:30.702497, 1.65200
2022-12-14 17:20:30.702497, 1.66177
2022-12-14 17:20:30.703499, 1.67644
2022-12-14 17:20:30.735660, 1.65689
2022-12-14 17:20:30.735660, 1.65689
2022-12-14 17:20:30.736684, 1.65200
2022-12-14 17:20:30.768778, 1.63734
2022-12-14 17:20:30.769587, 1.63245
2022-12-14 17:20:30.802007, 1.63734
2022-12-14 17:20:30.803003, 1.63734
2022-12-14 17:20:30.803003, 1.62267
2022-12-14 17:20:30.836759, 1.63245
2022-12-14 17:20:30.837063, 1.64222
2022-12-14 17:20:30.837063, 1.64222
2022-12-14 17:20:30.870350, 1.64222
2022-12-14 17:20:30.870710, 1.63245
2022-12-14 17:20:30.903816, 1.63245
2022-12-14 17:20:30.903816, 1.63245
2022-12-14 17:20:30.904656, 1.62267
2022-12-14 17:20:30.937470, 1.61779
2022-12-14 17:20:30.937776, 1.61779
2022-12-14 17:20:30.937776, 1.62267
2022-12-14 17:20:30.970960, 1.63245
2022-12-14 17:20:30.970960, 1.61290
2022-12-14 17:20:31.004066, 1.62267
2022-12-14 17:20:31.005074, 1.62756
2022-12-14 17:20:31.005074, 1.61779
2022-12-14 17:20:31.037185, 1.62756
2022-12-14 17:20:31.037704, 1.61290
2022-12-14 17:20:31.037704, 1.61290
2022-12-14 17:20:31.071386, 1.60312
2022-12-14 17:20:31.071386, 1.59824
2022-12-14 17:20:31.105136, 1.61779
2022-12-14 17:20:31.105430, 1.59824
2022-12-14 17:20:31.106052, 1.58357
2022-12-14 17:20:31.138567, 1.58357
2022-12-14 17:20:31.138877, 1.60801
2022-12-14 17:20:31.138877, 1.57869
2022-12-14 17:20:31.172243, 1.57380
2022-12-14 17:20:31.172604, 1.56891
2022-12-14 17:20:31.205735, 1.56891
2022-12-14 17:20:31.206033, 1.57380
2022-12-14 17:20:31.206618, 1.56891
2022-12-14 17:20:31.239331, 1.55425
2022-12-14 17:20:31.239641, 1.55913
2022-12-14 17:20:31.239641, 1.56402
2022-12-14 17:20:31.272866, 1.55425
2022-12-14 17:20:31.273225, 1.54936
2022-12-14 17:20:31.306252, 1.54447
2022-12-14 17:20:31.306252, 1.58357
2022-12-14 17:20:31.307253, 1.54936
2022-12-14 17:20:31.339277, 1.54447
2022-12-14 17:20:31.340284, 1.56891
2022-12-14 17:20:31.340284, 1.54447
2022-12-14 17:20:31.372982, 1.53958
2022-12-14 17:20:31.372982, 1.54447
2022-12-14 17:20:31.406810, 1.52981
2022-12-14 17:20:31.407055, 1.53470
2022-12-14 17:20:31.408075, 1.55913
2022-12-14 17:20:31.440337, 1.52492
2022-12-14 17:20:31.440337, 1.52492
2022-12-14 17:20:31.441263, 1.53470
2022-12-14 17:20:31.473977, 1.53958
2022-12-14 17:20:31.474339, 1.54447
2022-12-14 17:20:31.507506, 1.56402
2022-12-14 17:20:31.507506, 1.59824
2022-12-14 17:20:31.508431, 1.61779
2022-12-14 17:20:31.541160, 1.61779
2022-12-14 17:20:31.541578, 1.63734
2022-12-14 17:20:31.542054, 1.66666
2022-12-14 17:20:31.574568, 1.64711
2022-12-14 17:20:31.574568, 1.65200
2022-12-14 17:20:31.607952, 1.65200
2022-12-14 17:20:31.607952, 1.65200
2022-12-14 17:20:31.608954, 1.63245
2022-12-14 17:20:31.641564, 1.61779
2022-12-14 17:20:31.641564, 1.61779
2022-12-14 17:20:31.642553, 1.62267
2022-12-14 17:20:31.674735, 1.62756
2022-12-14 17:20:31.674735, 1.61779
2022-12-14 17:20:31.708262, 1.61779
2022-12-14 17:20:31.708262, 1.62756
2022-12-14 17:20:31.709263, 1.62756
2022-12-14 17:20:31.741606, 1.61290
2022-12-14 17:20:31.741606, 1.60801
2022-12-14 17:20:31.742607, 1.60801
2022-12-14 17:20:31.775105, 1.60801
2022-12-14 17:20:31.775465, 1.59824
2022-12-14 17:20:31.809110, 1.59335
2022-12-14 17:20:31.809360, 1.59824
2022-12-14 17:20:31.809360, 1.60312
2022-12-14 17:20:31.842271, 1.61779
2022-12-14 17:20:31.842271, 1.59335
2022-12-14 17:20:31.842271, 1.59824
2022-12-14 17:20:31.875603, 1.60312
2022-12-14 17:20:31.875603, 1.59824
2022-12-14 17:20:31.909724, 1.59335
2022-12-14 17:20:31.909724, 1.58846
2022-12-14 17:20:31.910725, 1.59824
2022-12-14 17:20:31.943037, 1.58846
2022-12-14 17:20:31.943569, 1.59824
2022-12-14 17:20:31.944572, 1.57380
2022-12-14 17:20:31.975802, 1.57869
2022-12-14 17:20:31.976627, 1.57380
2022-12-14 17:20:32.010194, 1.56402
2022-12-14 17:20:32.010194, 1.55913
2022-12-14 17:20:32.011117, 1.56402
2022-12-14 17:20:32.043832, 1.56402
2022-12-14 17:20:32.044139, 1.55425
2022-12-14 17:20:32.044747, 1.54936
2022-12-14 17:20:32.077355, 1.55913
2022-12-14 17:20:32.077719, 1.54936
2022-12-14 17:20:32.110921, 1.53958
2022-12-14 17:20:32.111173, 1.54447
2022-12-14 17:20:32.111173, 1.54936
2022-12-14 17:20:32.144397, 1.53958
2022-12-14 17:20:32.144700, 1.53470
2022-12-14 17:20:32.144700, 1.56402
2022-12-14 17:20:32.177884, 1.53958
2022-12-14 17:20:32.177884, 1.52981
2022-12-14 17:20:32.211430, 1.55425
2022-12-14 17:20:32.211430, 1.52492
2022-12-14 17:20:32.212455, 1.52492
2022-12-14 17:20:32.245163, 1.55425
2022-12-14 17:20:32.245469, 1.51515
2022-12-14 17:20:32.245999, 1.51026
2022-12-14 17:20:32.278623, 1.52003
2022-12-14 17:20:32.278623, 1.51515
2022-12-14 17:20:32.312125, 1.50048
2022-12-14 17:20:32.312746, 1.52003
2022-12-14 17:20:32.313750, 1.51026
2022-12-14 17:20:32.344773, 1.51026
2022-12-14 17:20:32.345359, 1.52492
2022-12-14 17:20:32.345359, 1.51515
2022-12-14 17:20:32.379214, 1.52981
2022-12-14 17:20:32.379576, 1.56891
2022-12-14 17:20:32.412780, 1.56891
2022-12-14 17:20:32.412780, 1.59335
2022-12-14 17:20:32.413781, 1.60801
2022-12-14 17:20:32.446316, 1.62756
2022-12-14 17:20:32.446316, 1.62267
2022-12-14 17:20:32.447318, 1.62267
2022-12-14 17:20:32.479816, 1.62267
2022-12-14 17:20:32.480244, 1.62267
2022-12-14 17:20:32.513338, 1.61290
2022-12-14 17:20:32.513338, 1.60312
2022-12-14 17:20:32.514339, 1.60312
2022-12-14 17:20:32.546857, 1.61779
2022-12-14 17:20:32.547862, 1.60801
2022-12-14 17:20:32.547862, 1.60801
2022-12-14 17:20:32.580205, 1.61290
2022-12-14 17:20:32.580205, 1.62267
2022-12-14 17:20:32.613546, 1.61779
2022-12-14 17:20:32.614552, 1.61290
2022-12-14 17:20:32.614552, 1.61779
2022-12-14 17:20:32.647231, 1.62756
2022-12-14 17:20:32.647231, 1.63245
2022-12-14 17:20:32.648228, 1.61290
2022-12-14 17:20:32.680163, 1.60312
2022-12-14 17:20:32.681169, 1.60312
2022-12-14 17:20:32.713533, 1.59824
2022-12-14 17:20:32.714537, 1.59335
2022-12-14 17:20:32.714537, 1.59824
2022-12-14 17:20:32.746899, 1.60801
2022-12-14 17:20:32.747905, 1.60312
2022-12-14 17:20:32.747905, 1.59824
2022-12-14 17:20:32.780275, 1.60312
2022-12-14 17:20:32.781277, 1.60312
2022-12-14 17:20:32.813645, 1.60312
2022-12-14 17:20:32.814647, 1.58846
2022-12-14 17:20:32.814647, 1.59335
2022-12-14 17:20:32.848216, 1.59824
2022-12-14 17:20:32.848216, 1.59335
2022-12-14 17:20:32.849213, 1.58357
2022-12-14 17:20:32.883127, 1.58357
2022-12-14 17:20:32.883127, 1.58846
2022-12-14 17:20:32.915040, 1.58846
2022-12-14 17:20:32.915040, 1.60312
2022-12-14 17:20:32.916038, 1.57380
2022-12-14 17:20:32.948341, 1.57869
2022-12-14 17:20:32.949317, 1.56891
2022-12-14 17:20:32.949317, 1.57380
2022-12-14 17:20:32.982363, 1.56402
2022-12-14 17:20:32.983179, 1.56891
2022-12-14 17:20:33.015993, 1.56891
2022-12-14 17:20:33.015993, 1.57869
2022-12-14 17:20:33.017044, 1.56402
2022-12-14 17:20:33.049129, 1.56402
2022-12-14 17:20:33.049129, 1.56891
2022-12-14 17:20:33.050130, 1.56402
2022-12-14 17:20:33.083190, 1.55913
2022-12-14 17:20:33.083548, 1.55913
2022-12-14 17:20:33.116762, 1.56891
2022-12-14 17:20:33.117761, 1.55913
2022-12-14 17:20:33.117761, 1.55913
2022-12-14 17:20:33.149913, 1.58846
2022-12-14 17:20:33.150246, 1.55913
2022-12-14 17:20:33.150246, 1.54936
2022-12-14 17:20:33.183539, 1.54447
2022-12-14 17:20:33.183944, 1.56891
2022-12-14 17:20:33.217375, 1.55425
2022-12-14 17:20:33.217625, 1.54447
2022-12-14 17:20:33.217625, 1.55913
2022-12-14 17:20:33.250281, 1.54447
2022-12-14 17:20:33.251243, 1.55425
2022-12-14 17:20:33.251243, 1.55913
2022-12-14 17:20:33.284420, 1.59824
2022-12-14 17:20:33.284783, 1.59335
2022-12-14 17:20:33.317910, 1.61779
2022-12-14 17:20:33.317910, 1.63245
2022-12-14 17:20:33.318912, 1.67155
2022-12-14 17:20:33.351484, 1.65200
2022-12-14 17:20:33.351791, 1.66177
2022-12-14 17:20:33.351791, 1.65200
2022-12-14 17:20:33.385053, 1.64222
2022-12-14 17:20:33.385053, 1.64222
2022-12-14 17:20:33.418311, 1.64222
2022-12-14 17:20:33.419318, 1.62756
2022-12-14 17:20:33.419318, 1.61779
2022-12-14 17:20:33.451237, 1.61779
2022-12-14 17:20:33.452234, 1.62267
2022-12-14 17:20:33.452234, 1.61779
2022-12-14 17:20:33.485729, 1.61290
2022-12-14 17:20:33.486095, 1.61779
2022-12-14 17:20:33.519166, 1.62267
2022-12-14 17:20:33.519417, 1.61779
2022-12-14 17:20:33.519417, 1.60801
2022-12-14 17:20:33.552833, 1.60801
2022-12-14 17:20:33.553137, 1.61290
2022-12-14 17:20:33.553137, 1.60801
2022-12-14 17:20:33.586335, 1.59824
2022-12-14 17:20:33.586695, 1.60312
2022-12-14 17:20:33.619913, 1.63245
2022-12-14 17:20:33.620165, 1.61290
2022-12-14 17:20:33.620656, 1.60801
2022-12-14 17:20:33.653301, 1.60801
2022-12-14 17:20:33.653607, 1.62267
2022-12-14 17:20:33.654222, 1.61290
2022-12-14 17:20:33.686827, 1.60312
2022-12-14 17:20:33.686827, 1.60312
2022-12-14 17:20:33.720294, 1.61290
2022-12-14 17:20:33.721324, 1.60312
2022-12-14 17:20:33.721324, 1.59335
2022-12-14 17:20:33.752877, 1.58846
2022-12-14 17:20:33.753885, 1.59824
2022-12-14 17:20:33.753885, 1.62267
2022-12-14 17:20:33.786832, 1.57869
2022-12-14 17:20:33.786832, 1.57869
2022-12-14 17:20:33.819744, 1.59824
2022-12-14 17:20:33.820741, 1.58357
2022-12-14 17:20:33.820741, 1.57380
2022-12-14 17:20:33.854331, 1.57380
2022-12-14 17:20:33.854641, 1.60312
2022-12-14 17:20:33.854641, 1.57869
2022-12-14 17:20:33.888048, 1.56891
2022-12-14 17:20:33.888439, 1.56891
2022-12-14 17:20:33.921633, 1.57869
2022-12-14 17:20:33.921884, 1.57869
2022-12-14 17:20:33.922423, 1.56891
2022-12-14 17:20:33.955114, 1.56891
2022-12-14 17:20:33.955114, 1.59824
2022-12-14 17:20:33.956115, 1.57380
2022-12-14 17:20:33.988648, 1.56402
2022-12-14 17:20:33.989009, 1.56402
2022-12-14 17:20:34.022023, 1.57380
2022-12-14 17:20:34.022023, 1.57869
2022-12-14 17:20:34.023032, 1.55425
2022-12-14 17:20:34.054476, 1.54936
2022-12-14 17:20:34.055482, 1.57869
2022-12-14 17:20:34.055482, 1.55913
2022-12-14 17:20:34.089081, 1.54936
2022-12-14 17:20:34.089445, 1.54936
2022-12-14 17:20:34.122694, 1.54447
2022-12-14 17:20:34.122945, 1.54936
2022-12-14 17:20:34.123526, 1.55425
2022-12-14 17:20:34.156282, 1.58846
2022-12-14 17:20:34.156282, 1.57869
2022-12-14 17:20:34.157283, 1.60801
2022-12-14 17:20:34.189843, 1.62756
2022-12-14 17:20:34.190201, 1.62756
2022-12-14 17:20:34.223381, 1.63734
2022-12-14 17:20:34.223627, 1.65200
2022-12-14 17:20:34.224206, 1.64222
2022-12-14 17:20:34.257055, 1.63245
2022-12-14 17:20:34.257356, 1.62267
2022-12-14 17:20:34.257356, 1.62267
2022-12-14 17:20:34.290353, 1.63734
2022-12-14 17:20:34.290353, 1.61779
2022-12-14 17:20:34.322858, 1.61779
2022-12-14 17:20:34.323825, 1.60801
2022-12-14 17:20:34.323825, 1.61290
2022-12-14 17:20:34.357476, 1.60801
2022-12-14 17:20:34.357783, 1.60312
2022-12-14 17:20:34.358349, 1.60312
2022-12-14 17:20:34.390448, 1.59335
2022-12-14 17:20:34.390448, 1.58357
2022-12-14 17:20:34.424569, 1.57869
2022-12-14 17:20:34.424817, 1.58846
2022-12-14 17:20:34.425438, 1.61290
2022-12-14 17:20:34.458242, 1.56891
2022-12-14 17:20:34.458242, 1.56891
2022-12-14 17:20:34.459243, 1.57380
2022-12-14 17:20:34.491465, 1.58846
2022-12-14 17:20:34.491465, 1.56891
2022-12-14 17:20:34.525383, 1.57380
2022-12-14 17:20:34.525669, 1.57869
2022-12-14 17:20:34.526289, 1.58357
2022-12-14 17:20:34.558518, 1.56891
2022-12-14 17:20:34.558872, 1.56891
2022-12-14 17:20:34.558872, 1.56891
2022-12-14 17:20:34.592331, 1.57380
2022-12-14 17:20:34.593337, 1.55913
2022-12-14 17:20:34.624360, 1.55425
2022-12-14 17:20:34.625367, 1.55425
2022-12-14 17:20:34.625367, 1.55913
2022-12-14 17:20:34.659127, 1.54936
2022-12-14 17:20:34.659432, 1.56402
2022-12-14 17:20:34.659432, 1.54447
2022-12-14 17:20:34.692748, 1.54936
2022-12-14 17:20:34.693112, 1.53470
2022-12-14 17:20:34.726325, 1.53958
2022-12-14 17:20:34.726576, 1.56402
2022-12-14 17:20:34.727199, 1.54447
2022-12-14 17:20:34.759883, 1.53470
2022-12-14 17:20:34.760193, 1.52981
2022-12-14 17:20:34.760193, 1.53470
2022-12-14 17:20:34.793478, 1.54936
2022-12-14 17:20:34.793892, 1.52981
2022-12-14 17:20:34.826771, 1.52981
2022-12-14 17:20:34.826771, 1.53470
2022-12-14 17:20:34.827762, 1.53958
2022-12-14 17:20:34.860091, 1.52981
2022-12-14 17:20:34.860091, 1.52492
2022-12-14 17:20:34.860091, 1.52003
2022-12-14 17:20:34.893329, 1.53470
2022-12-14 17:20:34.893329, 1.53958
2022-12-14 17:20:34.927278, 1.52003
2022-12-14 17:20:34.927497, 1.52003
2022-12-14 17:20:34.927497, 1.52492
2022-12-14 17:20:34.960841, 1.52492
2022-12-14 17:20:34.961843, 1.52003
2022-12-14 17:20:34.961843, 1.54936
2022-12-14 17:20:34.994370, 1.52492
2022-12-14 17:20:34.994370, 1.52003
2022-12-14 17:20:35.028273, 1.51026
2022-12-14 17:20:35.028619, 1.51515
2022-12-14 17:20:35.029622, 1.53958
2022-12-14 17:20:35.061711, 1.51515
2022-12-14 17:20:35.061711, 1.51026
2022-12-14 17:20:35.062712, 1.51026
2022-12-14 17:20:35.095265, 1.52981
2022-12-14 17:20:35.096276, 1.53470
2022-12-14 17:20:35.127394, 1.54447
2022-12-14 17:20:35.128400, 1.56891
2022-12-14 17:20:35.128400, 1.59335
2022-12-14 17:20:35.161913, 1.61290
2022-12-14 17:20:35.162251, 1.61779
2022-12-14 17:20:35.162940, 1.63245
2022-12-14 17:20:35.195670, 1.61290
2022-12-14 17:20:35.196031, 1.61290
2022-12-14 17:20:35.228775, 1.59335
2022-12-14 17:20:35.228775, 1.58846
2022-12-14 17:20:35.229782, 1.60312
2022-12-14 17:20:35.262645, 1.58846
2022-12-14 17:20:35.262950, 1.57380
2022-12-14 17:20:35.263558, 1.57380
2022-12-14 17:20:35.296218, 1.57869
2022-12-14 17:20:35.296218, 1.58357
2022-12-14 17:20:35.329972, 1.57380
2022-12-14 17:20:35.330970, 1.57869
2022-12-14 17:20:35.330970, 1.58357
2022-12-14 17:20:35.362949, 1.58846
2022-12-14 17:20:35.363165, 1.57869
2022-12-14 17:20:35.363663, 1.57380
2022-12-14 17:20:35.396589, 1.57380
2022-12-14 17:20:35.396856, 1.57380
2022-12-14 17:20:35.430307, 1.56891
2022-12-14 17:20:35.431309, 1.57380
2022-12-14 17:20:35.431309, 1.58846
2022-12-14 17:20:35.464056, 1.57380
2022-12-14 17:20:35.465059, 1.56402
2022-12-14 17:20:35.465059, 1.56891
2022-12-14 17:20:35.497408, 1.57380
2022-12-14 17:20:35.498411, 1.58357
2022-12-14 17:20:35.530325, 1.58846
2022-12-14 17:20:35.531135, 1.56891
2022-12-14 17:20:35.532139, 1.56891
2022-12-14 17:20:35.563942, 1.57380
2022-12-14 17:20:35.563942, 1.56402
2022-12-14 17:20:35.564920, 1.55913
2022-12-14 17:20:35.597737, 1.56402
2022-12-14 17:20:35.597737, 1.56402
2022-12-14 17:20:35.630426, 1.55913
2022-12-14 17:20:35.631427, 1.56402
2022-12-14 17:20:35.631427, 1.55425
2022-12-14 17:20:35.664637, 1.55913
2022-12-14 17:20:35.665639, 1.55425
2022-12-14 17:20:35.665639, 1.54936
2022-12-14 17:20:35.698085, 1.55425
2022-12-14 17:20:35.699086, 1.56891
2022-12-14 17:20:35.731643, 1.55425
2022-12-14 17:20:35.731643, 1.54447
2022-12-14 17:20:35.731643, 1.54936
2022-12-14 17:20:35.764773, 1.55425
2022-12-14 17:20:35.765775, 1.55425
2022-12-14 17:20:35.765775, 1.55425
2022-12-14 17:20:35.798080, 1.54447
2022-12-14 17:20:35.799081, 1.54936
2022-12-14 17:20:35.832295, 1.54936
2022-12-14 17:20:35.832295, 1.53958
2022-12-14 17:20:35.832295, 1.53958
2022-12-14 17:20:35.866198, 1.54447
2022-12-14 17:20:35.866691, 1.54936
2022-12-14 17:20:35.866691, 1.53958
2022-12-14 17:20:35.899170, 1.53470
2022-12-14 17:20:35.899825, 1.53958
2022-12-14 17:20:35.932760, 1.53958
2022-12-14 17:20:35.932760, 1.52981
2022-12-14 17:20:35.933757, 1.52981
2022-12-14 17:20:35.966421, 1.56402
2022-12-14 17:20:35.966421, 1.53470
2022-12-14 17:20:35.967515, 1.52492
2022-12-14 17:20:35.999967, 1.52003
2022-12-14 17:20:35.999967, 1.52492
2022-12-14 17:20:36.033292, 1.53958
2022-12-14 17:20:36.034190, 1.53958
2022-12-14 17:20:36.034190, 1.52492
2022-12-14 17:20:36.067025, 1.52981
2022-12-14 17:20:36.067355, 1.52981
2022-12-14 17:20:36.067801, 1.52492
2022-12-14 17:20:36.100447, 1.53958
2022-12-14 17:20:36.100447, 1.54936
2022-12-14 17:20:36.134076, 1.57380
2022-12-14 17:20:36.134368, 1.58846
2022-12-14 17:20:36.134368, 1.60801
2022-12-14 17:20:36.167601, 1.62756
2022-12-14 17:20:36.167908, 1.63734
2022-12-14 17:20:36.167908, 1.63245
2022-12-14 17:20:36.201478, 1.63245
2022-12-14 17:20:36.201838, 1.62756
2022-12-14 17:20:36.235176, 1.62756
2022-12-14 17:20:36.235427, 1.61290
2022-12-14 17:20:36.235427, 1.60312
2022-12-14 17:20:36.268417, 1.59824
2022-12-14 17:20:36.269162, 1.60312
2022-12-14 17:20:36.269162, 1.59335
2022-12-14 17:20:36.302133, 1.58846
2022-12-14 17:20:36.302133, 1.59824
2022-12-14 17:20:36.335665, 1.62756
2022-12-14 17:20:36.335913, 1.61779
2022-12-14 17:20:36.336914, 1.59824
2022-12-14 17:20:36.368592, 1.59335
2022-12-14 17:20:36.369595, 1.59824
2022-12-14 17:20:36.369595, 1.59335
2022-12-14 17:20:36.402869, 1.58357
2022-12-14 17:20:36.403227, 1.58357
2022-12-14 17:20:36.435493, 1.58846
2022-12-14 17:20:36.435493, 1.60801
2022-12-14 17:20:36.436490, 1.60801
2022-12-14 17:20:36.469651, 1.59335
2022-12-14 17:20:36.469651, 1.59335
2022-12-14 17:20:36.469651, 1.59824
2022-12-14 17:20:36.503240, 1.58846
2022-12-14 17:20:36.503872, 1.59335
2022-12-14 17:20:36.536687, 1.59824
2022-12-14 17:20:36.537020, 1.59335
2022-12-14 17:20:36.538021, 1.61290
2022-12-14 17:20:36.569220, 1.58357
2022-12-14 17:20:36.570225, 1.58846
2022-12-14 17:20:36.570225, 1.58846
2022-12-14 17:20:36.603754, 1.57869
2022-12-14 17:20:36.603754, 1.57869
2022-12-14 17:20:36.637045, 1.58357
2022-12-14 17:20:36.637297, 1.57869
2022-12-14 17:20:36.637297, 1.56891
2022-12-14 17:20:36.670410, 1.57380
2022-12-14 17:20:36.670410, 1.58846
2022-12-14 17:20:36.671424, 1.58357
2022-12-14 17:20:36.704447, 1.57380
2022-12-14 17:20:36.704447, 1.57380
2022-12-14 17:20:36.736861, 1.57869
2022-12-14 17:20:36.737891, 1.58357
2022-12-14 17:20:36.738889, 1.57380
2022-12-14 17:20:36.771391, 1.57380
2022-12-14 17:20:36.771391, 1.57869
2022-12-14 17:20:36.772413, 1.58846
2022-12-14 17:20:36.805145, 1.57380
2022-12-14 17:20:36.805145, 1.57869
2022-12-14 17:20:36.838207, 1.57869
2022-12-14 17:20:36.839209, 1.58357
2022-12-14 17:20:36.839209, 1.57380
2022-12-14 17:20:36.871816, 1.56891
2022-12-14 17:20:36.872121, 1.57380
2022-12-14 17:20:36.872121, 1.58846
2022-12-14 17:20:36.905716, 1.59824
2022-12-14 17:20:36.906380, 1.57380
2022-12-14 17:20:36.938668, 1.57869
2022-12-14 17:20:36.938960, 1.57869
2022-12-14 17:20:36.938960, 1.57380
2022-12-14 17:20:36.972794, 1.57380
2022-12-14 17:20:36.973098, 1.58846
2022-12-14 17:20:36.973708, 1.57869
2022-12-14 17:20:37.005922, 1.57380
2022-12-14 17:20:37.005922, 1.57380
2022-12-14 17:20:37.039455, 1.57380
2022-12-14 17:20:37.039678, 1.58357
2022-12-14 17:20:37.040113, 1.58846
2022-12-14 17:20:37.073404, 1.60801
2022-12-14 17:20:37.073705, 1.63245
2022-12-14 17:20:37.073705, 1.68132
2022-12-14 17:20:37.106851, 1.67644
2022-12-14 17:20:37.107853, 1.69110
2022-12-14 17:20:37.139704, 1.72043
2022-12-14 17:20:37.139704, 1.71065
2022-12-14 17:20:37.140539, 1.69110
2022-12-14 17:20:37.173987, 1.70576
2022-12-14 17:20:37.174290, 1.69599
2022-12-14 17:20:37.174290, 1.69110
2022-12-14 17:20:37.207336, 1.67644
2022-12-14 17:20:37.208338, 1.66666
2022-12-14 17:20:37.241086, 1.64711
2022-12-14 17:20:37.241086, 1.65200
2022-12-14 17:20:37.242009, 1.64222
2022-12-14 17:20:37.274494, 1.63734
2022-12-14 17:20:37.274800, 1.63734
2022-12-14 17:20:37.274800, 1.63734
2022-12-14 17:20:37.307558, 1.63734
2022-12-14 17:20:37.308560, 1.62756
2022-12-14 17:20:37.341591, 1.62756
2022-12-14 17:20:37.341591, 1.63245
2022-12-14 17:20:37.342591, 1.63245
2022-12-14 17:20:37.375117, 1.62267
2022-12-14 17:20:37.376168, 1.62267
2022-12-14 17:20:37.376168, 1.62756
2022-12-14 17:20:37.408219, 1.64222
2022-12-14 17:20:37.408219, 1.65200
2022-12-14 17:20:37.442335, 1.64711
2022-12-14 17:20:37.442584, 1.64222
2022-12-14 17:20:37.443199, 1.64711
2022-12-14 17:20:37.475773, 1.63734
2022-12-14 17:20:37.476775, 1.63734
2022-12-14 17:20:37.476775, 1.64711
2022-12-14 17:20:37.508626, 1.66666
2022-12-14 17:20:37.509114, 1.62756
2022-12-14 17:20:37.542964, 1.62267
2022-12-14 17:20:37.543216, 1.62756
2022-12-14 17:20:37.544217, 1.63245
2022-12-14 17:20:37.576279, 1.62267
2022-12-14 17:20:37.577181, 1.63245
2022-12-14 17:20:37.577181, 1.63245
2022-12-14 17:20:37.609290, 1.65200
2022-12-14 17:20:37.609290, 1.61779
2022-12-14 17:20:37.643522, 1.61779
2022-12-14 17:20:37.643771, 1.62267
2022-12-14 17:20:37.644466, 1.63245
2022-12-14 17:20:37.676268, 1.63245
2022-12-14 17:20:37.676268, 1.64711
2022-12-14 17:20:37.677269, 1.62267
2022-12-14 17:20:37.710470, 1.62756
2022-12-14 17:20:37.710834, 1.61779
2022-12-14 17:20:37.744124, 1.61779
2022-12-14 17:20:37.744124, 1.62267
2022-12-14 17:20:37.744933, 1.64222
2022-12-14 17:20:37.776827, 1.61779
2022-12-14 17:20:37.777324, 1.61290
2022-12-14 17:20:37.777324, 1.61779
2022-12-14 17:20:37.810957, 1.62756
2022-12-14 17:20:37.811990, 1.61290
2022-12-14 17:20:37.843883, 1.61290
2022-12-14 17:20:37.843883, 1.63245
2022-12-14 17:20:37.844899, 1.61779
2022-12-14 17:20:37.878225, 1.61290
2022-12-14 17:20:37.878530, 1.60801
2022-12-14 17:20:37.878530, 1.60801
2022-12-14 17:20:37.911686, 1.60801
2022-12-14 17:20:37.912048, 1.61290
2022-12-14 17:20:37.945178, 1.61779
2022-12-14 17:20:37.945178, 1.62267
2022-12-14 17:20:37.946100, 1.64711
2022-12-14 17:20:37.978656, 1.66666
2022-12-14 17:20:37.978963, 1.68621
2022-12-14 17:20:37.979501, 1.69599
2022-12-14 17:20:38.012296, 1.71065
2022-12-14 17:20:38.012703, 1.71065
2022-12-14 17:20:38.045521, 1.70087
2022-12-14 17:20:38.045816, 1.69599
2022-12-14 17:20:38.045816, 1.70576
2022-12-14 17:20:38.078613, 1.69110
2022-12-14 17:20:38.078613, 1.68132
2022-12-14 17:20:38.079614, 1.67155
2022-12-14 17:20:38.111670, 1.66177
2022-12-14 17:20:38.112665, 1.66177
2022-12-14 17:20:38.146497, 1.64711
2022-12-14 17:20:38.146747, 1.64711
2022-12-14 17:20:38.147361, 1.65200
2022-12-14 17:20:38.180006, 1.65200
2022-12-14 17:20:38.180314, 1.65200
2022-12-14 17:20:38.180314, 1.65200
2022-12-14 17:20:38.213648, 1.64711
2022-12-14 17:20:38.214010, 1.64711
2022-12-14 17:20:38.247149, 1.63734
2022-12-14 17:20:38.247400, 1.63734
2022-12-14 17:20:38.247884, 1.63734
2022-12-14 17:20:38.279600, 1.65200
2022-12-14 17:20:38.279600, 1.62756
2022-12-14 17:20:38.280599, 1.63245
2022-12-14 17:20:38.313504, 1.63734
2022-12-14 17:20:38.313504, 1.64222
2022-12-14 17:20:38.346419, 1.63245
2022-12-14 17:20:38.347415, 1.63734
2022-12-14 17:20:38.347415, 1.63734
2022-12-14 17:20:38.380981, 1.63734
2022-12-14 17:20:38.380981, 1.62756
2022-12-14 17:20:38.381982, 1.62267
2022-12-14 17:20:38.414388, 1.62267
2022-12-14 17:20:38.415390, 1.61779
2022-12-14 17:20:38.448339, 1.61779
2022-12-14 17:20:38.448590, 1.62267
2022-12-14 17:20:38.448590, 1.61290
2022-12-14 17:20:38.481610, 1.61290
2022-12-14 17:20:38.482099, 1.60801
2022-12-14 17:20:38.482099, 1.60312
2022-12-14 17:20:38.515340, 1.62756
2022-12-14 17:20:38.515340, 1.60801
2022-12-14 17:20:38.548888, 1.60312
2022-12-14 17:20:38.549890, 1.59824
2022-12-14 17:20:38.549890, 1.59824
2022-12-14 17:20:38.582250, 1.61290
2022-12-14 17:20:38.582250, 1.59824
2022-12-14 17:20:38.583253, 1.59335
2022-12-14 17:20:38.616336, 1.59824
2022-12-14 17:20:38.616336, 1.60312
2022-12-14 17:20:38.649065, 1.62267
2022-12-14 17:20:38.649065, 1.59335
2022-12-14 17:20:38.650068, 1.59335
2022-12-14 17:20:38.682509, 1.59824
2022-12-14 17:20:38.683511, 1.59335
2022-12-14 17:20:38.683511, 1.59335
2022-12-14 17:20:38.715382, 1.60312
2022-12-14 17:20:38.716401, 1.59335
2022-12-14 17:20:38.749074, 1.58846
2022-12-14 17:20:38.750076, 1.58357
2022-12-14 17:20:38.750076, 1.58357
2022-12-14 17:20:38.782532, 1.58846
2022-12-14 17:20:38.783535, 1.59824
2022-12-14 17:20:38.783535, 1.58846
2022-12-14 17:20:38.816296, 1.57869
2022-12-14 17:20:38.817289, 1.57869
2022-12-14 17:20:38.850094, 1.58357
2022-12-14 17:20:38.850094, 1.57380
2022-12-14 17:20:38.851091, 1.57380
2022-12-14 17:20:38.883882, 1.57869
2022-12-14 17:20:38.884595, 1.59335
2022-12-14 17:20:38.884896, 1.63245
2022-12-14 17:20:38.917195, 1.63734
2022-12-14 17:20:38.917195, 1.66666
2022-12-14 17:20:38.950064, 1.68132
2022-12-14 17:20:38.951062, 1.68132
2022-12-14 17:20:38.951062, 1.68621
2022-12-14 17:20:38.984147, 1.69110
2022-12-14 17:20:38.984509, 1.68621
2022-12-14 17:20:38.985077, 1.66666
2022-12-14 17:20:39.017744, 1.66177
2022-12-14 17:20:39.018106, 1.65689
2022-12-14 17:20:39.051576, 1.65689
2022-12-14 17:20:39.051576, 1.64222
2022-12-14 17:20:39.052585, 1.63734
2022-12-14 17:20:39.084654, 1.63734
2022-12-14 17:20:39.084654, 1.64222
2022-12-14 17:20:39.085653, 1.63734
2022-12-14 17:20:39.118770, 1.65689
2022-12-14 17:20:39.119130, 1.67155
2022-12-14 17:20:39.152191, 1.66177
2022-12-14 17:20:39.152508, 1.64222
2022-12-14 17:20:39.153165, 1.63245
2022-12-14 17:20:39.185829, 1.63245
2022-12-14 17:20:39.186139, 1.66177
2022-12-14 17:20:39.186674, 1.62267
2022-12-14 17:20:39.219392, 1.61779
2022-12-14 17:20:39.219752, 1.61779
2022-12-14 17:20:39.252782, 1.62756
2022-12-14 17:20:39.253783, 1.62756
2022-12-14 17:20:39.253783, 1.65200
2022-12-14 17:20:39.286455, 1.62267
2022-12-14 17:20:39.286758, 1.62756
2022-12-14 17:20:39.287369, 1.62756
2022-12-14 17:20:39.319874, 1.61290
2022-12-14 17:20:39.319874, 1.64222
2022-12-14 17:20:39.353473, 1.65200
2022-12-14 17:20:39.353728, 1.61290
2022-12-14 17:20:39.354373, 1.60801
2022-12-14 17:20:39.386954, 1.60801
2022-12-14 17:20:39.387262, 1.61290
2022-12-14 17:20:39.387922, 1.63245
2022-12-14 17:20:39.420482, 1.59824
2022-12-14 17:20:39.420840, 1.59824
2022-12-14 17:20:39.454103, 1.60312
2022-12-14 17:20:39.454103, 1.61290
2022-12-14 17:20:39.455054, 1.60312
2022-12-14 17:20:39.487592, 1.59335
2022-12-14 17:20:39.487897, 1.59824
2022-12-14 17:20:39.487897, 1.59335
2022-12-14 17:20:39.521007, 1.61779
2022-12-14 17:20:39.521739, 1.58846
2022-12-14 17:20:39.553538, 1.59335
2022-12-14 17:20:39.554544, 1.58846
2022-12-14 17:20:39.554544, 1.59335
2022-12-14 17:20:39.587597, 1.58846
2022-12-14 17:20:39.588599, 1.59335
2022-12-14 17:20:39.588599, 1.59824
2022-12-14 17:20:39.621694, 1.58846
2022-12-14 17:20:39.622058, 1.58846
2022-12-14 17:20:39.655233, 1.60312
2022-12-14 17:20:39.655483, 1.59824
2022-12-14 17:20:39.656062, 1.58846
2022-12-14 17:20:39.688766, 1.58846
2022-12-14 17:20:39.689070, 1.59335
2022-12-14 17:20:39.689653, 1.61779
2022-12-14 17:20:39.722378, 1.58357
2022-12-14 17:20:39.722378, 1.58357
2022-12-14 17:20:39.755997, 1.58846
2022-12-14 17:20:39.756241, 1.59824
2022-12-14 17:20:39.756714, 1.58357
2022-12-14 17:20:39.789423, 1.58357
2022-12-14 17:20:39.789423, 1.58846
2022-12-14 17:20:39.790458, 1.60312
2022-12-14 17:20:39.822743, 1.58357
2022-12-14 17:20:39.822743, 1.58357
2022-12-14 17:20:39.855834, 1.57869
2022-12-14 17:20:39.856835, 1.60312
2022-12-14 17:20:39.857145, 1.60312
2022-12-14 17:20:39.889401, 1.62267
2022-12-14 17:20:39.890404, 1.65200
2022-12-14 17:20:39.890404, 1.68621
2022-12-14 17:20:39.923512, 1.69110
2022-12-14 17:20:39.923871, 1.70087
2022-12-14 17:20:39.957029, 1.71065
2022-12-14 17:20:39.957277, 1.71554
2022-12-14 17:20:39.957816, 1.70576
2022-12-14 17:20:39.990596, 1.70576
2022-12-14 17:20:39.990900, 1.71065
2022-12-14 17:20:39.991542, 1.68621
2022-12-14 17:20:40.024129, 1.67644
2022-12-14 17:20:40.024129, 1.66666
2022-12-14 17:20:40.057553, 1.66666
2022-12-14 17:20:40.058232, 1.67155
2022-12-14 17:20:40.058232, 1.66666
2022-12-14 17:20:40.089812, 1.66666
2022-12-14 17:20:40.090820, 1.67644
2022-12-14 17:20:40.090820, 1.67644
2022-12-14 17:20:40.124253, 1.68132
2022-12-14 17:20:40.124580, 1.67155
2022-12-14 17:20:40.158180, 1.66666
2022-12-14 17:20:40.158460, 1.67644
2022-12-14 17:20:40.159107, 1.66666
2022-12-14 17:20:40.191713, 1.65689
2022-12-14 17:20:40.192019, 1.66177
2022-12-14 17:20:40.192670, 1.67644
2022-12-14 17:20:40.225336, 1.67644
2022-12-14 17:20:40.225703, 1.67155
2022-12-14 17:20:40.258872, 1.67644
2022-12-14 17:20:40.259124, 1.68132
2022-12-14 17:20:40.259608, 1.68132
2022-12-14 17:20:40.292414, 1.67155
2022-12-14 17:20:40.292720, 1.67155
2022-12-14 17:20:40.293362, 1.68132
2022-12-14 17:20:40.326074, 1.68132
2022-12-14 17:20:40.326074, 1.68621
2022-12-14 17:20:40.359480, 1.67155
2022-12-14 17:20:40.359862, 1.67644
2022-12-14 17:20:40.360866, 1.67155
2022-12-14 17:20:40.391736, 1.67155
2022-12-14 17:20:40.392777, 1.69110
2022-12-14 17:20:40.393750, 1.66666
2022-12-14 17:20:40.426074, 1.67155
2022-12-14 17:20:40.426074, 1.66177
2022-12-14 17:20:40.460055, 1.67644
2022-12-14 17:20:40.460303, 1.65689
2022-12-14 17:20:40.460924, 1.66177
2022-12-14 17:20:40.493528, 1.67644
2022-12-14 17:20:40.493833, 1.65689
2022-12-14 17:20:40.494400, 1.66177
2022-12-14 17:20:40.527024, 1.66666
2022-12-14 17:20:40.527024, 1.66177
2022-12-14 17:20:40.560560, 1.66666
2022-12-14 17:20:40.560560, 1.66177
2022-12-14 17:20:40.561514, 1.67155
2022-12-14 17:20:40.594144, 1.66177
2022-12-14 17:20:40.594144, 1.67155
2022-12-14 17:20:40.595042, 1.66666
2022-12-14 17:20:40.627765, 1.67155
2022-12-14 17:20:40.628179, 1.66666
2022-12-14 17:20:40.661084, 1.66177
2022-12-14 17:20:40.661384, 1.66666
2022-12-14 17:20:40.661911, 1.67155
2022-12-14 17:20:40.694701, 1.66666
2022-12-14 17:20:40.695762, 1.65689
2022-12-14 17:20:40.695762, 1.67644
2022-12-14 17:20:40.727665, 1.66666
2022-12-14 17:20:40.727665, 1.65689
2022-12-14 17:20:40.761455, 1.65200
2022-12-14 17:20:40.761705, 1.66177
2022-12-14 17:20:40.762327, 1.69110
2022-12-14 17:20:40.795207, 1.68621
2022-12-14 17:20:40.795207, 1.70576
2022-12-14 17:20:40.796181, 1.73509
2022-12-14 17:20:40.828814, 1.76930
2022-12-14 17:20:40.829180, 1.77419
2022-12-14 17:20:40.862304, 1.77419
2022-12-14 17:20:40.862304, 1.78396
2022-12-14 17:20:40.863265, 1.78885
2022-12-14 17:20:40.895951, 1.78396
2022-12-14 17:20:40.896258, 1.76930
2022-12-14 17:20:40.896903, 1.76441
2022-12-14 17:20:40.929617, 1.76930
2022-12-14 17:20:40.929980, 1.75953
2022-12-14 17:20:40.963105, 1.77419
2022-12-14 17:20:40.963355, 1.74486
2022-12-14 17:20:40.963885, 1.75464
2022-12-14 17:20:40.996607, 1.74975
2022-12-14 17:20:40.996607, 1.76930
2022-12-14 17:20:40.997610, 1.74975
2022-12-14 17:20:41.029670, 1.74975
2022-12-14 17:20:41.030678, 1.74486
2022-12-14 17:20:41.063122, 1.75953
2022-12-14 17:20:41.063122, 1.73020
2022-12-14 17:20:41.064120, 1.73509
2022-12-14 17:20:41.097065, 1.73509
2022-12-14 17:20:41.097400, 1.73020
2022-12-14 17:20:41.098259, 1.75464
2022-12-14 17:20:41.130575, 1.73509
2022-12-14 17:20:41.130934, 1.73998
2022-12-14 17:20:41.164155, 1.73509
2022-12-14 17:20:41.164404, 1.75464
2022-12-14 17:20:41.165052, 1.73020
2022-12-14 17:20:41.197643, 1.73509
2022-12-14 17:20:41.197950, 1.72043
2022-12-14 17:20:41.197950, 1.71554
2022-12-14 17:20:41.231243, 1.72043
2022-12-14 17:20:41.231243, 1.74486
2022-12-14 17:20:41.264780, 1.70087
2022-12-14 17:20:41.265030, 1.69110
2022-12-14 17:20:41.265694, 1.69599
2022-12-14 17:20:41.298369, 1.70087
2022-12-14 17:20:41.298723, 1.68132
2022-12-14 17:20:41.299269, 1.67644
2022-12-14 17:20:41.331958, 1.67155
2022-12-14 17:20:41.332652, 1.70576
2022-12-14 17:20:41.365061, 1.66666
2022-12-14 17:20:41.365061, 1.65689
2022-12-14 17:20:41.366093, 1.68132
2022-12-14 17:20:41.398358, 1.66177
2022-12-14 17:20:41.398358, 1.65200
2022-12-14 17:20:41.399354, 1.64711
2022-12-14 17:20:41.431628, 1.64222
2022-12-14 17:20:41.432625, 1.65200
2022-12-14 17:20:41.465871, 1.64222
2022-12-14 17:20:41.465871, 1.63734
2022-12-14 17:20:41.466878, 1.64222
2022-12-14 17:20:41.499256, 1.64711
2022-12-14 17:20:41.500258, 1.64222
2022-12-14 17:20:41.500258, 1.66177
2022-12-14 17:20:41.532491, 1.63245
2022-12-14 17:20:41.532491, 1.63734
2022-12-14 17:20:41.565912, 1.63245
2022-12-14 17:20:41.565912, 1.62756
2022-12-14 17:20:41.566914, 1.62756
2022-12-14 17:20:41.599881, 1.63734
2022-12-14 17:20:41.600884, 1.62756
2022-12-14 17:20:41.600884, 1.62267
2022-12-14 17:20:41.633384, 1.62756
2022-12-14 17:20:41.634385, 1.63734
2022-12-14 17:20:41.666857, 1.63245
2022-12-14 17:20:41.666857, 1.62756
2022-12-14 17:20:41.667843, 1.62756
2022-12-14 17:20:41.700507, 1.63734
2022-12-14 17:20:41.700507, 1.65689
2022-12-14 17:20:41.700507, 1.63245
2022-12-14 17:20:41.733568, 1.63734
2022-12-14 17:20:41.734571, 1.66666
2022-12-14 17:20:41.766916, 1.67644
2022-12-14 17:20:41.767920, 1.69110
2022-12-14 17:20:41.767920, 1.72043
2022-12-14 17:20:41.800252, 1.76930
2022-12-14 17:20:41.801255, 1.76441
2022-12-14 17:20:41.801255, 1.76441
2022-12-14 17:20:41.833611, 1.76930
2022-12-14 17:20:41.834614, 1.77419
2022-12-14 17:20:41.866938, 1.77419
2022-12-14 17:20:41.867941, 1.76930
2022-12-14 17:20:41.867941, 1.75953
2022-12-14 17:20:41.901308, 1.76441
2022-12-14 17:20:41.901308, 1.76441
2022-12-14 17:20:41.902287, 1.77908
2022-12-14 17:20:41.934840, 1.77419
2022-12-14 17:20:41.935273, 1.77908
2022-12-14 17:20:41.967977, 1.75464
2022-12-14 17:20:41.968974, 1.74975
2022-12-14 17:20:41.968974, 1.77908
2022-12-14 17:20:42.002317, 1.76441
2022-12-14 17:20:42.002317, 1.78396
2022-12-14 17:20:42.002317, 1.75464
2022-12-14 17:20:42.035672, 1.74486
2022-12-14 17:20:42.036670, 1.74486
2022-12-14 17:20:42.068436, 1.74486
2022-12-14 17:20:42.069433, 1.75464
2022-12-14 17:20:42.069691, 1.73509
2022-12-14 17:20:42.101665, 1.73998
2022-12-14 17:20:42.102800, 1.74486
2022-12-14 17:20:42.103204, 1.73998
2022-12-14 17:20:42.136057, 1.74486
2022-12-14 17:20:42.136695, 1.73998
2022-12-14 17:20:42.169958, 1.74486
2022-12-14 17:20:42.170208, 1.73509
2022-12-14 17:20:42.170862, 1.73998
2022-12-14 17:20:42.203427, 1.73020
2022-12-14 17:20:42.203733, 1.73509
2022-12-14 17:20:42.204337, 1.73020
2022-12-14 17:20:42.237118, 1.71554
2022-12-14 17:20:42.237479, 1.71554
2022-12-14 17:20:42.270518, 1.72043
2022-12-14 17:20:42.270766, 1.71554
2022-12-14 17:20:42.271380, 1.73509
2022-12-14 17:20:42.304202, 1.70087
2022-12-14 17:20:42.304506, 1.70576
2022-12-14 17:20:42.305000, 1.70576
2022-12-14 17:20:42.337550, 1.69110
2022-12-14 17:20:42.337942, 1.69110
2022-12-14 17:20:42.370475, 1.69599
2022-12-14 17:20:42.371478, 1.72043
2022-12-14 17:20:42.371478, 1.68132
2022-12-14 17:20:42.404414, 1.67644
2022-12-14 17:20:42.404709, 1.69599
2022-12-14 17:20:42.405240, 1.68132
2022-12-14 17:20:42.438335, 1.66666
2022-12-14 17:20:42.438695, 1.68621
2022-12-14 17:20:42.471987, 1.67155
2022-12-14 17:20:42.472295, 1.67155
2022-12-14 17:20:42.472926, 1.69110
2022-12-14 17:20:42.505248, 1.65689
2022-12-14 17:20:42.505248, 1.66177
2022-12-14 17:20:42.506250, 1.66177
2022-12-14 17:20:42.538338, 1.64711
2022-12-14 17:20:42.538338, 1.67155
2022-12-14 17:20:42.572390, 1.65200
2022-12-14 17:20:42.572636, 1.65689
2022-12-14 17:20:42.573251, 1.64222
2022-12-14 17:20:42.605853, 1.63734
2022-12-14 17:20:42.605853, 1.64711
2022-12-14 17:20:42.606742, 1.64711
2022-12-14 17:20:42.639384, 1.63734
2022-12-14 17:20:42.639384, 1.63245
2022-12-14 17:20:42.673102, 1.63245
2022-12-14 17:20:42.673102, 1.65200
2022-12-14 17:20:42.674105, 1.62756
2022-12-14 17:20:42.706427, 1.62267
2022-12-14 17:20:42.706732, 1.62756
2022-12-14 17:20:42.707335, 1.65200
2022-12-14 17:20:42.740137, 1.65200
2022-12-14 17:20:42.740497, 1.67644
2022-12-14 17:20:42.773615, 1.70087
2022-12-14 17:20:42.773863, 1.73509
2022-12-14 17:20:42.774437, 1.74975
2022-12-14 17:20:42.807263, 1.75464
2022-12-14 17:20:42.807569, 1.76930
2022-12-14 17:20:42.808184, 1.77908
2022-12-14 17:20:42.840608, 1.79374
2022-12-14 17:20:42.840969, 1.75953
2022-12-14 17:20:42.874269, 1.75953
2022-12-14 17:20:42.874269, 1.75953
2022-12-14 17:20:42.875270, 1.74975
2022-12-14 17:20:42.907805, 1.74486
2022-12-14 17:20:42.907805, 1.74486
2022-12-14 17:20:42.908806, 1.74975
2022-12-14 17:20:42.941304, 1.74486
2022-12-14 17:20:42.941859, 1.73998
2022-12-14 17:20:42.973830, 1.74486
2022-12-14 17:20:42.974831, 1.74975
2022-12-14 17:20:42.974831, 1.75464
2022-12-14 17:20:43.008178, 1.73998
2022-12-14 17:20:43.008485, 1.73998
2022-12-14 17:20:43.008485, 1.74486
2022-12-14 17:20:43.041765, 1.73998
2022-12-14 17:20:43.042129, 1.73020
2022-12-14 17:20:43.075335, 1.73020
2022-12-14 17:20:43.075335, 1.73998
2022-12-14 17:20:43.076257, 1.73998
2022-12-14 17:20:43.108830, 1.73509
2022-12-14 17:20:43.109138, 1.73509
2022-12-14 17:20:43.109709, 1.74486
2022-12-14 17:20:43.142482, 1.76441
2022-12-14 17:20:43.142844, 1.73020
2022-12-14 17:20:43.176012, 1.73020
2022-12-14 17:20:43.176262, 1.73020
2022-12-14 17:20:43.176877, 1.73998
2022-12-14 17:20:43.209496, 1.71554
2022-12-14 17:20:43.209802, 1.71554
2022-12-14 17:20:43.210337, 1.72043
2022-12-14 17:20:43.242921, 1.72531
2022-12-14 17:20:43.243376, 1.70576
2022-12-14 17:20:43.275213, 1.70087
2022-12-14 17:20:43.276225, 1.70087
2022-12-14 17:20:43.276225, 1.73020
2022-12-14 17:20:43.309947, 1.69110
2022-12-14 17:20:43.310254, 1.68621
2022-12-14 17:20:43.310831, 1.69110
2022-12-14 17:20:43.343589, 1.69110
2022-12-14 17:20:43.343952, 1.68132
2022-12-14 17:20:43.377122, 1.68132
2022-12-14 17:20:43.377373, 1.70087
2022-12-14 17:20:43.378029, 1.68621
2022-12-14 17:20:43.410651, 1.67155
2022-12-14 17:20:43.410651, 1.67155
2022-12-14 17:20:43.411613, 1.67155
2022-12-14 17:20:43.444215, 1.67644
2022-12-14 17:20:43.444577, 1.66666
2022-12-14 17:20:43.477688, 1.66177
2022-12-14 17:20:43.477940, 1.66666
2022-12-14 17:20:43.478474, 1.66666
2022-12-14 17:20:43.511409, 1.66177
2022-12-14 17:20:43.511409, 1.67155
2022-12-14 17:20:43.512381, 1.65689
2022-12-14 17:20:43.545285, 1.66177
2022-12-14 17:20:43.545285, 1.66177
2022-12-14 17:20:43.576984, 1.64711
2022-12-14 17:20:43.577991, 1.64711
2022-12-14 17:20:43.577991, 1.66177
2022-12-14 17:20:43.611899, 1.64711
2022-12-14 17:20:43.612209, 1.64222
2022-12-14 17:20:43.612817, 1.64711
2022-12-14 17:20:43.645485, 1.64711
2022-12-14 17:20:43.645843, 1.64222
2022-12-14 17:20:43.679039, 1.66666
2022-12-14 17:20:43.679289, 1.63734
2022-12-14 17:20:43.679289, 1.66177
2022-12-14 17:20:43.712587, 1.68132
2022-12-14 17:20:43.712899, 1.70087
2022-12-14 17:20:43.713515, 1.73998
2022-12-14 17:20:43.746146, 1.76441
2022-12-14 17:20:43.746509, 1.78396
2022-12-14 17:20:43.779702, 1.78885
2022-12-14 17:20:43.779979, 1.79374
2022-12-14 17:20:43.780503, 1.80351
2022-12-14 17:20:43.813235, 1.80840
2022-12-14 17:20:43.813235, 1.79863
2022-12-14 17:20:43.814200, 1.78396
2022-12-14 17:20:43.846682, 1.78396
2022-12-14 17:20:43.846682, 1.78396
2022-12-14 17:20:43.880397, 1.76930
2022-12-14 17:20:43.880397, 1.76930
2022-12-14 17:20:43.881401, 1.76930
2022-12-14 17:20:43.913518, 1.77419
2022-12-14 17:20:43.913823, 1.76441
2022-12-14 17:20:43.914474, 1.76441
2022-12-14 17:20:43.947242, 1.76441
2022-12-14 17:20:43.947600, 1.76930
2022-12-14 17:20:43.980619, 1.75464
2022-12-14 17:20:43.980871, 1.74975
2022-12-14 17:20:43.981523, 1.75464
2022-12-14 17:20:44.014216, 1.76441
2022-12-14 17:20:44.014523, 1.78396
2022-12-14 17:20:44.015128, 1.75953
2022-12-14 17:20:44.047939, 1.76930
2022-12-14 17:20:44.048296, 1.77908
2022-12-14 17:20:44.081446, 1.76930
2022-12-14 17:20:44.081697, 1.79374
2022-12-14 17:20:44.082177, 1.78396
2022-12-14 17:20:44.115041, 1.78885
2022-12-14 17:20:44.115346, 1.77908
2022-12-14 17:20:44.115960, 1.77908
2022-12-14 17:20:44.148493, 1.75464
2022-12-14 17:20:44.148855, 1.75953
2022-12-14 17:20:44.182050, 1.75464
2022-12-14 17:20:44.182050, 1.73509
2022-12-14 17:20:44.183052, 1.73509
2022-12-14 17:20:44.215554, 1.73998
2022-12-14 17:20:44.216004, 1.73020
2022-12-14 17:20:44.216004, 1.73020
2022-12-14 17:20:44.248580, 1.72043
2022-12-14 17:20:44.248580, 1.72531
2022-12-14 17:20:44.282353, 1.71554
2022-12-14 17:20:44.282631, 1.73509
2022-12-14 17:20:44.283316, 1.71065
2022-12-14 17:20:44.315974, 1.71065
2022-12-14 17:20:44.316312, 1.71065
2022-12-14 17:20:44.316982, 1.69599
2022-12-14 17:20:44.349517, 1.69599
2022-12-14 17:20:44.349877, 1.71554
2022-12-14 17:20:44.381757, 1.69599
2022-12-14 17:20:44.382756, 1.69599
2022-12-14 17:20:44.382756, 1.68132
2022-12-14 17:20:44.415598, 1.68621
2022-12-14 17:20:44.416595, 1.69599
2022-12-14 17:20:44.416595, 1.67155
2022-12-14 17:20:44.450337, 1.66666
2022-12-14 17:20:44.450699, 1.69110
2022-12-14 17:20:44.483659, 1.66666
2022-12-14 17:20:44.484666, 1.68132
2022-12-14 17:20:44.484666, 1.65689
2022-12-14 17:20:44.517326, 1.66177
2022-12-14 17:20:44.518334, 1.65689
2022-12-14 17:20:44.518334, 1.65200
2022-12-14 17:20:44.550199, 1.64222
2022-12-14 17:20:44.550199, 1.67644
2022-12-14 17:20:44.584274, 1.65200
2022-12-14 17:20:44.584274, 1.65689
2022-12-14 17:20:44.585276, 1.68132
2022-12-14 17:20:44.616396, 1.73998
2022-12-14 17:20:44.617396, 1.74486
2022-12-14 17:20:44.617396, 1.75953
2022-12-14 17:20:44.651338, 1.79374
2022-12-14 17:20:44.652343, 1.78885
2022-12-14 17:20:44.684895, 1.79863
2022-12-14 17:20:44.684895, 1.78885
2022-12-14 17:20:44.685897, 1.78396
2022-12-14 17:20:44.718250, 1.78885
2022-12-14 17:20:44.719252, 1.78885
2022-12-14 17:20:44.719252, 1.78885
2022-12-14 17:20:44.751631, 1.76441
2022-12-14 17:20:44.752217, 1.79374
2022-12-14 17:20:44.784542, 1.76930
2022-12-14 17:20:44.785550, 1.75464
2022-12-14 17:20:44.785550, 1.74975
2022-12-14 17:20:44.817943, 1.75464
2022-12-14 17:20:44.818939, 1.75464
2022-12-14 17:20:44.818939, 1.74975
2022-12-14 17:20:44.851451, 1.73998
2022-12-14 17:20:44.852454, 1.74486
2022-12-14 17:20:44.885662, 1.73998
2022-12-14 17:20:44.885662, 1.73020
2022-12-14 17:20:44.886670, 1.72043
2022-12-14 17:20:44.919033, 1.73020
2022-12-14 17:20:44.919033, 1.73020
2022-12-14 17:20:44.920036, 1.72531
2022-12-14 17:20:44.952401, 1.72043
2022-12-14 17:20:44.952401, 1.73020
2022-12-14 17:20:44.985805, 1.73020
2022-12-14 17:20:44.985805, 1.72531
2022-12-14 17:20:44.986814, 1.72043
2022-12-14 17:20:45.019246, 1.71554
2022-12-14 17:20:45.020242, 1.71554
2022-12-14 17:20:45.020242, 1.71554
2022-12-14 17:20:45.053165, 1.69110
2022-12-14 17:20:45.053663, 1.69110
2022-12-14 17:20:45.086885, 1.69599
2022-12-14 17:20:45.087276, 1.68621
2022-12-14 17:20:45.087276, 1.67644
2022-12-14 17:20:45.120446, 1.67644
2022-12-14 17:20:45.121181, 1.67155
2022-12-14 17:20:45.121181, 1.66666
2022-12-14 17:20:45.153963, 1.66666
2022-12-14 17:20:45.153963, 1.65200
2022-12-14 17:20:45.187610, 1.67155
2022-12-14 17:20:45.187862, 1.65200
2022-12-14 17:20:45.188446, 1.67155
2022-12-14 17:20:45.221097, 1.64222
2022-12-14 17:20:45.221097, 1.64222
2022-12-14 17:20:45.222107, 1.64711
2022-12-14 17:20:45.254707, 1.63245
2022-12-14 17:20:45.255075, 1.62756
2022-12-14 17:20:45.288262, 1.63245
2022-12-14 17:20:45.288507, 1.63245
2022-12-14 17:20:45.288984, 1.61779
2022-12-14 17:20:45.321757, 1.61779
2022-12-14 17:20:45.321757, 1.61779
2022-12-14 17:20:45.322719, 1.64711
2022-12-14 17:20:45.355330, 1.62267
2022-12-14 17:20:45.355687, 1.61290
2022-12-14 17:20:45.388862, 1.60801
2022-12-14 17:20:45.388862, 1.60801
2022-12-14 17:20:45.389862, 1.59824
2022-12-14 17:20:45.422298, 1.59335
2022-12-14 17:20:45.423016, 1.59824
2022-12-14 17:20:45.423016, 1.62267
2022-12-14 17:20:45.454954, 1.61779
2022-12-14 17:20:45.455974, 1.59335
2022-12-14 17:20:45.489028, 1.58846
2022-12-14 17:20:45.489028, 1.60801
2022-12-14 17:20:45.489028, 1.61779
2022-12-14 17:20:45.523009, 1.63734
2022-12-14 17:20:45.523316, 1.70087
2022-12-14 17:20:45.523925, 1.70576
2022-12-14 17:20:45.556517, 1.72531
2022-12-14 17:20:45.556517, 1.73509
2022-12-14 17:20:45.590099, 1.75464
2022-12-14 17:20:45.590350, 1.76441
2022-12-14 17:20:45.590925, 1.76441
2022-12-14 17:20:45.623675, 1.76441
2022-12-14 17:20:45.623985, 1.77419
2022-12-14 17:20:45.624479, 1.75464
2022-12-14 17:20:45.657071, 1.74486
2022-12-14 17:20:45.657928, 1.73509
2022-12-14 17:20:45.690734, 1.73509
2022-12-14 17:20:45.690985, 1.74486
2022-12-14 17:20:45.690985, 1.73509
2022-12-14 17:20:45.724161, 1.73509
2022-12-14 17:20:45.724161, 1.73509
2022-12-14 17:20:45.725193, 1.74486
2022-12-14 17:20:45.756914, 1.73509
2022-12-14 17:20:45.757574, 1.72531
2022-12-14 17:20:45.791198, 1.73020
2022-12-14 17:20:45.791198, 1.73020
2022-12-14 17:20:45.792158, 1.72531
2022-12-14 17:20:45.824665, 1.71554
2022-12-14 17:20:45.824665, 1.71065
2022-12-14 17:20:45.825765, 1.72531
2022-12-14 17:20:45.858367, 1.72043
2022-12-14 17:20:45.858730, 1.71554
2022-12-14 17:20:45.891847, 1.72043
2022-12-14 17:20:45.891847, 1.72531
2022-12-14 17:20:45.892803, 1.72531
2022-12-14 17:20:45.925400, 1.71554
2022-12-14 17:20:45.925400, 1.71065
2022-12-14 17:20:45.926306, 1.71065
2022-12-14 17:20:45.958372, 1.72531
2022-12-14 17:20:45.959376, 1.69599
2022-12-14 17:20:45.992529, 1.69599
2022-12-14 17:20:45.992781, 1.69599
2022-12-14 17:20:45.993363, 1.69599
2022-12-14 17:20:46.026009, 1.68132
2022-12-14 17:20:46.026009, 1.68132
2022-12-14 17:20:46.027010, 1.68132
2022-12-14 17:20:46.059045, 1.68132
2022-12-14 17:20:46.059045, 1.68132
2022-12-14 17:20:46.092426, 1.66177
2022-12-14 17:20:46.092787, 1.66177
2022-12-14 17:20:46.092787, 1.66666
2022-12-14 17:20:46.126510, 1.65200
2022-12-14 17:20:46.126818, 1.64711
2022-12-14 17:20:46.126818, 1.68132
2022-12-14 17:20:46.160124, 1.65689
2022-12-14 17:20:46.160486, 1.64711
2022-12-14 17:20:46.193676, 1.64222
2022-12-14 17:20:46.193927, 1.64711
2022-12-14 17:20:46.194631, 1.65689
2022-12-14 17:20:46.227269, 1.64222
2022-12-14 17:20:46.227576, 1.63245
2022-12-14 17:20:46.228192, 1.63734
2022-12-14 17:20:46.260778, 1.64222
2022-12-14 17:20:46.261207, 1.63734
2022-12-14 17:20:46.294282, 1.62756
2022-12-14 17:20:46.294282, 1.63245
2022-12-14 17:20:46.295175, 1.63734
2022-12-14 17:20:46.327893, 1.62756
2022-12-14 17:20:46.327893, 1.65689
2022-12-14 17:20:46.328894, 1.62756
2022-12-14 17:20:46.361444, 1.64222
2022-12-14 17:20:46.361444, 1.62756
2022-12-14 17:20:46.394769, 1.63734
2022-12-14 17:20:46.395367, 1.63245
2022-12-14 17:20:46.395367, 1.65200
2022-12-14 17:20:46.427953, 1.67155
2022-12-14 17:20:46.428238, 1.69110
2022-12-14 17:20:46.428238, 1.72531
2022-12-14 17:20:46.461475, 1.75953
2022-12-14 17:20:46.461475, 1.77419
2022-12-14 17:20:46.495383, 1.77908
2022-12-14 17:20:46.495635, 1.79374
2022-12-14 17:20:46.496211, 1.80351
2022-12-14 17:20:46.528991, 1.79863
2022-12-14 17:20:46.529297, 1.78885
2022-12-14 17:20:46.529902, 1.78885
2022-12-14 17:20:46.562496, 1.78885
2022-12-14 17:20:46.562900, 1.78396
2022-12-14 17:20:46.596136, 1.76930
2022-12-14 17:20:46.596425, 1.76441
2022-12-14 17:20:46.597043, 1.76930
2022-12-14 17:20:46.629444, 1.77419
2022-12-14 17:20:46.629750, 1.77419
2022-12-14 17:20:46.629750, 1.77908
2022-12-14 17:20:46.662931, 1.78396
2022-12-14 17:20:46.663931, 1.76441
2022-12-14 17:20:46.695683, 1.74975
2022-12-14 17:20:46.696333, 1.74975
2022-12-14 17:20:46.696333, 1.75464
2022-12-14 17:20:46.729013, 1.76441
2022-12-14 17:20:46.730011, 1.74975
2022-12-14 17:20:46.730011, 1.74975
2022-12-14 17:20:46.763736, 1.75953
2022-12-14 17:20:46.763736, 1.78885
2022-12-14 17:20:46.797179, 1.75464
2022-12-14 17:20:46.797429, 1.75464
2022-12-14 17:20:46.798046, 1.75464
2022-12-14 17:20:46.829535, 1.76930
2022-12-14 17:20:46.830532, 1.74486
2022-12-14 17:20:46.830532, 1.74486
2022-12-14 17:20:46.864244, 1.73998
2022-12-14 17:20:46.864665, 1.74975
2022-12-14 17:20:46.897813, 1.74975
2022-12-14 17:20:46.898091, 1.72043
2022-12-14 17:20:46.899094, 1.72531
2022-12-14 17:20:46.931467, 1.72043
2022-12-14 17:20:46.931467, 1.73998
2022-12-14 17:20:46.932471, 1.70576
2022-12-14 17:20:46.964214, 1.71065
2022-12-14 17:20:46.965224, 1.71554
2022-12-14 17:20:46.997467, 1.70087
2022-12-14 17:20:46.998465, 1.69599
2022-12-14 17:20:46.998465, 1.69110
2022-12-14 17:20:47.031276, 1.69599
2022-12-14 17:20:47.031276, 1.68621
2022-12-14 17:20:47.032273, 1.68132
2022-12-14 17:20:47.065037, 1.67644
2022-12-14 17:20:47.065383, 1.68621
2022-12-14 17:20:47.099179, 1.68621
2022-12-14 17:20:47.099429, 1.67155
2022-12-14 17:20:47.099429, 1.67644
2022-12-14 17:20:47.132583, 1.67644
2022-12-14 17:20:47.132889, 1.67644
2022-12-14 17:20:47.132889, 1.66177
2022-12-14 17:20:47.166225, 1.66666
2022-12-14 17:20:47.166588, 1.67155
2022-12-14 17:20:47.199688, 1.66666
2022-12-14 17:20:47.199978, 1.65200
2022-12-14 17:20:47.199978, 1.65200
2022-12-14 17:20:47.233176, 1.67155
2022-12-14 17:20:47.233176, 1.65200
2022-12-14 17:20:47.234178, 1.65200
2022-12-14 17:20:47.266009, 1.66177
2022-12-14 17:20:47.267017, 1.69110
2022-12-14 17:20:47.299833, 1.71554
2022-12-14 17:20:47.300068, 1.73509
2022-12-14 17:20:47.300600, 1.75953
2022-12-14 17:20:47.333793, 1.78396
2022-12-14 17:20:47.334100, 1.80351
2022-12-14 17:20:47.334750, 1.79863
2022-12-14 17:20:47.367224, 1.80351
2022-12-14 17:20:47.367585, 1.80351
2022-12-14 17:20:47.400780, 1.80351
2022-12-14 17:20:47.401030, 1.78396
2022-12-14 17:20:47.401030, 1.78396
2022-12-14 17:20:47.434415, 1.77908
2022-12-14 17:20:47.434722, 1.78396
2022-12-14 17:20:47.435371, 1.76930
2022-12-14 17:20:47.467906, 1.76930
2022-12-14 17:20:47.467906, 1.77419
2022-12-14 17:20:47.501551, 1.77908
2022-12-14 17:20:47.501801, 1.76930
2022-12-14 17:20:47.502802, 1.76441
2022-12-14 17:20:47.535113, 1.76930
2022-12-14 17:20:47.535417, 1.76930
2022-12-14 17:20:47.535417, 1.75464
2022-12-14 17:20:47.568998, 1.75953
2022-12-14 17:20:47.570005, 1.78396
2022-12-14 17:20:47.600948, 1.76930
2022-12-14 17:20:47.600948, 1.75953
2022-12-14 17:20:47.601957, 1.76930
2022-12-14 17:20:47.634460, 1.76441
2022-12-14 17:20:47.635457, 1.77419
2022-12-14 17:20:47.635457, 1.76441
2022-12-14 17:20:47.668986, 1.76441
2022-12-14 17:20:47.669839, 1.75464
2022-12-14 17:20:47.702368, 1.75953
2022-12-14 17:20:47.703371, 1.74486
2022-12-14 17:20:47.703371, 1.73509
2022-12-14 17:20:47.735967, 1.75464
2022-12-14 17:20:47.736751, 1.73509
2022-12-14 17:20:47.736751, 1.72531
2022-12-14 17:20:47.769390, 1.71554
2022-12-14 17:20:47.770392, 1.71065
2022-12-14 17:20:47.802753, 1.70576
2022-12-14 17:20:47.803756, 1.70576
2022-12-14 17:20:47.803756, 1.68621
2022-12-14 17:20:47.836024, 1.69110
2022-12-14 17:20:47.836483, 1.69110
2022-12-14 17:20:47.836483, 1.68132
2022-12-14 17:20:47.869545, 1.68621
2022-12-14 17:20:47.870547, 1.67155
2022-12-14 17:20:47.903349, 1.67644
2022-12-14 17:20:47.903349, 1.67155
2022-12-14 17:20:47.904352, 1.66177
2022-12-14 17:20:47.936913, 1.65689
2022-12-14 17:20:47.936913, 1.68132
2022-12-14 17:20:47.937941, 1.67155
2022-12-14 17:20:47.969570, 1.65689
2022-12-14 17:20:47.970565, 1.64711
2022-12-14 17:20:48.004040, 1.64711
2022-12-14 17:20:48.004040, 1.64711
2022-12-14 17:20:48.005042, 1.63734
2022-12-14 17:20:48.037480, 1.63245
2022-12-14 17:20:48.037480, 1.63734
2022-12-14 17:20:48.038430, 1.63734
2022-12-14 17:20:48.070883, 1.62267
2022-12-14 17:20:48.071464, 1.63245
2022-12-14 17:20:48.104320, 1.64222
2022-12-14 17:20:48.104641, 1.65689
2022-12-14 17:20:48.104641, 1.68621
2022-12-14 17:20:48.138425, 1.68621
2022-12-14 17:20:48.138729, 1.71065
2022-12-14 17:20:48.139334, 1.74486
2022-12-14 17:20:48.171808, 1.75953
2022-12-14 17:20:48.171808, 1.76441
2022-12-14 17:20:48.204946, 1.77908
2022-12-14 17:20:48.204946, 1.78885
2022-12-14 17:20:48.205919, 1.77419
2022-12-14 17:20:48.238873, 1.76441
2022-12-14 17:20:48.238873, 1.75953
2022-12-14 17:20:48.239838, 1.76441
2022-12-14 17:20:48.272473, 1.74975
2022-12-14 17:20:48.272835, 1.74975
2022-12-14 17:20:48.305983, 1.75953
2022-12-14 17:20:48.305983, 1.78396
2022-12-14 17:20:48.306985, 1.76441
2022-12-14 17:20:48.339422, 1.75953
2022-12-14 17:20:48.339422, 1.74486
2022-12-14 17:20:48.340444, 1.74975
2022-12-14 17:20:48.373042, 1.73509
2022-12-14 17:20:48.373042, 1.72531
2022-12-14 17:20:48.406615, 1.72043
2022-12-14 17:20:48.406865, 1.73509
2022-12-14 17:20:48.406865, 1.70576
2022-12-14 17:20:48.440089, 1.69599
2022-12-14 17:20:48.440089, 1.69599
2022-12-14 17:20:48.441095, 1.71065
2022-12-14 17:20:48.473559, 1.69599
2022-12-14 17:20:48.474312, 1.68621
2022-12-14 17:20:48.506329, 1.69599
2022-12-14 17:20:48.507335, 1.69110
2022-12-14 17:20:48.507335, 1.68132
