2022-12-02 11:30:33.071652, 1.38807
2022-12-02 11:30:33.080489, 1.38319
2022-12-02 11:30:33.088270, 1.38807
2022-12-02 11:30:33.100859, 1.37830
2022-12-02 11:30:33.109029, 1.37830
2022-12-02 11:30:33.117212, 1.37341
2022-12-02 11:30:33.125110, 1.37341
2022-12-02 11:30:33.136616, 1.36852
2022-12-02 11:30:33.145586, 1.36852
2022-12-02 11:30:33.153081, 1.36364
2022-12-02 11:30:33.166250, 1.35875
2022-12-02 11:30:33.175236, 1.35875
2022-12-02 11:30:33.182801, 1.35386
2022-12-02 11:30:33.191639, 1.35386
2022-12-02 11:30:33.203399, 1.35386
2022-12-02 11:30:33.211322, 1.35386
2022-12-02 11:30:33.219711, 1.37830
2022-12-02 11:30:33.227015, 1.35386
2022-12-02 11:30:33.240187, 1.34409
2022-12-02 11:30:33.248488, 1.34897
2022-12-02 11:30:33.256107, 1.33920
2022-12-02 11:30:33.268658, 1.33920
2022-12-02 11:30:33.276602, 1.33431
2022-12-02 11:30:33.284981, 1.36364
2022-12-02 11:30:33.293540, 1.33431
2022-12-02 11:30:33.306227, 1.34897
2022-12-02 11:30:33.313713, 1.37341
2022-12-02 11:30:33.322294, 1.42229
2022-12-02 11:30:33.333975, 1.50538
2022-12-02 11:30:33.342305, 1.61779
2022-12-02 11:30:33.349734, 1.73998
2022-12-02 11:30:33.359164, 1.87195
2022-12-02 11:30:33.371323, 2.00880
2022-12-02 11:30:33.378510, 2.15543
2022-12-02 11:30:33.387704, 2.23363
2022-12-02 11:30:33.399755, 2.30694
2022-12-02 11:30:33.408242, 2.37048
2022-12-02 11:30:33.415903, 2.37048
2022-12-02 11:30:33.424966, 2.36070
2022-12-02 11:30:33.435839, 2.34115
2022-12-02 11:30:33.444337, 2.30205
2022-12-02 11:30:33.453040, 2.25806
2022-12-02 11:30:33.465935, 2.20919
2022-12-02 11:30:33.474163, 2.16520
2022-12-02 11:30:33.482323, 2.12121
2022-12-02 11:30:33.490554, 2.09677
2022-12-02 11:30:33.502066, 2.04301
2022-12-02 11:30:33.510104, 2.04301
2022-12-02 11:30:33.517712, 1.97947
2022-12-02 11:30:33.531322, 1.96970
2022-12-02 11:30:33.539411, 1.94037
2022-12-02 11:30:33.547388, 1.92082
2022-12-02 11:30:33.555717, 1.90127
2022-12-02 11:30:33.567572, 1.88172
2022-12-02 11:30:33.576065, 1.85728
2022-12-02 11:30:33.583873, 1.82796
2022-12-02 11:30:33.596352, 1.79863
2022-12-02 11:30:33.604762, 1.76931
2022-12-02 11:30:33.612645, 1.74976
2022-12-02 11:30:33.621581, 1.73021
2022-12-02 11:30:33.633293, 1.71554
2022-12-02 11:30:33.641127, 1.71554
2022-12-02 11:30:33.649716, 1.70577
2022-12-02 11:30:33.661027, 1.70088
2022-12-02 11:30:33.670139, 1.72043
2022-12-02 11:30:33.677486, 1.71065
2022-12-02 11:30:33.685946, 1.71065
2022-12-02 11:30:33.699072, 1.71554
2022-12-02 11:30:33.707429, 1.71554
2022-12-02 11:30:33.715627, 1.71554
2022-12-02 11:30:33.726677, 1.70577
2022-12-02 11:30:33.735830, 1.72532
2022-12-02 11:30:33.743342, 1.69110
2022-12-02 11:30:33.752169, 1.68133
2022-12-02 11:30:33.763753, 1.66667
2022-12-02 11:30:33.772475, 1.68622
2022-12-02 11:30:33.780500, 1.64223
2022-12-02 11:30:33.792816, 1.61779
2022-12-02 11:30:33.800473, 1.59824
2022-12-02 11:30:33.809364, 1.58358
2022-12-02 11:30:33.817630, 1.56891
2022-12-02 11:30:33.829634, 1.54448
2022-12-02 11:30:33.838160, 1.52493
2022-12-02 11:30:33.846389, 1.51026
2022-12-02 11:30:33.858613, 1.49071
2022-12-02 11:30:33.865926, 1.48583
2022-12-02 11:30:33.875083, 1.46628
2022-12-02 11:30:33.883278, 1.45161
2022-12-02 11:30:33.895145, 1.43695
2022-12-02 11:30:33.903657, 1.43206
2022-12-02 11:30:33.911649, 1.41740
2022-12-02 11:30:33.924168, 1.40762
2022-12-02 11:30:33.932010, 1.39785
2022-12-02 11:30:33.940416, 1.39296
2022-12-02 11:30:33.948712, 1.38807
2022-12-02 11:30:33.960840, 1.37830
2022-12-02 11:30:33.969115, 1.37830
2022-12-02 11:30:33.976926, 1.37830
2022-12-02 11:30:33.989808, 1.36852
2022-12-02 11:30:33.997642, 1.35875
2022-12-02 11:30:34.005408, 1.35875
2022-12-02 11:30:34.014177, 1.37341
2022-12-02 11:30:34.026339, 1.34897
2022-12-02 11:30:34.034184, 1.34409
2022-12-02 11:30:34.042506, 1.33920
2022-12-02 11:30:34.050437, 1.33920
2022-12-02 11:30:34.063027, 1.33920
2022-12-02 11:30:34.071004, 1.35875
2022-12-02 11:30:34.079707, 1.33920
2022-12-02 11:30:34.092196, 1.33920
2022-12-02 11:30:34.099692, 1.33920
2022-12-02 11:30:34.108250, 1.33920
2022-12-02 11:30:34.117211, 1.34409
2022-12-02 11:30:34.128853, 1.34409
2022-12-02 11:30:34.136947, 1.33920
2022-12-02 11:30:34.145111, 1.33920
2022-12-02 11:30:34.157638, 1.33431
2022-12-02 11:30:34.165353, 1.33431
2022-12-02 11:30:34.173828, 1.34409
2022-12-02 11:30:34.182253, 1.33431
2022-12-02 11:30:34.194335, 1.32454
2022-12-02 11:30:34.201954, 1.32454
2022-12-02 11:30:34.210521, 1.36364
2022-12-02 11:30:34.222439, 1.34409
2022-12-02 11:30:34.230844, 1.37830
2022-12-02 11:30:34.238573, 1.44184
2022-12-02 11:30:34.247372, 1.53470
2022-12-02 11:30:34.259351, 1.64223
2022-12-02 11:30:34.267678, 1.78397
2022-12-02 11:30:34.276267, 1.90127
2022-12-02 11:30:34.288093, 2.03812
2022-12-02 11:30:34.296342, 2.15054
2022-12-02 11:30:34.304901, 2.24829
2022-12-02 11:30:34.312636, 2.31672
2022-12-02 11:30:34.324964, 2.35582
2022-12-02 11:30:34.333657, 2.36559
2022-12-02 11:30:34.341048, 2.35582
2022-12-02 11:30:34.354895, 2.32649
2022-12-02 11:30:34.362815, 2.28739
2022-12-02 11:30:34.370797, 2.24829
2022-12-02 11:30:34.378838, 2.19941
2022-12-02 11:30:34.391674, 2.16031
2022-12-02 11:30:34.399394, 2.12610
2022-12-02 11:30:34.407653, 2.05767
2022-12-02 11:30:34.419840, 2.02346
2022-12-02 11:30:34.427523, 1.99413
2022-12-02 11:30:34.436264, 1.95992
2022-12-02 11:30:34.443968, 1.94037
2022-12-02 11:30:34.457284, 1.91593
2022-12-02 11:30:34.465381, 1.90616
2022-12-02 11:30:34.472810, 1.88172
2022-12-02 11:30:34.485106, 1.89638
2022-12-02 11:30:34.492915, 1.83773
2022-12-02 11:30:34.501620, 1.81329
2022-12-02 11:30:34.509706, 1.78397
2022-12-02 11:30:34.522743, 1.75953
2022-12-02 11:30:34.530200, 1.73509
2022-12-02 11:30:34.539244, 1.71554
2022-12-02 11:30:34.549939, 1.70088
2022-12-02 11:30:34.559592, 1.69599
2022-12-02 11:30:34.566192, 1.69599
2022-12-02 11:30:34.575575, 1.70088
2022-12-02 11:30:34.587716, 1.70088
2022-12-02 11:30:34.595740, 1.70577
2022-12-02 11:30:34.604246, 1.71554
2022-12-02 11:30:34.615896, 1.71554
2022-12-02 11:30:34.625130, 1.72043
2022-12-02 11:30:34.632829, 1.71554
2022-12-02 11:30:34.641025, 1.74976
2022-12-02 11:30:34.653213, 1.71065
2022-12-02 11:30:34.660644, 1.71065
2022-12-02 11:30:34.669573, 1.69110
2022-12-02 11:30:34.682030, 1.68133
2022-12-02 11:30:34.690800, 1.66667
2022-12-02 11:30:34.698678, 1.66667
2022-12-02 11:30:34.707020, 1.62757
2022-12-02 11:30:34.718002, 1.60802
2022-12-02 11:30:34.726281, 1.58847
2022-12-02 11:30:34.734501, 1.56403
2022-12-02 11:30:34.747485, 1.53959
2022-12-02 11:30:34.755682, 1.52493
2022-12-02 11:30:34.763919, 1.50538
2022-12-02 11:30:34.772072, 1.51026
2022-12-02 11:30:34.783992, 1.48094
2022-12-02 11:30:34.792543, 1.45650
2022-12-02 11:30:34.799911, 1.44673
2022-12-02 11:30:34.812294, 1.43695
2022-12-02 11:30:34.821032, 1.42717
2022-12-02 11:30:34.829171, 1.41740
2022-12-02 11:30:34.837102, 1.41251
2022-12-02 11:30:34.848798, 1.40762
2022-12-02 11:30:34.857950, 1.39785
2022-12-02 11:30:34.865946, 1.40274
2022-12-02 11:30:34.874254, 1.39296
2022-12-02 11:30:34.887035, 1.39785
2022-12-02 11:30:34.894850, 1.39785
2022-12-02 11:30:34.902650, 1.39296
2022-12-02 11:30:34.915147, 1.42717
2022-12-02 11:30:34.923489, 1.39296
2022-12-02 11:30:34.931727, 1.38807
2022-12-02 11:30:34.939228, 1.38807
2022-12-02 11:30:34.951676, 1.39296
2022-12-02 11:30:34.959513, 1.38807
2022-12-02 11:30:34.968444, 1.39296
2022-12-02 11:30:34.980379, 1.39296
2022-12-02 11:30:34.988499, 1.39296
2022-12-02 11:30:34.996933, 1.39296
2022-12-02 11:30:35.005072, 1.40274
2022-12-02 11:30:35.017035, 1.40274
2022-12-02 11:30:35.025860, 1.38807
2022-12-02 11:30:35.033929, 1.38807
2022-12-02 11:30:35.045712, 1.41740
2022-12-02 11:30:35.054266, 1.39296
2022-12-02 11:30:35.061800, 1.38319
2022-12-02 11:30:35.070627, 1.37830
2022-12-02 11:30:35.083116, 1.37341
2022-12-02 11:30:35.090899, 1.36364
2022-12-02 11:30:35.099201, 1.35875
2022-12-02 11:30:35.111733, 1.35386
2022-12-02 11:30:35.119936, 1.34897
2022-12-02 11:30:35.128111, 1.34897
2022-12-02 11:30:35.136284, 1.35875
2022-12-02 11:30:35.148622, 1.38319
2022-12-02 11:30:35.156858, 1.43206
2022-12-02 11:30:35.164966, 1.51026
2022-12-02 11:30:35.176659, 1.61779
2022-12-02 11:30:35.185544, 1.73509
2022-12-02 11:30:35.193507, 1.86706
2022-12-02 11:30:35.201928, 1.99902
2022-12-02 11:30:35.214260, 2.14565
2022-12-02 11:30:35.223008, 2.20919
2022-12-02 11:30:35.230465, 2.30205
2022-12-02 11:30:35.242522, 2.31183
2022-12-02 11:30:35.250918, 2.33138
2022-12-02 11:30:35.259252, 2.31672
2022-12-02 11:30:35.267350, 2.28739
2022-12-02 11:30:35.279918, 2.25318
2022-12-02 11:30:35.288126, 2.20430
2022-12-02 11:30:35.296384, 2.16520
2022-12-02 11:30:35.308438, 2.11144
2022-12-02 11:30:35.316724, 2.05279
2022-12-02 11:30:35.324959, 2.04790
2022-12-02 11:30:35.333359, 1.97947
2022-12-02 11:30:35.345208, 1.95503
2022-12-02 11:30:35.352926, 1.95015
2022-12-02 11:30:35.361654, 1.95015
2022-12-02 11:30:35.374438, 1.95992
2022-12-02 11:30:35.382309, 1.96481
2022-12-02 11:30:35.390598, 1.96970
2022-12-02 11:30:35.398606, 1.97458
2022-12-02 11:30:35.410608, 1.96481
2022-12-02 11:30:35.419015, 1.95015
2022-12-02 11:30:35.427145, 1.92571
2022-12-02 11:30:35.439773, 1.90127
2022-12-02 11:30:35.447959, 1.87683
2022-12-02 11:30:35.456471, 1.86217
2022-12-02 11:30:35.464062, 1.84262
2022-12-02 11:30:35.475725, 1.84262
2022-12-02 11:30:35.484568, 1.85239
2022-12-02 11:30:35.492195, 1.80352
2022-12-02 11:30:35.504960, 1.78886
2022-12-02 11:30:35.513990, 1.78397
2022-12-02 11:30:35.521599, 1.76931
2022-12-02 11:30:35.529577, 1.76442
2022-12-02 11:30:35.542420, 1.76442
2022-12-02 11:30:35.550107, 1.75953
2022-12-02 11:30:35.558532, 1.76442
2022-12-02 11:30:35.570557, 1.75464
2022-12-02 11:30:35.578972, 1.74487
2022-12-02 11:30:35.587346, 1.73509
2022-12-02 11:30:35.595448, 1.71065
2022-12-02 11:30:35.607686, 1.68622
2022-12-02 11:30:35.615015, 1.66178
2022-12-02 11:30:35.624085, 1.62757
2022-12-02 11:30:35.636271, 1.58847
2022-12-02 11:30:35.643601, 1.56403
2022-12-02 11:30:35.652607, 1.55914
2022-12-02 11:30:35.660162, 1.50538
2022-12-02 11:30:35.672935, 1.48094
2022-12-02 11:30:35.681114, 1.45650
2022-12-02 11:30:35.689238, 1.43695
2022-12-02 11:30:35.701120, 1.42717
2022-12-02 11:30:35.708971, 1.44673
2022-12-02 11:30:35.718060, 1.44184
2022-12-02 11:30:35.725719, 1.47605
2022-12-02 11:30:35.738926, 1.52981
2022-12-02 11:30:35.747336, 1.62757
2022-12-02 11:30:35.755340, 1.74976
2022-12-02 11:30:35.763046, 1.89150
2022-12-02 11:30:35.775587, 2.01369
2022-12-02 11:30:35.783857, 2.08700
2022-12-02 11:30:35.791999, 2.08211
2022-12-02 11:30:35.804263, 2.01369
2022-12-02 11:30:35.811319, 1.90127
2022-12-02 11:30:35.820497, 1.76442
2022-12-02 11:30:35.828572, 1.64223
2022-12-02 11:30:35.840689, 1.52981
2022-12-02 11:30:35.848917, 1.44184
2022-12-02 11:30:35.856991, 1.37341
2022-12-02 11:30:35.870380, 1.34409
2022-12-02 11:30:35.877857, 1.33431
2022-12-02 11:30:35.886226, 1.37830
2022-12-02 11:30:35.894099, 1.36364
2022-12-02 11:30:35.906785, 1.40274
2022-12-02 11:30:35.914552, 1.40274
2022-12-02 11:30:35.923445, 1.41251
2022-12-02 11:30:35.935602, 1.41251
2022-12-02 11:30:35.943262, 1.41251
2022-12-02 11:30:35.951791, 1.40274
2022-12-02 11:30:35.960134, 1.40762
2022-12-02 11:30:35.972275, 1.37830
2022-12-02 11:30:35.980186, 1.38319
2022-12-02 11:30:35.988401, 1.35386
2022-12-02 11:30:36.000681, 1.34409
2022-12-02 11:30:36.008932, 1.34897
2022-12-02 11:30:36.017084, 1.34897
2022-12-02 11:30:36.025751, 1.37341
2022-12-02 11:30:36.037402, 1.35875
2022-12-02 11:30:36.045770, 1.36364
2022-12-02 11:30:36.053202, 1.36364
2022-12-02 11:30:36.066128, 1.38807
2022-12-02 11:30:36.074224, 1.39296
2022-12-02 11:30:36.082600, 1.40274
2022-12-02 11:30:36.091139, 1.44184
2022-12-02 11:30:36.103701, 1.50538
2022-12-02 11:30:36.111209, 1.58358
2022-12-02 11:30:36.119678, 1.69110
2022-12-02 11:30:36.131685, 1.80841
2022-12-02 11:30:36.139515, 1.93060
2022-12-02 11:30:36.147751, 2.04790
2022-12-02 11:30:36.155902, 2.14565
2022-12-02 11:30:36.167797, 2.22385
2022-12-02 11:30:36.176396, 2.26784
2022-12-02 11:30:36.184965, 2.32649
2022-12-02 11:30:36.197198, 2.29228
2022-12-02 11:30:36.205623, 2.27761
2022-12-02 11:30:36.213649, 2.25318
2022-12-02 11:30:36.222017, 2.21408
2022-12-02 11:30:36.234248, 2.17498
2022-12-02 11:30:36.242162, 2.13099
2022-12-02 11:30:36.250703, 2.09189
2022-12-02 11:30:36.262780, 2.08211
2022-12-02 11:30:36.271303, 2.01857
2022-12-02 11:30:36.279463, 1.98436
2022-12-02 11:30:36.287666, 1.95992
2022-12-02 11:30:36.299605, 1.94037
2022-12-02 11:30:36.308089, 1.92571
2022-12-02 11:30:36.315615, 1.91105
2022-12-02 11:30:36.328677, 1.89638
2022-12-02 11:30:36.337342, 1.88172
2022-12-02 11:30:36.344736, 1.86706
2022-12-02 11:30:36.353650, 1.84262
2022-12-02 11:30:36.365098, 1.81818
2022-12-02 11:30:36.374040, 1.78886
2022-12-02 11:30:36.381255, 1.76931
2022-12-02 11:30:36.393151, 1.74487
2022-12-02 11:30:36.402530, 1.73021
2022-12-02 11:30:36.409577, 1.74487
2022-12-02 11:30:36.418535, 1.71065
2022-12-02 11:30:36.431292, 1.71554
2022-12-02 11:30:36.439616, 1.72043
2022-12-02 11:30:36.447608, 1.71065
2022-12-02 11:30:36.458915, 1.71554
2022-12-02 11:30:36.467705, 1.75464
2022-12-02 11:30:36.475490, 1.72043
2022-12-02 11:30:36.484064, 1.72532
2022-12-02 11:30:36.495965, 1.71554
2022-12-02 11:30:36.505310, 1.71554
2022-12-02 11:30:36.512584, 1.70577
2022-12-02 11:30:36.525551, 1.69599
2022-12-02 11:30:36.533021, 1.68622
2022-12-02 11:30:36.541500, 1.67644
2022-12-02 11:30:36.549561, 1.66178
2022-12-02 11:30:36.561804, 1.64223
2022-12-02 11:30:36.570297, 1.63245
2022-12-02 11:30:36.577598, 1.61290
2022-12-02 11:30:36.586248, 1.59824
2022-12-02 11:30:36.598341, 1.57869
2022-12-02 11:30:36.606887, 1.56403
2022-12-02 11:30:36.614767, 1.54936
2022-12-02 11:30:36.626531, 1.53470
2022-12-02 11:30:36.635421, 1.53470
2022-12-02 11:30:36.644016, 1.50538
2022-12-02 11:30:36.651976, 1.49560
2022-12-02 11:30:36.664940, 1.48094
2022-12-02 11:30:36.672269, 1.47116
2022-12-02 11:30:36.680286, 1.46628
2022-12-02 11:30:36.692435, 1.46139
2022-12-02 11:30:36.701321, 1.45650
2022-12-02 11:30:36.708597, 1.45161
2022-12-02 11:30:36.717531, 1.44184
2022-12-02 11:30:36.729978, 1.44184
2022-12-02 11:30:36.738239, 1.43695
2022-12-02 11:30:36.746376, 1.43206
2022-12-02 11:30:36.758542, 1.43206
2022-12-02 11:30:36.766430, 1.46139
2022-12-02 11:30:36.774450, 1.42229
2022-12-02 11:30:36.783388, 1.42717
2022-12-02 11:30:36.795410, 1.41740
2022-12-02 11:30:36.803697, 1.41251
2022-12-02 11:30:36.811720, 1.41251
2022-12-02 11:30:36.823501, 1.41251
2022-12-02 11:30:36.831478, 1.41740
2022-12-02 11:30:36.841051, 1.40762
2022-12-02 11:30:36.848266, 1.41251
2022-12-02 11:30:36.860038, 1.40274
2022-12-02 11:30:36.868198, 1.40762
2022-12-02 11:30:36.876652, 1.40274
2022-12-02 11:30:36.888636, 1.40274
2022-12-02 11:30:36.897586, 1.42717
2022-12-02 11:30:36.905443, 1.40274
2022-12-02 11:30:36.913987, 1.40762
2022-12-02 11:30:36.926249, 1.39785
2022-12-02 11:30:36.934435, 1.39785
2022-12-02 11:30:36.943207, 1.39785
2022-12-02 11:30:36.954516, 1.39785
2022-12-02 11:30:36.963314, 1.39296
2022-12-02 11:30:36.970819, 1.39296
2022-12-02 11:30:36.979334, 1.38807
2022-12-02 11:30:36.991427, 1.42229
2022-12-02 11:30:37.000030, 1.38807
2022-12-02 11:30:37.008699, 1.37341
2022-12-02 11:30:37.020243, 1.37830
2022-12-02 11:30:37.028357, 1.39785
2022-12-02 11:30:37.036962, 1.38807
2022-12-02 11:30:37.045968, 1.41251
2022-12-02 11:30:37.058067, 1.46139
2022-12-02 11:30:37.066042, 1.55425
2022-12-02 11:30:37.074259, 1.63734
2022-12-02 11:30:37.086687, 1.78886
2022-12-02 11:30:37.094130, 1.88172
2022-12-02 11:30:37.103365, 2.00391
2022-12-02 11:30:37.110275, 2.10655
2022-12-02 11:30:37.123441, 2.18964
2022-12-02 11:30:37.131354, 2.24829
2022-12-02 11:30:37.139618, 2.28250
2022-12-02 11:30:37.151813, 2.29717
2022-12-02 11:30:37.158898, 2.28250
2022-12-02 11:30:37.168838, 2.28739
2022-12-02 11:30:37.176401, 2.22874
2022-12-02 11:30:37.188730, 2.18964
2022-12-02 11:30:37.196384, 2.14565
2022-12-02 11:30:37.204494, 2.11144
2022-12-02 11:30:37.216702, 2.06745
2022-12-02 11:30:37.224958, 2.02835
2022-12-02 11:30:37.233101, 1.99902
2022-12-02 11:30:37.241025, 1.95992
2022-12-02 11:30:37.253981, 1.93060
2022-12-02 11:30:37.261756, 1.90616
2022-12-02 11:30:37.270560, 1.88661
2022-12-02 11:30:37.282679, 1.90127
2022-12-02 11:30:37.290691, 1.85728
2022-12-02 11:30:37.298368, 1.87195
2022-12-02 11:30:37.307047, 1.81818
2022-12-02 11:30:37.318692, 1.79374
2022-12-02 11:30:37.327729, 1.80352
2022-12-02 11:30:37.335607, 1.76442
2022-12-02 11:30:37.347320, 1.75464
2022-12-02 11:30:37.355908, 1.71554
2022-12-02 11:30:37.364185, 1.70088
2022-12-02 11:30:37.372774, 1.69110
2022-12-02 11:30:37.384891, 1.69110
2022-12-02 11:30:37.393027, 1.69599
2022-12-02 11:30:37.401127, 1.70088
2022-12-02 11:30:37.409392, 1.70577
2022-12-02 11:30:37.421423, 1.71065
2022-12-02 11:30:37.429809, 1.71554
2022-12-02 11:30:37.438293, 1.73021
2022-12-02 11:30:37.450254, 1.71554
2022-12-02 11:30:37.458407, 1.71554
2022-12-02 11:30:37.466957, 1.71554
2022-12-02 11:30:37.474725, 1.70088
2022-12-02 11:30:37.487556, 1.69110
2022-12-02 11:30:37.495442, 1.67644
2022-12-02 11:30:37.504107, 1.66667
2022-12-02 11:30:37.515541, 1.64712
2022-12-02 11:30:37.524815, 1.63734
2022-12-02 11:30:37.532876, 1.61779
2022-12-02 11:30:37.541312, 1.60313
2022-12-02 11:30:37.553818, 1.58358
2022-12-02 11:30:37.561222, 1.56891
2022-12-02 11:30:37.570106, 1.55425
2022-12-02 11:30:37.581437, 1.54448
2022-12-02 11:30:37.590694, 1.52493
2022-12-02 11:30:37.597582, 1.51026
2022-12-02 11:30:37.607156, 1.50049
2022-12-02 11:30:37.618257, 1.49071
2022-12-02 11:30:37.626113, 1.48094
2022-12-02 11:30:37.634963, 1.47605
2022-12-02 11:30:37.647516, 1.46628
2022-12-02 11:30:37.655692, 1.46628
2022-12-02 11:30:37.664395, 1.45650
2022-12-02 11:30:37.672160, 1.45161
2022-12-02 11:30:37.684174, 1.44673
2022-12-02 11:30:37.692644, 1.44673
2022-12-02 11:30:37.700265, 1.44184
2022-12-02 11:30:37.712158, 1.45161
2022-12-02 11:30:37.721792, 1.43695
2022-12-02 11:30:37.729158, 1.43695
2022-12-02 11:30:37.738092, 1.43695
2022-12-02 11:30:37.749949, 1.43695
2022-12-02 11:30:37.758058, 1.43695
2022-12-02 11:30:37.765874, 1.43695
2022-12-02 11:30:37.779045, 1.43206
2022-12-02 11:30:37.787371, 1.43206
2022-12-02 11:30:37.794688, 1.43206
2022-12-02 11:30:37.803301, 1.42717
2022-12-02 11:30:37.814664, 1.42717
2022-12-02 11:30:37.823656, 1.43206
2022-12-02 11:30:37.831841, 1.43206
2022-12-02 11:30:37.843819, 1.42717
2022-12-02 11:30:37.852195, 1.43206
2022-12-02 11:30:37.860323, 1.43206
2022-12-02 11:30:37.868963, 1.43206
2022-12-02 11:30:37.880074, 1.43206
2022-12-02 11:30:37.889757, 1.43206
2022-12-02 11:30:37.896390, 1.42717
2022-12-02 11:30:37.909047, 1.42717
2022-12-02 11:30:37.916813, 1.41740
2022-12-02 11:30:37.925756, 1.43695
2022-12-02 11:30:37.934063, 1.41251
2022-12-02 11:30:37.945814, 1.40762
2022-12-02 11:30:37.953778, 1.41251
2022-12-02 11:30:37.963353, 1.42717
2022-12-02 11:30:37.974952, 1.46139
2022-12-02 11:30:37.983133, 1.52004
2022-12-02 11:30:37.991434, 1.60313
2022-12-02 11:30:37.999259, 1.71554
2022-12-02 11:30:38.011931, 1.81818
2022-12-02 11:30:38.019205, 1.94037
2022-12-02 11:30:38.028159, 2.05279
2022-12-02 11:30:38.040806, 2.14076
2022-12-02 11:30:38.048530, 2.20919
2022-12-02 11:30:38.057672, 2.25806
2022-12-02 11:30:38.065164, 2.27761
2022-12-02 11:30:38.077290, 2.28739
2022-12-02 11:30:38.085929, 2.26784
2022-12-02 11:30:38.093739, 2.23851
2022-12-02 11:30:38.105333, 2.20919
2022-12-02 11:30:38.113508, 2.19941
2022-12-02 11:30:38.122613, 2.12121
2022-12-02 11:30:38.130553, 2.07722
2022-12-02 11:30:38.142880, 2.03812
2022-12-02 11:30:38.151613, 1.99902
2022-12-02 11:30:38.159314, 1.95503
2022-12-02 11:30:38.171779, 1.93060
2022-12-02 11:30:38.179950, 1.90127
2022-12-02 11:30:38.188080, 1.87683
2022-12-02 11:30:38.196053, 1.85728
2022-12-02 11:30:38.207532, 1.83773
2022-12-02 11:30:38.216357, 1.81818
2022-12-02 11:30:38.224121, 1.79863
2022-12-02 11:30:38.237529, 1.77419
2022-12-02 11:30:38.245436, 1.74976
2022-12-02 11:30:38.253578, 1.72532
2022-12-02 11:30:38.261638, 1.70088
2022-12-02 11:30:38.274653, 1.68622
2022-12-02 11:30:38.282074, 1.67155
2022-12-02 11:30:38.290937, 1.69599
2022-12-02 11:30:38.298109, 1.68622
2022-12-02 11:30:38.310684, 1.66667
2022-12-02 11:30:38.319241, 1.67644
2022-12-02 11:30:38.327355, 1.67644
2022-12-02 11:30:38.339801, 1.68622
2022-12-02 11:30:38.347655, 1.69599
2022-12-02 11:30:38.356093, 1.69110
2022-12-02 11:30:38.363824, 1.69110
2022-12-02 11:30:38.376422, 1.69110
2022-12-02 11:30:38.385373, 1.69110
2022-12-02 11:30:38.392482, 1.68133
2022-12-02 11:30:38.405743, 1.67644
2022-12-02 11:30:38.413328, 1.66667
2022-12-02 11:30:38.422153, 1.64712
2022-12-02 11:30:38.430490, 1.63245
2022-12-02 11:30:38.441453, 1.61779
2022-12-02 11:30:38.450114, 1.59824
2022-12-02 11:30:38.458104, 1.57869
2022-12-02 11:30:38.470824, 1.56403
2022-12-02 11:30:38.479641, 1.54936
2022-12-02 11:30:38.487461, 1.52981
2022-12-02 11:30:38.494798, 1.51515
2022-12-02 11:30:38.507632, 1.51515
2022-12-02 11:30:38.515446, 1.48583
2022-12-02 11:30:38.524001, 1.47116
2022-12-02 11:30:38.535317, 1.46139
2022-12-02 11:30:38.544009, 1.45161
2022-12-02 11:30:38.552431, 1.44673
2022-12-02 11:30:38.560448, 1.47116
2022-12-02 11:30:38.573300, 1.43695
2022-12-02 11:30:38.581373, 1.43206
2022-12-02 11:30:38.589736, 1.42717
2022-12-02 11:30:38.602351, 1.42717
2022-12-02 11:30:38.609062, 1.42229
2022-12-02 11:30:38.618320, 1.41740
2022-12-02 11:30:38.625701, 1.41740
2022-12-02 11:30:38.639221, 1.45161
2022-12-02 11:30:38.647288, 1.41740
2022-12-02 11:30:38.655453, 1.41251
2022-12-02 11:30:38.666913, 1.41251
2022-12-02 11:30:38.674684, 1.44184
2022-12-02 11:30:38.682871, 1.41251
2022-12-02 11:30:38.691347, 1.41251
2022-12-02 11:30:38.704334, 1.40762
2022-12-02 11:30:38.712174, 1.40762
2022-12-02 11:30:38.720613, 1.40762
2022-12-02 11:30:38.732703, 1.40274
2022-12-02 11:30:38.741058, 1.40762
2022-12-02 11:30:38.749058, 1.42717
2022-12-02 11:30:38.757415, 1.41251
2022-12-02 11:30:38.769934, 1.39785
2022-12-02 11:30:38.777816, 1.43206
2022-12-02 11:30:38.786172, 1.39785
2022-12-02 11:30:38.798252, 1.39296
2022-12-02 11:30:38.806422, 1.39296
2022-12-02 11:30:38.814379, 1.38807
2022-12-02 11:30:38.822971, 1.38807
2022-12-02 11:30:38.835489, 1.38319
2022-12-02 11:30:38.843343, 1.37341
2022-12-02 11:30:38.851486, 1.37341
2022-12-02 11:30:38.863820, 1.37341
2022-12-02 11:30:38.872232, 1.39296
2022-12-02 11:30:38.879961, 1.40274
2022-12-02 11:30:38.889220, 1.43695
2022-12-02 11:30:38.900943, 1.49071
2022-12-02 11:30:38.908776, 1.57869
2022-12-02 11:30:38.917022, 1.68133
2022-12-02 11:30:38.928910, 1.83284
2022-12-02 11:30:38.936955, 1.93548
2022-12-02 11:30:38.945585, 2.04301
2022-12-02 11:30:38.953369, 2.14076
2022-12-02 11:30:38.966039, 2.21896
2022-12-02 11:30:38.973975, 2.25806
2022-12-02 11:30:38.982242, 2.28250
2022-12-02 11:30:38.994346, 2.27761
2022-12-02 11:30:39.002779, 2.26784
2022-12-02 11:30:39.010420, 2.26295
2022-12-02 11:30:39.018766, 2.20430
2022-12-02 11:30:39.030968, 2.15543
2022-12-02 11:30:39.039270, 2.11632
2022-12-02 11:30:39.047898, 2.08211
2022-12-02 11:30:39.060313, 2.06745
2022-12-02 11:30:39.068191, 1.99413
2022-12-02 11:30:39.076771, 1.95992
2022-12-02 11:30:39.084903, 1.92571
2022-12-02 11:30:39.096754, 1.90127
2022-12-02 11:30:39.105964, 1.87683
2022-12-02 11:30:39.113754, 1.86217
2022-12-02 11:30:39.122038, 1.84262
2022-12-02 11:30:39.134096, 1.82796
2022-12-02 11:30:39.141811, 1.80841
2022-12-02 11:30:39.150864, 1.81818
2022-12-02 11:30:39.163463, 1.75953
2022-12-02 11:30:39.171360, 1.74487
2022-12-02 11:30:39.179366, 1.72043
2022-12-02 11:30:39.186888, 1.69599
2022-12-02 11:30:39.199856, 1.68133
2022-12-02 11:30:39.207908, 1.67155
2022-12-02 11:30:39.216843, 1.66178
2022-12-02 11:30:39.228482, 1.66667
2022-12-02 11:30:39.236486, 1.66178
2022-12-02 11:30:39.245231, 1.66667
2022-12-02 11:30:39.252772, 1.67155
2022-12-02 11:30:39.265009, 1.67644
2022-12-02 11:30:39.274090, 1.67644
2022-12-02 11:30:39.281229, 1.68133
2022-12-02 11:30:39.293824, 1.67644
2022-12-02 11:30:39.302800, 1.67644
2022-12-02 11:30:39.310209, 1.66667
2022-12-02 11:30:39.318433, 1.66178
2022-12-02 11:30:39.330632, 1.67644
2022-12-02 11:30:39.338840, 1.67644
2022-12-02 11:30:39.347070, 1.62757
2022-12-02 11:30:39.358605, 1.61779
2022-12-02 11:30:39.367442, 1.59824
2022-12-02 11:30:39.375630, 1.61779
2022-12-02 11:30:39.383387, 1.56403
2022-12-02 11:30:39.395406, 1.55425
2022-12-02 11:30:39.404684, 1.53470
2022-12-02 11:30:39.412830, 1.52004
2022-12-02 11:30:39.424715, 1.50538
2022-12-02 11:30:39.433733, 1.52981
2022-12-02 11:30:39.441440, 1.47605
2022-12-02 11:30:39.450153, 1.47116
2022-12-02 11:30:39.461825, 1.45650
2022-12-02 11:30:39.470230, 1.48094
2022-12-02 11:30:39.478299, 1.44184
2022-12-02 11:30:39.490297, 1.45161
2022-12-02 11:30:39.498025, 1.43695
2022-12-02 11:30:39.506998, 1.45650
2022-12-02 11:30:39.514316, 1.42229
2022-12-02 11:30:39.526467, 1.41740
2022-12-02 11:30:39.534875, 1.41251
2022-12-02 11:30:39.542956, 1.41740
2022-12-02 11:30:39.555570, 1.40762
2022-12-02 11:30:39.564219, 1.40762
2022-12-02 11:30:39.571882, 1.40762
2022-12-02 11:30:39.580678, 1.40274
2022-12-02 11:30:39.591962, 1.40762
2022-12-02 11:30:39.601811, 1.39785
2022-12-02 11:30:39.609067, 1.40274
2022-12-02 11:30:39.621222, 1.40274
2022-12-02 11:30:39.630380, 1.39785
2022-12-02 11:30:39.638667, 1.39785
2022-12-02 11:30:39.646418, 1.43206
2022-12-02 11:30:39.657566, 1.39785
2022-12-02 11:30:39.666471, 1.39785
2022-12-02 11:30:39.674278, 1.39785
2022-12-02 11:30:39.686812, 1.39296
2022-12-02 11:30:39.695622, 1.39785
2022-12-02 11:30:39.703095, 1.39296
2022-12-02 11:30:39.711879, 1.39785
2022-12-02 11:30:39.724139, 1.39296
2022-12-02 11:30:39.732307, 1.39785
2022-12-02 11:30:39.740449, 1.39296
2022-12-02 11:30:39.753428, 1.39296
2022-12-02 11:30:39.761550, 1.38807
2022-12-02 11:30:39.769826, 1.38807
2022-12-02 11:30:39.777167, 1.38319
2022-12-02 11:30:39.789087, 1.38319
2022-12-02 11:30:39.797699, 1.37830
2022-12-02 11:30:39.805940, 1.37341
2022-12-02 11:30:39.818510, 1.37341
2022-12-02 11:30:39.826057, 1.37341
2022-12-02 11:30:39.834817, 1.38807
2022-12-02 11:30:39.842770, 1.40762
2022-12-02 11:30:39.854233, 1.45161
2022-12-02 11:30:39.863093, 1.52981
2022-12-02 11:30:39.870887, 1.63245
2022-12-02 11:30:39.883927, 1.74487
2022-12-02 11:30:39.891862, 1.87195
2022-12-02 11:30:39.900054, 1.99413
2022-12-02 11:30:39.908422, 2.10655
2022-12-02 11:30:39.920327, 2.19453
2022-12-02 11:30:39.929554, 2.25806
2022-12-02 11:30:39.936495, 2.29717
2022-12-02 11:30:39.944922, 2.30694
2022-12-02 11:30:39.957310, 2.30205
2022-12-02 11:30:39.965860, 2.28250
2022-12-02 11:30:39.973997, 2.24829
2022-12-02 11:30:39.986123, 2.20430
2022-12-02 11:30:39.994574, 2.16031
2022-12-02 11:30:40.002725, 2.15054
2022-12-02 11:30:40.010649, 2.07722
2022-12-02 11:30:40.023134, 2.03324
2022-12-02 11:30:40.031239, 1.99413
2022-12-02 11:30:40.039608, 1.95992
2022-12-02 11:30:40.051423, 1.96481
2022-12-02 11:30:40.059765, 1.90616
2022-12-02 11:30:40.067330, 1.87683
2022-12-02 11:30:40.075963, 1.85728
2022-12-02 11:30:40.088455, 1.84262
2022-12-02 11:30:40.096744, 1.82307
2022-12-02 11:30:40.104951, 1.79863
2022-12-02 11:30:40.116542, 1.77908
2022-12-02 11:30:40.124834, 1.75953
2022-12-02 11:30:40.133652, 1.74976
2022-12-02 11:30:40.141516, 1.71065
2022-12-02 11:30:40.154135, 1.70088
2022-12-02 11:30:40.162938, 1.68133
2022-12-02 11:30:40.171262, 1.67155
2022-12-02 11:30:40.182694, 1.66667
2022-12-02 11:30:40.190747, 1.68622
2022-12-02 11:30:40.199327, 1.70577
2022-12-02 11:30:40.207409, 1.68622
2022-12-02 11:30:40.219788, 1.68133
2022-12-02 11:30:40.227376, 1.68133
2022-12-02 11:30:40.236295, 1.68622
2022-12-02 11:30:40.247948, 1.69110
2022-12-02 11:30:40.256425, 1.68622
2022-12-02 11:30:40.264504, 1.68622
2022-12-02 11:30:40.272924, 1.68133
2022-12-02 11:30:40.284269, 1.67644
2022-12-02 11:30:40.293057, 1.66178
2022-12-02 11:30:40.302108, 1.65200
2022-12-02 11:30:40.313267, 1.63734
2022-12-02 11:30:40.322169, 1.62268
2022-12-02 11:30:40.330589, 1.60802
2022-12-02 11:30:40.339173, 1.58847
2022-12-02 11:30:40.351370, 1.57380
2022-12-02 11:30:40.358957, 1.55914
2022-12-02 11:30:40.367626, 1.54448
2022-12-02 11:30:40.379132, 1.52981
2022-12-02 11:30:40.387485, 1.51515
2022-12-02 11:30:40.395286, 1.50049
2022-12-02 11:30:40.404062, 1.48583
2022-12-02 11:30:40.416991, 1.48094
2022-12-02 11:30:40.424144, 1.46628
2022-12-02 11:30:40.432576, 1.46139
2022-12-02 11:30:40.445244, 1.45161
2022-12-02 11:30:40.453905, 1.44673
2022-12-02 11:30:40.461221, 1.47605
2022-12-02 11:30:40.469695, 1.43695
2022-12-02 11:30:40.481452, 1.43206
2022-12-02 11:30:40.489913, 1.43206
2022-12-02 11:30:40.498207, 1.42717
2022-12-02 11:30:40.509639, 1.46139
2022-12-02 11:30:40.518096, 1.42229
2022-12-02 11:30:40.526790, 1.44184
2022-12-02 11:30:40.534766, 1.41740
2022-12-02 11:30:40.546575, 1.41740
2022-12-02 11:30:40.555355, 1.41251
2022-12-02 11:30:40.562965, 1.41251
2022-12-02 11:30:40.575482, 1.40762
2022-12-02 11:30:40.584060, 1.41251
2022-12-02 11:30:40.592269, 1.40762
2022-12-02 11:30:40.600439, 1.43695
2022-12-02 11:30:40.611971, 1.40762
2022-12-02 11:30:40.620253, 1.41251
2022-12-02 11:30:40.629146, 1.41740
2022-12-02 11:30:40.641339, 1.40762
2022-12-02 11:30:40.650346, 1.40762
2022-12-02 11:30:40.657352, 1.40762
2022-12-02 11:30:40.666859, 1.40762
2022-12-02 11:30:40.679035, 1.41251
2022-12-02 11:30:40.686419, 1.40762
2022-12-02 11:30:40.694872, 1.40762
2022-12-02 11:30:40.707031, 1.44673
2022-12-02 11:30:40.715189, 1.41251
2022-12-02 11:30:40.723556, 1.42717
2022-12-02 11:30:40.731056, 1.43695
2022-12-02 11:30:40.744013, 1.40762
2022-12-02 11:30:40.752183, 1.41740
2022-12-02 11:30:40.760198, 1.42229
2022-12-02 11:30:40.772793, 1.40762
2022-12-02 11:30:40.780027, 1.40762
2022-12-02 11:30:40.789018, 1.39785
2022-12-02 11:30:40.797245, 1.39785
2022-12-02 11:30:40.809436, 1.41251
2022-12-02 11:30:40.817549, 1.42229
2022-12-02 11:30:40.825781, 1.48094
2022-12-02 11:30:40.834754, 1.53959
2022-12-02 11:30:40.846184, 1.61779
2022-12-02 11:30:40.853742, 1.75953
2022-12-02 11:30:40.862560, 1.86217
2022-12-02 11:30:40.874820, 1.97947
2022-12-02 11:30:40.883097, 2.08211
2022-12-02 11:30:40.891118, 2.17986
2022-12-02 11:30:40.899342, 2.23851
2022-12-02 11:30:40.911804, 2.28250
2022-12-02 11:30:40.919852, 2.30205
2022-12-02 11:30:40.928896, 2.31183
2022-12-02 11:30:40.940132, 2.28250
2022-12-02 11:30:40.949040, 2.24829
2022-12-02 11:30:40.956857, 2.21408
2022-12-02 11:30:40.965384, 2.17009
2022-12-02 11:30:40.977176, 2.12121
2022-12-02 11:30:40.986156, 2.07722
2022-12-02 11:30:40.993864, 2.02835
2022-12-02 11:30:41.005816, 1.98925
2022-12-02 11:30:41.013463, 1.95015
2022-12-02 11:30:41.021706, 1.91593
2022-12-02 11:30:41.030432, 1.88661
2022-12-02 11:30:41.042692, 1.86217
2022-12-02 11:30:41.050630, 1.84751
2022-12-02 11:30:41.058886, 1.82796
2022-12-02 11:30:41.071570, 1.80352
2022-12-02 11:30:41.079845, 1.78397
2022-12-02 11:30:41.088048, 1.76442
2022-12-02 11:30:41.096027, 1.73998
2022-12-02 11:30:41.107933, 1.71554
2022-12-02 11:30:41.116698, 1.70088
2022-12-02 11:30:41.124984, 1.68622
2022-12-02 11:30:41.136684, 1.68133
2022-12-02 11:30:41.145440, 1.67644
2022-12-02 11:30:41.154012, 1.71065
2022-12-02 11:30:41.161781, 1.68622
2022-12-02 11:30:41.173576, 1.69110
2022-12-02 11:30:41.181478, 1.70577
2022-12-02 11:30:41.190096, 1.70577
2022-12-02 11:30:41.202542, 1.71554
2022-12-02 11:30:41.210856, 1.71554
2022-12-02 11:30:41.219332, 1.72043
2022-12-02 11:30:41.227237, 1.72043
2022-12-02 11:30:41.239570, 1.71554
2022-12-02 11:30:41.247545, 1.71065
2022-12-02 11:30:41.256183, 1.72043
2022-12-02 11:30:41.267805, 1.69599
2022-12-02 11:30:41.276201, 1.68133
2022-12-02 11:30:41.284548, 1.66667
2022-12-02 11:30:41.292667, 1.65689
2022-12-02 11:30:41.305837, 1.63734
2022-12-02 11:30:41.313101, 1.62268
2022-12-02 11:30:41.322204, 1.60802
2022-12-02 11:30:41.333703, 1.58847
2022-12-02 11:30:41.341925, 1.56891
2022-12-02 11:30:41.350082, 1.54936
2022-12-02 11:30:41.357756, 1.53470
2022-12-02 11:30:41.371344, 1.53470
2022-12-02 11:30:41.377961, 1.51026
2022-12-02 11:30:41.387378, 1.49560
2022-12-02 11:30:41.399633, 1.48583
2022-12-02 11:30:41.407334, 1.47605
2022-12-02 11:30:41.415584, 1.47116
2022-12-02 11:30:41.423668, 1.46139
2022-12-02 11:30:41.436314, 1.45650
2022-12-02 11:30:41.444256, 1.45161
2022-12-02 11:30:41.452751, 1.44673
2022-12-02 11:30:41.464560, 1.44184
2022-12-02 11:30:41.473563, 1.44184
2022-12-02 11:30:41.480932, 1.44184
2022-12-02 11:30:41.490337, 1.44673
2022-12-02 11:30:41.501572, 1.43206
2022-12-02 11:30:41.509801, 1.43206
2022-12-02 11:30:41.518741, 1.46628
2022-12-02 11:30:41.530106, 1.42717
2022-12-02 11:30:41.539210, 1.43206
2022-12-02 11:30:41.545721, 1.42717
2022-12-02 11:30:41.555136, 1.42717
2022-12-02 11:30:41.567730, 1.43206
2022-12-02 11:30:41.575504, 1.41740
2022-12-02 11:30:41.583281, 1.41251
2022-12-02 11:30:41.595442, 1.41740
2022-12-02 11:30:41.604174, 1.41251
2022-12-02 11:30:41.612437, 1.42229
2022-12-02 11:30:41.619953, 1.41251
2022-12-02 11:30:41.633421, 1.40762
2022-12-02 11:30:41.641062, 1.41251
2022-12-02 11:30:41.649817, 1.41251
2022-12-02 11:30:41.656818, 1.41251
2022-12-02 11:30:41.670295, 1.40762
2022-12-02 11:30:41.677729, 1.42717
2022-12-02 11:30:41.685975, 1.43206
2022-12-02 11:30:41.697983, 1.39785
2022-12-02 11:30:41.706794, 1.39296
2022-12-02 11:30:41.714926, 1.42229
2022-12-02 11:30:41.723379, 1.39296
2022-12-02 11:30:41.735413, 1.40762
2022-12-02 11:30:41.743393, 1.43206
2022-12-02 11:30:41.751759, 1.49071
2022-12-02 11:30:41.763797, 1.56891
2022-12-02 11:30:41.772139, 1.66667
2022-12-02 11:30:41.780072, 1.78397
2022-12-02 11:30:41.788425, 1.90616
2022-12-02 11:30:41.801428, 2.02346
2022-12-02 11:30:41.808772, 2.12121
2022-12-02 11:30:41.817733, 2.19941
2022-12-02 11:30:41.828916, 2.25318
2022-12-02 11:30:41.838204, 2.28250
2022-12-02 11:30:41.846152, 2.28739
2022-12-02 11:30:41.854602, 2.31183
2022-12-02 11:30:41.865998, 2.24829
2022-12-02 11:30:41.874544, 2.20919
2022-12-02 11:30:41.882694, 2.17009
2022-12-02 11:30:41.894462, 2.13099
2022-12-02 11:30:41.902654, 2.08211
2022-12-02 11:30:41.910819, 2.03812
2022-12-02 11:30:41.919650, 1.99902
2022-12-02 11:30:41.931769, 1.98436
2022-12-02 11:30:41.939846, 1.92571
2022-12-02 11:30:41.948059, 1.89638
2022-12-02 11:30:41.960303, 1.87683
2022-12-02 11:30:41.969395, 1.84262
2022-12-02 11:30:41.976799, 1.82307
2022-12-02 11:30:41.984654, 1.83773
2022-12-02 11:30:41.997278, 1.78886
2022-12-02 11:30:42.005505, 1.79374
2022-12-02 11:30:42.013387, 1.74976
2022-12-02 11:30:42.025135, 1.72043
2022-12-02 11:30:42.033378, 1.69599
2022-12-02 11:30:42.041828, 1.67644
2022-12-02 11:30:42.050696, 1.68133
2022-12-02 11:30:42.062584, 1.65689
2022-12-02 11:30:42.071262, 1.65200
2022-12-02 11:30:42.079249, 1.65200
2022-12-02 11:30:42.091499, 1.65200
2022-12-02 11:30:42.099563, 1.65689
2022-12-02 11:30:42.107698, 1.66178
2022-12-02 11:30:42.116299, 1.67644
2022-12-02 11:30:42.128126, 1.67644
2022-12-02 11:30:42.137348, 1.70088
2022-12-02 11:30:42.144121, 1.71554
2022-12-02 11:30:42.156173, 1.67644
2022-12-02 11:30:42.165907, 1.69599
2022-12-02 11:30:42.173039, 1.67155
2022-12-02 11:30:42.181713, 1.67155
2022-12-02 11:30:42.194081, 1.65200
2022-12-02 11:30:42.202292, 1.64223
2022-12-02 11:30:42.209601, 1.64712
2022-12-02 11:30:42.222179, 1.61290
2022-12-02 11:30:42.230238, 1.59824
2022-12-02 11:30:42.238306, 1.58847
2022-12-02 11:30:42.247428, 1.56403
2022-12-02 11:30:42.259405, 1.55425
2022-12-02 11:30:42.268033, 1.53959
2022-12-02 11:30:42.275549, 1.51515
2022-12-02 11:30:42.288774, 1.50049
2022-12-02 11:30:42.296039, 1.48583
2022-12-02 11:30:42.305261, 1.47605
2022-12-02 11:30:42.312144, 1.46139
2022-12-02 11:30:42.324501, 1.45161
2022-12-02 11:30:42.332318, 1.44673
2022-12-02 11:30:42.341516, 1.43695
2022-12-02 11:30:42.354175, 1.43206
2022-12-02 11:30:42.361578, 1.45161
2022-12-02 11:30:42.370344, 1.42717
2022-12-02 11:30:42.378133, 1.41740
2022-12-02 11:30:42.390191, 1.41740
2022-12-02 11:30:42.398754, 1.41251
2022-12-02 11:30:42.407049, 1.40762
2022-12-02 11:30:42.419370, 1.40762
2022-12-02 11:30:42.427566, 1.40762
2022-12-02 11:30:42.435707, 1.40274
2022-12-02 11:30:42.443853, 1.40274
2022-12-02 11:30:42.456130, 1.39785
2022-12-02 11:30:42.464180, 1.43695
2022-12-02 11:30:42.473078, 1.40274
2022-12-02 11:30:42.480387, 1.39785
2022-12-02 11:30:42.492929, 1.40274
2022-12-02 11:30:42.500797, 1.39296
2022-12-02 11:30:42.509463, 1.41251
2022-12-02 11:30:42.521446, 1.38807
2022-12-02 11:30:42.529519, 1.38807
2022-12-02 11:30:42.538201, 1.38807
2022-12-02 11:30:42.545991, 1.38807
2022-12-02 11:30:42.558236, 1.38319
2022-12-02 11:30:42.566754, 1.38807
2022-12-02 11:30:42.574771, 1.38807
2022-12-02 11:30:42.587340, 1.39296
2022-12-02 11:30:42.594597, 1.39785
2022-12-02 11:30:42.603185, 1.42229
2022-12-02 11:30:42.612101, 1.40274
2022-12-02 11:30:42.623631, 1.39296
2022-12-02 11:30:42.631778, 1.38807
2022-12-02 11:30:42.640389, 1.38807
2022-12-02 11:30:42.652098, 1.41740
2022-12-02 11:30:42.660849, 1.38319
2022-12-02 11:30:42.669133, 1.41740
2022-12-02 11:30:42.677359, 1.38319
2022-12-02 11:30:42.689966, 1.38319
2022-12-02 11:30:42.698027, 1.39296
2022-12-02 11:30:42.706397, 1.37341
2022-12-02 11:30:42.718862, 1.37341
2022-12-02 11:30:42.727044, 1.38319
2022-12-02 11:30:42.734780, 1.40762
2022-12-02 11:30:42.742683, 1.45650
2022-12-02 11:30:42.755349, 1.52981
2022-12-02 11:30:42.763205, 1.63734
2022-12-02 11:30:42.771653, 1.77908
2022-12-02 11:30:42.784026, 1.89638
2022-12-02 11:30:42.791631, 2.01857
2022-12-02 11:30:42.800894, 2.13099
2022-12-02 11:30:42.807860, 2.22385
2022-12-02 11:30:42.820544, 2.28739
2022-12-02 11:30:42.828750, 2.32649
2022-12-02 11:30:42.836922, 2.33627
2022-12-02 11:30:42.849942, 2.33138
2022-12-02 11:30:42.856984, 2.30694
2022-12-02 11:30:42.865643, 2.30694
2022-12-02 11:30:42.874100, 2.24829
2022-12-02 11:30:42.885928, 2.18475
2022-12-02 11:30:42.893601, 2.17009
2022-12-02 11:30:42.901696, 2.09677
2022-12-02 11:30:42.913954, 2.05279
2022-12-02 11:30:42.922187, 2.04301
2022-12-02 11:30:42.931239, 1.97458
2022-12-02 11:30:42.939266, 1.94037
2022-12-02 11:30:42.951918, 1.91105
2022-12-02 11:30:42.959587, 1.90616
2022-12-02 11:30:42.968751, 1.86706
2022-12-02 11:30:42.980264, 1.84751
2022-12-02 11:30:42.988798, 1.83284
2022-12-02 11:30:42.996425, 1.81329
2022-12-02 11:30:43.004744, 1.81329
2022-12-02 11:30:43.017855, 1.76931
2022-12-02 11:30:43.024704, 1.74487
2022-12-02 11:30:43.033883, 1.72532
2022-12-02 11:30:43.045791, 1.71065
2022-12-02 11:30:43.054339, 1.69599
2022-12-02 11:30:43.062067, 1.70088
2022-12-02 11:30:43.069775, 1.68622
2022-12-02 11:30:43.082453, 1.69110
2022-12-02 11:30:43.090686, 1.68622
2022-12-02 11:30:43.098892, 1.69599
2022-12-02 11:30:43.111312, 1.70088
2022-12-02 11:30:43.118881, 1.70088
2022-12-02 11:30:43.127044, 1.71065
2022-12-02 11:30:43.135788, 1.70577
2022-12-02 11:30:43.147372, 1.70577
2022-12-02 11:30:43.156015, 1.70088
2022-12-02 11:30:43.164624, 1.69599
2022-12-02 11:30:43.176715, 1.71554
2022-12-02 11:30:43.185347, 1.67644
2022-12-02 11:30:43.192591, 1.69599
2022-12-02 11:30:43.202151, 1.68133
2022-12-02 11:30:43.213611, 1.63734
2022-12-02 11:30:43.222568, 1.62268
2022-12-02 11:30:43.230173, 1.60802
2022-12-02 11:30:43.242420, 1.58847
2022-12-02 11:30:43.250876, 1.57380
2022-12-02 11:30:43.258586, 1.55914
2022-12-02 11:30:43.267234, 1.53959
2022-12-02 11:30:43.278783, 1.52981
2022-12-02 11:30:43.287771, 1.51515
2022-12-02 11:30:43.295637, 1.50538
2022-12-02 11:30:43.307011, 1.49071
2022-12-02 11:30:43.315804, 1.48094
2022-12-02 11:30:43.323793, 1.47116
2022-12-02 11:30:43.333040, 1.46139
2022-12-02 11:30:43.345157, 1.46139
2022-12-02 11:30:43.353858, 1.45161
2022-12-02 11:30:43.360960, 1.45650
2022-12-02 11:30:43.370233, 1.44184
2022-12-02 11:30:43.382057, 1.43695
2022-12-02 11:30:43.389448, 1.43206
2022-12-02 11:30:43.398038, 1.42717
2022-12-02 11:30:43.411076, 1.45650
2022-12-02 11:30:43.418985, 1.41740
2022-12-02 11:30:43.426343, 1.42229
2022-12-02 11:30:43.434409, 1.41740
2022-12-02 11:30:43.447126, 1.41740
2022-12-02 11:30:43.454578, 1.41740
2022-12-02 11:30:43.463287, 1.41251
2022-12-02 11:30:43.475698, 1.41740
2022-12-02 11:30:43.483403, 1.41251
2022-12-02 11:30:43.492048, 1.41251
2022-12-02 11:30:43.500230, 1.41251
2022-12-02 11:30:43.512265, 1.40762
2022-12-02 11:30:43.520550, 1.40762
2022-12-02 11:30:43.528355, 1.40274
2022-12-02 11:30:43.541218, 1.40274
2022-12-02 11:30:43.549686, 1.43206
2022-12-02 11:30:43.557266, 1.40762
2022-12-02 11:30:43.565516, 1.40274
2022-12-02 11:30:43.577881, 1.40274
2022-12-02 11:30:43.586183, 1.39785
2022-12-02 11:30:43.593945, 1.40274
2022-12-02 11:30:43.606119, 1.40274
2022-12-02 11:30:43.614766, 1.39785
2022-12-02 11:30:43.622686, 1.39785
2022-12-02 11:30:43.631603, 1.39296
2022-12-02 11:30:43.642965, 1.39296
2022-12-02 11:30:43.651209, 1.38807
2022-12-02 11:30:43.659740, 1.38807
2022-12-02 11:30:43.672409, 1.38319
2022-12-02 11:30:43.680350, 1.38319
2022-12-02 11:30:43.688922, 1.41251
2022-12-02 11:30:43.696358, 1.39296
2022-12-02 11:30:43.708509, 1.40762
2022-12-02 11:30:43.717575, 1.44673
2022-12-02 11:30:43.725819, 1.52493
2022-12-02 11:30:43.737274, 1.59824
2022-12-02 11:30:43.746308, 1.72043
2022-12-02 11:30:43.754748, 1.83773
2022-12-02 11:30:43.762851, 1.97947
2022-12-02 11:30:43.774940, 2.07722
2022-12-02 11:30:43.783719, 2.17498
2022-12-02 11:30:43.791312, 2.24340
2022-12-02 11:30:43.803924, 2.28739
2022-12-02 11:30:43.811801, 2.31183
2022-12-02 11:30:43.820315, 2.31672
2022-12-02 11:30:43.828054, 2.30694
2022-12-02 11:30:43.839754, 2.26784
2022-12-02 11:30:43.848755, 2.23363
2022-12-02 11:30:43.856371, 2.19453
2022-12-02 11:30:43.869963, 2.17009
2022-12-02 11:30:43.877344, 2.12121
2022-12-02 11:30:43.885330, 2.07722
2022-12-02 11:30:43.894141, 2.02346
2022-12-02 11:30:43.905896, 1.97947
2022-12-02 11:30:43.914140, 1.94526
2022-12-02 11:30:43.922558, 1.92082
2022-12-02 11:30:43.935405, 1.89150
2022-12-02 11:30:43.942891, 1.87195
2022-12-02 11:30:43.951794, 1.85239
2022-12-02 11:30:43.959751, 1.83284
2022-12-02 11:30:43.971832, 1.85239
2022-12-02 11:30:43.979857, 1.79863
2022-12-02 11:30:43.988094, 1.80841
2022-12-02 11:30:44.001035, 1.75464
2022-12-02 11:30:44.007951, 1.73021
2022-12-02 11:30:44.017418, 1.71554
2022-12-02 11:30:44.024770, 1.71065
2022-12-02 11:30:44.037897, 1.72532
2022-12-02 11:30:44.044990, 1.70088
2022-12-02 11:30:44.053341, 1.70577
2022-12-02 11:30:44.066429, 1.71554
2022-12-02 11:30:44.073985, 1.71554
2022-12-02 11:30:44.082837, 1.72532
2022-12-02 11:30:44.090000, 1.72532
2022-12-02 11:30:44.101990, 1.73021
2022-12-02 11:30:44.111495, 1.73021
2022-12-02 11:30:44.118082, 1.74487
2022-12-02 11:30:44.131499, 1.73509
2022-12-02 11:30:44.138927, 1.73021
2022-12-02 11:30:44.147738, 1.72043
2022-12-02 11:30:44.155672, 1.71065
2022-12-02 11:30:44.168976, 1.73021
2022-12-02 11:30:44.176214, 1.68133
2022-12-02 11:30:44.185325, 1.67155
2022-12-02 11:30:44.192664, 1.65689
2022-12-02 11:30:44.205689, 1.63734
2022-12-02 11:30:44.213248, 1.62268
2022-12-02 11:30:44.221385, 1.60313
2022-12-02 11:30:44.234522, 1.59335
2022-12-02 11:30:44.240907, 1.57380
2022-12-02 11:30:44.250350, 1.56403
2022-12-02 11:30:44.258486, 1.55914
2022-12-02 11:30:44.270474, 1.53470
2022-12-02 11:30:44.278981, 1.52493
2022-12-02 11:30:44.287017, 1.51515
2022-12-02 11:30:44.299203, 1.50049
2022-12-02 11:30:44.307566, 1.49560
2022-12-02 11:30:44.315319, 1.49071
2022-12-02 11:30:44.323248, 1.48583
2022-12-02 11:30:44.336901, 1.48094
2022-12-02 11:30:44.344495, 1.47605
2022-12-02 11:30:44.353292, 1.47116
2022-12-02 11:30:44.364883, 1.46628
2022-12-02 11:30:44.373097, 1.46628
2022-12-02 11:30:44.381844, 1.49560
2022-12-02 11:30:44.389057, 1.46139
2022-12-02 11:30:44.402399, 1.45650
2022-12-02 11:30:44.410069, 1.45650
2022-12-02 11:30:44.418327, 1.46139
2022-12-02 11:30:44.430253, 1.46628
2022-12-02 11:30:44.438641, 1.45650
2022-12-02 11:30:44.446575, 1.45650
2022-12-02 11:30:44.455149, 1.48094
2022-12-02 11:30:44.467506, 1.45161
2022-12-02 11:30:44.475474, 1.45650
2022-12-02 11:30:44.483743, 1.45161
2022-12-02 11:30:44.495273, 1.45161
2022-12-02 11:30:44.504320, 1.45161
2022-12-02 11:30:44.512258, 1.45650
2022-12-02 11:30:44.521201, 1.45650
2022-12-02 11:30:44.531636, 1.45161
2022-12-02 11:30:44.540931, 1.45650
2022-12-02 11:30:44.549361, 1.46139
2022-12-02 11:30:44.561274, 1.44673
2022-12-02 11:30:44.569224, 1.44673
2022-12-02 11:30:44.577411, 1.44184
2022-12-02 11:30:44.585627, 1.43206
2022-12-02 11:30:44.598934, 1.43206
2022-12-02 11:30:44.606560, 1.43206
2022-12-02 11:30:44.615329, 1.44673
2022-12-02 11:30:44.626504, 1.46139
2022-12-02 11:30:44.634465, 1.51026
2022-12-02 11:30:44.643543, 1.57380
2022-12-02 11:30:44.651704, 1.66667
2022-12-02 11:30:44.663962, 1.77908
2022-12-02 11:30:44.672192, 1.90127
2022-12-02 11:30:44.680875, 2.00880
2022-12-02 11:30:44.692269, 2.10655
2022-12-02 11:30:44.700569, 2.18475
2022-12-02 11:30:44.709078, 2.23851
2022-12-02 11:30:44.717717, 2.26784
2022-12-02 11:30:44.728699, 2.28739
2022-12-02 11:30:44.738276, 2.28739
2022-12-02 11:30:44.745574, 2.25318
2022-12-02 11:30:44.757895, 2.21896
2022-12-02 11:30:44.766882, 2.17986
2022-12-02 11:30:44.773839, 2.13587
2022-12-02 11:30:44.782428, 2.09189
2022-12-02 11:30:44.794661, 2.04790
2022-12-02 11:30:44.803346, 2.00391
2022-12-02 11:30:44.810994, 1.96481
2022-12-02 11:30:44.823297, 1.92571
2022-12-02 11:30:44.831977, 1.89638
2022-12-02 11:30:44.839514, 1.86706
2022-12-02 11:30:44.848325, 1.84751
2022-12-02 11:30:44.860156, 1.82796
2022-12-02 11:30:44.868535, 1.84262
2022-12-02 11:30:44.877177, 1.78397
2022-12-02 11:30:44.888830, 1.76931
2022-12-02 11:30:44.897401, 1.74487
2022-12-02 11:30:44.905022, 1.71554
2022-12-02 11:30:44.913203, 1.69599
2022-12-02 11:30:44.925917, 1.67644
2022-12-02 11:30:44.934827, 1.66667
2022-12-02 11:30:44.942243, 1.65689
2022-12-02 11:30:44.955321, 1.65200
2022-12-02 11:30:44.961935, 1.65689
2022-12-02 11:30:44.970935, 1.66667
2022-12-02 11:30:44.978753, 1.66178
2022-12-02 11:30:44.990948, 1.66667
2022-12-02 11:30:45.000003, 1.67155
2022-12-02 11:30:45.008285, 1.68133
2022-12-02 11:30:45.019396, 1.68622
2022-12-02 11:30:45.027811, 1.68133
2022-12-02 11:30:45.036467, 1.68622
2022-12-02 11:30:45.044419, 1.68622
2022-12-02 11:30:45.057005, 1.67644
2022-12-02 11:30:45.064489, 1.67644
2022-12-02 11:30:45.073321, 1.66178
2022-12-02 11:30:45.081409, 1.64712
2022-12-02 11:30:45.093883, 1.63734
2022-12-02 11:30:45.101683, 1.62757
2022-12-02 11:30:45.110214, 1.60313
2022-12-02 11:30:45.121813, 1.58358
2022-12-02 11:30:45.130608, 1.56891
2022-12-02 11:30:45.138184, 1.55425
2022-12-02 11:30:45.146848, 1.53470
2022-12-02 11:30:45.159255, 1.52004
2022-12-02 11:30:45.167111, 1.50538
2022-12-02 11:30:45.175792, 1.48583
2022-12-02 11:30:45.187414, 1.47605
2022-12-02 11:30:45.195998, 1.47116
2022-12-02 11:30:45.204320, 1.45161
2022-12-02 11:30:45.212725, 1.45161
2022-12-02 11:30:45.224716, 1.43695
2022-12-02 11:30:45.233037, 1.43206
2022-12-02 11:30:45.241176, 1.42717
2022-12-02 11:30:45.253475, 1.44184
2022-12-02 11:30:45.261229, 1.42717
2022-12-02 11:30:45.269749, 1.41251
2022-12-02 11:30:45.278330, 1.41251
2022-12-02 11:30:45.290324, 1.41251
2022-12-02 11:30:45.298629, 1.41740
2022-12-02 11:30:45.306302, 1.40762
2022-12-02 11:30:45.319714, 1.40762
2022-12-02 11:30:45.327636, 1.40274
2022-12-02 11:30:45.335857, 1.40274
2022-12-02 11:30:45.343810, 1.40762
2022-12-02 11:30:45.355318, 1.40274
2022-12-02 11:30:45.363816, 1.40762
2022-12-02 11:30:45.371732, 1.40274
2022-12-02 11:30:45.384001, 1.40274
2022-12-02 11:30:45.392514, 1.40762
2022-12-02 11:30:45.401844, 1.40274
2022-12-02 11:30:45.408541, 1.40274
2022-12-02 11:30:45.422164, 1.42717
2022-12-02 11:30:45.429937, 1.41740
2022-12-02 11:30:45.438411, 1.39785
2022-12-02 11:30:45.450536, 1.39296
2022-12-02 11:30:45.458601, 1.41251
2022-12-02 11:30:45.466549, 1.39296
2022-12-02 11:30:45.474726, 1.38319
2022-12-02 11:30:45.487662, 1.38807
2022-12-02 11:30:45.494612, 1.39785
2022-12-02 11:30:45.503674, 1.41251
2022-12-02 11:30:45.515142, 1.45161
2022-12-02 11:30:45.523877, 1.51515
2022-12-02 11:30:45.532203, 1.61290
2022-12-02 11:30:45.540224, 1.71554
2022-12-02 11:30:45.553410, 1.83284
2022-12-02 11:30:45.560804, 1.95015
2022-12-02 11:30:45.569833, 2.06256
2022-12-02 11:30:45.581402, 2.15543
2022-12-02 11:30:45.589152, 2.23363
2022-12-02 11:30:45.597690, 2.26295
2022-12-02 11:30:45.605994, 2.28739
2022-12-02 11:30:45.618493, 2.27761
2022-12-02 11:30:45.626949, 2.25806
2022-12-02 11:30:45.634765, 2.23363
2022-12-02 11:30:45.646334, 2.19453
2022-12-02 11:30:45.654843, 2.17986
2022-12-02 11:30:45.663360, 2.11632
2022-12-02 11:30:45.671598, 2.06745
2022-12-02 11:30:45.683835, 2.02835
2022-12-02 11:30:45.691881, 1.97947
2022-12-02 11:30:45.700253, 1.94526
2022-12-02 11:30:45.711773, 1.91593
2022-12-02 11:30:45.720176, 1.89150
2022-12-02 11:30:45.728336, 1.89638
2022-12-02 11:30:45.736529, 1.84751
2022-12-02 11:30:45.748664, 1.83284
2022-12-02 11:30:45.757404, 1.81818
2022-12-02 11:30:45.765516, 1.83284
2022-12-02 11:30:45.777821, 1.77908
2022-12-02 11:30:45.786370, 1.75464
2022-12-02 11:30:45.793943, 1.73509
2022-12-02 11:30:45.803203, 1.71065
2022-12-02 11:30:45.814954, 1.68622
2022-12-02 11:30:45.822457, 1.67155
2022-12-02 11:30:45.831664, 1.66178
2022-12-02 11:30:45.843753, 1.66178
2022-12-02 11:30:45.851841, 1.66178
2022-12-02 11:30:45.860297, 1.66178
2022-12-02 11:30:45.868167, 1.66667
2022-12-02 11:30:45.881086, 1.66667
2022-12-02 11:30:45.888626, 1.67644
2022-12-02 11:30:45.896719, 1.68133
2022-12-02 11:30:45.905100, 1.68133
2022-12-02 11:30:45.917308, 1.70577
2022-12-02 11:30:45.926067, 1.68133
2022-12-02 11:30:45.932725, 1.67644
2022-12-02 11:30:45.945485, 1.66667
2022-12-02 11:30:45.953519, 1.66178
2022-12-02 11:30:45.962104, 1.66178
2022-12-02 11:30:45.970008, 1.63734
2022-12-02 11:30:45.982862, 1.62268
2022-12-02 11:30:45.991036, 1.60313
2022-12-02 11:30:45.999227, 1.58847
2022-12-02 11:30:46.011118, 1.56891
2022-12-02 11:30:46.019799, 1.55425
2022-12-02 11:30:46.027483, 1.53959
2022-12-02 11:30:46.036095, 1.52493
2022-12-02 11:30:46.049041, 1.50538
2022-12-02 11:30:46.056254, 1.49560
2022-12-02 11:30:46.065335, 1.52004
2022-12-02 11:30:46.077101, 1.47116
2022-12-02 11:30:46.085228, 1.48583
2022-12-02 11:30:46.093221, 1.47116
2022-12-02 11:30:46.100793, 1.44673
2022-12-02 11:30:46.114463, 1.43695
2022-12-02 11:30:46.121674, 1.43206
2022-12-02 11:30:46.129933, 1.43695
2022-12-02 11:30:46.143115, 1.42229
2022-12-02 11:30:46.150922, 1.43695
2022-12-02 11:30:46.159052, 1.41251
2022-12-02 11:30:46.167210, 1.41251
2022-12-02 11:30:46.179236, 1.40762
2022-12-02 11:30:46.187643, 1.40762
2022-12-02 11:30:46.195606, 1.40762
2022-12-02 11:30:46.206808, 1.40762
2022-12-02 11:30:46.216939, 1.40762
2022-12-02 11:30:46.224550, 1.40274
2022-12-02 11:30:46.232487, 1.39785
2022-12-02 11:30:46.243955, 1.39785
2022-12-02 11:30:46.252661, 1.40274
2022-12-02 11:30:46.260841, 1.39296
2022-12-02 11:30:46.272676, 1.39785
2022-12-02 11:30:46.282228, 1.42229
2022-12-02 11:30:46.289908, 1.39296
2022-12-02 11:30:46.298334, 1.40762
2022-12-02 11:30:46.310696, 1.39785
2022-12-02 11:30:46.319281, 1.39785
2022-12-02 11:30:46.326739, 1.39785
2022-12-02 11:30:46.338305, 1.43206
2022-12-02 11:30:46.347460, 1.39296
2022-12-02 11:30:46.354916, 1.40762
2022-12-02 11:30:46.363702, 1.38807
2022-12-02 11:30:46.376014, 1.38807
2022-12-02 11:30:46.384381, 1.38319
2022-12-02 11:30:46.393355, 1.38319
2022-12-02 11:30:46.404565, 1.37830
2022-12-02 11:30:46.412766, 1.38807
2022-12-02 11:30:46.420930, 1.41251
2022-12-02 11:30:46.428946, 1.46139
2022-12-02 11:30:46.441351, 1.55914
2022-12-02 11:30:46.450254, 1.63734
2022-12-02 11:30:46.457338, 1.75953
2022-12-02 11:30:46.470791, 1.88172
2022-12-02 11:30:46.478428, 2.00880
2022-12-02 11:30:46.486257, 2.11144
2022-12-02 11:30:46.494678, 2.19941
2022-12-02 11:30:46.507022, 2.25806
2022-12-02 11:30:46.515390, 2.28739
2022-12-02 11:30:46.523357, 2.29717
2022-12-02 11:30:46.535889, 2.28739
2022-12-02 11:30:46.543845, 2.26295
2022-12-02 11:30:46.552303, 2.22385
2022-12-02 11:30:46.560120, 2.21408
2022-12-02 11:30:46.572419, 2.14076
2022-12-02 11:30:46.580959, 2.09677
2022-12-02 11:30:46.588961, 2.05767
2022-12-02 11:30:46.601894, 2.02346
2022-12-02 11:30:46.608637, 1.97947
2022-12-02 11:30:46.617402, 1.94526
2022-12-02 11:30:46.625229, 1.91593
2022-12-02 11:30:46.638128, 1.89150
2022-12-02 11:30:46.646493, 1.87195
2022-12-02 11:30:46.655255, 1.85239
2022-12-02 11:30:46.667519, 1.83773
2022-12-02 11:30:46.675058, 1.81818
2022-12-02 11:30:46.683137, 1.80352
2022-12-02 11:30:46.691457, 1.77908
2022-12-02 11:30:46.702872, 1.75464
2022-12-02 11:30:46.711538, 1.72532
2022-12-02 11:30:46.720310, 1.70577
2022-12-02 11:30:46.728163, 1.68622
2022-12-02 11:30:46.740382, 1.66667
2022-12-02 11:30:46.748627, 1.66667
2022-12-02 11:30:46.757067, 1.66178
2022-12-02 11:30:46.768972, 1.66667
2022-12-02 11:30:46.776929, 1.69599
2022-12-02 11:30:46.784762, 1.67644
2022-12-02 11:30:46.793607, 1.67644
2022-12-02 11:30:46.805900, 1.68622
2022-12-02 11:30:46.813708, 1.72043
2022-12-02 11:30:46.822071, 1.68133
2022-12-02 11:30:46.834277, 1.68133
2022-12-02 11:30:46.842818, 1.67644
2022-12-02 11:30:46.850644, 1.66667
2022-12-02 11:30:46.858707, 1.65689
2022-12-02 11:30:46.871218, 1.64712
2022-12-02 11:30:46.879230, 1.64223
2022-12-02 11:30:46.887632, 1.64223
2022-12-02 11:30:46.899915, 1.60802
2022-12-02 11:30:46.908341, 1.59335
2022-12-02 11:30:46.916377, 1.57869
2022-12-02 11:30:46.924740, 1.55914
2022-12-02 11:30:46.936937, 1.54448
2022-12-02 11:30:46.944881, 1.52981
2022-12-02 11:30:46.953421, 1.52981
2022-12-02 11:30:46.965718, 1.50049
2022-12-02 11:30:46.973732, 1.48583
2022-12-02 11:30:46.982067, 1.47116
2022-12-02 11:30:46.990284, 1.49071
2022-12-02 11:30:47.003196, 1.45161
2022-12-02 11:30:47.010392, 1.45161
2022-12-02 11:30:47.019517, 1.43695
2022-12-02 11:30:47.031676, 1.43695
2022-12-02 11:30:47.039180, 1.46139
2022-12-02 11:30:47.047902, 1.44184
2022-12-02 11:30:47.055782, 1.41740
2022-12-02 11:30:47.068171, 1.42229
2022-12-02 11:30:47.075991, 1.41740
2022-12-02 11:30:47.085272, 1.41251
2022-12-02 11:30:47.097011, 1.40762
2022-12-02 11:30:47.104602, 1.40762
2022-12-02 11:30:47.113896, 1.40762
2022-12-02 11:30:47.121492, 1.40762
2022-12-02 11:30:47.134481, 1.42229
2022-12-02 11:30:47.141808, 1.40274
2022-12-02 11:30:47.149408, 1.40762
2022-12-02 11:30:47.162023, 1.40762
2022-12-02 11:30:47.171234, 1.40762
2022-12-02 11:30:47.178663, 1.40762
2022-12-02 11:30:47.186859, 1.41251
2022-12-02 11:30:47.198734, 1.40762
2022-12-02 11:30:47.207606, 1.40762
2022-12-02 11:30:47.214838, 1.41251
2022-12-02 11:30:47.227368, 1.41251
2022-12-02 11:30:47.235997, 1.41251
2022-12-02 11:30:47.243630, 1.41251
2022-12-02 11:30:47.252401, 1.41251
2022-12-02 11:30:47.264697, 1.41251
2022-12-02 11:30:47.272871, 1.40762
2022-12-02 11:30:47.281052, 1.40762
2022-12-02 11:30:47.293135, 1.40762
2022-12-02 11:30:47.301842, 1.40274
2022-12-02 11:30:47.310011, 1.40762
2022-12-02 11:30:47.317029, 1.39785
2022-12-02 11:30:47.330487, 1.39785
2022-12-02 11:30:47.337722, 1.40762
2022-12-02 11:30:47.346784, 1.43695
2022-12-02 11:30:47.359641, 1.48094
2022-12-02 11:30:47.367405, 1.54936
2022-12-02 11:30:47.375827, 1.64712
2022-12-02 11:30:47.383096, 1.75953
2022-12-02 11:30:47.395347, 1.88661
2022-12-02 11:30:47.403373, 1.99902
2022-12-02 11:30:47.411939, 2.13587
2022-12-02 11:30:47.424455, 2.18964
2022-12-02 11:30:47.433409, 2.24829
2022-12-02 11:30:47.440989, 2.28739
2022-12-02 11:30:47.449781, 2.29717
2022-12-02 11:30:47.461557, 2.28739
2022-12-02 11:30:47.469793, 2.26784
2022-12-02 11:30:47.477794, 2.25318
2022-12-02 11:30:47.490069, 2.19941
2022-12-02 11:30:47.498896, 2.15054
2022-12-02 11:30:47.506160, 2.10655
2022-12-02 11:30:47.514841, 2.05767
2022-12-02 11:30:47.526508, 2.01857
2022-12-02 11:30:47.535045, 1.97947
2022-12-02 11:30:47.543240, 1.97458
2022-12-02 11:30:47.555427, 1.91593
2022-12-02 11:30:47.563711, 1.88661
2022-12-02 11:30:47.571909, 1.86706
2022-12-02 11:30:47.580137, 1.84751
2022-12-02 11:30:47.592978, 1.83773
2022-12-02 11:30:47.600568, 1.81329
2022-12-02 11:30:47.609152, 1.79863
2022-12-02 11:30:47.617141, 1.77419
2022-12-02 11:30:47.629333, 1.75464
2022-12-02 11:30:47.637374, 1.72532
2022-12-02 11:30:47.645430, 1.71065
2022-12-02 11:30:47.657871, 1.69599
2022-12-02 11:30:47.666389, 1.69599
2022-12-02 11:30:47.674105, 1.68622
2022-12-02 11:30:47.682929, 1.68622
2022-12-02 11:30:47.694909, 1.69599
2022-12-02 11:30:47.702445, 1.69599
2022-12-02 11:30:47.711072, 1.70088
2022-12-02 11:30:47.723028, 1.71065
2022-12-02 11:30:47.731732, 1.71554
2022-12-02 11:30:47.739837, 1.72043
2022-12-02 11:30:47.748325, 1.72532
2022-12-02 11:30:47.761236, 1.72532
2022-12-02 11:30:47.769252, 1.72043
2022-12-02 11:30:47.776323, 1.72043
2022-12-02 11:30:47.788450, 1.71065
2022-12-02 11:30:47.796366, 1.69599
2022-12-02 11:30:47.805420, 1.68622
2022-12-02 11:30:47.814409, 1.67155
2022-12-02 11:30:47.824695, 1.65689
2022-12-02 11:30:47.834421, 1.64223
2022-12-02 11:30:47.841566, 1.62757
2022-12-02 11:30:47.854255, 1.60802
2022-12-02 11:30:47.862802, 1.60313
2022-12-02 11:30:47.870873, 1.57380
2022-12-02 11:30:47.879678, 1.55425
2022-12-02 11:30:47.891380, 1.53959
2022-12-02 11:30:47.899871, 1.52981
2022-12-02 11:30:47.907904, 1.51515
2022-12-02 11:30:47.920376, 1.50538
2022-12-02 11:30:47.928027, 1.50538
2022-12-02 11:30:47.936754, 1.48094
2022-12-02 11:30:47.944422, 1.48094
2022-12-02 11:30:47.956618, 1.47605
2022-12-02 11:30:47.965128, 1.48094
2022-12-02 11:30:47.973388, 1.47605
2022-12-02 11:30:47.986086, 1.46139
2022-12-02 11:30:47.994014, 1.49560
2022-12-02 11:30:48.002390, 1.45650
2022-12-02 11:30:48.010432, 1.45650
2022-12-02 11:30:48.021592, 1.45650
2022-12-02 11:30:48.031394, 1.45161
2022-12-02 11:30:48.038427, 1.46139
2022-12-02 11:30:48.051417, 1.45161
2022-12-02 11:30:48.059423, 1.45161
2022-12-02 11:30:48.067771, 1.45650
2022-12-02 11:30:48.075704, 1.45650
2022-12-02 11:30:48.087396, 1.45650
2022-12-02 11:30:48.097032, 1.45161
2022-12-02 11:30:48.104085, 1.48583
2022-12-02 11:30:48.116530, 1.45650
2022-12-02 11:30:48.125597, 1.45161
2022-12-02 11:30:48.133061, 1.44673
2022-12-02 11:30:48.142203, 1.44673
2022-12-02 11:30:48.153659, 1.44184
2022-12-02 11:30:48.161538, 1.44184
2022-12-02 11:30:48.170072, 1.44184
2022-12-02 11:30:48.182545, 1.43695
2022-12-02 11:30:48.190609, 1.42717
2022-12-02 11:30:48.198830, 1.42229
2022-12-02 11:30:48.206994, 1.42717
2022-12-02 11:30:48.218255, 1.43206
2022-12-02 11:30:48.227285, 1.46139
2022-12-02 11:30:48.235828, 1.52004
2022-12-02 11:30:48.247854, 1.58358
2022-12-02 11:30:48.254838, 1.69110
2022-12-02 11:30:48.264469, 1.79374
2022-12-02 11:30:48.272400, 1.91105
2022-12-02 11:30:48.284556, 2.02346
2022-12-02 11:30:48.292840, 2.12610
2022-12-02 11:30:48.300655, 2.18964
2022-12-02 11:30:48.313450, 2.23363
2022-12-02 11:30:48.320908, 2.26295
2022-12-02 11:30:48.329678, 2.26295
2022-12-02 11:30:48.337779, 2.24340
2022-12-02 11:30:48.350970, 2.21408
2022-12-02 11:30:48.359533, 2.17986
2022-12-02 11:30:48.367256, 2.14076
2022-12-02 11:30:48.378869, 2.09677
2022-12-02 11:30:48.387433, 2.05767
2022-12-02 11:30:48.395095, 2.00880
2022-12-02 11:30:48.403344, 1.96970
2022-12-02 11:30:48.416074, 1.95992
2022-12-02 11:30:48.423852, 1.89638
2022-12-02 11:30:48.432813, 1.86706
2022-12-02 11:30:48.440234, 1.84751
2022-12-02 11:30:48.452554, 1.86217
2022-12-02 11:30:48.460711, 1.80841
2022-12-02 11:30:48.469116, 1.78886
2022-12-02 11:30:48.482172, 1.78397
2022-12-02 11:30:48.489491, 1.74976
2022-12-02 11:30:48.497603, 1.72532
2022-12-02 11:30:48.505871, 1.69599
2022-12-02 11:30:48.518920, 1.67644
2022-12-02 11:30:48.525747, 1.65689
2022-12-02 11:30:48.534731, 1.64223
2022-12-02 11:30:48.547544, 1.65200
2022-12-02 11:30:48.554695, 1.63734
2022-12-02 11:30:48.563404, 1.63734
2022-12-02 11:30:48.571691, 1.64223
2022-12-02 11:30:48.583891, 1.64223
2022-12-02 11:30:48.592107, 1.66178
2022-12-02 11:30:48.600548, 1.66667
2022-12-02 11:30:48.612292, 1.66667
2022-12-02 11:30:48.620722, 1.66667
2022-12-02 11:30:48.628684, 1.66667
2022-12-02 11:30:48.636991, 1.69599
2022-12-02 11:30:48.650010, 1.67644
2022-12-02 11:30:48.657295, 1.65200
2022-12-02 11:30:48.665305, 1.64223
2022-12-02 11:30:48.678185, 1.62757
2022-12-02 11:30:48.686641, 1.61779
2022-12-02 11:30:48.694502, 1.60313
2022-12-02 11:30:48.703141, 1.59335
2022-12-02 11:30:48.714160, 1.56891
2022-12-02 11:30:48.722630, 1.55425
2022-12-02 11:30:48.730933, 1.53959
2022-12-02 11:30:48.743226, 1.52493
2022-12-02 11:30:48.751821, 1.50538
2022-12-02 11:30:48.759857, 1.49560
2022-12-02 11:30:48.768307, 1.47605
2022-12-02 11:30:48.780263, 1.46628
2022-12-02 11:30:48.788314, 1.45161
2022-12-02 11:30:48.796892, 1.44184
2022-12-02 11:30:48.809168, 1.42717
2022-12-02 11:30:48.817916, 1.42229
2022-12-02 11:30:48.825413, 1.41740
2022-12-02 11:30:48.834220, 1.41251
2022-12-02 11:30:48.846513, 1.44184
2022-12-02 11:30:48.853907, 1.40762
2022-12-02 11:30:48.862907, 1.40274
2022-12-02 11:30:48.873672, 1.39785
2022-12-02 11:30:48.882581, 1.39785
2022-12-02 11:30:48.890405, 1.40762
2022-12-02 11:30:48.899407, 1.39296
2022-12-02 11:30:48.911146, 1.39785
2022-12-02 11:30:48.919804, 1.39296
2022-12-02 11:30:48.927502, 1.39785
2022-12-02 11:30:48.939929, 1.39296
2022-12-02 11:30:48.948335, 1.39296
2022-12-02 11:30:48.956495, 1.41251
2022-12-02 11:30:48.965026, 1.39296
2022-12-02 11:30:48.976358, 1.38807
2022-12-02 11:30:48.985085, 1.39296
2022-12-02 11:30:48.992772, 1.39296
2022-12-02 11:30:49.004746, 1.38807
2022-12-02 11:30:49.014429, 1.38807
2022-12-02 11:30:49.021211, 1.38319
2022-12-02 11:30:49.030838, 1.39296
2022-12-02 11:30:49.042308, 1.37830
2022-12-02 11:30:49.050538, 1.38319
2022-12-02 11:30:49.058642, 1.40274
2022-12-02 11:30:49.070488, 1.37830
2022-12-02 11:30:49.078922, 1.37341
2022-12-02 11:30:49.087155, 1.38319
2022-12-02 11:30:49.094814, 1.40762
2022-12-02 11:30:49.108118, 1.44673
2022-12-02 11:30:49.116341, 1.52493
2022-12-02 11:30:49.124125, 1.61779
2022-12-02 11:30:49.137121, 1.73509
2022-12-02 11:30:49.144166, 1.88661
2022-12-02 11:30:49.153126, 1.96970
2022-12-02 11:30:49.161186, 2.09189
2022-12-02 11:30:49.172244, 2.16520
2022-12-02 11:30:49.182491, 2.23363
2022-12-02 11:30:49.189841, 2.26784
2022-12-02 11:30:49.202026, 2.28250
2022-12-02 11:30:49.210245, 2.27273
2022-12-02 11:30:49.217699, 2.25318
2022-12-02 11:30:49.226529, 2.21408
2022-12-02 11:30:49.238386, 2.17498
2022-12-02 11:30:49.246374, 2.13099
2022-12-02 11:30:49.255427, 2.08700
2022-12-02 11:30:49.263482, 2.04790
2022-12-02 11:30:49.275454, 2.00391
2022-12-02 11:30:49.283708, 1.96970
2022-12-02 11:30:49.292007, 1.93548
2022-12-02 11:30:49.303855, 1.90616
2022-12-02 11:30:49.312546, 1.88661
2022-12-02 11:30:49.320971, 1.86706
2022-12-02 11:30:49.329091, 1.85239
2022-12-02 11:30:49.341145, 1.86706
2022-12-02 11:30:49.350343, 1.81329
2022-12-02 11:30:49.357915, 1.80352
2022-12-02 11:30:49.370282, 1.77419
2022-12-02 11:30:49.378785, 1.75464
2022-12-02 11:30:49.386787, 1.73021
2022-12-02 11:30:49.394799, 1.73509
2022-12-02 11:30:49.407080, 1.68622
2022-12-02 11:30:49.415444, 1.68133
2022-12-02 11:30:49.423272, 1.66178
2022-12-02 11:30:49.435872, 1.65689
2022-12-02 11:30:49.443648, 1.65689
2022-12-02 11:30:49.452116, 1.66178
2022-12-02 11:30:49.459808, 1.66667
2022-12-02 11:30:49.472451, 1.66667
2022-12-02 11:30:49.480889, 1.67155
2022-12-02 11:30:49.488853, 1.67644
2022-12-02 11:30:49.501881, 1.67155
2022-12-02 11:30:49.508731, 1.67155
2022-12-02 11:30:49.518354, 1.66667
2022-12-02 11:30:49.526009, 1.65689
2022-12-02 11:30:49.537961, 1.64712
2022-12-02 11:30:49.546911, 1.64223
2022-12-02 11:30:49.554097, 1.63245
2022-12-02 11:30:49.566904, 1.62268
2022-12-02 11:30:49.575226, 1.60313
2022-12-02 11:30:49.583704, 1.62268
2022-12-02 11:30:49.591695, 1.57380
2022-12-02 11:30:49.603099, 1.55914
2022-12-02 11:30:49.611870, 1.53959
2022-12-02 11:30:49.619429, 1.52004
2022-12-02 11:30:49.632981, 1.51026
2022-12-02 11:30:49.640108, 1.49560
2022-12-02 11:30:49.648162, 1.48094
2022-12-02 11:30:49.656605, 1.47116
2022-12-02 11:30:49.668847, 1.45161
2022-12-02 11:30:49.676848, 1.45161
2022-12-02 11:30:49.684818, 1.44184
2022-12-02 11:30:49.697733, 1.43695
2022-12-02 11:30:49.705678, 1.42717
2022-12-02 11:30:49.713953, 1.42229
2022-12-02 11:30:49.721292, 1.41740
2022-12-02 11:30:49.734557, 1.41740
2022-12-02 11:30:49.742747, 1.41251
2022-12-02 11:30:49.750834, 1.40762
2022-12-02 11:30:49.763158, 1.40762
2022-12-02 11:30:49.771222, 1.40762
2022-12-02 11:30:49.779400, 1.40762
2022-12-02 11:30:49.788057, 1.40274
2022-12-02 11:30:49.800107, 1.40274
2022-12-02 11:30:49.808143, 1.43206
2022-12-02 11:30:49.817375, 1.40274
2022-12-02 11:30:49.828790, 1.40274
2022-12-02 11:30:49.836967, 1.39785
2022-12-02 11:30:49.845503, 1.40274
2022-12-02 11:30:49.853251, 1.39785
2022-12-02 11:30:49.865364, 1.39785
2022-12-02 11:30:49.874610, 1.40274
2022-12-02 11:30:49.882047, 1.39785
2022-12-02 11:30:49.894093, 1.39785
2022-12-02 11:30:49.902210, 1.41251
2022-12-02 11:30:49.910825, 1.39296
2022-12-02 11:30:49.918399, 1.38807
2022-12-02 11:30:49.930294, 1.39296
2022-12-02 11:30:49.939049, 1.39785
2022-12-02 11:30:49.947395, 1.37830
2022-12-02 11:30:49.959889, 1.38319
2022-12-02 11:30:49.967288, 1.38319
2022-12-02 11:30:49.975774, 1.39296
2022-12-02 11:30:49.984467, 1.44673
2022-12-02 11:30:49.996158, 1.48583
2022-12-02 11:30:50.005000, 1.56403
2022-12-02 11:30:50.013957, 1.64712
2022-12-02 11:30:50.025587, 1.79863
2022-12-02 11:30:50.033399, 1.89150
2022-12-02 11:30:50.041874, 2.00880
2022-12-02 11:30:50.049962, 2.10655
2022-12-02 11:30:50.062517, 2.19453
2022-12-02 11:30:50.069909, 2.24829
2022-12-02 11:30:50.078727, 2.27273
2022-12-02 11:30:50.091196, 2.28250
2022-12-02 11:30:50.099362, 2.26784
2022-12-02 11:30:50.107544, 2.26784
2022-12-02 11:30:50.115014, 2.23851
2022-12-02 11:30:50.127822, 2.17009
2022-12-02 11:30:50.135575, 2.14565
2022-12-02 11:30:50.145055, 2.08211
2022-12-02 11:30:50.153144, 2.03812
2022-12-02 11:30:50.163821, 2.00880
2022-12-02 11:30:50.172952, 1.96481
2022-12-02 11:30:50.181880, 1.93060
2022-12-02 11:30:50.193267, 1.90616
2022-12-02 11:30:50.200543, 1.88172
2022-12-02 11:30:50.209729, 1.85728
2022-12-02 11:30:50.218123, 1.84262
2022-12-02 11:30:50.230087, 1.82796
2022-12-02 11:30:50.237833, 1.81329
2022-12-02 11:30:50.245655, 1.79374
2022-12-02 11:30:50.258640, 1.77419
2022-12-02 11:30:50.267435, 1.74976
2022-12-02 11:30:50.274727, 1.71554
2022-12-02 11:30:50.283685, 1.69599
2022-12-02 11:30:50.296008, 1.67644
2022-12-02 11:30:50.303887, 1.66667
2022-12-02 11:30:50.312998, 1.69599
2022-12-02 11:30:50.324133, 1.66178
2022-12-02 11:30:50.332948, 1.66667
2022-12-02 11:30:50.341450, 1.66667
2022-12-02 11:30:50.349138, 1.67644
2022-12-02 11:30:50.362142, 1.67644
2022-12-02 11:30:50.369647, 1.72043
2022-12-02 11:30:50.377640, 1.68622
2022-12-02 11:30:50.390196, 1.68622
2022-12-02 11:30:50.398358, 1.68133
2022-12-02 11:30:50.406556, 1.67644
2022-12-02 11:30:50.414432, 1.66667
2022-12-02 11:30:50.426698, 1.66178
2022-12-02 11:30:50.435305, 1.64712
2022-12-02 11:30:50.442629, 1.63245
2022-12-02 11:30:50.455553, 1.63734
2022-12-02 11:30:50.463988, 1.60802
2022-12-02 11:30:50.471850, 1.58847
2022-12-02 11:30:50.480462, 1.57380
2022-12-02 11:30:50.491637, 1.55425
2022-12-02 11:30:50.500787, 1.53959
2022-12-02 11:30:50.508177, 1.52493
2022-12-02 11:30:50.520862, 1.51515
2022-12-02 11:30:50.530091, 1.50049
2022-12-02 11:30:50.537045, 1.48583
2022-12-02 11:30:50.546413, 1.47116
2022-12-02 11:30:50.558650, 1.46628
2022-12-02 11:30:50.566770, 1.45161
2022-12-02 11:30:50.574832, 1.45161
2022-12-02 11:30:50.586534, 1.44184
2022-12-02 11:30:50.595535, 1.43206
2022-12-02 11:30:50.602931, 1.44673
2022-12-02 11:30:50.611296, 1.44184
2022-12-02 11:30:50.623626, 1.42717
2022-12-02 11:30:50.631876, 1.45161
2022-12-02 11:30:50.640136, 1.42229
2022-12-02 11:30:50.652206, 1.41740
2022-12-02 11:30:50.660604, 1.41740
2022-12-02 11:30:50.668453, 1.41740
2022-12-02 11:30:50.675701, 1.41251
2022-12-02 11:30:50.688905, 1.42229
2022-12-02 11:30:50.698033, 1.41251
2022-12-02 11:30:50.705245, 1.41251
2022-12-02 11:30:50.718496, 1.41251
2022-12-02 11:30:50.726616, 1.41251
2022-12-02 11:30:50.734799, 1.41251
2022-12-02 11:30:50.741776, 1.40762
2022-12-02 11:30:50.754228, 1.41251
2022-12-02 11:30:50.763362, 1.41251
2022-12-02 11:30:50.770225, 1.40762
2022-12-02 11:30:50.782585, 1.41251
2022-12-02 11:30:50.791698, 1.43695
2022-12-02 11:30:50.800026, 1.41251
2022-12-02 11:30:50.807774, 1.42229
2022-12-02 11:30:50.819790, 1.40274
2022-12-02 11:30:50.828131, 1.43695
2022-12-02 11:30:50.836208, 1.40274
2022-12-02 11:30:50.849449, 1.39785
2022-12-02 11:30:50.856709, 1.40274
2022-12-02 11:30:50.865831, 1.41740
2022-12-02 11:30:50.873286, 1.44673
2022-12-02 11:30:50.886305, 1.50538
2022-12-02 11:30:50.892937, 1.58358
2022-12-02 11:30:50.902700, 1.68622
2022-12-02 11:30:50.915110, 1.80352
2022-12-02 11:30:50.922677, 1.92082
2022-12-02 11:30:50.930905, 2.03324
2022-12-02 11:30:50.938845, 2.12610
2022-12-02 11:30:50.951791, 2.20430
2022-12-02 11:30:50.959579, 2.24340
2022-12-02 11:30:50.967755, 2.26784
2022-12-02 11:30:50.975467, 2.28739
2022-12-02 11:30:50.987332, 2.25318
2022-12-02 11:30:50.996292, 2.22385
2022-12-02 11:30:51.004126, 2.18964
2022-12-02 11:30:51.016437, 2.14565
2022-12-02 11:30:51.024895, 2.09677
2022-12-02 11:30:51.033036, 2.05279
2022-12-02 11:30:51.041070, 2.01857
2022-12-02 11:30:51.052947, 1.99413
2022-12-02 11:30:51.062307, 1.93548
2022-12-02 11:30:51.069427, 1.90616
2022-12-02 11:30:51.082631, 1.91105
2022-12-02 11:30:51.091146, 1.85239
2022-12-02 11:30:51.099326, 1.84262
2022-12-02 11:30:51.106790, 1.81818
2022-12-02 11:30:51.119648, 1.80352
2022-12-02 11:30:51.127497, 1.77908
2022-12-02 11:30:51.135672, 1.75464
2022-12-02 11:30:51.147978, 1.73509
2022-12-02 11:30:51.155874, 1.71065
2022-12-02 11:30:51.163888, 1.69599
2022-12-02 11:30:51.172554, 1.68133
2022-12-02 11:30:51.185426, 1.70088
2022-12-02 11:30:51.192788, 1.66178
2022-12-02 11:30:51.200928, 1.66178
2022-12-02 11:30:51.213310, 1.67644
2022-12-02 11:30:51.220808, 1.67155
2022-12-02 11:30:51.228927, 1.68622
2022-12-02 11:30:51.237625, 1.69110
2022-12-02 11:30:51.249908, 1.69599
2022-12-02 11:30:51.258353, 1.72532
2022-12-02 11:30:51.266130, 1.70577
2022-12-02 11:30:51.278347, 1.70577
2022-12-02 11:30:51.286224, 1.72043
2022-12-02 11:30:51.294883, 1.70088
2022-12-02 11:30:51.302910, 1.70088
2022-12-02 11:30:51.315839, 1.68622
2022-12-02 11:30:51.324060, 1.67155
2022-12-02 11:30:51.331883, 1.65689
2022-12-02 11:30:51.343597, 1.64223
2022-12-02 11:30:51.351792, 1.62268
2022-12-02 11:30:51.360424, 1.60313
2022-12-02 11:30:51.368522, 1.58358
2022-12-02 11:30:51.381230, 1.56891
2022-12-02 11:30:51.389506, 1.55425
2022-12-02 11:30:51.397871, 1.53470
2022-12-02 11:30:51.409904, 1.52981
2022-12-02 11:30:51.417832, 1.51515
2022-12-02 11:30:51.426132, 1.49560
2022-12-02 11:30:51.433942, 1.48583
2022-12-02 11:30:51.446986, 1.51026
2022-12-02 11:30:51.455036, 1.46628
2022-12-02 11:30:51.463289, 1.45650
2022-12-02 11:30:51.475020, 1.45650
2022-12-02 11:30:51.483827, 1.44673
2022-12-02 11:30:51.491494, 1.43695
2022-12-02 11:30:51.500187, 1.44184
2022-12-02 11:30:51.513118, 1.43695
2022-12-02 11:30:51.520495, 1.43206
2022-12-02 11:30:51.529510, 1.43206
2022-12-02 11:30:51.540898, 1.44673
2022-12-02 11:30:51.549973, 1.43206
2022-12-02 11:30:51.558208, 1.42229
2022-12-02 11:30:51.565633, 1.43206
2022-12-02 11:30:51.577625, 1.42717
2022-12-02 11:30:51.586081, 1.43206
2022-12-02 11:30:51.593688, 1.42717
2022-12-02 11:30:51.606021, 1.43206
2022-12-02 11:30:51.615272, 1.43206
2022-12-02 11:30:51.623625, 1.42717
2022-12-02 11:30:51.631554, 1.43206
2022-12-02 11:30:51.643447, 1.42229
2022-12-02 11:30:51.651764, 1.42229
2022-12-02 11:30:51.659578, 1.41740
2022-12-02 11:30:51.671523, 1.42229
2022-12-02 11:30:51.680262, 1.41251
2022-12-02 11:30:51.688542, 1.43695
2022-12-02 11:30:51.697466, 1.40762
2022-12-02 11:30:51.708692, 1.40762
2022-12-02 11:30:51.717941, 1.42229
2022-12-02 11:30:51.725364, 1.45650
2022-12-02 11:30:51.737033, 1.51026
2022-12-02 11:30:51.746502, 1.59335
2022-12-02 11:30:51.753339, 1.69110
2022-12-02 11:30:51.761627, 1.81329
2022-12-02 11:30:51.774343, 1.92082
2022-12-02 11:30:51.782197, 2.03324
2022-12-02 11:30:51.790643, 2.12610
2022-12-02 11:30:51.803010, 2.18964
2022-12-02 11:30:51.811524, 2.23363
2022-12-02 11:30:51.819261, 2.25318
2022-12-02 11:30:51.827925, 2.25806
2022-12-02 11:30:51.840144, 2.23851
2022-12-02 11:30:51.847936, 2.20430
2022-12-02 11:30:51.857099, 2.16520
2022-12-02 11:30:51.864396, 2.12121
2022-12-02 11:30:51.876801, 2.08211
2022-12-02 11:30:51.885751, 2.06256
2022-12-02 11:30:51.892943, 1.99902
2022-12-02 11:30:51.905215, 1.95503
2022-12-02 11:30:51.914411, 1.92571
2022-12-02 11:30:51.921761, 1.89638
2022-12-02 11:30:51.930901, 1.87195
2022-12-02 11:30:51.941944, 1.84751
2022-12-02 11:30:51.951392, 1.84262
2022-12-02 11:30:51.958860, 1.81329
2022-12-02 11:30:51.970319, 1.80352
2022-12-02 11:30:51.979498, 1.77419
2022-12-02 11:30:51.986904, 1.74976
2022-12-02 11:30:51.995834, 1.74976
2022-12-02 11:30:52.007570, 1.70088
2022-12-02 11:30:52.016241, 1.68133
2022-12-02 11:30:52.023675, 1.66178
2022-12-02 11:30:52.035879, 1.65689
2022-12-02 11:30:52.044913, 1.64712
2022-12-02 11:30:52.052420, 1.66178
2022-12-02 11:30:52.061527, 1.64712
2022-12-02 11:30:52.073948, 1.64223
2022-12-02 11:30:52.082358, 1.65200
2022-12-02 11:30:52.089756, 1.65200
2022-12-02 11:30:52.102584, 1.66178
2022-12-02 11:30:52.110173, 1.66178
2022-12-02 11:30:52.119229, 1.66178
2022-12-02 11:30:52.126308, 1.67644
2022-12-02 11:30:52.138696, 1.65689
2022-12-02 11:30:52.147551, 1.65200
2022-12-02 11:30:52.155278, 1.64712
2022-12-02 11:30:52.167909, 1.63734
2022-12-02 11:30:52.175848, 1.65200
2022-12-02 11:30:52.184355, 1.60802
2022-12-02 11:30:52.192401, 1.59824
2022-12-02 11:30:52.204048, 1.60802
2022-12-02 11:30:52.213039, 1.55914
2022-12-02 11:30:52.220887, 1.54448
2022-12-02 11:30:52.232851, 1.54936
2022-12-02 11:30:52.242118, 1.52004
2022-12-02 11:30:52.249050, 1.49560
2022-12-02 11:30:52.257996, 1.48583
2022-12-02 11:30:52.269990, 1.47116
2022-12-02 11:30:52.278427, 1.45650
2022-12-02 11:30:52.285844, 1.44673
2022-12-02 11:30:52.299551, 1.43695
2022-12-02 11:30:52.307455, 1.43206
2022-12-02 11:30:52.315453, 1.42229
2022-12-02 11:30:52.323817, 1.41251
2022-12-02 11:30:52.335729, 1.42229
2022-12-02 11:30:52.344109, 1.40762
2022-12-02 11:30:52.352209, 1.40762
2022-12-02 11:30:52.364412, 1.40274
2022-12-02 11:30:52.372504, 1.39785
2022-12-02 11:30:52.380867, 1.39785
2022-12-02 11:30:52.388878, 1.39785
2022-12-02 11:30:52.400856, 1.42717
2022-12-02 11:30:52.409305, 1.39785
2022-12-02 11:30:52.417376, 1.39785
2022-12-02 11:30:52.430504, 1.39785
2022-12-02 11:30:52.438001, 1.39296
2022-12-02 11:30:52.446603, 1.40274
2022-12-02 11:30:52.454482, 1.39296
2022-12-02 11:30:52.466909, 1.39296
2022-12-02 11:30:52.475124, 1.39296
2022-12-02 11:30:52.483557, 1.38807
2022-12-02 11:30:52.495622, 1.38807
2022-12-02 11:30:52.503359, 1.38807
2022-12-02 11:30:52.511609, 1.38319
2022-12-02 11:30:52.519990, 1.41740
2022-12-02 11:30:52.532380, 1.37830
2022-12-02 11:30:52.539963, 1.37341
2022-12-02 11:30:52.548875, 1.37341
2022-12-02 11:30:52.561638, 1.36852
2022-12-02 11:30:52.569536, 1.37830
2022-12-02 11:30:52.577429, 1.39785
2022-12-02 11:30:52.585684, 1.43206
2022-12-02 11:30:52.598455, 1.49560
2022-12-02 11:30:52.606159, 1.57869
2022-12-02 11:30:52.614693, 1.69599
2022-12-02 11:30:52.626538, 1.81329
2022-12-02 11:30:52.634885, 1.93548
2022-12-02 11:30:52.642799, 2.04790
2022-12-02 11:30:52.651228, 2.14076
2022-12-02 11:30:52.663038, 2.20919
2022-12-02 11:30:52.671405, 2.25318
2022-12-02 11:30:52.679797, 2.27273
2022-12-02 11:30:52.687348, 2.26784
2022-12-02 11:30:52.700360, 2.26784
2022-12-02 11:30:52.707979, 2.21408
2022-12-02 11:30:52.716567, 2.17009
2022-12-02 11:30:52.729531, 2.13099
2022-12-02 11:30:52.736409, 2.08700
2022-12-02 11:30:52.746059, 2.04790
2022-12-02 11:30:52.752925, 2.00391
2022-12-02 11:30:52.766510, 1.96970
2022-12-02 11:30:52.774074, 1.93548
2022-12-02 11:30:52.782597, 1.93548
2022-12-02 11:30:52.795064, 1.88172
2022-12-02 11:30:52.802437, 1.87683
2022-12-02 11:30:52.810193, 1.84262
2022-12-02 11:30:52.818975, 1.83284
2022-12-02 11:30:52.831338, 1.80841
2022-12-02 11:30:52.839726, 1.78886
2022-12-02 11:30:52.847520, 1.76931
2022-12-02 11:30:52.859548, 1.73998
2022-12-02 11:30:52.868392, 1.71554
2022-12-02 11:30:52.876513, 1.69110
2022-12-02 11:30:52.884507, 1.66667
2022-12-02 11:30:52.897606, 1.69110
2022-12-02 11:30:52.904914, 1.64712
2022-12-02 11:30:52.913864, 1.65689
2022-12-02 11:30:52.925532, 1.64712
2022-12-02 11:30:52.933724, 1.64712
2022-12-02 11:30:52.941964, 1.65200
2022-12-02 11:30:52.950316, 1.66178
2022-12-02 11:30:52.962613, 1.65689
2022-12-02 11:30:52.969609, 1.66178
2022-12-02 11:30:52.978594, 1.66667
2022-12-02 11:30:52.990671, 1.66178
2022-12-02 11:30:52.999149, 1.66178
2022-12-02 11:30:53.007530, 1.65200
2022-12-02 11:30:53.015626, 1.64223
2022-12-02 11:30:53.027280, 1.63734
2022-12-02 11:30:53.035898, 1.62757
2022-12-02 11:30:53.043955, 1.60802
2022-12-02 11:30:53.056077, 1.62757
2022-12-02 11:30:53.064599, 1.57380
2022-12-02 11:30:53.072167, 1.57380
2022-12-02 11:30:53.081064, 1.54936
2022-12-02 11:30:53.092785, 1.52981
2022-12-02 11:30:53.101103, 1.51515
2022-12-02 11:30:53.109774, 1.49560
2022-12-02 11:30:53.121857, 1.48583
2022-12-02 11:30:53.129332, 1.47116
2022-12-02 11:30:53.137766, 1.46139
2022-12-02 11:30:53.146450, 1.45161
2022-12-02 11:30:53.158771, 1.43695
2022-12-02 11:30:53.167111, 1.43206
2022-12-02 11:30:53.175252, 1.42229
2022-12-02 11:30:53.187543, 1.41740
2022-12-02 11:30:53.196021, 1.41251
2022-12-02 11:30:53.203974, 1.40762
2022-12-02 11:30:53.212224, 1.40274
2022-12-02 11:30:53.224296, 1.39785
2022-12-02 11:30:53.233375, 1.39296
2022-12-02 11:30:53.240987, 1.39296
2022-12-02 11:30:53.252574, 1.39296
2022-12-02 11:30:53.261607, 1.38807
2022-12-02 11:30:53.269199, 1.38807
2022-12-02 11:30:53.277744, 1.38319
2022-12-02 11:30:53.289837, 1.40274
2022-12-02 11:30:53.298468, 1.38319
2022-12-02 11:30:53.305569, 1.38807
2022-12-02 11:30:53.318763, 1.38319
2022-12-02 11:30:53.326688, 1.38319
2022-12-02 11:30:53.334852, 1.38807
2022-12-02 11:30:53.343254, 1.38807
2022-12-02 11:30:53.355142, 1.40274
2022-12-02 11:30:53.363990, 1.38807
2022-12-02 11:30:53.372239, 1.38807
2022-12-02 11:30:53.383708, 1.38807
2022-12-02 11:30:53.391808, 1.38807
2022-12-02 11:30:53.399897, 1.41740
2022-12-02 11:30:53.408830, 1.38319
2022-12-02 11:30:53.420625, 1.38807
2022-12-02 11:30:53.429226, 1.39296
2022-12-02 11:30:53.437481, 1.38807
2022-12-02 11:30:53.450232, 1.40274
2022-12-02 11:30:53.458532, 1.43206
2022-12-02 11:30:53.466485, 1.48583
2022-12-02 11:30:53.474218, 1.56403
2022-12-02 11:30:53.486161, 1.66667
2022-12-02 11:30:53.495508, 1.78397
2022-12-02 11:30:53.503119, 1.91593
2022-12-02 11:30:53.511791, 2.02346
2022-12-02 11:30:53.523431, 2.11632
2022-12-02 11:30:53.531950, 2.19941
2022-12-02 11:30:53.540017, 2.24340
2022-12-02 11:30:53.551919, 2.27273
2022-12-02 11:30:53.561145, 2.27761
2022-12-02 11:30:53.568587, 2.25806
2022-12-02 11:30:53.576892, 2.22874
2022-12-02 11:30:53.589378, 2.22874
2022-12-02 11:30:53.597373, 2.15054
2022-12-02 11:30:53.605634, 2.10655
2022-12-02 11:30:53.617841, 2.06745
2022-12-02 11:30:53.625980, 2.01857
2022-12-02 11:30:53.634241, 1.97947
2022-12-02 11:30:53.642288, 1.94037
2022-12-02 11:30:53.654368, 1.90616
2022-12-02 11:30:53.662710, 1.88172
2022-12-02 11:30:53.671073, 1.85728
2022-12-02 11:30:53.683545, 1.83773
2022-12-02 11:30:53.691527, 1.81818
2022-12-02 11:30:53.699940, 1.79863
2022-12-02 11:30:53.707949, 1.77908
2022-12-02 11:30:53.719725, 1.75953
2022-12-02 11:30:53.729051, 1.74976
2022-12-02 11:30:53.735905, 1.71065
2022-12-02 11:30:53.749028, 1.69110
2022-12-02 11:30:53.757285, 1.71065
2022-12-02 11:30:53.765410, 1.68133
2022-12-02 11:30:53.773325, 1.65689
2022-12-02 11:30:53.784198, 1.69599
2022-12-02 11:30:53.794595, 1.67155
2022-12-02 11:30:53.801900, 1.67155
2022-12-02 11:30:53.814249, 1.68622
2022-12-02 11:30:53.822404, 1.69110
2022-12-02 11:30:53.830659, 1.73509
2022-12-02 11:30:53.838650, 1.70577
2022-12-02 11:30:53.851467, 1.72532
2022-12-02 11:30:53.859531, 1.71554
2022-12-02 11:30:53.867837, 1.72043
2022-12-02 11:30:53.880019, 1.71065
2022-12-02 11:30:53.887931, 1.70088
2022-12-02 11:30:53.896907, 1.69599
2022-12-02 11:30:53.904311, 1.68133
2022-12-02 11:30:53.915766, 1.66667
2022-12-02 11:30:53.924430, 1.68622
2022-12-02 11:30:53.933318, 1.63734
2022-12-02 11:30:53.946106, 1.63245
2022-12-02 11:30:53.952957, 1.60313
2022-12-02 11:30:53.962428, 1.58358
2022-12-02 11:30:53.969257, 1.58358
2022-12-02 11:30:53.981888, 1.58847
2022-12-02 11:30:53.990351, 1.53470
2022-12-02 11:30:53.998529, 1.52493
2022-12-02 11:30:54.011131, 1.54936
2022-12-02 11:30:54.018487, 1.50049
2022-12-02 11:30:54.027098, 1.49560
2022-12-02 11:30:54.035148, 1.48094
2022-12-02 11:30:54.047993, 1.47605
2022-12-02 11:30:54.056070, 1.47605
2022-12-02 11:30:54.063850, 1.46139
2022-12-02 11:30:54.075794, 1.46139
2022-12-02 11:30:54.084133, 1.46628
2022-12-02 11:30:54.091997, 1.46139
2022-12-02 11:30:54.100804, 1.45650
2022-12-02 11:30:54.112337, 1.45161
2022-12-02 11:30:54.120838, 1.45161
2022-12-02 11:30:54.130465, 1.45161
2022-12-02 11:30:54.142022, 1.46139
2022-12-02 11:30:54.150869, 1.44673
2022-12-02 11:30:54.158180, 1.44673
2022-12-02 11:30:54.166395, 1.45161
2022-12-02 11:30:54.179599, 1.45161
2022-12-02 11:30:54.187115, 1.45161
2022-12-02 11:30:54.195552, 1.45161
2022-12-02 11:30:54.207310, 1.44673
2022-12-02 11:30:54.215716, 1.45161
2022-12-02 11:30:54.223349, 1.44673
2022-12-02 11:30:54.232385, 1.44184
2022-12-02 11:30:54.244127, 1.43695
2022-12-02 11:30:54.252657, 1.46139
2022-12-02 11:30:54.260704, 1.43206
2022-12-02 11:30:54.272579, 1.43695
2022-12-02 11:30:54.282048, 1.44184
2022-12-02 11:30:54.289974, 1.46139
2022-12-02 11:30:54.298284, 1.50538
2022-12-02 11:30:54.310114, 1.56891
2022-12-02 11:30:54.318366, 1.66178
2022-12-02 11:30:54.326881, 1.76931
2022-12-02 11:30:54.338517, 1.88172
2022-12-02 11:30:54.347028, 1.99902
2022-12-02 11:30:54.354901, 2.09677
2022-12-02 11:30:54.363449, 2.17498
2022-12-02 11:30:54.375360, 2.22385
2022-12-02 11:30:54.383676, 2.25318
2022-12-02 11:30:54.391901, 2.26295
2022-12-02 11:30:54.400355, 2.25318
2022-12-02 11:30:54.412337, 2.22385
2022-12-02 11:30:54.420063, 2.18475
2022-12-02 11:30:54.429153, 2.14565
2022-12-02 11:30:54.441075, 2.10166
2022-12-02 11:30:54.449959, 2.05767
2022-12-02 11:30:54.456895, 2.02835
2022-12-02 11:30:54.466185, 1.96970
2022-12-02 11:30:54.478552, 1.93060
2022-12-02 11:30:54.485582, 1.89638
2022-12-02 11:30:54.494822, 1.86706
2022-12-02 11:30:54.506543, 1.83773
2022-12-02 11:30:54.515387, 1.81329
2022-12-02 11:30:54.522740, 1.80352
2022-12-02 11:30:54.531295, 1.77908
2022-12-02 11:30:54.543729, 1.75953
2022-12-02 11:30:54.552071, 1.73021
2022-12-02 11:30:54.560001, 1.70577
2022-12-02 11:30:54.572150, 1.68133
2022-12-02 11:30:54.580391, 1.65200
2022-12-02 11:30:54.588499, 1.63734
2022-12-02 11:30:54.596536, 1.62268
2022-12-02 11:30:54.609217, 1.62268
2022-12-02 11:30:54.617824, 1.61779
2022-12-02 11:30:54.625154, 1.61779
2022-12-02 11:30:54.637495, 1.62757
2022-12-02 11:30:54.646469, 1.63245
2022-12-02 11:30:54.653903, 1.67644
2022-12-02 11:30:54.662865, 1.64712
2022-12-02 11:30:54.674492, 1.66667
2022-12-02 11:30:54.682196, 1.65689
2022-12-02 11:30:54.691065, 1.65689
2022-12-02 11:30:54.702610, 1.65200
2022-12-02 11:30:54.711126, 1.68133
2022-12-02 11:30:54.719251, 1.64223
2022-12-02 11:30:54.727884, 1.62757
2022-12-02 11:30:54.739701, 1.61290
2022-12-02 11:30:54.748390, 1.60313
2022-12-02 11:30:54.756168, 1.58847
2022-12-02 11:30:54.768177, 1.56891
2022-12-02 11:30:54.777562, 1.55425
2022-12-02 11:30:54.784844, 1.56403
2022-12-02 11:30:54.793943, 1.52004
2022-12-02 11:30:54.806145, 1.50538
2022-12-02 11:30:54.813739, 1.48583
2022-12-02 11:30:54.822649, 1.47605
2022-12-02 11:30:54.834439, 1.46139
2022-12-02 11:30:54.843585, 1.45161
2022-12-02 11:30:54.850039, 1.43695
2022-12-02 11:30:54.858927, 1.42717
2022-12-02 11:30:54.871022, 1.41740
2022-12-02 11:30:54.879470, 1.41251
2022-12-02 11:30:54.887360, 1.40762
2022-12-02 11:30:54.899933, 1.40762
2022-12-02 11:30:54.908316, 1.39785
2022-12-02 11:30:54.916392, 1.39296
2022-12-02 11:30:54.924199, 1.38807
2022-12-02 11:30:54.936298, 1.39296
2022-12-02 11:30:54.945468, 1.38807
2022-12-02 11:30:54.952542, 1.38807
2022-12-02 11:30:54.966139, 1.38807
2022-12-02 11:30:54.973534, 1.38807
2022-12-02 11:30:54.981492, 1.38807
2022-12-02 11:30:54.989918, 1.40274
2022-12-02 11:30:55.001979, 1.38319
2022-12-02 11:30:55.011037, 1.38807
2022-12-02 11:30:55.018081, 1.39296
2022-12-02 11:30:55.030752, 1.39296
2022-12-02 11:30:55.039590, 1.38807
2022-12-02 11:30:55.047367, 1.37830
2022-12-02 11:30:55.055567, 1.37830
2022-12-02 11:30:55.067779, 1.37830
2022-12-02 11:30:55.075777, 1.37341
2022-12-02 11:30:55.084132, 1.37341
2022-12-02 11:30:55.096612, 1.37341
2022-12-02 11:30:55.104183, 1.37341
2022-12-02 11:30:55.113438, 1.39296
2022-12-02 11:30:55.120866, 1.41740
2022-12-02 11:30:55.133911, 1.47605
2022-12-02 11:30:55.140986, 1.55914
2022-12-02 11:30:55.149219, 1.66667
2022-12-02 11:30:55.161645, 1.78397
2022-12-02 11:30:55.170153, 1.90616
2022-12-02 11:30:55.178315, 2.04790
2022-12-02 11:30:55.185929, 2.11632
2022-12-02 11:30:55.198699, 2.19453
2022-12-02 11:30:55.206249, 2.23851
2022-12-02 11:30:55.215257, 2.26784
2022-12-02 11:30:55.223328, 2.26295
2022-12-02 11:30:55.235492, 2.26295
2022-12-02 11:30:55.243985, 2.21408
2022-12-02 11:30:55.252135, 2.17009
2022-12-02 11:30:55.264582, 2.13099
2022-12-02 11:30:55.272431, 2.08700
2022-12-02 11:30:55.280928, 2.04301
2022-12-02 11:30:55.289081, 2.00391
2022-12-02 11:30:55.301292, 1.96481
2022-12-02 11:30:55.309380, 1.93060
2022-12-02 11:30:55.317951, 1.90127
2022-12-02 11:30:55.330361, 1.87195
2022-12-02 11:30:55.337940, 1.85239
2022-12-02 11:30:55.346549, 1.83284
2022-12-02 11:30:55.354263, 1.83284
2022-12-02 11:30:55.366362, 1.79863
2022-12-02 11:30:55.374968, 1.77419
2022-12-02 11:30:55.382365, 1.76931
2022-12-02 11:30:55.394856, 1.73021
2022-12-02 11:30:55.403462, 1.70577
2022-12-02 11:30:55.411832, 1.68133
2022-12-02 11:30:55.419914, 1.66178
2022-12-02 11:30:55.432906, 1.64712
2022-12-02 11:30:55.440466, 1.63245
2022-12-02 11:30:55.447846, 1.63734
2022-12-02 11:30:55.460033, 1.63245
2022-12-02 11:30:55.468395, 1.64712
2022-12-02 11:30:55.476699, 1.64223
2022-12-02 11:30:55.484973, 1.65200
2022-12-02 11:30:55.497701, 1.65200
2022-12-02 11:30:55.506122, 1.65200
2022-12-02 11:30:55.514923, 1.69110
2022-12-02 11:30:55.526634, 1.65200
2022-12-02 11:30:55.534533, 1.64712
2022-12-02 11:30:55.543600, 1.65200
2022-12-02 11:30:55.550958, 1.63734
2022-12-02 11:30:55.563506, 1.62268
2022-12-02 11:30:55.571795, 1.61290
2022-12-02 11:30:55.579746, 1.60313
2022-12-02 11:30:55.591878, 1.58847
2022-12-02 11:30:55.600276, 1.57380
2022-12-02 11:30:55.608380, 1.56403
2022-12-02 11:30:55.616779, 1.53959
2022-12-02 11:30:55.628132, 1.52493
2022-12-02 11:30:55.636928, 1.51026
2022-12-02 11:30:55.645150, 1.49560
2022-12-02 11:30:55.656929, 1.47605
2022-12-02 11:30:55.666392, 1.50049
2022-12-02 11:30:55.673922, 1.45161
2022-12-02 11:30:55.682501, 1.44673
2022-12-02 11:30:55.694639, 1.47116
2022-12-02 11:30:55.701803, 1.42717
2022-12-02 11:30:55.711039, 1.41740
2022-12-02 11:30:55.722748, 1.40762
2022-12-02 11:30:55.731416, 1.40762
2022-12-02 11:30:55.739514, 1.39785
2022-12-02 11:30:55.747851, 1.40274
2022-12-02 11:30:55.759930, 1.39296
2022-12-02 11:30:55.768155, 1.42717
2022-12-02 11:30:55.775468, 1.39296
2022-12-02 11:30:55.788433, 1.38807
2022-12-02 11:30:55.796571, 1.38807
2022-12-02 11:30:55.804770, 1.38319
2022-12-02 11:30:55.812924, 1.37830
2022-12-02 11:30:55.825376, 1.38319
2022-12-02 11:30:55.834288, 1.38319
2022-12-02 11:30:55.842030, 1.37830
2022-12-02 11:30:55.854120, 1.37830
2022-12-02 11:30:55.861797, 1.37830
2022-12-02 11:30:55.870563, 1.41251
2022-12-02 11:30:55.878713, 1.37830
2022-12-02 11:30:55.890940, 1.37830
2022-12-02 11:30:55.898355, 1.37830
2022-12-02 11:30:55.907080, 1.37341
2022-12-02 11:30:55.919574, 1.37341
2022-12-02 11:30:55.927641, 1.36852
2022-12-02 11:30:55.935296, 1.36364
2022-12-02 11:30:55.944304, 1.36852
2022-12-02 11:30:55.955533, 1.36364
2022-12-02 11:30:55.964655, 1.39296
2022-12-02 11:30:55.972788, 1.38319
2022-12-02 11:30:55.985036, 1.41251
2022-12-02 11:30:55.993401, 1.46628
2022-12-02 11:30:56.000646, 1.55914
2022-12-02 11:30:56.010527, 1.67644
2022-12-02 11:30:56.022601, 1.77419
2022-12-02 11:30:56.029948, 1.90127
2022-12-02 11:30:56.038654, 2.02346
2022-12-02 11:30:56.047419, 2.12121
2022-12-02 11:30:56.059072, 2.20919
2022-12-02 11:30:56.067602, 2.27273
2022-12-02 11:30:56.074832, 2.28250
2022-12-02 11:30:56.087769, 2.26784
2022-12-02 11:30:56.096092, 2.25318
2022-12-02 11:30:56.103835, 2.22385
2022-12-02 11:30:56.112861, 2.18475
2022-12-02 11:30:56.124702, 2.14076
2022-12-02 11:30:56.132700, 2.09189
2022-12-02 11:30:56.140772, 2.05279
2022-12-02 11:30:56.153054, 2.00880
2022-12-02 11:30:56.161591, 1.96481
2022-12-02 11:30:56.169298, 1.94526
2022-12-02 11:30:56.177684, 1.89638
2022-12-02 11:30:56.189007, 1.86706
2022-12-02 11:30:56.196983, 1.84262
2022-12-02 11:30:56.206407, 1.82307
2022-12-02 11:30:56.218155, 1.80841
2022-12-02 11:30:56.226598, 1.79374
2022-12-02 11:30:56.234258, 1.76931
2022-12-02 11:30:56.243004, 1.74487
2022-12-02 11:30:56.254868, 1.71554
2022-12-02 11:30:56.262931, 1.69110
2022-12-02 11:30:56.271895, 1.66667
2022-12-02 11:30:56.284099, 1.64712
2022-12-02 11:30:56.292386, 1.63734
2022-12-02 11:30:56.300549, 1.63245
2022-12-02 11:30:56.309213, 1.63245
2022-12-02 11:30:56.320867, 1.62757
2022-12-02 11:30:56.329158, 1.64223
2022-12-02 11:30:56.337457, 1.63734
2022-12-02 11:30:56.349562, 1.65689
2022-12-02 11:30:56.357769, 1.65689
2022-12-02 11:30:56.366814, 1.65689
2022-12-02 11:30:56.374106, 1.65689
2022-12-02 11:30:56.386593, 1.65689
2022-12-02 11:30:56.394490, 1.65200
2022-12-02 11:30:56.402980, 1.64712
2022-12-02 11:30:56.415735, 1.63734
2022-12-02 11:30:56.423742, 1.62757
2022-12-02 11:30:56.431976, 1.63245
2022-12-02 11:30:56.440076, 1.60313
2022-12-02 11:30:56.451841, 1.58847
2022-12-02 11:30:56.460386, 1.60802
2022-12-02 11:30:56.468487, 1.56891
2022-12-02 11:30:56.481595, 1.57380
2022-12-02 11:30:56.488950, 1.52493
2022-12-02 11:30:56.497979, 1.50538
2022-12-02 11:30:56.505123, 1.49560
2022-12-02 11:30:56.517244, 1.48094
2022-12-02 11:30:56.526667, 1.46628
2022-12-02 11:30:56.533820, 1.45650
2022-12-02 11:30:56.547058, 1.44184
2022-12-02 11:30:56.555235, 1.43695
2022-12-02 11:30:56.563484, 1.43206
2022-12-02 11:30:56.570811, 1.41740
2022-12-02 11:30:56.583747, 1.41251
2022-12-02 11:30:56.591490, 1.40762
2022-12-02 11:30:56.599788, 1.40274
2022-12-02 11:30:56.611723, 1.40274
2022-12-02 11:30:56.620481, 1.40274
2022-12-02 11:30:56.628048, 1.39785
2022-12-02 11:30:56.636254, 1.39785
2022-12-02 11:30:56.647774, 1.39296
2022-12-02 11:30:56.657081, 1.39296
2022-12-02 11:30:56.665297, 1.39785
2022-12-02 11:30:56.677668, 1.39785
2022-12-02 11:30:56.685702, 1.38807
2022-12-02 11:30:56.693909, 1.39296
2022-12-02 11:30:56.701432, 1.39785
2022-12-02 11:30:56.714308, 1.38807
2022-12-02 11:30:56.721978, 1.38807
2022-12-02 11:30:56.730746, 1.38319
2022-12-02 11:30:56.743598, 1.38807
2022-12-02 11:30:56.751098, 1.39296
2022-12-02 11:30:56.759493, 1.39785
2022-12-02 11:30:56.767388, 1.38807
2022-12-02 11:30:56.779785, 1.39296
2022-12-02 11:30:56.787934, 1.39296
2022-12-02 11:30:56.796331, 1.40274
2022-12-02 11:30:56.809181, 1.39296
2022-12-02 11:30:56.817357, 1.38807
2022-12-02 11:30:56.824903, 1.38807
2022-12-02 11:30:56.833750, 1.38807
2022-12-02 11:30:56.846043, 1.38319
2022-12-02 11:30:56.853677, 1.37830
2022-12-02 11:30:56.862390, 1.37830
2022-12-02 11:30:56.873593, 1.37830
2022-12-02 11:30:56.882458, 1.39785
2022-12-02 11:30:56.890166, 1.42717
2022-12-02 11:30:56.898281, 1.48583
2022-12-02 11:30:56.911622, 1.57380
2022-12-02 11:30:56.918872, 1.68622
2022-12-02 11:30:56.927836, 1.80352
2022-12-02 11:30:56.935104, 1.93060
2022-12-02 11:30:56.947924, 2.05279
2022-12-02 11:30:56.955314, 2.15543
2022-12-02 11:30:56.964251, 2.21896
2022-12-02 11:30:56.977087, 2.26784
2022-12-02 11:30:56.983810, 2.28739
2022-12-02 11:30:56.993501, 2.32160
2022-12-02 11:30:57.000512, 2.26784
2022-12-02 11:30:57.013216, 2.23363
2022-12-02 11:30:57.021693, 2.19453
2022-12-02 11:30:57.030365, 2.15054
2022-12-02 11:30:57.042075, 2.10655
2022-12-02 11:30:57.049984, 2.05767
2022-12-02 11:30:57.058411, 2.01369
2022-12-02 11:30:57.066813, 1.97458
2022-12-02 11:30:57.079042, 1.93548
2022-12-02 11:30:57.087350, 1.89638
2022-12-02 11:30:57.095238, 1.86706
2022-12-02 11:30:57.107429, 1.83773
2022-12-02 11:30:57.115886, 1.81818
2022-12-02 11:30:57.123315, 1.79863
2022-12-02 11:30:57.131668, 1.77419
2022-12-02 11:30:57.145068, 1.75953
2022-12-02 11:30:57.152348, 1.72532
2022-12-02 11:30:57.161529, 1.70088
2022-12-02 11:30:57.173422, 1.68622
2022-12-02 11:30:57.181647, 1.67155
2022-12-02 11:30:57.189577, 1.65200
2022-12-02 11:30:57.197005, 1.64712
2022-12-02 11:30:57.210176, 1.64223
2022-12-02 11:30:57.217841, 1.64712
2022-12-02 11:30:57.226656, 1.65689
2022-12-02 11:30:57.238850, 1.66178
2022-12-02 11:30:57.247341, 1.67155
2022-12-02 11:30:57.254922, 1.68133
2022-12-02 11:30:57.262947, 1.69110
2022-12-02 11:30:57.275174, 1.69599
2022-12-02 11:30:57.283649, 1.69599
2022-12-02 11:30:57.291642, 1.70088
2022-12-02 11:30:57.303960, 1.69599
2022-12-02 11:30:57.312472, 1.72532
2022-12-02 11:30:57.320599, 1.68133
2022-12-02 11:30:57.328148, 1.70577
2022-12-02 11:30:57.340591, 1.65689
2022-12-02 11:30:57.348423, 1.64223
2022-12-02 11:30:57.356995, 1.64223
2022-12-02 11:30:57.368901, 1.61290
2022-12-02 11:30:57.377500, 1.59335
2022-12-02 11:30:57.386003, 1.57380
2022-12-02 11:30:57.393903, 1.55914
2022-12-02 11:30:57.405719, 1.54448
2022-12-02 11:30:57.414060, 1.52981
2022-12-02 11:30:57.422391, 1.53959
2022-12-02 11:30:57.434405, 1.53470
2022-12-02 11:30:57.443343, 1.48583
2022-12-02 11:30:57.451387, 1.47605
2022-12-02 11:30:57.459973, 1.46628
2022-12-02 11:30:57.472365, 1.46139
2022-12-02 11:30:57.480946, 1.46139
2022-12-02 11:30:57.488669, 1.45161
2022-12-02 11:30:57.500157, 1.45161
2022-12-02 11:30:57.508049, 1.44184
2022-12-02 11:30:57.516716, 1.44184
2022-12-02 11:30:57.524445, 1.44184
2022-12-02 11:30:57.537520, 1.43695
2022-12-02 11:30:57.545099, 1.43206
2022-12-02 11:30:57.553646, 1.45161
2022-12-02 11:30:57.565908, 1.43695
2022-12-02 11:30:57.574668, 1.42717
2022-12-02 11:30:57.582453, 1.44184
2022-12-02 11:30:57.590233, 1.42717
2022-12-02 11:30:57.603576, 1.45650
2022-12-02 11:30:57.611434, 1.42229
2022-12-02 11:30:57.619313, 1.45161
2022-12-02 11:30:57.632026, 1.42229
2022-12-02 11:30:57.640091, 1.42229
2022-12-02 11:30:57.648587, 1.42229
2022-12-02 11:30:57.656390, 1.41740
2022-12-02 11:30:57.668059, 1.42229
2022-12-02 11:30:57.676342, 1.43206
2022-12-02 11:30:57.684814, 1.41740
2022-12-02 11:30:57.698127, 1.44673
2022-12-02 11:30:57.705239, 1.41251
2022-12-02 11:30:57.714339, 1.40762
2022-12-02 11:30:57.721776, 1.40762
2022-12-02 11:30:57.733787, 1.39785
2022-12-02 11:30:57.743162, 1.40274
2022-12-02 11:30:57.750010, 1.39785
2022-12-02 11:30:57.759569, 1.40274
2022-12-02 11:30:57.771484, 1.41251
2022-12-02 11:30:57.778674, 1.43695
2022-12-02 11:30:57.787655, 1.49071
2022-12-02 11:30:57.799929, 1.56891
2022-12-02 11:30:57.808037, 1.67155
2022-12-02 11:30:57.816280, 1.79374
2022-12-02 11:30:57.824515, 1.91593
2022-12-02 11:30:57.836220, 2.03812
2022-12-02 11:30:57.844703, 2.13587
2022-12-02 11:30:57.853297, 2.20919
2022-12-02 11:30:57.865583, 2.26295
2022-12-02 11:30:57.872659, 2.28250
2022-12-02 11:30:57.881785, 2.31672
2022-12-02 11:30:57.889645, 2.26784
2022-12-02 11:30:57.902097, 2.24829
2022-12-02 11:30:57.909887, 2.19941
2022-12-02 11:30:57.918459, 2.15543
2022-12-02 11:30:57.931475, 2.11144
2022-12-02 11:30:57.939131, 2.06745
2022-12-02 11:30:57.947325, 2.01857
2022-12-02 11:30:57.955122, 1.97458
2022-12-02 11:30:57.967539, 1.93548
2022-12-02 11:30:57.976091, 1.90127
2022-12-02 11:30:57.983498, 1.89638
2022-12-02 11:30:57.996256, 1.84751
2022-12-02 11:30:58.003790, 1.82307
2022-12-02 11:30:58.012634, 1.80841
2022-12-02 11:30:58.021079, 1.78397
2022-12-02 11:30:58.033520, 1.75953
2022-12-02 11:30:58.041461, 1.73509
2022-12-02 11:30:58.050189, 1.71065
2022-12-02 11:30:58.062571, 1.68622
2022-12-02 11:30:58.070769, 1.66178
2022-12-02 11:30:58.078509, 1.66178
2022-12-02 11:30:58.086511, 1.63734
2022-12-02 11:30:58.099002, 1.63245
2022-12-02 11:30:58.106965, 1.62757
2022-12-02 11:30:58.115355, 1.63245
2022-12-02 11:30:58.127511, 1.66178
2022-12-02 11:30:58.135374, 1.64712
2022-12-02 11:30:58.144011, 1.65200
2022-12-02 11:30:58.151241, 1.65689
2022-12-02 11:30:58.164519, 1.66667
2022-12-02 11:30:58.172034, 1.70088
2022-12-02 11:30:58.180604, 1.66178
2022-12-02 11:30:58.193678, 1.66178
2022-12-02 11:30:58.201030, 1.65689
2022-12-02 11:30:58.210021, 1.65200
2022-12-02 11:30:58.217187, 1.63734
2022-12-02 11:30:58.230494, 1.62757
2022-12-02 11:30:58.238016, 1.61290
2022-12-02 11:30:58.246986, 1.59824
2022-12-02 11:30:58.258047, 1.58358
2022-12-02 11:30:58.266611, 1.56891
2022-12-02 11:30:58.274984, 1.54936
2022-12-02 11:30:58.282969, 1.52981
2022-12-02 11:30:58.295598, 1.51515
2022-12-02 11:30:58.303437, 1.53470
2022-12-02 11:30:58.311958, 1.48583
2022-12-02 11:30:58.323811, 1.47116
2022-12-02 11:30:58.332351, 1.49071
2022-12-02 11:30:58.340447, 1.44673
2022-12-02 11:30:58.348172, 1.43695
2022-12-02 11:30:58.361171, 1.42717
2022-12-02 11:30:58.368288, 1.41740
2022-12-02 11:30:58.377125, 1.41251
2022-12-02 11:30:58.389287, 1.40762
2022-12-02 11:30:58.397401, 1.40274
2022-12-02 11:30:58.405915, 1.39785
2022-12-02 11:30:58.413624, 1.39785
2022-12-02 11:30:58.426563, 1.39296
2022-12-02 11:30:58.434202, 1.39785
2022-12-02 11:30:58.442917, 1.39296
2022-12-02 11:30:58.455118, 1.39296
2022-12-02 11:30:58.463435, 1.38807
2022-12-02 11:30:58.471245, 1.38807
2022-12-02 11:30:58.479945, 1.38807
2022-12-02 11:30:58.492087, 1.38807
2022-12-02 11:30:58.499803, 1.41740
2022-12-02 11:30:58.508335, 1.38807
2022-12-02 11:30:58.520187, 1.38807
2022-12-02 11:30:58.529586, 1.38807
2022-12-02 11:30:58.536484, 1.39296
2022-12-02 11:30:58.545993, 1.39785
2022-12-02 11:30:58.558161, 1.39296
2022-12-02 11:30:58.565172, 1.39296
2022-12-02 11:30:58.573819, 1.39785
2022-12-02 11:30:58.581047, 1.39296
2022-12-02 11:30:58.594534, 1.39785
2022-12-02 11:30:58.602489, 1.42229
2022-12-02 11:30:58.610658, 1.39785
2022-12-02 11:30:58.622944, 1.40762
2022-12-02 11:30:58.630532, 1.40274
2022-12-02 11:30:58.639530, 1.40762
2022-12-02 11:30:58.647892, 1.42717
2022-12-02 11:30:58.659996, 1.45161
2022-12-02 11:30:58.668218, 1.50049
2022-12-02 11:30:58.676351, 1.56891
2022-12-02 11:30:58.688269, 1.68133
2022-12-02 11:30:58.697447, 1.76442
2022-12-02 11:30:58.704718, 1.88661
2022-12-02 11:30:58.713909, 2.00391
2022-12-02 11:30:58.725809, 2.11632
2022-12-02 11:30:58.733243, 2.19941
2022-12-02 11:30:58.741868, 2.26784
2022-12-02 11:30:58.753811, 2.30205
2022-12-02 11:30:58.762626, 2.32160
2022-12-02 11:30:58.771194, 2.30205
2022-12-02 11:30:58.779470, 2.27761
2022-12-02 11:30:58.791194, 2.23851
2022-12-02 11:30:58.798551, 2.19453
2022-12-02 11:30:58.807465, 2.15054
2022-12-02 11:30:58.819721, 2.10166
2022-12-02 11:30:58.827299, 2.05767
2022-12-02 11:30:58.835690, 2.00880
2022-12-02 11:30:58.844004, 1.97458
2022-12-02 11:30:58.855920, 1.95015
2022-12-02 11:30:58.864070, 1.89638
2022-12-02 11:30:58.872600, 1.90127
2022-12-02 11:30:58.885177, 1.84751
2022-12-02 11:30:58.893575, 1.82796
2022-12-02 11:30:58.900636, 1.80841
2022-12-02 11:30:58.910564, 1.78886
2022-12-02 11:30:58.921251, 1.76931
2022-12-02 11:30:58.929824, 1.78397
2022-12-02 11:30:58.937638, 1.72043
2022-12-02 11:30:58.950463, 1.69599
2022-12-02 11:30:58.959143, 1.67155
2022-12-02 11:30:58.966468, 1.65200
2022-12-02 11:30:58.975587, 1.64223
2022-12-02 11:30:58.987586, 1.63245
2022-12-02 11:30:58.995535, 1.63245
2022-12-02 11:30:59.004245, 1.63734
2022-12-02 11:30:59.016356, 1.63734
2022-12-02 11:30:59.024472, 1.64223
2022-12-02 11:30:59.033130, 1.64712
2022-12-02 11:30:59.040498, 1.66178
2022-12-02 11:30:59.052852, 1.65200
2022-12-02 11:30:59.060961, 1.65689
2022-12-02 11:30:59.070159, 1.65689
2022-12-02 11:30:59.082018, 1.65689
2022-12-02 11:30:59.089847, 1.65689
2022-12-02 11:30:59.098684, 1.65200
2022-12-02 11:30:59.106513, 1.64223
2022-12-02 11:30:59.118349, 1.65689
2022-12-02 11:30:59.127500, 1.62757
2022-12-02 11:30:59.134833, 1.60802
2022-12-02 11:30:59.147509, 1.59335
2022-12-02 11:30:59.154925, 1.57380
2022-12-02 11:30:59.163906, 1.56403
2022-12-02 11:30:59.171440, 1.54936
2022-12-02 11:30:59.183274, 1.52493
2022-12-02 11:30:59.192140, 1.51026
2022-12-02 11:30:59.200535, 1.49071
2022-12-02 11:30:59.213043, 1.47605
2022-12-02 11:30:59.221346, 1.46139
2022-12-02 11:30:59.229391, 1.45161
2022-12-02 11:30:59.237297, 1.43695
2022-12-02 11:30:59.248822, 1.43206
2022-12-02 11:30:59.258652, 1.42717
2022-12-02 11:30:59.266235, 1.43206
2022-12-02 11:30:59.279059, 1.43206
2022-12-02 11:30:59.286365, 1.44184
2022-12-02 11:30:59.294928, 1.44673
2022-12-02 11:30:59.302852, 1.41251
2022-12-02 11:30:59.314329, 1.40762
2022-12-02 11:30:59.323329, 1.41251
2022-12-02 11:30:59.331629, 1.40762
2022-12-02 11:30:59.343926, 1.40274
2022-12-02 11:30:59.351616, 1.40274
2022-12-02 11:30:59.360251, 1.41251
2022-12-02 11:30:59.367917, 1.40274
2022-12-02 11:30:59.380713, 1.40762
2022-12-02 11:30:59.388965, 1.41251
2022-12-02 11:30:59.397129, 1.43206
2022-12-02 11:30:59.409171, 1.40762
2022-12-02 11:30:59.417199, 1.42229
2022-12-02 11:30:59.426348, 1.41251
2022-12-02 11:30:59.434037, 1.40762
2022-12-02 11:30:59.447111, 1.40762
2022-12-02 11:30:59.454471, 1.40762
2022-12-02 11:30:59.462424, 1.40274
2022-12-02 11:30:59.470026, 1.40274
2022-12-02 11:30:59.482945, 1.40762
2022-12-02 11:30:59.491519, 1.43206
2022-12-02 11:30:59.499716, 1.43695
2022-12-02 11:30:59.512187, 1.40274
2022-12-02 11:30:59.520009, 1.43695
2022-12-02 11:30:59.528234, 1.40274
2022-12-02 11:30:59.536669, 1.41251
2022-12-02 11:30:59.548895, 1.44673
2022-12-02 11:30:59.556895, 1.47605
2022-12-02 11:30:59.564419, 1.54936
2022-12-02 11:30:59.577276, 1.64712
2022-12-02 11:30:59.585150, 1.77419
2022-12-02 11:30:59.593066, 1.88172
2022-12-02 11:30:59.601880, 1.99902
2022-12-02 11:30:59.613994, 2.13587
2022-12-02 11:30:59.622162, 2.18475
2022-12-02 11:30:59.630142, 2.24340
2022-12-02 11:30:59.642258, 2.27761
2022-12-02 11:30:59.650350, 2.28250
2022-12-02 11:30:59.658880, 2.27273
2022-12-02 11:30:59.666602, 2.27761
2022-12-02 11:30:59.679180, 2.21408
2022-12-02 11:30:59.687330, 2.17009
2022-12-02 11:30:59.696305, 2.12610
2022-12-02 11:30:59.708029, 2.08211
2022-12-02 11:30:59.716426, 2.03324
2022-12-02 11:30:59.725650, 1.99902
2022-12-02 11:30:59.732573, 1.96481
2022-12-02 11:30:59.746043, 1.93060
2022-12-02 11:30:59.754208, 1.88172
2022-12-02 11:30:59.761821, 1.85239
2022-12-02 11:30:59.774782, 1.82796
2022-12-02 11:30:59.782824, 1.80841
2022-12-02 11:30:59.790613, 1.81818
2022-12-02 11:30:59.798532, 1.77419
2022-12-02 11:30:59.811505, 1.74976
2022-12-02 11:30:59.819281, 1.72532
2022-12-02 11:30:59.827505, 1.70088
2022-12-02 11:30:59.839305, 1.69599
2022-12-02 11:30:59.848039, 1.66178
2022-12-02 11:30:59.856029, 1.65200
2022-12-02 11:30:59.864469, 1.64712
2022-12-02 11:30:59.876260, 1.64712
2022-12-02 11:30:59.884603, 1.65689
2022-12-02 11:30:59.892392, 1.66178
2022-12-02 11:30:59.905536, 1.67155
2022-12-02 11:30:59.913943, 1.68622
2022-12-02 11:30:59.920937, 1.70088
2022-12-02 11:30:59.930289, 1.70088
2022-12-02 11:30:59.942791, 1.72043
2022-12-02 11:30:59.949227, 1.71554
2022-12-02 11:30:59.957645, 1.71065
2022-12-02 11:30:59.970401, 1.70577
2022-12-02 11:30:59.978007, 1.70577
2022-12-02 11:30:59.986923, 1.69110
2022-12-02 11:30:59.995500, 1.67644
2022-12-02 11:31:00.007217, 1.66667
2022-12-02 11:31:00.014988, 1.68133
2022-12-02 11:31:00.023495, 1.63734
2022-12-02 11:31:00.035561, 1.61779
2022-12-02 11:31:00.044037, 1.60313
2022-12-02 11:31:00.052426, 1.59335
2022-12-02 11:31:00.060787, 1.56891
2022-12-02 11:31:00.072953, 1.58847
2022-12-02 11:31:00.081465, 1.54448
2022-12-02 11:31:00.089099, 1.52981
2022-12-02 11:31:00.101678, 1.52004
2022-12-02 11:31:00.109978, 1.50538
2022-12-02 11:31:00.118086, 1.50049
2022-12-02 11:31:00.125850, 1.50538
2022-12-02 11:31:00.137751, 1.48094
2022-12-02 11:31:00.147100, 1.47605
2022-12-02 11:31:00.154941, 1.47116
2022-12-02 11:31:00.166591, 1.46628
2022-12-02 11:31:00.175536, 1.49071
2022-12-02 11:31:00.183038, 1.49071
2022-12-02 11:31:00.191260, 1.46628
2022-12-02 11:31:00.203670, 1.45650
2022-12-02 11:31:00.211532, 1.45161
2022-12-02 11:31:00.220024, 1.44673
2022-12-02 11:31:00.232250, 1.44673
2022-12-02 11:31:00.240920, 1.45161
2022-12-02 11:31:00.249118, 1.44673
2022-12-02 11:31:00.257440, 1.46139
2022-12-02 11:31:00.269563, 1.44184
2022-12-02 11:31:00.277546, 1.44184
2022-12-02 11:31:00.285934, 1.44184
2022-12-02 11:31:00.294133, 1.47605
2022-12-02 11:31:00.306512, 1.43695
2022-12-02 11:31:00.314862, 1.45650
2022-12-02 11:31:00.322721, 1.43206
2022-12-02 11:31:00.335226, 1.46628
2022-12-02 11:31:00.343640, 1.42717
2022-12-02 11:31:00.351524, 1.42229
2022-12-02 11:31:00.359708, 1.41740
2022-12-02 11:31:00.371866, 1.41251
2022-12-02 11:31:00.380183, 1.41251
2022-12-02 11:31:00.387993, 1.42229
2022-12-02 11:31:00.400092, 1.44184
2022-12-02 11:31:00.408979, 1.51026
2022-12-02 11:31:00.416881, 1.56403
2022-12-02 11:31:00.425771, 1.66667
2022-12-02 11:31:00.437639, 1.77908
2022-12-02 11:31:00.445825, 1.89150
2022-12-02 11:31:00.453920, 2.01369
2022-12-02 11:31:00.465800, 2.10655
2022-12-02 11:31:00.474258, 2.18475
2022-12-02 11:31:00.482890, 2.23851
2022-12-02 11:31:00.491026, 2.26295
2022-12-02 11:31:00.502521, 2.30205
2022-12-02 11:31:00.510934, 2.25318
2022-12-02 11:31:00.519335, 2.22385
2022-12-02 11:31:00.531276, 2.18475
2022-12-02 11:31:00.539558, 2.14076
2022-12-02 11:31:00.547899, 2.09677
2022-12-02 11:31:00.556562, 2.05279
2022-12-02 11:31:00.568364, 2.00391
2022-12-02 11:31:00.575884, 1.96481
2022-12-02 11:31:00.584528, 1.94037
2022-12-02 11:31:00.597844, 1.89150
2022-12-02 11:31:00.605677, 1.86706
2022-12-02 11:31:00.613629, 1.83773
2022-12-02 11:31:00.621730, 1.81329
2022-12-02 11:31:00.633674, 1.79374
2022-12-02 11:31:00.641763, 1.77419
2022-12-02 11:31:00.650157, 1.75464
2022-12-02 11:31:00.662696, 1.73021
2022-12-02 11:31:00.670488, 1.70577
2022-12-02 11:31:00.678779, 1.68133
2022-12-02 11:31:00.687014, 1.65689
2022-12-02 11:31:00.699309, 1.65689
2022-12-02 11:31:00.707994, 1.64712
2022-12-02 11:31:00.715887, 1.62757
2022-12-02 11:31:00.728349, 1.63734
2022-12-02 11:31:00.736332, 1.62757
2022-12-02 11:31:00.744775, 1.67155
2022-12-02 11:31:00.752924, 1.64712
2022-12-02 11:31:00.764540, 1.65200
2022-12-02 11:31:00.773196, 1.66667
2022-12-02 11:31:00.781513, 1.66667
2022-12-02 11:31:00.794207, 1.66667
2022-12-02 11:31:00.801629, 1.66667
2022-12-02 11:31:00.809807, 1.66667
2022-12-02 11:31:00.818494, 1.66178
2022-12-02 11:31:00.831151, 1.65200
2022-12-02 11:31:00.839034, 1.64712
2022-12-02 11:31:00.847015, 1.63734
2022-12-02 11:31:00.859294, 1.61779
2022-12-02 11:31:00.867451, 1.59824
2022-12-02 11:31:00.876043, 1.59335
2022-12-02 11:31:00.883994, 1.56891
2022-12-02 11:31:00.896753, 1.55425
2022-12-02 11:31:00.904479, 1.53959
2022-12-02 11:31:00.912706, 1.52493
2022-12-02 11:31:00.925272, 1.50049
2022-12-02 11:31:00.933214, 1.48583
2022-12-02 11:31:00.941458, 1.47116
2022-12-02 11:31:00.948948, 1.46139
2022-12-02 11:31:00.961755, 1.44673
2022-12-02 11:31:00.969945, 1.44184
2022-12-02 11:31:00.978773, 1.43206
2022-12-02 11:31:00.990228, 1.43695
2022-12-02 11:31:00.998908, 1.44184
2022-12-02 11:31:01.006809, 1.44673
2022-12-02 11:31:01.015294, 1.40762
2022-12-02 11:31:01.027205, 1.40762
2022-12-02 11:31:01.035492, 1.40274
2022-12-02 11:31:01.043894, 1.39785
2022-12-02 11:31:01.056091, 1.40274
2022-12-02 11:31:01.064875, 1.39785
2022-12-02 11:31:01.071756, 1.39296
2022-12-02 11:31:01.080764, 1.39785
2022-12-02 11:31:01.093194, 1.42717
2022-12-02 11:31:01.100455, 1.39296
2022-12-02 11:31:01.109339, 1.39296
2022-12-02 11:31:01.121581, 1.39296
2022-12-02 11:31:01.129444, 1.40762
2022-12-02 11:31:01.137717, 1.39296
2022-12-02 11:31:01.145954, 1.38807
2022-12-02 11:31:01.158247, 1.38807
2022-12-02 11:31:01.166329, 1.38807
2022-12-02 11:31:01.174892, 1.38319
2022-12-02 11:31:01.183068, 1.38319
2022-12-02 11:31:01.195578, 1.41251
2022-12-02 11:31:01.203361, 1.37341
2022-12-02 11:31:01.211959, 1.37830
2022-12-02 11:31:01.223628, 1.37830
2022-12-02 11:31:01.231778, 1.37341
2022-12-02 11:31:01.240864, 1.39296
2022-12-02 11:31:01.248669, 1.40762
2022-12-02 11:31:01.261122, 1.44673
2022-12-02 11:31:01.269167, 1.51515
2022-12-02 11:31:01.276494, 1.61290
2022-12-02 11:31:01.289888, 1.73021
2022-12-02 11:31:01.297226, 1.85728
2022-12-02 11:31:01.306021, 1.98436
2022-12-02 11:31:01.314007, 2.08700
2022-12-02 11:31:01.326540, 2.18475
2022-12-02 11:31:01.334518, 2.23851
2022-12-02 11:31:01.342860, 2.27761
2022-12-02 11:31:01.354811, 2.28739
2022-12-02 11:31:01.363175, 2.27761
2022-12-02 11:31:01.370729, 2.25318
2022-12-02 11:31:01.379665, 2.24829
2022-12-02 11:31:01.391031, 2.17498
2022-12-02 11:31:01.399792, 2.13099
2022-12-02 11:31:01.408860, 2.10166
2022-12-02 11:31:01.419730, 2.05767
2022-12-02 11:31:01.428962, 2.00391
2022-12-02 11:31:01.436645, 1.96481
2022-12-02 11:31:01.445865, 1.93060
2022-12-02 11:31:01.457899, 1.90616
2022-12-02 11:31:01.465395, 1.87683
2022-12-02 11:31:01.474203, 1.85239
2022-12-02 11:31:01.485489, 1.83284
2022-12-02 11:31:01.494774, 1.82796
2022-12-02 11:31:01.502492, 1.79863
2022-12-02 11:31:01.510255, 1.77908
2022-12-02 11:31:01.522619, 1.75464
2022-12-02 11:31:01.531158, 1.73021
2022-12-02 11:31:01.539533, 1.70577
2022-12-02 11:31:01.551833, 1.68133
2022-12-02 11:31:01.559072, 1.68133
2022-12-02 11:31:01.568049, 1.65689
2022-12-02 11:31:01.576290, 1.64712
2022-12-02 11:31:01.588549, 1.65200
2022-12-02 11:31:01.596663, 1.65200
2022-12-02 11:31:01.604844, 1.66667
2022-12-02 11:31:01.616098, 1.66178
2022-12-02 11:31:01.624991, 1.66667
2022-12-02 11:31:01.633720, 1.70577
2022-12-02 11:31:01.641025, 1.67644
2022-12-02 11:31:01.654202, 1.67644
2022-12-02 11:31:01.662610, 1.67155
2022-12-02 11:31:01.670266, 1.67155
2022-12-02 11:31:01.682265, 1.68133
2022-12-02 11:31:01.691283, 1.65689
2022-12-02 11:31:01.698310, 1.64223
2022-12-02 11:31:01.707774, 1.65689
2022-12-02 11:31:01.719824, 1.61779
2022-12-02 11:31:01.728001, 1.60313
2022-12-02 11:31:01.736193, 1.58847
2022-12-02 11:31:01.747440, 1.59824
2022-12-02 11:31:01.756501, 1.55425
2022-12-02 11:31:01.764697, 1.53470
2022-12-02 11:31:01.773086, 1.52004
2022-12-02 11:31:01.785413, 1.51515
2022-12-02 11:31:01.793772, 1.49071
2022-12-02 11:31:01.801772, 1.47605
2022-12-02 11:31:01.814018, 1.46628
2022-12-02 11:31:01.821800, 1.45650
2022-12-02 11:31:01.830395, 1.47605
2022-12-02 11:31:01.838408, 1.44184
2022-12-02 11:31:01.850260, 1.43695
2022-12-02 11:31:01.859211, 1.42717
2022-12-02 11:31:01.867173, 1.42229
2022-12-02 11:31:01.879055, 1.42229
2022-12-02 11:31:01.886958, 1.41740
2022-12-02 11:31:01.895860, 1.41740
2022-12-02 11:31:01.904256, 1.40762
2022-12-02 11:31:01.916156, 1.41251
2022-12-02 11:31:01.923769, 1.41251
2022-12-02 11:31:01.931842, 1.41251
2022-12-02 11:31:01.945162, 1.41251
2022-12-02 11:31:01.952931, 1.41740
2022-12-02 11:31:01.961860, 1.41251
2022-12-02 11:31:01.969726, 1.41251
2022-12-02 11:31:01.981794, 1.40274
2022-12-02 11:31:01.989304, 1.41251
2022-12-02 11:31:01.998237, 1.40762
2022-12-02 11:31:02.006483, 1.40274
2022-12-02 11:31:02.017923, 1.40274
2022-12-02 11:31:02.026511, 1.40274
2022-12-02 11:31:02.034861, 1.39785
2022-12-02 11:31:02.046537, 1.40274
2022-12-02 11:31:02.055010, 1.39296
2022-12-02 11:31:02.063641, 1.39296
2022-12-02 11:31:02.071491, 1.39296
2022-12-02 11:31:02.083825, 1.39296
2022-12-02 11:31:02.092032, 1.38807
2022-12-02 11:31:02.100487, 1.39785
2022-12-02 11:31:02.112354, 1.41740
2022-12-02 11:31:02.120986, 1.46139
2022-12-02 11:31:02.129012, 1.53959
2022-12-02 11:31:02.137273, 1.62268
2022-12-02 11:31:02.149208, 1.74487
2022-12-02 11:31:02.157877, 1.86706
2022-12-02 11:31:02.165454, 1.98436
2022-12-02 11:31:02.178785, 2.08700
2022-12-02 11:31:02.186064, 2.17498
2022-12-02 11:31:02.194681, 2.23851
2022-12-02 11:31:02.202910, 2.26784
2022-12-02 11:31:02.215041, 2.27761
2022-12-02 11:31:02.223784, 2.27273
2022-12-02 11:31:02.231779, 2.24340
2022-12-02 11:31:02.244055, 2.24340
2022-12-02 11:31:02.252187, 2.18475
2022-12-02 11:31:02.260471, 2.12121
2022-12-02 11:31:02.268370, 2.08211
2022-12-02 11:31:02.280424, 2.03812
2022-12-02 11:31:02.288992, 2.01857
2022-12-02 11:31:02.297445, 1.99413
2022-12-02 11:31:02.309587, 1.93060
2022-12-02 11:31:02.317886, 1.90127
2022-12-02 11:31:02.325950, 1.87683
2022-12-02 11:31:02.333992, 1.85728
2022-12-02 11:31:02.346898, 1.83284
2022-12-02 11:31:02.354420, 1.81818
2022-12-02 11:31:02.363008, 1.80352
2022-12-02 11:31:02.375189, 1.77908
2022-12-02 11:31:02.383194, 1.75464
2022-12-02 11:31:02.391332, 1.73021
2022-12-02 11:31:02.399366, 1.71065
2022-12-02 11:31:02.412078, 1.68622
2022-12-02 11:31:02.419270, 1.67155
2022-12-02 11:31:02.427738, 1.67155
2022-12-02 11:31:02.440421, 1.66178
2022-12-02 11:31:02.448228, 1.66667
2022-12-02 11:31:02.456903, 1.67155
2022-12-02 11:31:02.464553, 1.68133
2022-12-02 11:31:02.476833, 1.68622
2022-12-02 11:31:02.485118, 1.70088
2022-12-02 11:31:02.493259, 1.70088
2022-12-02 11:31:02.505392, 1.70088
2022-12-02 11:31:02.513499, 1.70577
2022-12-02 11:31:02.521796, 1.70088
2022-12-02 11:31:02.530745, 1.73021
2022-12-02 11:31:02.542368, 1.68622
2022-12-02 11:31:02.551305, 1.67644
2022-12-02 11:31:02.559507, 1.66667
2022-12-02 11:31:02.571488, 1.66178
2022-12-02 11:31:02.579979, 1.63734
2022-12-02 11:31:02.587958, 1.62268
2022-12-02 11:31:02.596393, 1.60802
2022-12-02 11:31:02.608867, 1.58847
2022-12-02 11:31:02.616253, 1.56891
2022-12-02 11:31:02.625111, 1.57869
2022-12-02 11:31:02.637390, 1.54448
2022-12-02 11:31:02.645783, 1.52981
2022-12-02 11:31:02.653773, 1.54448
2022-12-02 11:31:02.661907, 1.50538
2022-12-02 11:31:02.674292, 1.49071
2022-12-02 11:31:02.681788, 1.48583
2022-12-02 11:31:02.690908, 1.47605
2022-12-02 11:31:02.702614, 1.47116
2022-12-02 11:31:02.711050, 1.46628
2022-12-02 11:31:02.718925, 1.49560
2022-12-02 11:31:02.727245, 1.46628
2022-12-02 11:31:02.739133, 1.45161
2022-12-02 11:31:02.747865, 1.45650
2022-12-02 11:31:02.756007, 1.45161
2022-12-02 11:31:02.768767, 1.45161
2022-12-02 11:31:02.776543, 1.45161
2022-12-02 11:31:02.784492, 1.45650
2022-12-02 11:31:02.793102, 1.44673
2022-12-02 11:31:02.805073, 1.44673
2022-12-02 11:31:02.813777, 1.44673
2022-12-02 11:31:02.821458, 1.46139
2022-12-02 11:31:02.829970, 1.44673
2022-12-02 11:31:02.842281, 1.46139
2022-12-02 11:31:02.850054, 1.48094
2022-12-02 11:31:02.857456, 1.44673
2022-12-02 11:31:02.869953, 1.44673
2022-12-02 11:31:02.878788, 1.44673
2022-12-02 11:31:02.887272, 1.44184
2022-12-02 11:31:02.895420, 1.45161
2022-12-02 11:31:02.907907, 1.43695
2022-12-02 11:31:02.915798, 1.43695
2022-12-02 11:31:02.923967, 1.43695
2022-12-02 11:31:02.936313, 1.42717
2022-12-02 11:31:02.944912, 1.43695
2022-12-02 11:31:02.952401, 1.45161
2022-12-02 11:31:02.961049, 1.49071
2022-12-02 11:31:02.972599, 1.54448
2022-12-02 11:31:02.980759, 1.64712
2022-12-02 11:31:02.988985, 1.73021
2022-12-02 11:31:03.001154, 1.84262
2022-12-02 11:31:03.008985, 1.95992
2022-12-02 11:31:03.017884, 2.06256
2022-12-02 11:31:03.026163, 2.15054
2022-12-02 11:31:03.038749, 2.21408
2022-12-02 11:31:03.046761, 2.25806
2022-12-02 11:31:03.054575, 2.27273
2022-12-02 11:31:03.066933, 2.27273
2022-12-02 11:31:03.075515, 2.24829
2022-12-02 11:31:03.083566, 2.21408
2022-12-02 11:31:03.092264, 2.17986
2022-12-02 11:31:03.104279, 2.13099
2022-12-02 11:31:03.112477, 2.09189
2022-12-02 11:31:03.120275, 2.04301
2022-12-02 11:31:03.132480, 2.02346
2022-12-02 11:31:03.141044, 1.96481
2022-12-02 11:31:03.148943, 1.93060
2022-12-02 11:31:03.157564, 1.91105
2022-12-02 11:31:03.168725, 1.87195
2022-12-02 11:31:03.178105, 1.85239
2022-12-02 11:31:03.185246, 1.83773
2022-12-02 11:31:03.198295, 1.81818
2022-12-02 11:31:03.206956, 1.80352
2022-12-02 11:31:03.214502, 1.77419
2022-12-02 11:31:03.223193, 1.78886
2022-12-02 11:31:03.235349, 1.75464
2022-12-02 11:31:03.243763, 1.71065
2022-12-02 11:31:03.251762, 1.68622
2022-12-02 11:31:03.264012, 1.67644
2022-12-02 11:31:03.272231, 1.67155
2022-12-02 11:31:03.280890, 1.67155
2022-12-02 11:31:03.288608, 1.67644
2022-12-02 11:31:03.300628, 1.68622
2022-12-02 11:31:03.308963, 1.69110
2022-12-02 11:31:03.317075, 1.70088
2022-12-02 11:31:03.329786, 1.70577
2022-12-02 11:31:03.337681, 1.72532
2022-12-02 11:31:03.345730, 1.71554
2022-12-02 11:31:03.354201, 1.73509
2022-12-02 11:31:03.366183, 1.72043
2022-12-02 11:31:03.374875, 1.72532
2022-12-02 11:31:03.382028, 1.71065
2022-12-02 11:31:03.394386, 1.70088
2022-12-02 11:31:03.403201, 1.69110
