1.38807
1.38319
1.38807
1.37830
1.37830
1.37341
1.37341
1.36852
1.36852
1.36364
1.35875
1.35875
1.35386
1.35386
1.35386
1.35386
1.37830
1.35386
1.34409
1.34897
1.33920
1.33920
1.33431
1.36364
1.33431
1.34897
1.37341
1.42229
1.50538
1.61779
1.73998
1.87195
2.00880
2.15543
2.23363
2.30694
2.37048
2.37048
2.36070
2.34115
2.30205
2.25806
2.20919
2.16520
2.12121
2.09677
2.04301
2.04301
1.97947
1.96970
1.94037
1.92082
1.90127
1.88172
1.85728
1.82796
1.79863
1.76931
1.74976
1.73021
1.71554
1.71554
1.70577
1.70088
1.72043
1.71065
1.71065
1.71554
1.71554
1.71554
1.70577
1.72532
1.69110
1.68133
1.66667
1.68622
1.64223
1.61779
1.59824
1.58358
1.56891
1.54448
1.52493
1.51026
1.49071
1.48583
1.46628
1.45161
1.43695
1.43206
1.41740
1.40762
1.39785
1.39296
1.38807
1.37830
1.37830
1.37830
1.36852
1.35875
1.35875
1.37341
1.34897
1.34409
1.33920
1.33920
1.33920
1.35875
1.33920
1.33920
1.33920
1.33920
1.34409
1.34409
1.33920
1.33920
1.33431
1.33431
1.34409
1.33431
1.32454
1.32454
1.36364
1.34409
1.37830
1.44184
1.53470
1.64223
1.78397
1.90127
2.03812
2.15054
2.24829
2.31672
2.35582
2.36559
2.35582
2.32649
2.28739
2.24829
2.19941
2.16031
2.12610
2.05767
2.02346
1.99413
1.95992
1.94037
1.91593
1.90616
1.88172
1.89638
1.83773
1.81329
1.78397
1.75953
1.73509
1.71554
1.70088
1.69599
1.69599
1.70088
1.70088
1.70577
1.71554
1.71554
1.72043
1.71554
1.74976
1.71065
1.71065
1.69110
1.68133
1.66667
1.66667
1.62757
1.60802
1.58847
1.56403
1.53959
1.52493
1.50538
1.51026
1.48094
1.45650
1.44673
1.43695
1.42717
1.41740
1.41251
1.40762
1.39785
1.40274
1.39296
1.39785
1.39785
1.39296
1.42717
1.39296
1.38807
1.38807
1.39296
1.38807
1.39296
1.39296
1.39296
1.39296
1.40274
1.40274
1.38807
1.38807
1.41740
1.39296
1.38319
1.37830
1.37341
1.36364
1.35875
1.35386
1.34897
1.34897
1.35875
1.38319
1.43206
1.51026
1.61779
1.73509
1.86706
1.99902
2.14565
2.20919
2.30205
2.31183
2.33138
2.31672
2.28739
2.25318
2.20430
2.16520
2.11144
2.05279
2.04790
1.97947
1.95503
1.95015
1.95015
1.95992
1.96481
1.96970
1.97458
1.96481
1.95015
1.92571
1.90127
1.87683
1.86217
1.84262
1.84262
1.85239
1.80352
1.78886
1.78397
1.76931
1.76442
1.76442
1.75953
1.76442
1.75464
1.74487
1.73509
1.71065
1.68622
1.66178
1.62757
1.58847
1.56403
1.55914
1.50538
1.48094
1.45650
1.43695
1.42717
1.44673
1.44184
1.47605
1.52981
1.62757
1.74976
1.89150
2.01369
2.08700
2.08211
2.01369
1.90127
1.76442
1.64223
1.52981
1.44184
1.37341
1.34409
1.33431
1.37830
1.36364
1.40274
1.40274
1.41251
1.41251
1.41251
1.40274
1.40762
1.37830
1.38319
1.35386
1.34409
1.34897
1.34897
1.37341
1.35875
1.36364
1.36364
1.38807
1.39296
1.40274
1.44184
1.50538
1.58358
1.69110
1.80841
1.93060
2.04790
2.14565
2.22385
2.26784
2.32649
2.29228
2.27761
2.25318
2.21408
2.17498
2.13099
2.09189
2.08211
2.01857
1.98436
1.95992
1.94037
1.92571
1.91105
1.89638
1.88172
1.86706
1.84262
1.81818
1.78886
1.76931
1.74487
1.73021
1.74487
1.71065
1.71554
1.72043
1.71065
1.71554
1.75464
1.72043
1.72532
1.71554
1.71554
1.70577
1.69599
1.68622
1.67644
1.66178
1.64223
1.63245
1.61290
1.59824
1.57869
1.56403
1.54936
1.53470
1.53470
1.50538
1.49560
1.48094
1.47116
1.46628
1.46139
1.45650
1.45161
1.44184
1.44184
1.43695
1.43206
1.43206
1.46139
1.42229
1.42717
1.41740
1.41251
1.41251
1.41251
1.41740
1.40762
1.41251
1.40274
1.40762
1.40274
1.40274
1.42717
1.40274
1.40762
1.39785
1.39785
1.39785
1.39785
1.39296
1.39296
1.38807
1.42229
1.38807
1.37341
1.37830
1.39785
1.38807
1.41251
1.46139
1.55425
1.63734
1.78886
1.88172
2.00391
2.10655
2.18964
2.24829
2.28250
2.29717
2.28250
2.28739
2.22874
2.18964
2.14565
2.11144
2.06745
2.02835
1.99902
1.95992
1.93060
1.90616
1.88661
1.90127
1.85728
1.87195
1.81818
1.79374
1.80352
1.76442
1.75464
1.71554
1.70088
1.69110
1.69110
1.69599
1.70088
1.70577
1.71065
1.71554
1.73021
1.71554
1.71554
1.71554
1.70088
1.69110
1.67644
1.66667
1.64712
1.63734
1.61779
1.60313
1.58358
1.56891
1.55425
1.54448
1.52493
1.51026
1.50049
1.49071
1.48094
1.47605
1.46628
1.46628
1.45650
1.45161
1.44673
1.44673
1.44184
1.45161
1.43695
1.43695
1.43695
1.43695
1.43695
1.43695
1.43206
1.43206
1.43206
1.42717
1.42717
1.43206
1.43206
1.42717
1.43206
1.43206
1.43206
1.43206
1.43206
1.42717
1.42717
1.41740
1.43695
1.41251
1.40762
1.41251
1.42717
1.46139
1.52004
1.60313
1.71554
1.81818
1.94037
2.05279
2.14076
2.20919
2.25806
2.27761
2.28739
2.26784
2.23851
2.20919
2.19941
2.12121
2.07722
2.03812
1.99902
1.95503
1.93060
1.90127
1.87683
1.85728
1.83773
1.81818
1.79863
1.77419
1.74976
1.72532
1.70088
1.68622
1.67155
1.69599
1.68622
1.66667
1.67644
1.67644
1.68622
1.69599
1.69110
1.69110
1.69110
1.69110
1.68133
1.67644
1.66667
1.64712
1.63245
1.61779
1.59824
1.57869
1.56403
1.54936
1.52981
1.51515
1.51515
1.48583
1.47116
1.46139
1.45161
1.44673
1.47116
1.43695
1.43206
1.42717
1.42717
1.42229
1.41740
1.41740
1.45161
1.41740
1.41251
1.41251
1.44184
1.41251
1.41251
1.40762
1.40762
1.40762
1.40274
1.40762
1.42717
1.41251
1.39785
1.43206
1.39785
1.39296
1.39296
1.38807
1.38807
1.38319
1.37341
1.37341
1.37341
1.39296
1.40274
1.43695
1.49071
1.57869
1.68133
1.83284
1.93548
2.04301
2.14076
2.21896
2.25806
2.28250
2.27761
2.26784
2.26295
2.20430
2.15543
2.11632
2.08211
2.06745
1.99413
1.95992
1.92571
1.90127
1.87683
1.86217
1.84262
1.82796
1.80841
1.81818
1.75953
1.74487
1.72043
1.69599
1.68133
1.67155
1.66178
1.66667
1.66178
1.66667
1.67155
1.67644
1.67644
1.68133
1.67644
1.67644
1.66667
1.66178
1.67644
1.67644
1.62757
1.61779
1.59824
1.61779
1.56403
1.55425
1.53470
1.52004
1.50538
1.52981
1.47605
1.47116
1.45650
1.48094
1.44184
1.45161
1.43695
1.45650
1.42229
1.41740
1.41251
1.41740
1.40762
1.40762
1.40762
1.40274
1.40762
1.39785
1.40274
1.40274
1.39785
1.39785
1.43206
1.39785
1.39785
1.39785
1.39296
1.39785
1.39296
1.39785
1.39296
1.39785
1.39296
1.39296
1.38807
1.38807
1.38319
1.38319
1.37830
1.37341
1.37341
1.37341
1.38807
1.40762
1.45161
1.52981
1.63245
1.74487
1.87195
1.99413
2.10655
2.19453
2.25806
2.29717
2.30694
2.30205
2.28250
2.24829
2.20430
2.16031
2.15054
2.07722
2.03324
1.99413
1.95992
1.96481
1.90616
1.87683
1.85728
1.84262
1.82307
1.79863
1.77908
1.75953
1.74976
1.71065
1.70088
1.68133
1.67155
1.66667
1.68622
1.70577
1.68622
1.68133
1.68133
1.68622
1.69110
1.68622
1.68622
1.68133
1.67644
1.66178
1.65200
1.63734
1.62268
1.60802
1.58847
1.57380
1.55914
1.54448
1.52981
1.51515
1.50049
1.48583
1.48094
1.46628
1.46139
1.45161
1.44673
1.47605
1.43695
1.43206
1.43206
1.42717
1.46139
1.42229
1.44184
1.41740
1.41740
1.41251
1.41251
1.40762
1.41251
1.40762
1.43695
1.40762
1.41251
1.41740
1.40762
1.40762
1.40762
1.40762
1.41251
1.40762
1.40762
1.44673
1.41251
1.42717
1.43695
1.40762
1.41740
1.42229
1.40762
1.40762
1.39785
1.39785
1.41251
1.42229
1.48094
1.53959
1.61779
1.75953
1.86217
1.97947
2.08211
2.17986
2.23851
2.28250
2.30205
2.31183
2.28250
2.24829
2.21408
2.17009
2.12121
2.07722
2.02835
1.98925
1.95015
1.91593
1.88661
1.86217
1.84751
1.82796
1.80352
1.78397
1.76442
1.73998
1.71554
1.70088
1.68622
1.68133
1.67644
1.71065
1.68622
1.69110
1.70577
1.70577
1.71554
1.71554
1.72043
1.72043
1.71554
1.71065
1.72043
1.69599
1.68133
1.66667
1.65689
1.63734
1.62268
1.60802
1.58847
1.56891
1.54936
1.53470
1.53470
1.51026
1.49560
1.48583
1.47605
1.47116
1.46139
1.45650
1.45161
1.44673
1.44184
1.44184
1.44184
1.44673
1.43206
1.43206
1.46628
1.42717
1.43206
1.42717
1.42717
1.43206
1.41740
1.41251
1.41740
1.41251
1.42229
1.41251
1.40762
1.41251
1.41251
1.41251
1.40762
1.42717
1.43206
1.39785
1.39296
1.42229
1.39296
1.40762
1.43206
1.49071
1.56891
1.66667
1.78397
1.90616
2.02346
2.12121
2.19941
2.25318
2.28250
2.28739
2.31183
2.24829
2.20919
2.17009
2.13099
2.08211
2.03812
1.99902
1.98436
1.92571
1.89638
1.87683
1.84262
1.82307
1.83773
1.78886
1.79374
1.74976
1.72043
1.69599
1.67644
1.68133
1.65689
1.65200
1.65200
1.65200
1.65689
1.66178
1.67644
1.67644
1.70088
1.71554
1.67644
1.69599
1.67155
1.67155
1.65200
1.64223
1.64712
1.61290
1.59824
1.58847
1.56403
1.55425
1.53959
1.51515
1.50049
1.48583
1.47605
1.46139
1.45161
1.44673
1.43695
1.43206
1.45161
1.42717
1.41740
1.41740
1.41251
1.40762
1.40762
1.40762
1.40274
1.40274
1.39785
1.43695
1.40274
1.39785
1.40274
1.39296
1.41251
1.38807
1.38807
1.38807
1.38807
1.38319
1.38807
1.38807
1.39296
1.39785
1.42229
1.40274
1.39296
1.38807
1.38807
1.41740
1.38319
1.41740
1.38319
1.38319
1.39296
1.37341
1.37341
1.38319
1.40762
1.45650
1.52981
1.63734
1.77908
1.89638
2.01857
2.13099
2.22385
2.28739
2.32649
2.33627
2.33138
2.30694
2.30694
2.24829
2.18475
2.17009
2.09677
2.05279
2.04301
1.97458
1.94037
1.91105
1.90616
1.86706
1.84751
1.83284
1.81329
1.81329
1.76931
1.74487
1.72532
1.71065
1.69599
1.70088
1.68622
1.69110
1.68622
1.69599
1.70088
1.70088
1.71065
1.70577
1.70577
1.70088
1.69599
1.71554
1.67644
1.69599
1.68133
1.63734
1.62268
1.60802
1.58847
1.57380
1.55914
1.53959
1.52981
1.51515
1.50538
1.49071
1.48094
1.47116
1.46139
1.46139
1.45161
1.45650
1.44184
1.43695
1.43206
1.42717
1.45650
1.41740
1.42229
1.41740
1.41740
1.41740
1.41251
1.41740
1.41251
1.41251
1.41251
1.40762
1.40762
1.40274
1.40274
1.43206
1.40762
1.40274
1.40274
1.39785
1.40274
1.40274
1.39785
1.39785
1.39296
1.39296
1.38807
1.38807
1.38319
1.38319
1.41251
1.39296
1.40762
1.44673
1.52493
1.59824
1.72043
1.83773
1.97947
2.07722
2.17498
2.24340
2.28739
2.31183
2.31672
2.30694
2.26784
2.23363
2.19453
2.17009
2.12121
2.07722
2.02346
1.97947
1.94526
1.92082
1.89150
1.87195
1.85239
1.83284
1.85239
1.79863
1.80841
1.75464
1.73021
1.71554
1.71065
1.72532
1.70088
1.70577
1.71554
1.71554
1.72532
1.72532
1.73021
1.73021
1.74487
1.73509
1.73021
1.72043
1.71065
1.73021
1.68133
1.67155
1.65689
1.63734
1.62268
1.60313
1.59335
1.57380
1.56403
1.55914
1.53470
1.52493
1.51515
1.50049
1.49560
1.49071
1.48583
1.48094
1.47605
1.47116
1.46628
1.46628
1.49560
1.46139
1.45650
1.45650
1.46139
1.46628
1.45650
1.45650
1.48094
1.45161
1.45650
1.45161
1.45161
1.45161
1.45650
1.45650
1.45161
1.45650
1.46139
1.44673
1.44673
1.44184
1.43206
1.43206
1.43206
1.44673
1.46139
1.51026
1.57380
1.66667
1.77908
1.90127
2.00880
2.10655
2.18475
2.23851
2.26784
2.28739
2.28739
2.25318
2.21896
2.17986
2.13587
2.09189
2.04790
2.00391
1.96481
1.92571
1.89638
1.86706
1.84751
1.82796
1.84262
1.78397
1.76931
1.74487
1.71554
1.69599
1.67644
1.66667
1.65689
1.65200
1.65689
1.66667
1.66178
1.66667
1.67155
1.68133
1.68622
1.68133
1.68622
1.68622
1.67644
1.67644
1.66178
1.64712
1.63734
1.62757
1.60313
1.58358
1.56891
1.55425
1.53470
1.52004
1.50538
1.48583
1.47605
1.47116
1.45161
1.45161
1.43695
1.43206
1.42717
1.44184
1.42717
1.41251
1.41251
1.41251
1.41740
1.40762
1.40762
1.40274
1.40274
1.40762
1.40274
1.40762
1.40274
1.40274
1.40762
1.40274
1.40274
1.42717
1.41740
1.39785
1.39296
1.41251
1.39296
1.38319
1.38807
1.39785
1.41251
1.45161
1.51515
1.61290
1.71554
1.83284
1.95015
2.06256
2.15543
2.23363
2.26295
2.28739
2.27761
2.25806
2.23363
2.19453
2.17986
2.11632
2.06745
2.02835
1.97947
1.94526
1.91593
1.89150
1.89638
1.84751
1.83284
1.81818
1.83284
1.77908
1.75464
1.73509
1.71065
1.68622
1.67155
1.66178
1.66178
1.66178
1.66178
1.66667
1.66667
1.67644
1.68133
1.68133
1.70577
1.68133
1.67644
1.66667
1.66178
1.66178
1.63734
1.62268
1.60313
1.58847
1.56891
1.55425
1.53959
1.52493
1.50538
1.49560
1.52004
1.47116
1.48583
1.47116
1.44673
1.43695
1.43206
1.43695
1.42229
1.43695
1.41251
1.41251
1.40762
1.40762
1.40762
1.40762
1.40762
1.40274
1.39785
1.39785
1.40274
1.39296
1.39785
1.42229
1.39296
1.40762
1.39785
1.39785
1.39785
1.43206
1.39296
1.40762
1.38807
1.38807
1.38319
1.38319
1.37830
1.38807
1.41251
1.46139
1.55914
1.63734
1.75953
1.88172
2.00880
2.11144
2.19941
2.25806
2.28739
2.29717
2.28739
2.26295
2.22385
2.21408
2.14076
2.09677
2.05767
2.02346
1.97947
1.94526
1.91593
1.89150
1.87195
1.85239
1.83773
1.81818
1.80352
1.77908
1.75464
1.72532
1.70577
1.68622
1.66667
1.66667
1.66178
1.66667
1.69599
1.67644
1.67644
1.68622
1.72043
1.68133
1.68133
1.67644
1.66667
1.65689
1.64712
1.64223
1.64223
1.60802
1.59335
1.57869
1.55914
1.54448
1.52981
1.52981
1.50049
1.48583
1.47116
1.49071
1.45161
1.45161
1.43695
1.43695
1.46139
1.44184
1.41740
1.42229
1.41740
1.41251
1.40762
1.40762
1.40762
1.40762
1.42229
1.40274
1.40762
1.40762
1.40762
1.40762
1.41251
1.40762
1.40762
1.41251
1.41251
1.41251
1.41251
1.41251
1.41251
1.40762
1.40762
1.40762
1.40274
1.40762
1.39785
1.39785
1.40762
1.43695
1.48094
1.54936
1.64712
1.75953
1.88661
1.99902
2.13587
2.18964
2.24829
2.28739
2.29717
2.28739
2.26784
2.25318
2.19941
2.15054
2.10655
2.05767
2.01857
1.97947
1.97458
1.91593
1.88661
1.86706
1.84751
1.83773
1.81329
1.79863
1.77419
1.75464
1.72532
1.71065
1.69599
1.69599
1.68622
1.68622
1.69599
1.69599
1.70088
1.71065
1.71554
1.72043
1.72532
1.72532
1.72043
1.72043
1.71065
1.69599
1.68622
1.67155
1.65689
1.64223
1.62757
1.60802
1.60313
1.57380
1.55425
1.53959
1.52981
1.51515
1.50538
1.50538
1.48094
1.48094
1.47605
1.48094
1.47605
1.46139
1.49560
1.45650
1.45650
1.45650
1.45161
1.46139
1.45161
1.45161
1.45650
1.45650
1.45650
1.45161
1.48583
1.45650
1.45161
1.44673
1.44673
1.44184
1.44184
1.44184
1.43695
1.42717
1.42229
1.42717
1.43206
1.46139
1.52004
1.58358
1.69110
1.79374
1.91105
2.02346
2.12610
2.18964
2.23363
2.26295
2.26295
2.24340
2.21408
2.17986
2.14076
2.09677
2.05767
2.00880
1.96970
1.95992
1.89638
1.86706
1.84751
1.86217
1.80841
1.78886
1.78397
1.74976
1.72532
1.69599
1.67644
1.65689
1.64223
1.65200
1.63734
1.63734
1.64223
1.64223
1.66178
1.66667
1.66667
1.66667
1.66667
1.69599
1.67644
1.65200
1.64223
1.62757
1.61779
1.60313
1.59335
1.56891
1.55425
1.53959
1.52493
1.50538
1.49560
1.47605
1.46628
1.45161
1.44184
1.42717
1.42229
1.41740
1.41251
1.44184
1.40762
1.40274
1.39785
1.39785
1.40762
1.39296
1.39785
1.39296
1.39785
1.39296
1.39296
1.41251
1.39296
1.38807
1.39296
1.39296
1.38807
1.38807
1.38319
1.39296
1.37830
1.38319
1.40274
1.37830
1.37341
1.38319
1.40762
1.44673
1.52493
1.61779
1.73509
1.88661
1.96970
2.09189
2.16520
2.23363
2.26784
2.28250
2.27273
2.25318
2.21408
2.17498
2.13099
2.08700
2.04790
2.00391
1.96970
1.93548
1.90616
1.88661
1.86706
1.85239
1.86706
1.81329
1.80352
1.77419
1.75464
1.73021
1.73509
1.68622
1.68133
1.66178
1.65689
1.65689
1.66178
1.66667
1.66667
1.67155
1.67644
1.67155
1.67155
1.66667
1.65689
1.64712
1.64223
1.63245
1.62268
1.60313
1.62268
1.57380
1.55914
1.53959
1.52004
1.51026
1.49560
1.48094
1.47116
1.45161
1.45161
1.44184
1.43695
1.42717
1.42229
1.41740
1.41740
1.41251
1.40762
1.40762
1.40762
1.40762
1.40274
1.40274
1.43206
1.40274
1.40274
1.39785
1.40274
1.39785
1.39785
1.40274
1.39785
1.39785
1.41251
1.39296
1.38807
1.39296
1.39785
1.37830
1.38319
1.38319
1.39296
1.44673
1.48583
1.56403
1.64712
1.79863
1.89150
2.00880
2.10655
2.19453
2.24829
2.27273
2.28250
2.26784
2.26784
2.23851
2.17009
2.14565
2.08211
2.03812
2.00880
1.96481
1.93060
1.90616
1.88172
1.85728
1.84262
1.82796
1.81329
1.79374
1.77419
1.74976
1.71554
1.69599
1.67644
1.66667
1.69599
1.66178
1.66667
1.66667
1.67644
1.67644
1.72043
1.68622
1.68622
1.68133
1.67644
1.66667
1.66178
1.64712
1.63245
1.63734
1.60802
1.58847
1.57380
1.55425
1.53959
1.52493
1.51515
1.50049
1.48583
1.47116
1.46628
1.45161
1.45161
1.44184
1.43206
1.44673
1.44184
1.42717
1.45161
1.42229
1.41740
1.41740
1.41740
1.41251
1.42229
1.41251
1.41251
1.41251
1.41251
1.41251
1.40762
1.41251
1.41251
1.40762
1.41251
1.43695
1.41251
1.42229
1.40274
1.43695
1.40274
1.39785
1.40274
1.41740
1.44673
1.50538
1.58358
1.68622
1.80352
1.92082
2.03324
2.12610
2.20430
2.24340
2.26784
2.28739
2.25318
2.22385
2.18964
2.14565
2.09677
2.05279
2.01857
1.99413
1.93548
1.90616
1.91105
1.85239
1.84262
1.81818
1.80352
1.77908
1.75464
1.73509
1.71065
1.69599
1.68133
1.70088
1.66178
1.66178
1.67644
1.67155
1.68622
1.69110
1.69599
1.72532
1.70577
1.70577
1.72043
1.70088
1.70088
1.68622
1.67155
1.65689
1.64223
1.62268
1.60313
1.58358
1.56891
1.55425
1.53470
1.52981
1.51515
1.49560
1.48583
1.51026
1.46628
1.45650
1.45650
1.44673
1.43695
1.44184
1.43695
1.43206
1.43206
1.44673
1.43206
1.42229
1.43206
1.42717
1.43206
1.42717
1.43206
1.43206
1.42717
1.43206
1.42229
1.42229
1.41740
1.42229
1.41251
1.43695
1.40762
1.40762
1.42229
1.45650
1.51026
1.59335
1.69110
1.81329
1.92082
2.03324
2.12610
2.18964
2.23363
2.25318
2.25806
2.23851
2.20430
2.16520
2.12121
2.08211
2.06256
1.99902
1.95503
1.92571
1.89638
1.87195
1.84751
1.84262
1.81329
1.80352
1.77419
1.74976
1.74976
1.70088
1.68133
1.66178
1.65689
1.64712
1.66178
1.64712
1.64223
1.65200
1.65200
1.66178
1.66178
1.66178
1.67644
1.65689
1.65200
1.64712
1.63734
1.65200
1.60802
1.59824
1.60802
1.55914
1.54448
1.54936
1.52004
1.49560
1.48583
1.47116
1.45650
1.44673
1.43695
1.43206
1.42229
1.41251
1.42229
1.40762
1.40762
1.40274
1.39785
1.39785
1.39785
1.42717
1.39785
1.39785
1.39785
1.39296
1.40274
1.39296
1.39296
1.39296
1.38807
1.38807
1.38807
1.38319
1.41740
1.37830
1.37341
1.37341
1.36852
1.37830
1.39785
1.43206
1.49560
1.57869
1.69599
1.81329
1.93548
2.04790
2.14076
2.20919
2.25318
2.27273
2.26784
2.26784
2.21408
2.17009
2.13099
2.08700
2.04790
2.00391
1.96970
1.93548
1.93548
1.88172
1.87683
1.84262
1.83284
1.80841
1.78886
1.76931
1.73998
1.71554
1.69110
1.66667
1.69110
1.64712
1.65689
1.64712
1.64712
1.65200
1.66178
1.65689
1.66178
1.66667
1.66178
1.66178
1.65200
1.64223
1.63734
1.62757
1.60802
1.62757
1.57380
1.57380
1.54936
1.52981
1.51515
1.49560
1.48583
1.47116
1.46139
1.45161
1.43695
1.43206
1.42229
1.41740
1.41251
1.40762
1.40274
1.39785
1.39296
1.39296
1.39296
1.38807
1.38807
1.38319
1.40274
1.38319
1.38807
1.38319
1.38319
1.38807
1.38807
1.40274
1.38807
1.38807
1.38807
1.38807
1.41740
1.38319
1.38807
1.39296
1.38807
1.40274
1.43206
1.48583
1.56403
1.66667
1.78397
1.91593
2.02346
2.11632
2.19941
2.24340
2.27273
2.27761
2.25806
2.22874
2.22874
2.15054
2.10655
2.06745
2.01857
1.97947
1.94037
1.90616
1.88172
1.85728
1.83773
1.81818
1.79863
1.77908
1.75953
1.74976
1.71065
1.69110
1.71065
1.68133
1.65689
1.69599
1.67155
1.67155
1.68622
1.69110
1.73509
1.70577
1.72532
1.71554
1.72043
1.71065
1.70088
1.69599
1.68133
1.66667
1.68622
1.63734
1.63245
1.60313
1.58358
1.58358
1.58847
1.53470
1.52493
1.54936
1.50049
1.49560
1.48094
1.47605
1.47605
1.46139
1.46139
1.46628
1.46139
1.45650
1.45161
1.45161
1.45161
1.46139
1.44673
1.44673
1.45161
1.45161
1.45161
1.45161
1.44673
1.45161
1.44673
1.44184
1.43695
1.46139
1.43206
1.43695
1.44184
1.46139
1.50538
1.56891
1.66178
1.76931
1.88172
1.99902
2.09677
2.17498
2.22385
2.25318
2.26295
2.25318
2.22385
2.18475
2.14565
2.10166
2.05767
2.02835
1.96970
1.93060
1.89638
1.86706
1.83773
1.81329
1.80352
1.77908
1.75953
1.73021
1.70577
1.68133
1.65200
1.63734
1.62268
1.62268
1.61779
1.61779
1.62757
1.63245
1.67644
1.64712
1.66667
1.65689
1.65689
1.65200
1.68133
1.64223
1.62757
1.61290
1.60313
1.58847
1.56891
1.55425
1.56403
1.52004
1.50538
1.48583
1.47605
1.46139
1.45161
1.43695
1.42717
1.41740
1.41251
1.40762
1.40762
1.39785
1.39296
1.38807
1.39296
1.38807
1.38807
1.38807
1.38807
1.38807
1.40274
1.38319
1.38807
1.39296
1.39296
1.38807
1.37830
1.37830
1.37830
1.37341
1.37341
1.37341
1.37341
1.39296
1.41740
1.47605
1.55914
1.66667
1.78397
1.90616
2.04790
2.11632
2.19453
2.23851
2.26784
2.26295
2.26295
2.21408
2.17009
2.13099
2.08700
2.04301
2.00391
1.96481
1.93060
1.90127
1.87195
1.85239
1.83284
1.83284
1.79863
1.77419
1.76931
1.73021
1.70577
1.68133
1.66178
1.64712
1.63245
1.63734
1.63245
1.64712
1.64223
1.65200
1.65200
1.65200
1.69110
1.65200
1.64712
1.65200
1.63734
1.62268
1.61290
1.60313
1.58847
1.57380
1.56403
1.53959
1.52493
1.51026
1.49560
1.47605
1.50049
1.45161
1.44673
1.47116
1.42717
1.41740
1.40762
1.40762
1.39785
1.40274
1.39296
1.42717
1.39296
1.38807
1.38807
1.38319
1.37830
1.38319
1.38319
1.37830
1.37830
1.37830
1.41251
1.37830
1.37830
1.37830
1.37341
1.37341
1.36852
1.36364
1.36852
1.36364
1.39296
1.38319
1.41251
1.46628
1.55914
1.67644
1.77419
1.90127
2.02346
2.12121
2.20919
2.27273
2.28250
2.26784
2.25318
2.22385
2.18475
2.14076
2.09189
2.05279
2.00880
1.96481
1.94526
1.89638
1.86706
1.84262
1.82307
1.80841
1.79374
1.76931
1.74487
1.71554
1.69110
1.66667
1.64712
1.63734
1.63245
1.63245
1.62757
1.64223
1.63734
1.65689
1.65689
1.65689
1.65689
1.65689
1.65200
1.64712
1.63734
1.62757
1.63245
1.60313
1.58847
1.60802
1.56891
1.57380
1.52493
1.50538
1.49560
1.48094
1.46628
1.45650
1.44184
1.43695
1.43206
1.41740
1.41251
1.40762
1.40274
1.40274
1.40274
1.39785
1.39785
1.39296
1.39296
1.39785
1.39785
1.38807
1.39296
1.39785
1.38807
1.38807
1.38319
1.38807
1.39296
1.39785
1.38807
1.39296
1.39296
1.40274
1.39296
1.38807
1.38807
1.38807
1.38319
1.37830
1.37830
1.37830
1.39785
1.42717
1.48583
1.57380
1.68622
1.80352
1.93060
2.05279
2.15543
2.21896
2.26784
2.28739
2.32160
2.26784
2.23363
2.19453
2.15054
2.10655
2.05767
2.01369
1.97458
1.93548
1.89638
1.86706
1.83773
1.81818
1.79863
1.77419
1.75953
1.72532
1.70088
1.68622
1.67155
1.65200
1.64712
1.64223
1.64712
1.65689
1.66178
1.67155
1.68133
1.69110
1.69599
1.69599
1.70088
1.69599
1.72532
1.68133
1.70577
1.65689
1.64223
1.64223
1.61290
1.59335
1.57380
1.55914
1.54448
1.52981
1.53959
1.53470
1.48583
1.47605
1.46628
1.46139
1.46139
1.45161
1.45161
1.44184
1.44184
1.44184
1.43695
1.43206
1.45161
1.43695
1.42717
1.44184
1.42717
1.45650
1.42229
1.45161
1.42229
1.42229
1.42229
1.41740
1.42229
1.43206
1.41740
1.44673
1.41251
1.40762
1.40762
1.39785
1.40274
1.39785
1.40274
1.41251
1.43695
1.49071
1.56891
1.67155
1.79374
1.91593
2.03812
2.13587
2.20919
2.26295
2.28250
2.31672
2.26784
2.24829
2.19941
2.15543
2.11144
2.06745
2.01857
1.97458
1.93548
1.90127
1.89638
1.84751
1.82307
1.80841
1.78397
1.75953
1.73509
1.71065
1.68622
1.66178
1.66178
1.63734
1.63245
1.62757
1.63245
1.66178
1.64712
1.65200
1.65689
1.66667
1.70088
1.66178
1.66178
1.65689
1.65200
1.63734
1.62757
1.61290
1.59824
1.58358
1.56891
1.54936
1.52981
1.51515
1.53470
1.48583
1.47116
1.49071
1.44673
1.43695
1.42717
1.41740
1.41251
1.40762
1.40274
1.39785
1.39785
1.39296
1.39785
1.39296
1.39296
1.38807
1.38807
1.38807
1.38807
1.41740
1.38807
1.38807
1.38807
1.39296
1.39785
1.39296
1.39296
1.39785
1.39296
1.39785
1.42229
1.39785
1.40762
1.40274
1.40762
1.42717
1.45161
1.50049
1.56891
1.68133
1.76442
1.88661
2.00391
2.11632
2.19941
2.26784
2.30205
2.32160
2.30205
2.27761
2.23851
2.19453
2.15054
2.10166
2.05767
2.00880
1.97458
1.95015
1.89638
1.90127
1.84751
1.82796
1.80841
1.78886
1.76931
1.78397
1.72043
1.69599
1.67155
1.65200
1.64223
1.63245
1.63245
1.63734
1.63734
1.64223
1.64712
1.66178
1.65200
1.65689
1.65689
1.65689
1.65689
1.65200
1.64223
1.65689
1.62757
1.60802
1.59335
1.57380
1.56403
1.54936
1.52493
1.51026
1.49071
1.47605
1.46139
1.45161
1.43695
1.43206
1.42717
1.43206
1.43206
1.44184
1.44673
1.41251
1.40762
1.41251
1.40762
1.40274
1.40274
1.41251
1.40274
1.40762
1.41251
1.43206
1.40762
1.42229
1.41251
1.40762
1.40762
1.40762
1.40274
1.40274
1.40762
1.43206
1.43695
1.40274
1.43695
1.40274
1.41251
1.44673
1.47605
1.54936
1.64712
1.77419
1.88172
1.99902
2.13587
2.18475
2.24340
2.27761
2.28250
2.27273
2.27761
2.21408
2.17009
2.12610
2.08211
2.03324
1.99902
1.96481
1.93060
1.88172
1.85239
1.82796
1.80841
1.81818
1.77419
1.74976
1.72532
1.70088
1.69599
1.66178
1.65200
1.64712
1.64712
1.65689
1.66178
1.67155
1.68622
1.70088
1.70088
1.72043
1.71554
1.71065
1.70577
1.70577
1.69110
1.67644
1.66667
1.68133
1.63734
1.61779
1.60313
1.59335
1.56891
1.58847
1.54448
1.52981
1.52004
1.50538
1.50049
1.50538
1.48094
1.47605
1.47116
1.46628
1.49071
1.49071
1.46628
1.45650
1.45161
1.44673
1.44673
1.45161
1.44673
1.46139
1.44184
1.44184
1.44184
1.47605
1.43695
1.45650
1.43206
1.46628
1.42717
1.42229
1.41740
1.41251
1.41251
1.42229
1.44184
1.51026
1.56403
1.66667
1.77908
1.89150
2.01369
2.10655
2.18475
2.23851
2.26295
2.30205
2.25318
2.22385
2.18475
2.14076
2.09677
2.05279
2.00391
1.96481
1.94037
1.89150
1.86706
1.83773
1.81329
1.79374
1.77419
1.75464
1.73021
1.70577
1.68133
1.65689
1.65689
1.64712
1.62757
1.63734
1.62757
1.67155
1.64712
1.65200
1.66667
1.66667
1.66667
1.66667
1.66667
1.66178
1.65200
1.64712
1.63734
1.61779
1.59824
1.59335
1.56891
1.55425
1.53959
1.52493
1.50049
1.48583
1.47116
1.46139
1.44673
1.44184
1.43206
1.43695
1.44184
1.44673
1.40762
1.40762
1.40274
1.39785
1.40274
1.39785
1.39296
1.39785
1.42717
1.39296
1.39296
1.39296
1.40762
1.39296
1.38807
1.38807
1.38807
1.38319
1.38319
1.41251
1.37341
1.37830
1.37830
1.37341
1.39296
1.40762
1.44673
1.51515
1.61290
1.73021
1.85728
1.98436
2.08700
2.18475
2.23851
2.27761
2.28739
2.27761
2.25318
2.24829
2.17498
2.13099
2.10166
2.05767
2.00391
1.96481
1.93060
1.90616
1.87683
1.85239
1.83284
1.82796
1.79863
1.77908
1.75464
1.73021
1.70577
1.68133
1.68133
1.65689
1.64712
1.65200
1.65200
1.66667
1.66178
1.66667
1.70577
1.67644
1.67644
1.67155
1.67155
1.68133
1.65689
1.64223
1.65689
1.61779
1.60313
1.58847
1.59824
1.55425
1.53470
1.52004
1.51515
1.49071
1.47605
1.46628
1.45650
1.47605
1.44184
1.43695
1.42717
1.42229
1.42229
1.41740
1.41740
1.40762
1.41251
1.41251
1.41251
1.41251
1.41740
1.41251
1.41251
1.40274
1.41251
1.40762
1.40274
1.40274
1.40274
1.39785
1.40274
1.39296
1.39296
1.39296
1.39296
1.38807
1.39785
1.41740
1.46139
1.53959
1.62268
1.74487
1.86706
1.98436
2.08700
2.17498
2.23851
2.26784
2.27761
2.27273
2.24340
2.24340
2.18475
2.12121
2.08211
2.03812
2.01857
1.99413
1.93060
1.90127
1.87683
1.85728
1.83284
1.81818
1.80352
1.77908
1.75464
1.73021
1.71065
1.68622
1.67155
1.67155
1.66178
1.66667
1.67155
1.68133
1.68622
1.70088
1.70088
1.70088
1.70577
1.70088
1.73021
1.68622
1.67644
1.66667
1.66178
1.63734
1.62268
1.60802
1.58847
1.56891
1.57869
1.54448
1.52981
1.54448
1.50538
1.49071
1.48583
1.47605
1.47116
1.46628
1.49560
1.46628
1.45161
1.45650
1.45161
1.45161
1.45161
1.45650
1.44673
1.44673
1.44673
1.46139
1.44673
1.46139
1.48094
1.44673
1.44673
1.44673
1.44184
1.45161
1.43695
1.43695
1.43695
1.42717
1.43695
1.45161
1.49071
1.54448
1.64712
1.73021
1.84262
1.95992
2.06256
2.15054
2.21408
2.25806
2.27273
2.27273
2.24829
2.21408
2.17986
2.13099
2.09189
2.04301
2.02346
1.96481
1.93060
1.91105
1.87195
1.85239
1.83773
1.81818
1.80352
1.77419
1.78886
1.75464
1.71065
1.68622
1.67644
1.67155
1.67155
1.67644
1.68622
1.69110
1.70088
1.70577
1.72532
1.71554
1.73509
1.72043
1.72532
1.71065
1.70088
1.69110
1.67155
1.66178
1.65689
1.62268
1.60313
1.57869
1.56403
1.54448
1.55914
1.52004
1.51515
1.49560
1.48583
1.47605
1.47116
1.46628
1.49560
1.45650
1.46139
1.45650
1.45161
1.48583
1.44184
1.44673
1.47116
1.44184
1.44184
1.43695
1.43695
1.43695
1.45161
1.42717
1.42229
1.42229
1.41740
1.41251
1.40762
1.40762
1.41740
1.46139
1.48094
1.57869
1.68133
1.77908
1.88172
1.98925
2.10655
2.16520
2.24340
2.24340
2.24829
2.23851
2.20919
2.17498
2.13099
2.09189
2.04790
2.00880
1.96970
1.93548
1.90127
1.88172
1.86217
1.84262
1.82796
1.80352
1.78886
1.76442
1.73998
1.71554
1.68622
1.69599
1.65689
1.65200
1.64712
1.64712
1.65200
1.65689
1.69110
1.66667
1.67644
1.67155
1.67155
1.66667
1.66178
1.68133
1.64223
1.63245
1.61290
1.60313
1.58358
1.56891
1.55425
1.53470
1.54448
1.52004
1.49560
1.47605
1.46628
1.45650
1.44673
1.43695
1.43695
1.42717
1.42229
1.42717
1.45650
1.41740
1.41740
1.41251
1.41251
1.40762
1.41251
1.41251
1.40762
1.41251
1.40762
1.40762
1.40762
1.40762
1.40762
1.39785
1.40274
1.39785
1.39296
1.38807
1.38807
1.38807
1.40274
1.40274
1.43206
1.48094
1.56891
1.67155
1.82307
1.91105
2.01857
2.15543
2.19453
2.23851
2.26295
2.26295
2.24829
2.21408
2.17986
2.13587
2.09189
2.05279
2.00880
1.97458
1.94526
1.92082
1.88661
1.87195
1.85728
1.83284
1.81818
1.79863
1.77419
1.74976
1.72532
1.70088
1.68133
1.66667
1.65689
1.65689
1.69110
1.65689
1.66178
1.66667
1.67155
1.67155
1.66667
1.68622
1.66667
1.65689
1.64712
1.64223
1.62268
1.63245
1.59824
1.57869
1.56403
1.55425
1.52981
1.51515
1.50049
1.51515
1.47605
1.46628
1.45650
1.44673
1.44184
1.43695
1.43206
1.42717
1.42229
1.41740
1.41740
1.41251
1.41251
1.40762
1.40762
1.40762
1.41251
1.40274
1.40274
1.39785
1.39296
1.39296
1.43206
1.39785
1.39296
1.39296
1.39296
1.39296
1.39296
1.39296
1.38807
1.38319
1.38319
1.37830
1.37830
1.37341
1.37341
1.37830
1.40762
1.46628
1.57380
1.65200
1.77908
1.89150
2.01369
2.11632
2.19453
2.24340
2.30205
2.27273
2.25806
2.22874
2.19453
2.15054
2.10655
2.06256
2.01857
1.98436
1.95015
1.92082
1.89638
1.88172
1.85239
1.84262
1.82307
1.80352
1.80841
1.76442
1.73509
1.71065
1.69599
1.68133
1.67155
1.66667
1.67155
1.67155
1.68133
1.68133
1.68622
1.69110
1.69110
1.69110
1.68622
1.67644
1.67644
1.69110
1.67644
1.63734
1.62268
1.60313
1.58847
1.57380
1.56403
1.54448
1.52981
1.54936
1.52493
1.51026
1.48583
1.47605
1.47116
1.46628
1.45650
1.45161
1.44673
1.44184
1.45161
1.43695
1.43695
1.43695
1.43695
1.43206
1.44673
1.43695
1.43695
1.43695
1.43695
1.43695
1.46628
1.43206
1.44184
1.44184
1.43695
1.43695
1.43695
1.43206
1.43695
1.42717
1.42717
1.42229
1.41740
1.40762
1.40762
1.40762
1.40762
1.42717
1.46628
1.52981
1.61779
1.73021
1.87683
1.95992
2.07234
2.16031
2.21408
2.25806
2.26784
2.26784
2.24829
2.21408
2.17009
2.16031
2.08700
2.03812
2.02835
1.96481
1.96481
1.90127
1.87195
1.85728
1.83773
1.81818
1.80352
1.77908
1.79374
1.73021
1.70577
1.70577
1.70577
1.66667
1.66667
1.69599
1.67155
1.68622
1.68622
1.68622
1.69110
1.69110
1.69599
1.68622
1.68133
1.67644
1.66667
1.65689
1.64223
1.62757
1.60802
1.58847
1.57380
1.55914
1.53470
1.52981
1.51515
1.50538
1.48094
1.47605
1.45650
1.46139
1.44184
1.43206
1.45650
1.43695
1.42229
1.41740
1.41740
1.41740
1.41740
1.42229
1.42717
1.41740
1.41251
1.40762
1.40762
1.40274
1.40274
1.42717
1.39785
1.41740
1.39785
1.39296
1.39785
1.39296
1.39296
1.41251
1.39296
1.37830
1.40762
1.37830
1.40274
1.43695
1.45650
1.51026
1.60802
1.72043
1.83773
1.95503
2.06256
2.14565
2.21408
2.24829
2.25318
2.25318
2.23363
2.18475
2.14565
2.10166
2.05767
2.01857
1.97947
1.94037
1.91105
1.88172
1.85728
1.84262
1.82796
1.80841
1.79374
1.77419
1.74976
1.72532
1.69599
1.67644
1.66667
1.65689
1.64223
1.63734
1.63245
1.64223
1.64712
1.65200
1.65200
1.65689
1.65689
1.66667
1.64712
1.64223
1.63245
1.62268
1.60802
1.62268
1.57869
1.56403
1.54448
1.52981
1.51026
1.49071
1.48094
1.46628
1.45650
1.45161
1.46139
1.42717
1.42229
1.41251
1.41251
1.40274
1.39785
1.40274
1.39296
1.39785
1.38807
1.38807
1.39785
1.38319
1.38319
1.38319
1.39785
1.38319
1.38319
1.37830
1.38319
1.37830
1.37341
1.37830
1.37341
1.40274
1.37341
1.40762
1.37341
1.36852
1.36852
1.36364
1.36364
1.35386
1.36364
1.40274
1.39785
1.42717
1.49560
1.59335
1.71065
1.83284
1.96481
2.07722
2.16520
2.26784
2.27273
2.28739
2.27761
2.25318
2.25318
2.20919
2.13587
2.09189
2.04790
2.01369
1.97947
1.94037
1.91593
1.89638
1.87195
1.85239
1.83284
1.81329
1.79374
1.79863
1.73998
1.72043
1.73021
1.68133
1.66178
1.65200
1.64712
1.64712
1.65200
1.65200
1.69110
1.66178
1.65689
1.66178
1.65689
1.65200
1.64712
1.64712
1.63734
1.61290
1.59824
1.58358
1.56891
1.55914
1.53959
1.52493
1.51026
1.49560
1.48094
1.47605
1.47605
1.46628
1.44184
1.46139
1.42717
1.41740
1.41251
1.41251
1.40762
1.40762
1.40762
1.40274
1.40274
1.40274
1.44184
1.41251
1.40274
1.40274
1.39785
1.40274
1.39785
1.40762
1.39785
1.39296
1.39785
1.39785
1.39296
1.39785
1.39785
1.39785
1.39785
1.39785
1.40274
1.40762
1.39296
1.39296
1.38807
1.38319
1.38319
1.39296
1.41740
1.47116
1.54936
1.64712
1.76931
1.89638
2.01857
2.15543
2.19941
2.26295
2.29228
2.32160
2.29717
2.26295
2.22385
2.17986
2.13587
2.09189
2.04790
2.00391
2.00391
1.93548
1.90127
1.87195
1.85239
1.83284
1.81329
1.79863
1.77419
1.75464
1.72532
1.71065
1.69110
1.67644
1.67155
1.67155
1.67155
1.71554
1.68622
1.69110
1.69599
1.70088
1.70577
1.70577
1.70577
1.73509
1.70088
1.68622
1.67644
1.68133
1.64712
1.62757
1.60802
1.59335
1.58358
1.56403
1.54936
1.52981
1.54448
1.50538
1.49071
1.51515
1.47116
1.47116
1.46139
1.45650
1.45161
1.44673
1.46139
1.44673
1.44673
1.44673
1.44184
1.47116
1.43695
1.44673
1.44673
1.43206
1.43206
1.42717
1.42717
1.42229
1.43206
1.42229
1.42229
1.41740
1.41740
1.41740
1.41740
1.40762
1.40762
1.40274
1.39785
1.40762
1.39296
1.39785
1.40762
1.43695
1.48583
1.56403
1.67155
1.79374
1.91593
2.03324
2.13587
2.22874
2.28739
2.28739
2.28739
2.27273
2.24340
2.20430
2.16031
2.12121
2.08211
2.02346
1.99413
1.95015
1.92571
1.89150
1.86706
1.85239
1.83284
1.81818
1.79863
1.77908
1.74976
1.72532
1.70088
1.68622
1.66667
1.65689
1.65200
1.68622
1.65200
1.65689
1.65689
1.67644
1.66667
1.67155
1.67155
1.66667
1.65689
1.65200
1.64223
1.66667
1.61779
1.60313
1.58847
1.57380
1.55914
1.53959
1.52493
1.53959
1.49560
1.48094
1.46628
1.45650
1.44184
1.43695
1.43206
1.42229
1.41740
1.41251
1.40762
1.40274
1.40274
1.40274
1.40274
1.39785
1.39296
1.40274
1.40762
1.43206
1.39785
1.39296
1.38807
1.39296
1.39296
1.39296
1.39296
1.40762
1.39296
1.38807
1.38807
1.39296
1.38319
1.38319
1.37341
1.37830
1.37341
1.36852
1.39785
1.39785
1.43206
1.49560
1.59335
1.71065
1.87195
1.96481
2.08211
2.17498
2.24340
2.28250
2.29228
2.29228
2.26784
2.24340
2.19941
2.15543
2.11144
2.10166
2.02835
1.98925
1.95503
1.92571
1.90127
1.88172
1.88172
1.84751
1.83284
1.82307
1.79374
1.76442
1.73509
1.74487
1.69110
1.67644
1.69599
1.66178
1.65689
1.65689
1.66178
1.66667
1.67155
1.69110
1.67644
1.67644
1.67155
1.66667
1.65689
1.64223
1.63734
1.61779
1.62268
1.61779
1.57869
1.55914
1.57869
1.52981
1.51026
1.50049
1.48094
1.47116
1.46139
1.45161
1.44184
1.43206
1.44673
1.42229
1.41740
1.41740
1.41251
1.41251
1.41251
1.40762
1.40274
1.40274
1.39785
1.39785
1.40274
1.40274
1.40274
1.40274
1.40274
1.40274
1.40274
1.40274
1.39785
1.40274
1.39785
1.40274
1.41251
1.40274
1.39785
1.39296
1.39296
1.38807
1.38807
1.39296
1.41251
1.45161
1.52004
1.60802
1.72532
1.84751
1.96970
2.09189
2.17986
2.24829
2.28250
2.30205
2.30205
2.28739
2.24340
2.20430
2.15543
2.11632
2.07234
2.05279
1.98925
1.95992
1.93060
1.90127
1.88172
1.86706
1.84751
1.83284
1.81329
1.79374
1.77419
1.74976
1.72043
1.70577
1.69599
1.70577
1.69599
1.69599
1.70577
1.70577
1.71554
1.74976
1.73509
1.72532
1.76442
1.73021
1.75464
1.71065
1.70088
1.68622
1.67155
1.66178
1.65200
1.62757
1.64223
1.59335
1.57380
1.56403
1.57869
1.56403
1.52981
1.53470
1.51026
1.50538
1.49071
1.52004
1.48583
1.48583
1.48094
1.48094
1.48094
1.48094
1.47605
1.47605
1.47605
1.48583
1.51026
1.48094
1.50538
1.47116
1.47116
1.47116
1.47116
1.47605
1.46628
1.46139
1.46139
1.45650
1.44673
1.44673
1.47605
1.46628
1.49071
1.53470
1.60802
1.70088
1.81818
1.93060
2.03812
2.13099
2.20430
2.24829
2.27273
2.27273
2.25806
2.23363
2.18964
2.15054
2.10655
2.06745
2.01857
1.97947
1.94526
1.90616
1.88172
1.85728
1.84262
1.83284
1.80352
1.78397
1.75953
1.73509
1.70577
1.67644
1.66178
1.64712
1.67644
1.63734
1.63734
1.64223
1.64712
1.66178
1.69110
1.68622
1.66667
1.66178
1.66178
1.65689
1.64712
1.65200
1.62757
1.61290
1.59335
1.58358
1.56403
1.54448
1.52981
1.51026
1.49560
1.48094
1.46628
1.45650
1.44184
1.43695
1.42717
1.42717
1.41740
1.42717
1.40762
1.40762
1.40762
1.43695
1.40762
1.40274
1.40762
1.41740
1.42717
1.40762
1.40762
1.40274
1.42717
1.40762
1.40274
1.40274
1.43695
1.39785
1.39785
1.40762
1.40274
1.40274
1.38319
1.38807
1.40274
1.44184
1.52981
1.58358
1.69599
1.81329
1.93548
2.04790
2.13587
2.20919
2.25318
2.30694
2.26295
2.24340
2.20919
2.17009
2.13099
2.11632
2.04301
2.00880
1.96970
1.94037
1.91593
1.89638
1.88661
1.86217
1.87683
1.82796
1.84262
1.78886
1.76442
1.73509
1.71554
1.69110
1.67644
1.66667
1.65689
1.66178
1.66178
1.69110
1.66667
1.67155
1.67155
1.68133
1.67155
1.66667
1.67644
1.65200
1.67644
1.63245
1.61290
1.59824
1.58847
1.56891
1.57380
1.54448
1.52004
1.50538
1.49071
1.51026
1.46628
1.45650
1.44673
1.43695
1.43206
1.44184
1.42229
1.42717
1.41740
1.41740
1.41251
1.41251
1.41251
1.40762
1.40762
1.40762
1.40274
1.40274
1.40762
1.39785
1.40274
1.40762
1.40274
1.39785
1.40274
1.39296
1.39296
1.39296
1.38807
1.38807
1.38319
1.39785
1.39296
1.41740
1.47605
1.56891
1.63245
1.74976
1.87195
1.98925
2.09677
2.17986
2.23851
2.26784
2.27273
2.25806
2.23363
2.19941
2.16031
2.11144
2.07234
2.04301
1.99902
1.96481
1.93548
1.95015
1.89150
1.90127
1.85728
1.84751
1.82796
1.80352
1.77419
1.74976
1.72532
1.70088
1.68622
1.66667
1.66667
1.65689
1.65689
1.65689
1.66178
1.66667
1.68133
1.66667
1.69599
1.69599
1.69110
1.64712
1.63734
1.65689
1.61779
1.59824
1.57869
1.56403
1.54448
1.53470
1.52004
1.50538
1.49071
1.48094
1.46628
1.45650
1.44673
1.44184
1.43695
1.43206
1.42717
1.42229
1.42229
1.41740
1.42229
1.41740
1.45161
1.45650
1.44673
1.42229
1.41740
1.41740
1.41251
1.41740
1.41251
1.41251
1.41251
1.41740
1.40762
1.40762
1.41740
1.40274
1.40762
1.40274
1.39785
1.39296
1.39785
1.40762
1.43206
1.48583
1.55914
1.65689
1.77419
1.89150
2.00880
2.10655
2.18964
2.23851
2.26784
2.28250
2.25318
2.22385
2.18964
2.14565
2.10655
2.06256
2.04301
1.98436
1.95503
1.92571
1.90616
1.88661
1.87683
1.85239
1.83284
1.80841
1.79374
1.76931
1.73998
1.72043
1.70088
1.69110
1.68133
1.67644
1.67644
1.68133
1.68622
1.69599
1.69599
1.69599
1.69599
1.69599
1.69599
1.69110
1.67644
1.66667
1.65689
1.64223
1.62757
1.61779
1.61290
1.58358
1.56403
1.54936
1.56403
1.52493
1.51026
1.50538
1.51026
1.50538
1.48094
1.47116
1.46628
1.46628
1.45650
1.45650
1.45650
1.45650
1.46628
1.45650
1.45650
1.45161
1.45650
1.45161
1.45650
1.45161
1.45650
1.45161
1.45161
1.45161
1.44673
1.47605
1.44184
1.44184
1.43206
1.43206
1.43206
1.44673
1.46139
1.50538
1.58358
1.68133
1.77419
1.88661
1.99902
2.10166
2.20919
2.23851
2.26295
2.26295
2.24829
2.22385
2.18964
2.15054
2.11144
2.05767
2.02346
1.98436
1.97458
1.92082
1.90127
1.88172
1.86217
1.85239
1.82796
1.80841
1.78886
1.75464
1.73509
1.71065
1.68622
1.66667
1.65689
1.65200
1.64712
1.65200
1.65689
1.66667
1.66178
1.66667
1.67644
1.66178
1.65689
1.64712
1.63734
1.62757
1.61779
1.60313
1.58847
1.56891
1.55914
1.53959
1.52981
1.53470
1.48583
1.47605
1.46139
1.47116
1.47605
1.43695
1.43206
1.42717
1.42229
1.41740
1.41251
1.40762
1.40762
1.40274
1.40274
1.43695
1.40274
1.41251
1.39785
1.39785
1.39785
1.39785
1.39296
1.39785
1.38807
1.39296
1.39296
1.40274
1.38319
1.37830
1.37830
1.36852
1.36852
1.36852
1.37830
1.39296
1.44184
1.50538
1.59824
1.71065
1.83284
1.95503
2.06745
2.14565
2.20919
2.27273
2.25806
2.24340
2.21896
2.18475
2.15054
2.10166
2.05767
2.02835
1.99413
1.95992
1.93548
1.91593
1.90127
1.88172
1.87195
1.86217
1.83773
1.82307
1.78886
1.76442
1.73998
1.72532
1.68622
1.67155
1.65689
1.64712
1.64712
1.64712
1.64712
1.64712
1.65689
1.65689
1.65689
1.64712
1.64223
1.63245
1.61779
1.61290
1.59824
1.58358
1.57380
1.55425
1.53959
1.52493
1.51026
1.49071
1.48094
1.46628
1.45650
1.44673
1.47116
1.42717
1.41740
1.41740
1.41251
1.40762
1.40274
1.40274
1.39785
1.39296
1.42717
1.39296
1.39785
1.41740
1.38807
1.38807
1.42229
1.39296
1.38807
1.40762
1.38319
1.41740
1.41251
1.37830
1.37830
1.37341
1.37830
1.37830
1.36364
1.36364
1.35386
1.35875
1.36852
1.42717
1.43206
1.50538
1.60313
1.72043
1.84262
1.96481
2.07234
2.17009
2.22385
2.24340
2.25806
2.27761
2.21896
2.17986
2.13587
2.09677
2.05767
2.01857
2.01369
1.95015
1.92571
1.90127
1.88172
1.87195
1.85239
1.83284
1.81818
1.79863
1.76931
1.74487
1.72532
1.70088
1.69110
1.68133
1.66667
1.68622
1.69110
1.67155
1.66667
1.67155
1.67644
1.67644
1.67644
1.67155
1.66667
1.65689
1.64712
1.63734
1.65689
1.61779
1.58847
1.57380
1.58847
1.56891
1.52981
1.51515
1.52493
1.49071
1.47605
1.47116
1.46628
1.45650
1.47605
1.45161
1.46139
1.43695
1.43695
1.43206
1.43206
1.42717
1.42229
1.45650
1.43206
1.42717
1.42717
1.42717
1.42717
1.42229
1.42717
1.42717
1.42717
1.42229
1.42229
1.43206
1.41740
1.41740
1.40274
1.40274
1.40274
1.40762
1.41740
1.44673
1.50049
1.60313
1.67644
1.78886
1.90616
2.01369
2.10655
2.18964
2.22385
2.28250
2.24829
2.23363
2.19941
2.16031
2.12121
2.07234
2.03324
1.98925
1.95503
1.94037
1.89638
1.87195
1.85239
1.83284
1.82307
1.79863
1.77908
1.75464
1.72532
1.70088
1.68133
1.66178
1.65689
1.64712
1.64712
1.65200
1.65200
1.66667
1.67155
1.67644
1.68133
1.68133
1.67644
1.66667
1.66178
1.65200
1.64223
1.63245
1.61290
1.59824
1.58358
1.56891
1.55914
1.55425
1.51026
1.50049
1.48583
1.47116
1.48583
1.45161
1.44184
1.43206
1.43206
1.42717
1.43206
1.41251
1.40762
1.40762
1.40274
1.43206
1.39785
1.43695
1.39785
1.39785
1.39296
1.42717
1.41740
1.38807
1.38807
1.38807
1.38807
1.38319
1.37341
1.37341
1.36852
1.36852
1.36852
1.39785
1.41740
1.43206
1.50538
1.59824
1.71065
1.83284
1.96481
2.05279
2.14076
2.19941
2.23363
2.24340
2.22874
2.20430
2.16520
2.12610
2.08211
2.03812
2.00880
1.95992
1.93060
1.90127
1.87683
1.87195
1.83773
1.81818
1.81329
1.81329
1.75953
1.73998
1.71065
1.68622
1.66178
1.64223
1.63245
1.62268
1.61779
1.61779
1.61779
1.62268
1.62757
1.63245
1.66667
1.63245
1.63245
1.62268
1.61779
1.60802
1.59335
1.58847
1.57380
1.55425
1.53959
1.52493
1.50538
1.52004
1.51026
1.47116
1.46628
1.44184
1.43206
1.42229
1.41251
1.40762
1.40274
1.40274
1.39785
1.39296
1.38807
1.38319
1.38319
1.38319
1.38319
1.37830
1.38319
1.38319
1.38319
1.40274
1.38807
1.37830
1.37830
1.37341
1.39785
1.37341
1.40762
1.37341
1.38319
1.36364
1.36364
1.35875
1.35875
1.36364
1.35875
1.37341
1.40274
1.46139
1.54448
1.65689
1.77908
1.90616
2.02346
2.12610
2.19941
2.24829
2.27273
2.26784
2.24829
2.21408
2.17009
2.12610
2.09677
2.03812
1.99902
1.95992
1.95015
1.91105
1.87683
1.85239
1.83773
1.82307
1.80352
1.77908
1.75464
1.73021
1.70088
1.67644
1.66178
1.64712
1.63734
1.63245
1.63245
1.63734
1.63245
1.63734
1.63734
1.64223
1.64223
1.64223
1.65200
1.62757
1.62268
1.61290
1.60313
1.58847
1.56891
1.56403
1.54448
1.53959
1.51026
1.50049
1.48094
1.47605
1.46628
1.45161
1.44184
1.42717
1.44673
1.43695
1.40762
1.40274
1.43206
1.39785
1.39296
1.39296
1.38807
1.38807
1.38807
1.38807
1.38807
1.37830
1.37341
1.37341
1.36852
1.36852
1.36852
1.40274
1.36852
1.36852
1.35875
1.36852
1.36852
1.36364
1.36364
1.36364
1.36364
1.36364
1.35875
1.35386
1.35386
1.36364
1.34897
1.35386
1.37830
1.41740
1.49560
1.58847
1.71065
1.84751
1.96970
2.08211
2.17986
2.24340
2.29228
2.29228
2.28250
2.25806
2.21896
2.17009
2.12610
2.08211
2.03812
1.99902
1.95503
1.92571
1.89638
1.86706
1.84751
1.82796
1.80352
1.78886
1.78397
1.73998
1.71554
1.69110
1.67644
1.66178
1.65200
1.67155
1.65200
1.65689
1.66667
1.67155
1.67644
1.72043
1.69599
1.68133
1.68133
1.67644
1.67155
1.66667
1.65200
1.64712
1.62757
1.62268
1.62757
1.57869
1.56403
1.54448
1.52981
1.51515
1.50049
1.49071
1.48094
1.46628
1.47116
1.45161
1.44184
1.44184
1.43206
1.43206
1.43206
1.42717
1.42717
1.42229
1.42717
1.43695
1.44673
1.42229
1.42229
1.41740
1.42229
1.42229
1.41740
1.42229
1.41740
1.42717
1.42229
1.42229
1.42229
1.42229
1.41740
1.41740
1.41251
1.41251
1.41251
1.40762
1.41251
1.39785
1.40274
1.42229
1.46139
1.54936
1.61779
1.73998
1.86217
1.98436
2.09189
2.18475
2.24829
2.31672
2.29228
2.28739
2.25806
2.21896
2.17498
2.13099
2.11144
2.03812
1.99413
1.95015
1.91105
1.89638
1.85728
1.81818
1.79863
1.77908
1.75464
1.75464
1.72043
1.68133
1.67155
1.64223
1.63245
1.62268
1.62268
1.62757
1.66178
1.64712
1.65200
1.65689
1.66178
1.66178
1.67644
1.66667
1.66178
1.65689
1.65689
1.63734
1.62268
1.60802
1.59335
1.57380
1.55425
1.53959
1.55425
1.51026
1.48583
1.47605
1.46139
1.44673
1.43206
1.42717
1.41740
1.41251
1.40274
1.40274
1.43206
1.40274
1.39785
1.39296
1.38807
1.39296
1.39785
1.39296
1.38807
1.38807
1.38807
1.38807
1.38319
1.38319
1.38319
1.37830
1.40762
1.40274
1.37830
1.37341
1.37830
1.37341
1.36852
1.36852
1.36364
1.35875
1.35875
1.36852
1.39296
1.44673
1.52981
1.63245
1.75953
1.89150
2.01369
2.13099
2.20430
2.25806
2.28739
2.29228
2.27761
2.24340
2.20919
2.19453
2.11144
2.06745
2.05767
1.97947
1.93548
1.92082
1.87683
1.84262
1.82307
1.80352
1.78886
1.75953
1.73998
1.74976
1.69110
1.66667
1.65200
1.63734
1.62757
1.62268
1.62757
1.62757
1.63245
1.63734
1.64223
1.64712
1.68622
1.65200
1.65689
1.65200
1.64712
1.63734
1.62757
1.61779
1.61779
1.57869
1.56891
1.54936
1.52981
1.54936
1.49560
1.48094
1.47116
1.46139
1.45161
1.43695
1.42229
1.41740
1.41740
1.40274
1.41251
1.39785
1.39296
1.39296
1.38807
1.38319
1.38807
1.38319
1.37830
1.37830
1.37830
1.37341
1.37341
1.37830
1.37341
1.37341
1.36852
1.36852
1.36852
1.36852
1.37341
1.40274
1.38807
1.37341
1.36364
1.38807
1.36852
1.36364
1.36364
1.35875
1.35875
1.37341
1.39785
1.45161
1.53959
1.65689
1.78397
1.92082
2.04790
2.16031
2.25318
2.32649
2.32160
2.33138
2.31672
2.30205
2.27273
2.19941
2.14076
2.09677
2.04790
2.00391
1.98925
1.92571
1.89150
1.90616
1.84751
1.82307
1.80841
1.81818
1.76442
1.73998
1.72043
1.69110
1.67155
1.66178
1.65200
1.64223
1.64223
1.64712
1.65200
1.65200
1.66178
1.66667
1.66667
1.69110
1.66667
1.66178
1.66178
1.64712
1.64223
1.65200
1.61290
1.59335
1.58358
1.56403
1.54936
1.52981
1.51515
1.50538
1.48583
1.48583
1.46139
1.44673
1.43695
1.43695
1.42229
1.41740
1.42229
1.42717
1.40762
1.39785
1.39785
1.39296
1.38807
1.39296
1.39785
1.38807
1.38807
1.38319
1.38807
1.38319
1.37830
1.37830
1.38319
1.37830
1.37830
1.37830
1.37830
1.38807
1.38319
1.37830
1.37830
1.37830
1.37830
1.37341
1.40762
1.37341
1.36852
1.37341
1.38319
1.39296
1.43206
1.50049
1.59335
1.71065
1.84751
1.97947
2.10655
2.19453
2.30205
2.30694
2.33138
2.32649
2.30694
2.26784
2.22874
2.18475
2.13587
2.08700
2.03812
2.03324
1.95503
1.95992
1.88661
1.86217
1.83773
1.81329
1.79863
1.79863
1.76931
1.72043
1.70088
1.68133
1.70088
1.67155
1.69110
1.67644
1.69110
1.67644
1.68622
1.69599
1.70088
1.70577
1.70577
1.71554
1.74487
1.71065
1.70088
1.69110
1.68133
1.67644
1.65689
1.63734
1.62268
1.61290
1.58847
1.57380
1.55914
1.53959
1.52493
1.52004
1.51026
1.50049
1.48583
1.51515
1.47605
1.46628
1.46628
1.46139
1.46139
1.45650
1.45650
1.45161
1.45161
1.45650
1.45161
1.45650
1.46139
1.47116
1.45161
1.45161
1.45161
1.45161
1.44673
1.44673
1.44673
1.44184
1.44184
1.44184
1.43695
1.43206
1.43206
1.42717
1.41740
1.42717
1.44184
1.48583
1.55425
1.64712
1.75953
1.91105
2.00880
2.11144
2.19941
2.25806
2.29228
2.30694
2.30205
2.27273
2.23363
2.18475
2.14076
2.09189
2.04301
2.00391
1.95503
1.91593
1.88172
1.85239
1.82307
1.80352
1.78397
1.75953
1.74487
1.74976
1.69110
1.66667
1.65200
1.63734
1.63245
1.62757
1.62757
1.63245
1.63734
1.64712
1.65689
1.66178
1.66667
1.66667
1.66178
1.66667
1.66178
1.65200
1.64223
1.62757
1.61290
1.60313
1.59335
1.58358
1.54936
1.52981
1.54936
1.50538
1.48094
1.47116
1.47116
1.45161
1.44184
1.43206
1.42229
1.42229
1.41740
1.41251
1.41740
1.41740
1.40762
1.42229
1.43695
1.39785
1.39785
1.39296
1.39785
1.39296
1.41740
1.41251
1.38807
1.38807
1.41740
1.38319
1.38319
1.38319
1.37830
1.38807
1.38807
1.37830
1.40762
1.36852
1.36852
1.36852
1.37341
1.41251
1.40762
1.46139
1.54448
1.65200
1.77908
1.91105
2.03324
2.14076
2.22385
2.28250
2.30694
2.31183
2.31183
2.26784
2.23363
2.18964
2.17498
2.09189
2.04790
2.00391
1.99413
1.94526
1.91105
1.87195
1.85239
1.83773
1.81818
1.79863
1.79374
1.74976
1.72532
1.70088
1.68622
1.67155
1.69110
1.66667
1.64712
1.64712
1.65200
1.65689
1.66178
1.67155
1.67644
1.67644
1.67155
1.67155
1.66178
1.65689
1.64712
1.63734
1.64712
1.60313
1.58847
1.57380
1.55425
1.53959
1.52004
1.52004
1.49560
1.48583
1.48583
1.46139
1.45161
1.44673
1.44673
1.43206
1.42717
1.42229
1.41740
1.41740
1.41251
1.40762
1.40762
1.40762
1.40274
1.40274
1.40274
1.40274
1.40274
1.40274
1.39296
1.39296
1.39785
1.39296
1.39296
1.39296
1.38807
1.39296
1.38807
1.39785
1.38807
1.38807
1.38319
1.38319
1.38319
1.38319
1.38319
1.36852
1.37830
1.36852
1.36852
1.37830
1.41251
1.47116
1.55914
1.67155
1.80352
1.94526
2.06745
2.17498
2.26784
2.31183
2.34115
2.35093
2.33627
2.29717
2.25318
2.20919
2.16031
2.14565
2.06256
2.02835
1.98436
1.95015
1.91593
1.89150
1.86706
1.85239
1.86217
1.80841
1.79374
1.76931
1.74976
1.75464
1.70088
1.69110
1.68133
1.67155
1.66667
1.67155
1.70577
1.70577
1.69599
1.68622
1.69599
1.70088
1.69110
1.68133
1.68133
1.66667
1.66178
1.64712
1.63245
1.61779
1.60313
1.58847
1.56891
1.54936
1.53959
1.52493
1.51026
1.49560
1.48583
1.48583
1.46628
1.45650
1.45161
1.44673
1.44184
1.43695
1.43206
1.42717
1.42717
1.44184
1.41740
1.41740
1.42717
1.41251
1.41740
1.41251
1.40762
1.40274
1.40274
1.40274
1.40274
1.39296
1.39785
1.39296
1.39296
1.39296
1.38807
1.39296
1.38807
1.39296
1.38319
1.38319
1.38319
1.38807
1.38807
1.38319
1.38319
1.37830
1.37830
1.37341
1.37341
1.38807
1.42229
1.47605
1.55914
1.66667
1.79863
1.93060
2.05767
2.17009
2.24829
2.30694
2.33627
2.33627
2.32160
2.29228
2.25318
2.21896
2.16031
2.11632
2.06745
2.02835
1.98436
1.96481
1.92571
1.89638
1.86706
1.85728
1.86217
1.82796
1.82796
1.76931
1.74487
1.72532
1.70577
1.70088
1.68622
1.70577
1.68622
1.68622
1.69599
1.70577
1.71065
1.72043
1.72532
1.72532
1.72043
1.72043
1.71065
1.70577
1.69599
1.68133
1.67155
1.65689
1.64223
1.62268
1.60313
1.60313
1.60313
1.55914
1.54936
1.52981
1.52493
1.52004
1.52981
1.49560
1.48583
1.48094
1.51515
1.47605
1.47116
1.47116
1.46139
1.46628
1.46139
1.48094
1.45650
1.45650
1.45161
1.45650
1.45161
1.45161
1.46139
1.45161
1.44673
1.45161
1.47605
1.44673
1.44673
1.44673
1.44673
1.44184
1.44673
1.43695
1.43695
1.43695
1.44673
1.42717
1.43206
1.44673
1.52493
1.55425
1.64223
1.75953
1.87683
1.99413
2.10655
2.19453
2.25318
2.29717
2.30694
2.29717
2.27273
2.23851
2.19941
2.17009
2.10166
2.06256
2.01369
1.96970
1.93548
1.90127
1.87195
1.84751
1.82307
1.80352
1.79374
1.75953
1.73509
1.71065
1.69110
1.70577
1.65200
1.64712
1.64223
1.64712
1.64712
1.65689
1.66178
1.68133
1.70577
1.68133
1.68133
1.68133
1.68133
1.67155
1.66667
1.66178
1.67155
1.62757
1.61290
1.59335
1.57869
1.56403
1.55425
1.53959
1.51515
1.49560
1.48583
1.47116
1.46139
1.45650
1.44673
1.44184
1.44184
1.42717
1.42717
1.41740
1.45161
1.41740
1.41740
1.41740
1.43206
1.40274
1.40762
1.41251
1.41251
1.40762
1.40274
1.40762
1.39785
1.40274
1.40274
1.42717
1.40762
1.39785
1.39296
1.39296
1.38807
1.39785
1.39785
1.38807
1.41251
1.38807
1.41251
1.46139
1.53959
1.63734
1.75464
1.88172
2.00880
2.10655
2.19453
2.25318
2.28739
2.29717
2.28739
2.25806
2.22385
2.18475
2.15054
2.09677
2.04301
1.99902
1.96481
1.93060
1.90127
1.87683
1.85239
1.84751
1.83284
1.82796
1.77908
1.76442
1.73021
1.70577
1.68622
1.67155
1.65689
1.68622
1.67155
1.67644
1.65689
1.65689
1.66667
1.66667
1.67155
1.67155
1.67155
1.66667
1.66178
1.65200
1.64712
1.63245
1.61779
1.60313
1.58847
1.57380
1.55914
1.54448
1.52981
1.51515
1.50538
1.49560
1.48583
1.46628
1.46139
1.45161
1.44673
1.43695
1.43206
1.43206
1.42717
1.42717
1.42229
1.42229
1.42229
1.42229
1.41251
1.41251
1.41251
1.41251
1.40762
1.41251
1.40274
1.40274
1.40274
1.40762
1.41251
1.40274
1.41251
1.40274
1.40274
1.39296
1.39785
1.39785
1.39296
1.38807
1.38807
1.38319
1.38807
1.39296
1.41740
1.47116
1.54448
1.69110
1.80841
1.93548
2.02835
2.13587
2.22385
2.27761
2.30694
2.32649
2.30205
2.26784
2.23363
2.18475
2.13587
2.13099
2.04790
2.00880
1.96970
1.93548
1.90616
1.88661
1.86217
1.84262
1.82796
1.81329
1.79374
1.76442
1.73998
1.72043
1.69599
1.70088
1.66667
1.66178
1.66178
1.66178
1.66178
1.67155
1.68133
1.70088
1.68133
1.68133
1.68622
1.67644
1.68133
1.66667
1.64712
1.63734
1.62268
1.61290
1.60313
1.58358
1.56403
1.54936
1.52981
1.52004
1.51515
1.50049
1.52004
1.47605
1.46628
1.46139
1.45650
1.45161
1.44673
1.44184
1.44184
1.45161
1.43695
1.44184
1.46139
1.43206
1.43695
1.43695
1.45161
1.45161
1.43206
1.43206
1.42717
1.43206
1.43695
1.42717
1.43206
1.43206
1.43206
1.43206
1.43206
1.42229
1.44673
1.41740
1.44673
1.44184
1.41740
1.46139
1.46139
1.51515
1.59335
1.70577
1.82307
1.94526
2.05767
2.15054
2.23363
2.27761
2.29717
2.29717
2.28250
2.25318
2.20919
2.17009
2.15543
2.07722
2.03812
1.99413
1.95503
1.92571
1.89638
1.87683
1.85239
1.83773
1.81329
1.79863
1.77419
1.74976
1.72532
1.70088
1.68622
1.67155
1.68133
1.68622
1.70577
1.68133
1.68622
1.69110
1.69599
1.70088
1.71065
1.70577
1.71065
1.70577
1.69599
1.69110
1.68622
1.69110
1.65200
1.63245
1.61779
1.60313
1.58358
1.56403
1.55425
1.53470
1.52004
1.51515
1.50049
1.49071
1.48583
1.48094
1.47605
1.47605
1.47116
1.46139
1.46139
1.46139
1.45161
1.45161
1.45161
1.48583
1.45161
1.44184
1.45161
1.45161
1.43695
1.44184
1.43695
1.43695
1.43206
1.42717
1.42229
1.41740
1.41251
1.40762
1.40274
1.40274
1.41251
1.44184
1.49071
1.57380
1.67155
1.78397
1.91105
2.02346
2.12121
2.19941
2.24340
2.27273
2.26784
2.24829
2.21896
2.17986
2.15543
2.08700
2.04301
2.03324
1.95992
1.92571
1.89150
1.87195
1.84751
1.82796
1.81329
1.79863
1.77419
1.75464
1.72532
1.70088
1.68133
1.65689
1.64712
1.64223
1.63245
1.62757
1.63245
1.63734
1.63734
1.68133
1.65200
1.65200
1.68133
1.64712
1.64712
1.64223
1.64223
1.61779
1.60802
1.58847
1.57869
1.56403
1.54448
1.52981
1.52004
1.53470
1.49560
1.48583
1.49560
1.45650
1.44673
1.43695
1.43206
1.42717
1.42229
1.44673
1.44673
1.41251
1.40762
1.40762
1.41740
1.43206
1.42717
1.40762
1.40274
1.40762
1.40274
1.40274
1.41251
1.39785
1.39785
1.39785
1.42229
1.39296
1.39296
1.38807
1.38807
1.38319
1.38807
1.37830
1.37830
1.37830
1.39785
1.43206
1.49071
1.57380
1.69110
1.81329
1.94037
2.08211
2.15543
2.22874
2.29717
2.29717
2.28739
2.27761
2.23363
2.19453
2.15054
2.10166
2.07234
2.02346
1.98436
1.95992
1.92571
1.93548
1.88172
1.86217
1.84262
1.82307
1.81329
1.79863
1.75464
1.73509
1.71065
1.68622
1.68133
1.66178
1.65689
1.65689
1.64712
1.65200
1.66178
1.66178
1.66667
1.66178
1.66667
1.69110
1.66667
1.64712
1.63734
1.62757
1.61290
1.63245
1.58358
1.56403
1.54936
1.53470
1.52004
1.50538
1.49560
1.48094
1.47605
1.46139
1.45650
1.44673
1.43695
1.43206
1.42717
1.42229
1.42229
1.41740
1.41740
1.41740
1.42229
1.41740
1.40762
1.40762
1.39785
1.39785
1.39785
1.39785
1.39785
1.40274
1.39296
1.39296
1.39785
1.40762
1.39296
1.39785
1.39296
1.40274
1.38807
1.38319
1.37830
1.37830
1.38319
1.38319
1.40274
1.43695
1.50538
1.61779
1.70577
1.83284
1.99413
2.07234
2.16520
2.23363
2.27273
2.29228
2.28250
2.25806
2.22385
2.17986
2.14076
2.09189
2.04790
2.00880
1.96970
1.93548
1.91105
1.88661
1.86706
1.84751
1.83284
1.80841
1.79374
1.76931
1.74487
1.72532
1.70088
1.68622
1.70577
1.66667
1.66667
1.66667
1.66667
1.67155
1.67644
1.67644
1.68133
1.68622
1.68133
1.69110
1.68133
1.67644
1.65200
1.63734
1.63245
1.64712
1.59335
1.57869
1.58358
1.54936
1.53470
1.52004
1.50538
1.52004
1.48583
1.47605
1.47116
1.46628
1.49071
1.45161
1.44673
1.44673
1.44184
1.43695
1.43695
1.43695
1.43695
1.44184
1.42717
1.43206
1.46139
1.42717
1.43206
1.42717
1.43206
1.43206
1.43206
1.45161
1.42717
1.42229
1.42229
1.42717
1.41740
1.41251
1.41251
1.41251
1.40274
1.40762
1.42717
1.46628
1.52493
1.61779
1.75953
1.84751
1.98925
2.07234
2.16520
2.23851
2.26295
2.27273
2.26784
2.24340
2.21408
2.16520
2.12121
2.07722
2.02835
1.99413
1.95015
1.95015
1.88172
1.87683
1.83773
1.81818
1.79863
1.78397
1.79374
1.73509
1.71065
1.69110
1.67644
1.66178
1.64223
1.64223
1.64223
1.64712
1.64712
1.65689
1.66178
1.66667
1.67155
1.67155
1.66667
1.66667
1.65689
1.65689
1.63734
1.62757
1.61290
1.59335
1.58358
1.55914
1.54448
1.52493
1.51026
1.50049
1.48094
1.47116
1.46139
1.45161
1.44673
1.44184
1.46139
1.42229
1.42229
1.41740
1.44184
1.41251
1.40762
1.40762
1.40762
1.40762
1.42229
1.40274
1.40274
1.40274
1.40274
1.39785
1.39296
1.39785
1.42717
1.41740
1.39296
1.38807
1.42717
1.38319
1.37341
1.37830
1.37341
1.36364
1.37830
1.38807
1.42717
1.51026
1.57380
1.69110
1.82796
1.94037
2.05279
2.18475
2.21896
2.26295
2.27761
2.27273
2.25318
2.21896
2.19453
2.13099
2.08700
2.03812
1.99902
1.99413
1.92082
1.89150
1.86706
1.85239
1.82796
1.84262
1.79374
1.77419
1.75953
1.72532
1.70088
1.67644
1.65200
1.64712
1.66667
1.62268
1.62757
1.63245
1.65200
1.63734
1.63734
1.64712
1.66178
1.64223
1.64223
1.65200
1.63734
1.61779
1.60313
1.61290
1.59335
1.58847
1.54936
1.52981
1.51515
1.50538
1.48583
1.47605
1.46139
1.44673
1.44184
1.43695
1.43695
1.41740
1.41251
1.44673
1.40274
1.40274
1.39785
1.39296
1.42229
1.39296
1.38807
1.40274
1.38807
1.38319
1.38807
1.39296
1.39785
1.37830
1.37830
1.37830
1.38807
1.37830
1.37830
1.37830
1.37830
1.39296
1.37341
1.37341
1.36852
1.36852
1.37341
1.35875
1.36364
1.38319
1.42717
1.50538
1.58847
1.70577
1.83773
1.96970
2.07722
2.17498
2.24340
2.28739
2.29717
2.29228
2.26295
2.22874
2.18475
2.13587
2.09189
2.04790
2.00391
1.96481
1.93060
1.93060
1.87683
1.85239
1.83284
1.81818
1.79863
1.77419
1.75464
1.73021
1.70088
1.69599
1.66178
1.64223
1.64223
1.63734
1.63734
1.63734
1.63734
1.64712
1.65200
1.68622
1.65200
1.65200
1.64712
1.64223
1.63245
1.61779
1.61290
1.59824
1.57869
1.55914
1.54448
1.54448
1.52493
1.50049
1.48583
1.47116
1.46139
1.44673
1.44184
1.43206
1.42229
1.41740
1.41251
1.40762
1.40762
1.39785
1.39785
1.39785
1.39296
1.40762
1.39296
1.39296
1.38807
1.39296
1.39296
1.38807
1.38807
1.38807
1.42229
1.38319
1.38807
1.38807
1.39785
1.38807
1.38319
1.38807
1.38319
1.40762
1.38319
1.38319
1.37830
1.37341
1.39785
1.37341
1.38319
1.39785
1.43695
1.50049
1.58847
1.71554
1.84262
1.96970
2.08700
2.18475
2.24829
2.29228
2.30694
2.30205
2.29228
2.23851
2.19453
2.17986
2.09677
2.05767
2.00880
1.96481
1.92571
1.89638
1.86706
1.84262
1.81818
1.79863
1.78397
1.76442
1.75464
1.72043
1.69599
1.69110
1.66667
1.65200
1.68622
1.65689
1.65689
1.67155
1.67644
1.68622
1.68622
1.69110
1.69599
1.69599
1.69110
1.70577
1.68133
1.66667
1.65689
1.64712
1.63245
1.63734
1.59824
1.57869
1.56403
1.54936
1.52981
1.52493
1.53959
1.49560
1.48583
1.47605
1.47605
1.46628
1.46139
1.46139
1.45650
1.45161
1.44673
1.44673
1.44673
1.46139
1.44184
1.44184
1.44673
1.44184
1.44184
1.44184
1.43695
1.43695
1.44184
1.44184
1.43206
1.43206
1.42717
1.42717
1.42229
1.42717
1.42717
1.41740
1.40274
1.40274
1.41251
1.44673
1.46628
1.52981
1.62268
1.74487
1.86217
1.98436
2.10166
2.18475
2.24829
2.28250
2.29228
2.28250
2.28250
2.21408
2.17498
2.12121
2.07234
2.02835
2.01857
1.94037
1.94526
1.87683
1.84751
1.82307
1.80352
1.78886
1.76442
1.74487
1.73998
1.69599
1.67155
1.68133
1.63245
1.61779
1.62268
1.62268
1.61779
1.61779
1.64223
1.63734
1.64223
1.68133
1.64712
1.64712
1.64223
1.63734
1.62757
1.61779
1.61290
1.59335
1.57380
1.56891
1.54936
1.52981
1.51026
1.49560
1.48583
1.47116
1.45650
1.44673
1.44184
1.43206
1.41740
1.41251
1.40762
1.40274
1.39785
1.40274
1.39785
1.38807
1.38807
1.41740
1.38319
1.38319
1.38319
1.38319
1.37830
1.37830
1.40274
1.37830
1.37830
1.37341
1.37830
1.37830
1.39296
1.36852
1.36852
1.37341
1.36852
1.36852
1.35875
1.35386
1.35875
1.36852
1.38319
1.42717
1.49560
1.60802
1.72043
1.85239
1.98436
2.10166
2.19453
2.26295
2.31183
2.31672
2.30205
2.27761
2.23851
2.19453
2.15054
2.10166
2.05279
2.01857
1.96970
1.93548
1.90127
1.87683
1.85728
1.83773
1.82307
1.79863
1.77908
1.75953
1.73021
1.70577
1.69110
1.66667
1.67155
1.64223
1.63734
1.64223
1.64712
1.64223
1.65200
1.65200
1.65689
1.65689
1.65689
1.65689
1.68622
1.64223
1.63245
1.62268
1.60802
1.59335
1.57380
1.56403
1.57869
1.53470
1.51515
1.50049
1.49560
1.47605
1.46139
1.45161
1.44184
1.43206
1.42717
1.43695
1.41251
1.41251
1.40762
1.40762
1.40762
1.40762
1.40274
1.40274
1.39785
1.42717
1.39785
1.39785
1.39296
1.39296
1.38807
1.38807
1.38807
1.40274
1.38319
1.38319
1.38319
1.37830
1.38319
1.40762
1.37830
1.36852
1.37341
1.38807
1.35875
1.35875
1.36364
1.37830
1.42229
1.52004
1.58358
1.70088
1.83773
1.96970
2.08700
2.18964
2.25806
2.29717
2.33627
2.31183
2.28739
2.25806
2.20919
2.16031
2.11632
2.07234
2.02346
1.98436
1.96970
1.91105
1.88661
1.86217
1.84262
1.82307
1.80352
1.78397
1.76442
1.73998
1.71554
1.69110
1.67644
1.66667
1.65689
1.65200
1.66178
1.66667
1.66667
1.67644
1.68622
1.70577
1.69110
1.69110
1.69599
1.72043
1.68133
1.67155
1.65689
1.64223
1.62757
1.61290
1.59335
1.57869
1.56403
1.54936
1.53959
1.53959
1.51026
1.50049
1.49071
1.48094
1.47605
1.47116
1.46628
1.46139
1.45161
1.47116
1.45161
1.45161
1.44673
1.44673
1.47116
1.44184
1.44673
1.45161
1.43695
1.44184
1.43695
1.44184
1.46139
1.43695
1.43695
1.44184
1.43695
1.43206
1.43206
1.42717
1.46139
1.42229
1.41251
1.42229
1.42717
1.45161
1.49560
1.56891
1.66667
1.78397
1.90616
2.02835
2.13099
2.22874
2.26784
2.30205
2.30694
2.29228
2.26295
2.22385
2.17986
2.13099
2.08211
2.03812
2.00880
1.95503
1.92571
1.91593
1.85728
1.84262
1.84751
1.79374
1.77419
1.76931
1.72043
1.70088
1.67644
1.65689
1.64712
1.64223
1.63734
1.64223
1.64712
1.65689
1.66667
1.67155
1.67644
1.68133
1.68622
1.70577
1.67155
1.67155
1.65689
1.64712
1.63734
1.64223
1.59824
1.58358
1.56403
1.54448
1.52493
1.51515
1.51026
1.48094
1.47116
1.45650
1.45161
1.44673
1.43695
1.42229
1.42229
1.41251
1.40762
1.42229
1.40762
1.44184
1.43206
1.40762
1.40762
1.40762
1.42229
1.40274
1.40762
1.41740
1.43206
1.43695
1.39785
1.39785
1.39785
1.39296
1.39785
1.38807
1.38319
1.37830
1.37830
1.39785
1.41740
1.47116
1.56891
1.66667
1.78397
1.91105
2.05767
2.13587
2.21408
2.26295
2.29228
2.30205
2.27273
2.23851
2.22874
2.15054
2.10655
2.06256
2.01369
1.99413
1.93548
1.90616
1.88172
1.89150
1.86706
1.81329
1.79863
1.77419
1.75953
1.73021
1.70577
1.71554
1.66178
1.68133
1.63734
1.63245
1.63245
1.64223
1.64223
1.64712
1.65200
1.69110
1.66667
1.66178
1.65689
1.65200
1.64712
1.63734
1.62268
1.61779
1.63245
1.57869
1.56891
1.54936
1.52981
1.52004
1.50538
1.49071
1.48094
1.46628
1.45161
1.44673
1.43695
1.42717
1.42717
1.41740
1.41251
1.41740
1.40762
1.40762
1.40762
1.42229
1.40274
1.40762
1.40762
1.40274
1.40274
1.40274
1.39296
1.41251
1.39296
1.39296
1.39296
1.39296
1.39296
1.38807
1.38807
1.38807
1.39785
1.37830
1.37341
1.36852
1.37341
1.38319
1.41251
1.47116
1.55914
1.66667
1.79863
1.92571
2.04790
2.15543
2.23363
2.28739
2.31672
2.30694
2.29228
2.25806
2.23851
2.17009
2.12610
2.07234
2.03324
2.01369
1.95503
1.92571
1.90127
1.87683
1.85728
1.84262
1.82307
1.81329
1.77908
1.75464
1.73998
1.70577
1.68622
1.66667
1.66178
1.64712
1.64712
1.64712
1.65200
1.65200
1.65200
1.66178
1.65689
1.65689
1.65200
1.64712
1.64223
1.65689
1.62268
1.60802
1.59824
1.57869
1.56403
1.56891
1.53470
1.51515
1.50049
1.50049
1.47605
1.46139
1.45650
1.44673
1.43695
1.43206
1.42717
1.42717
1.41740
1.41251
1.41740
1.41251
1.40762
1.40274
1.40762
1.40762
1.40762
1.40274
1.39785
1.40274
1.42717
1.39785
1.39785
1.42717
1.40762
1.39785
1.40274
1.40762
1.40274
1.39785
1.41740
1.39785
1.39296
1.39785
1.38807
1.38319
1.39785
1.39785
1.41740
1.46139
1.52981
1.62757
1.74487
1.87195
1.99902
2.13099
2.19941
2.26295
2.30205
2.34115
2.29717
2.27273
2.23363
2.18475
2.14076
2.09677
2.04301
2.00391
1.96481
1.93060
1.89638
1.87195
1.84751
1.82796
1.81329
1.79374
1.76931
1.74976
1.72532
1.70088
1.68133
1.68622
1.65689
1.65200
1.65689
1.66178
1.67155
1.67644
1.68622
1.71065
1.69599
1.73509
1.69599
1.69110
1.68622
1.69110
1.66667
1.65200
1.66178
1.62757
1.60802
1.58847
1.58358
1.56403
1.53959
1.52981
1.53959
1.50049
1.49560
1.48583
1.47605
1.47116
1.46628
1.46139
1.45650
1.45650
1.45161
1.45161
1.45161
1.45161
1.44673
1.44673
1.45161
1.45161
1.46628
1.44673
1.44673
1.45161
1.44184
1.44184
1.45161
1.43695
1.43206
1.43206
1.42229
1.42229
1.41251
1.40762
1.40762
1.44184
1.44673
1.49560
1.57380
1.71065
1.79374
1.92082
2.06745
2.13587
2.21896
2.26295
2.28739
2.28739
2.30205
2.23851
2.19453
2.14565
2.09677
2.06745
2.00391
1.96481
1.93060
1.89150
1.86706
1.84262
1.81818
1.80352
1.78397
1.76442
1.74976
1.73998
1.68622
1.66667
1.65200
1.64223
1.62757
1.62757
1.63245
1.63734
1.63734
1.64712
1.65200
1.65689
1.66178
1.65689
1.67155
1.65200
1.64223
1.67155
1.61779
1.60313
1.58847
1.58358
1.55914
1.54448
1.52493
1.50538
1.49071
1.48094
1.46139
1.45161
1.44184
1.43695
1.46139
1.42229
1.41251
1.43695
1.40762
1.40762
1.40762
1.40274
1.40274
1.39785
1.40762
1.43695
1.40274
1.39785
1.41251
1.39296
1.39785
1.39296
1.38807
1.39296
1.38807
1.38807
1.38807
1.37830
1.37830
1.37341
1.38319
1.36364
1.37341
1.38807
1.41740
1.48094
1.56891
1.69110
1.81329
1.94037
2.06745
2.16520
2.23851
2.28739
2.30205
2.29717
2.27761
2.24829
2.19941
2.15054
2.14076
2.05767
2.01857
1.97458
1.94037
1.91105
1.88172
1.86217
1.86706
1.82307
1.80352
1.82307
1.75953
1.73509
1.71065
1.68622
1.66667
1.68622
1.64223
1.63734
1.62757
1.63734
1.64223
1.66178
1.64712
1.64712
1.65200
1.65200
1.64712
1.64223
1.63734
1.62757
1.61779
1.60802
1.58847
1.56891
1.55425
1.53959
1.52004
1.50538
1.49071
1.47605
1.46628
1.46139
1.47605
1.43695
1.42717
1.42717
1.42717
1.41251
1.41251
1.41251
1.41740
1.40274
1.39785
1.39785
1.39785
1.39785
1.39296
1.38807
1.40274
1.38807
1.38807
1.39296
1.38319
1.38319
1.38807
1.38319
1.37830
1.37830
1.37830
1.37341
1.39296
1.37341
1.36364
1.36852
1.36852
1.37341
1.42717
1.46139
1.54448
1.65200
1.77419
1.93548
2.03812
2.14076
2.23363
2.30694
2.30694
2.31183
2.29717
2.26295
2.21896
2.17009
2.12610
2.07234
2.02346
1.99902
1.94526
1.91105
1.88172
1.85728
1.83284
1.81818
1.79863
1.77419
1.75464
1.74487
1.69599
1.68133
1.69110
1.64223
1.63734
1.63245
1.63734
1.63245
1.64223
1.67155
1.65200
1.65689
1.66178
1.68133
1.66178
1.65200
1.65689
1.64223
1.62757
1.62757
1.60313
1.58847
1.56891
1.57869
1.53959
1.52981
1.51026
1.49560
1.49071
1.47605
1.46628
1.45650
1.48094
1.44673
1.43695
1.43695
1.44184
1.43206
1.42717
1.42229
1.42229
1.42229
1.42229
1.42229
1.41740
1.41740
1.42229
1.41740
1.41740
1.42717
1.41740
1.41740
1.43695
1.41740
1.41740
1.42229
1.41740
1.41251
1.40762
1.40762
1.40274
1.40762
1.41740
1.43695
1.48583
1.56403
1.69110
1.78397
1.91105
2.03812
2.13587
2.21408
2.27273
2.30205
2.30205
2.28250
2.25806
2.21408
2.16520
2.15543
2.06745
2.03324
1.97947
1.94526
1.90616
1.87195
1.84751
1.82307
1.81329
1.78397
1.75953
1.73998
1.71554
1.69110
1.67155
1.66178
1.65689
1.67644
1.64223
1.64712
1.66178
1.66178
1.67644
1.68133
1.71554
1.69599
1.69599
1.69110
1.68622
1.72043
1.67155
1.66178
1.64712
1.63245
1.61779
1.60313
1.58358
1.56403
1.55425
1.53470
1.54936
1.50538
1.49560
1.48583
1.51026
1.47116
1.46628
1.49560
1.45161
1.45161
1.45161
1.44184
1.44184
1.44184
1.47116
1.43695
1.44184
1.43206
1.43695
1.43206
1.43206
1.43206
1.45650
1.42229
1.42229
1.42229
1.41740
1.41251
1.42229
1.40274
1.40274
1.41251
1.42717
1.47116
1.54936
1.63734
1.74976
1.87683
1.99902
2.10655
2.18964
2.25806
2.28250
2.29228
2.27761
2.24340
2.20430
2.16031
2.11144
2.06256
2.01857
1.97458
1.96481
1.90127
1.87195
1.84262
1.81818
1.80352
1.77908
1.75953
1.73509
1.71065
1.69599
1.67155
1.64223
1.63245
1.65200
1.61779
1.61779
1.65200
1.62757
1.63734
1.67644
1.64712
1.65200
1.64712
1.64712
1.64712
1.63734
1.62757
1.62268
1.60313
1.58847
1.60802
1.55425
1.53959
1.52981
1.51026
1.49071
1.51515
1.46628
1.45650
1.44184
1.43695
1.42717
1.41740
1.41251
1.40762
1.41740
1.40274
1.39785
1.40274
1.39785
1.39785
1.39296
1.39296
1.39296
1.40274
1.39296
1.39296
1.39785
1.39296
1.39296
1.39296
1.38807
1.38319
1.37830
1.37830
1.37341
1.37341
1.36852
1.38319
1.41251
1.45650
1.53470
1.64223
1.80352
1.90127
2.02835
2.13099
2.21896
2.27273
2.30205
2.30205
2.28250
2.27761
2.20919
2.16031
2.11632
2.06745
2.04790
1.98436
1.94526
1.91593
1.88661
1.87195
1.84262
1.82307
1.80841
1.79374
1.76442
1.73998
1.71065
1.69110
1.69110
1.65200
1.64223
1.63734
1.64223
1.63734
1.64223
1.64223
1.64712
1.65689
1.68622
1.65200
1.65200
1.64712
1.63245
1.62757
1.63734
1.61290
1.58847
1.56891
1.56891
1.53959
1.52981
1.51515
1.49560
1.48583
1.49071
1.46139
1.45161
1.43695
1.44673
1.42717
1.41740
1.41740
1.44673
1.40762
1.40762
1.41740
1.40274
1.40274
1.40762
1.40274
1.40274
1.39785
1.40274
1.39785
1.39785
1.39296
1.39296
1.39296
1.38807
1.39296
1.38319
1.37830
1.38319
1.37341
1.37341
1.38319
1.38807
1.42229
1.49560
1.57380
1.68622
1.81818
1.94037
2.06256
2.16031
2.23851
2.27761
2.29228
2.28739
2.26295
2.22385
2.18475
2.13099
2.08700
2.03812
1.98925
1.95503
1.92082
1.88661
1.86217
1.83773
1.81818
1.80352
1.77419
1.75464
1.73998
1.70577
1.68133
1.65689
1.67155
1.63734
1.63245
1.63245
1.63245
1.64223
1.64712
1.65200
1.66178
1.66178
1.66667
1.66667
1.66178
1.65200
1.64223
1.64712
1.62268
1.60802
1.60802
1.58847
1.55914
1.54448
1.53470
1.54448
1.51026
1.49560
1.49560
1.48094
1.47116
1.48583
1.45650
1.45161
1.44673
1.44673
1.48094
1.44184
1.44184
1.47116
1.43695
1.43206
1.44184
1.43206
1.43206
1.43206
1.44673
1.43206
1.42717
1.43206
1.42717
1.42229
1.42717
1.43695
1.41251
1.40762
1.43206
1.45161
1.44184
1.48583
1.56403
1.65200
1.76931
1.89638
2.00880
2.11144
2.19453
2.25318
2.28250
2.28739
2.27273
2.25806
2.19941
2.16031
2.11144
2.05767
2.04301
1.97458
1.94037
1.90127
1.87195
1.84751
1.82307
1.79863
1.78397
1.76931
1.73509
1.71065
1.69110
1.67644
1.65200
1.64223
1.64712
1.64712
1.65200
1.66178
1.67644
1.68133
1.68622
1.70577
1.69599
1.69599
1.70088
1.68622
1.67644
1.67155
1.65689
1.63734
1.61779
1.60802
1.58358
1.56403
1.54936
1.53470
1.52493
1.53470
1.49071
1.48583
1.48094
1.47605
1.46628
1.46139
1.45650
1.45161
1.45161
1.44673
1.48094
1.44184
1.44184
1.44184
1.43695
1.44184
1.43206
1.43206
1.42717
1.42717
1.42229
1.42717
1.41740
1.41251
1.43206
1.40762
1.40274
1.40762
1.43206
1.48094
1.54936
1.64712
1.76442
1.88661
2.01369
2.11144
2.18964
2.25318
2.26784
2.27273
2.25806
2.21896
2.17986
2.15054
2.08700
2.04790
1.99902
1.95992
1.92571
1.90127
1.87195
1.84751
1.83284
1.80352
1.78886
1.77419
1.73998
1.71554
1.69110
1.66667
1.64712
1.64223
1.63734
1.62757
1.62757
1.67155
1.64223
1.64712
1.65200
1.65689
1.65689
1.65689
1.65200
1.64223
1.63734
1.66178
1.61290
1.59824
1.57869
1.56403
1.54936
1.52981
1.51515
1.50049
1.48583
1.47605
1.46628
1.45161
1.44673
1.43695
1.43206
1.42717
1.45650
1.42229
1.41740
1.42717
1.41740
1.41251
1.41740
1.41251
1.41251
1.42229
1.41740
1.40762
1.40762
1.40274
1.40274
1.39785
1.41251
1.40762
1.39296
1.38807
1.41251
1.38807
1.39296
1.44673
1.45161
1.52004
1.64223
1.72532
1.86217
2.01369
2.09677
2.18964
2.28250
2.28250
2.29717
2.31183
2.24340
2.20919
2.16031
2.11144
2.07722
2.02835
1.98925
1.95503
1.92571
1.90127
1.88172
1.86706
1.84751
1.82796
1.80841
1.78397
1.75464
1.75464
1.70577
1.68133
1.67644
1.65200
1.64223
1.64223
1.64223
1.64223
1.65200
1.65200
1.65200
1.66178
1.65689
1.65200
1.64712
1.64712
1.62757
1.61290
1.59824
1.58358
1.58847
1.55425
1.53959
1.52004
1.51026
1.51515
1.48094
1.47116
1.46139
1.45161
1.44184
1.44184
1.43206
1.42717
1.42229
1.41740
1.45161
1.41251
1.41251
1.41740
1.41251
1.40762
1.44184
1.40762
1.40274
1.42717
1.40274
1.40762
1.40274
1.39785
1.39785
1.39785
1.39296
1.38807
1.38319
1.37830
1.38319
1.38807
1.40762
1.45161
1.53959
1.62268
1.74487
1.89150
1.98925
2.09677
2.21408
2.23363
2.25806
2.29717
2.24829
2.21408
2.17498
2.13099
2.09677
2.04301
2.00391
1.95992
1.93060
1.90127
1.87683
1.85728
1.83773
1.81818
1.79863
1.79374
1.74976
1.72532
1.71554
1.67644
1.65689
1.67644
1.63734
1.63734
1.63245
1.63734
1.64223
1.65689
1.65200
1.65200
1.65200
1.65200
1.65200
1.66178
1.63734
1.62757
1.61290
1.59824
1.57869
1.57380
1.54936
1.53470
1.52493
1.50538
1.49071
1.48094
1.47116
1.47605
1.45650
1.44673
1.44673
1.43695
1.43206
1.44184
1.42717
1.42717
1.43206
1.42229
1.42229
1.42717
1.42229
1.42229
1.43695
1.42229
1.42229
1.41740
1.42229
1.43695
1.41251
1.41740
1.44184
1.40762
1.40762
1.41251
1.40274
1.40762
1.44184
1.44184
1.49071
1.56891
1.66667
1.77908
1.89638
2.04790
2.10655
2.18964
2.22874
2.24829
2.24829
2.23363
2.19941
2.16031
2.14565
2.06745
2.02835
1.98436
1.95503
1.91593
1.89150
1.87195
1.84262
1.82796
1.80841
1.79374
1.76442
1.73998
1.73998
1.68622
1.66667
1.65689
1.65689
1.64712
1.64223
1.65200
1.66667
1.66178
1.67155
1.67644
1.67644
1.68133
1.67644
1.67155
1.66667
1.65200
1.63734
1.63245
1.61290
1.59335
1.61290
1.56403
1.54936
1.54448
1.51515
1.50049
1.48583
1.51515
1.47116
1.46628
1.49071
1.45161
1.44673
1.48094
1.44184
1.43695
1.44184
1.43206
1.43695
1.42717
1.42717
1.42717
1.43695
1.42229
1.41740
1.42229
1.41740
1.41251
1.43695
1.40762
1.40274
1.42229
1.39296
1.39296
1.41740
1.40762
1.44184
1.51515
1.57869
1.68133
1.79863
1.91593
2.01857
2.11632
2.18475
2.23363
2.23363
2.22874
2.19941
2.16520
2.12610
2.08211
2.07722
1.99902
1.96481
1.93060
1.90127
1.88172
1.87195
1.87195
1.82796
1.80841
1.79374
1.75953
1.73021
1.70088
1.67644
1.65200
1.63245
1.61290
1.64712
1.60802
1.60802
1.61290
1.65689
1.62757
1.63245
1.66178
1.63245
1.62757
1.63245
1.61290
1.60313
1.59335
1.57869
1.55914
1.54936
1.53470
1.51515
1.50049
1.48583
1.47116
1.45650
1.44673
1.43695
1.42717
1.41740
1.41740
1.41251
1.40762
1.42717
1.39785
1.40274
1.39785
1.39296
1.39296
1.38807
1.39296
1.38807
1.38319
1.40762
1.38319
1.37830
1.39296
1.37830
1.37830
1.39296
1.37341
1.37830
1.36852
1.36852
1.36852
1.35875
1.35875
1.36852
1.37830
1.41251
1.47605
1.55425
1.66667
1.78886
1.91593
2.03324
2.12610
2.20919
2.23851
2.25318
2.24829
2.22385
2.18964
2.14076
2.10655
2.08700
2.01857
1.98925
1.95503
1.92571
1.94037
1.88172
1.86706
1.84751
1.82796
1.81329
1.78886
1.75953
1.73021
1.70577
1.67644
1.65689
1.65200
1.63245
1.62757
1.64712
1.62268
1.62757
1.63245
1.63245
1.63245
1.64712
1.63245
1.62268
1.64712
1.60802
1.59335
1.58847
1.56891
1.55425
1.53959
1.52493
1.51026
1.49560
1.48094
1.46628
1.45650
1.46139
1.43695
1.43206
1.42229
1.41740
1.41251
1.40762
1.40274
1.39296
1.43206
1.39296
1.39296
1.38807
1.38319
1.38319
1.37830
1.37830
1.38807
1.37341
1.37341
1.36852
1.36852
1.37341
1.36364
1.36852
1.36852
1.36852
1.36364
1.36852
1.35386
1.34897
1.35386
1.35875
1.36364
1.36364
1.39785
1.44673
1.52981
1.63734
1.75953
1.88661
2.00880
2.11144
2.20430
2.23363
2.26295
2.25806
2.24340
2.20430
2.16031
2.12121
2.07722
2.03324
1.98925
1.95992
1.95992
1.90127
1.90616
1.85728
1.84262
1.82307
1.80352
1.78397
1.75953
1.73021
1.70577
1.68133
1.68622
1.65200
1.64223
1.65689
1.64223
1.65200
1.68133
1.66178
1.66667
1.67155
1.67644
1.67155
1.66667
1.65689
1.65200
1.63734
1.62757
1.64712
1.59824
1.58847
1.56891
1.54936
1.53470
1.52493
1.51026
1.52493
1.48583
1.48094
1.49071
1.46139
1.45650
1.48094
1.44184
1.44184
1.43695
1.42717
1.46628
1.42717
1.42717
1.46139
1.42229
1.42717
1.42229
1.42229
1.42717
1.42229
1.42229
1.43206
1.42229
1.41740
1.41740
1.41740
1.41740
1.41251
1.43206
1.40274
1.40762
1.40762
1.41740
1.45161
1.50049
1.57869
1.68133
1.79863
1.91593
2.02835
2.12610
2.19941
2.24829
2.25806
2.25318
2.25318
2.19941
2.16031
2.12121
2.07234
2.03324
1.98436
1.94526
1.94526
1.88661
1.85728
1.85239
1.81818
1.79863
1.79374
1.75464
1.73021
1.69599
1.67644
1.66667
1.63734
1.62757
1.62268
1.62268
1.62757
1.63245
1.65689
1.65200
1.65200
1.66667
1.65689
1.65689
1.66178
1.64223
1.63734
1.62268
1.61290
1.59335
1.57380
1.58358
1.53959
1.52493
1.50538
1.49560
1.48094
1.46628
1.45161
1.44673
1.43695
1.42717
1.42717
1.41740
1.40762
1.42229
1.40274
1.40762
1.40274
1.40274
1.40274
1.40274
1.39785
1.39785
1.42229
1.39785
1.39296
1.39296
1.39296
1.39296
1.38807
1.38807
1.39296
1.37830
1.37830
1.36852
1.36852
1.37341
1.38807
1.42717
1.49071
1.57869
1.70088
1.81818
1.94037
2.05279
2.14076
2.23363
2.24340
2.25806
2.24340
2.21408
2.17986
2.13587
2.09189
2.05767
1.99902
1.97458
1.92571
1.89638
1.86706
1.84751
1.82796
1.80841
1.79374
1.79863
1.74976
1.72532
1.69599
1.66667
1.64223
1.65200
1.61290
1.60313
1.60313
1.61290
1.60802
1.61290
1.63734
1.62268
1.62268
1.64712
1.62757
1.62268
1.61779
1.60802
1.60802
1.58358
1.56403
1.55425
1.53470
1.52004
1.50049
1.48583
1.47605
1.47605
1.44673
1.43695
1.44673
1.41740
1.41251
1.40762
1.39785
1.39296
1.38807
1.38807
1.38319
1.38319
1.37830
1.37341
1.37830
1.37341
1.36852
1.36852
1.39785
1.36852
1.36852
1.36852
1.36364
1.36852
1.36852
1.36364
1.36852
1.36364
1.35386
1.36852
1.35386
1.34897
1.35875
1.36852
1.40762
1.49071
1.56403
1.68622
1.82796
1.94526
2.06745
2.16031
2.22874
2.29717
2.28250
2.27273
2.23851
2.19941
2.18475
2.10655
2.06256
2.01369
1.97458
1.95503
1.90127
1.87195
1.85239
1.82796
1.80841
1.78886
1.77908
1.74487
1.72532
1.69599
1.67155
1.68622
1.63245
1.62268
1.62757
1.60802
1.60802
1.63245
1.61779
1.62268
1.62268
1.62268
1.62757
1.62268
1.61779
1.62757
1.60313
1.58847
1.59335
1.56403
1.54936
1.53959
1.52004
1.50538
1.50049
1.47605
1.46139
1.45650
1.43695
1.42717
1.44673
1.41251
1.41251
1.42229
1.39785
1.39785
1.39296
1.38807
1.40274
1.38807
1.38807
1.38319
1.38319
1.38807
1.38319
1.37830
1.38319
1.38319
1.38807
1.38319
1.37830
1.38319
1.37830
1.38319
1.37830
1.37341
1.37830
1.36852
1.36852
1.38807
1.38807
1.43206
1.48583
1.57380
1.69110
1.81818
1.94526
2.06745
2.16031
2.23363
2.27761
2.28739
2.27761
2.25318
2.21408
2.19453
2.12121
2.07722
2.02346
1.97947
1.94037
1.90127
1.87195
1.83773
1.81818
1.79374
1.76931
1.75953
1.72043
1.69599
1.67155
1.64712
1.63734
1.61779
1.61290
1.61779
1.61779
1.63245
1.67155
1.64712
1.66178
1.66667
1.67155
1.68133
1.71065
1.67644
1.67644
1.66667
1.65200
1.64223
1.66178
1.60802
1.59335
1.57380
1.55914
1.54936
1.52493
1.51026
1.50049
1.49071
1.48094
1.47116
1.47116
1.45650
1.45161
1.45161
1.44673
1.44184
1.44184
1.43695
1.43695
1.44184
1.43206
1.43206
1.42717
1.45161
1.42717
1.42717
1.43206
1.42229
1.41740
1.41740
1.44673
1.40762
1.40762
1.39785
1.40762
1.45650
1.47605
1.54936
1.65200
1.77419
1.91105
2.01857
2.12610
2.20430
2.25806
2.28739
2.28250
2.26295
2.22874
2.18475
2.13587
2.09677
2.04301
1.99413
1.95015
1.91105
1.87683
1.84751
1.81818
1.83284
1.77419
1.74976
1.72532
1.69599
1.68133
1.64712
1.62757
1.60802
1.59824
1.60313
1.61290
1.59824
1.60802
1.60802
1.62268
1.63734
1.64223
1.64223
1.64223
1.63734
1.63734
1.62757
1.61779
1.62757
1.58847
1.57380
1.55914
1.53959
1.53470
1.51026
1.49560
1.48094
1.46628
1.45161
1.47116
1.43206
1.42229
1.41740
1.41251
1.40274
1.39785
1.39785
1.39296
1.38807
1.42229
1.38319
1.38319
1.38807
1.38319
1.38319
1.38807
1.40274
1.37830
1.37830
1.39296
1.37341
1.37830
1.36852
1.36364
1.36364
1.35875
1.36364
1.38319
1.41251
1.48094
1.57380
1.69110
1.84751
1.95992
2.08700
2.17986
2.25806
2.30205
2.31183
2.30205
2.27273
2.23363
2.18964
2.13587
2.09189
2.04301
1.99902
1.98436
1.95503
1.89150
1.86706
1.84262
1.82307
1.82796
1.77908
1.75953
1.73021
1.70577
1.71554
1.65689
1.63734
1.62268
1.61779
1.62757
1.61779
1.61779
1.62757
1.63245
1.63734
1.64712
1.64712
1.64712
1.65689
1.63734
1.63245
1.65689
1.60802
1.59824
1.57869
1.56403
1.54936
1.53470
1.52004
1.50538
1.48583
1.47605
1.46139
1.45161
1.47605
1.43206
1.42717
1.41740
1.41251
1.40762
1.40274
1.39785
1.43206
1.39296
1.38807
1.38807
1.38807
1.39785
1.38319
1.38319
1.38807
1.38319
1.37830
1.41740
1.37830
1.37341
1.37830
1.37341
1.36852
1.38807
1.36364
1.37341
1.39296
1.43695
1.52004
1.61290
1.73509
1.87195
1.99902
2.15054
2.20430
2.26295
2.30694
2.29717
2.28739
2.28250
2.20430
2.16520
2.11144
2.06256
2.01857
1.97458
1.94037
1.90616
1.87683
1.84751
1.86217
1.80352
1.78397
1.75953
1.73509
1.70577
1.68133
1.66178
1.63734
1.62268
1.61779
1.60802
1.60802
1.61290
1.62268
1.62757
1.63245
1.63734
1.64712
1.66178
1.63734
1.63734
1.63734
1.61779
1.60802
1.62268
1.57380
1.56403
1.54936
1.52981
1.51515
1.50049
1.48583
1.48094
1.46628
1.45161
1.44673
1.43695
1.43206
1.42229
1.41251
1.40762
1.40762
1.40274
1.41251
1.40274
1.39785
1.40274
1.39296
1.39785
1.39296
1.41740
1.38807
1.38807
1.38807
1.38807
1.39296
1.42229
1.38807
1.39296
1.38319
1.38319
1.40762
1.37830
1.37830
1.38319
1.40762
1.45650
1.53470
1.63245
1.74976
1.87683
2.00391
2.10655
2.19453
2.24829
2.27761
2.27761
2.25806
2.22874
2.19453
2.13587
2.08700
2.04301
1.99413
1.95503
1.91593
1.88172
1.85728
1.86706
1.80841
1.78886
1.76442
1.73998
1.71554
1.69599
1.66667
1.65200
1.63734
1.62757
1.65200
1.63245
1.64223
1.64712
1.65689
1.66178
1.68133
1.68133
1.68622
1.71554
1.68622
1.68622
1.67155
1.66178
1.65689
1.63245
1.61779
1.59824
1.60313
1.56403
1.54936
1.53470
1.52493
1.54448
1.50049
1.48583
1.48094
1.47605
1.46628
1.46139
1.45650
1.45650
1.45161
1.44673
1.46628
1.44184
1.43695
1.45650
1.43695
1.43695
1.43695
1.43206
1.44673
1.43206
1.43206
1.43206
1.42717
1.42717
1.42717
1.42717
1.41740
1.41740
1.41251
1.41251
1.42717
1.44673
1.49560
1.57380
1.67644
1.80352
1.92082
2.03324
2.15543
2.20919
2.25806
2.27761
2.27273
2.25318
2.22874
2.17009
2.12610
2.07722
2.03324
2.02346
1.95015
1.91105
1.88172
1.87195
1.83284
1.80841
1.79374
1.76931
1.73998
1.72532
1.69110
1.66667
1.64712
1.62757
1.62268
1.61779
1.61779
1.63245
1.62757
1.63245
1.64712
1.64712
1.65200
1.66178
1.65200
1.64712
1.65689
1.63245
1.62757
1.60802
1.59335
1.57869
1.55914
1.54448
1.55914
1.51515
1.50049
1.48094
1.47116
1.49071
1.44673
1.43695
1.43206
1.42717
1.43206
1.41740
1.41740
1.41251
1.40762
1.40762
1.41740
1.39785
1.39785
1.39785
1.39296
1.40762
1.39296
1.39296
1.41251
1.39296
1.39785
1.40762
1.39296
1.39296
1.38807
1.38807
1.37830
1.37830
1.38807
1.37341
1.38319
1.39785
1.44184
1.52004
1.59824
1.71554
1.84751
1.96970
2.08700
2.18475
2.24829
2.28739
2.29228
2.28250
2.28739
2.20919
2.17009
2.12121
2.07234
2.05279
1.98925
1.95992
1.93060
1.90127
1.87683
1.85728
1.84262
1.82796
1.80352
1.77908
1.76442
1.72532
1.70088
1.67644
1.66178
1.67155
1.63734
1.64223
1.63734
1.64712
1.65689
1.65689
1.66178
1.66667
1.66178
1.65689
1.66178
1.64712
1.64223
1.62757
1.61290
1.59335
1.57869
1.56403
1.54448
1.52981
1.51515
1.50049
1.52493
1.47605
1.46628
1.45650
1.44673
1.44184
1.43206
1.42717
1.46139
1.41740
1.41740
1.41251
1.40762
1.40762
1.40762
1.40274
1.40762
1.39785
1.39785
1.41251
1.39296
1.39296
1.39296
1.39296
1.40274
1.38807
1.39296
1.39296
1.39296
1.38807
1.39296
1.38807
1.38319
1.38319
1.37830
1.37830
1.42717
1.41251
1.46628
1.56403
1.64712
1.78886
1.90616
2.02835
2.13099
2.21896
2.28739
2.29228
2.30205
2.27273
2.23851
2.19453
2.15054
2.10655
2.05279
2.01857
1.97458
1.94037
1.91593
1.89150
1.87683
1.85728
1.83773
1.81818
1.82307
1.76931
1.74487
1.71554
1.69110
1.67155
1.65200
1.64712
1.65689
1.64223
1.64712
1.64712
1.65689
1.66178
1.67155
1.66667
1.67644
1.66178
1.65689
1.64712
1.63245
1.62757
1.60802
1.58847
1.58358
1.55914
1.53959
1.52493
1.51026
1.50049
1.48583
1.47605
1.46139
1.45161
1.47116
1.43695
1.43206
1.42229
1.41740
1.41740
1.40762
1.40762
1.40762
1.40274
1.40762
1.39785
1.39785
1.39785
1.39296
1.42717
1.39296
1.39296
1.38807
1.38807
1.40274
1.38807
1.38807
1.40274
1.39296
1.39296
1.38807
1.38807
1.42229
1.38807
1.38807
1.38319
1.37830
1.38807
1.37830
1.38319
1.42717
1.44673
1.51515
1.63734
1.73509
1.87195
1.99902
2.11632
2.20919
2.27761
2.31183
2.32160
2.30694
2.27761
2.24340
2.19453
2.14565
2.10166
2.09189
2.01369
1.97947
1.97947
1.91593
1.89638
1.87683
1.85728
1.83773
1.82307
1.79374
1.76931
1.74487
1.72043
1.70577
1.68622
1.67644
1.69599
1.67155
1.67644
1.69599
1.69110
1.69599
1.70577
1.70577
1.71065
1.70577
1.70088
1.72532
1.68133
1.67644
1.65200
1.64223
1.62268
1.60802
1.59824
1.57380
1.55914
1.53959
1.52981
1.51515
1.50538
1.49560
1.48583
1.48094
1.48094
1.47116
1.46628
1.46139
1.45650
1.45650
1.45161
1.44673
1.44673
1.44673
1.44184
1.44673
1.47116
1.44184
1.44673
1.44184
1.44184
1.44184
1.44184
1.43695
1.43695
1.43695
1.43695
1.43695
1.42717
1.45161
1.43206
1.42717
1.42229
1.41740
1.42229
1.42717
1.45650
1.50538
1.58847
1.68622
1.81329
1.93548
2.05767
2.15543
2.23363
2.29228
2.30205
2.29717
2.26784
2.23363
2.19941
2.14076
2.10166
2.04790
2.00391
1.97458
1.93548
1.90127
1.87683
1.85728
1.83284
1.81329
1.80841
1.76931
1.73998
1.74976
1.69110
1.66667
1.64712
1.63734
1.64712
1.62757
1.63245
1.63734
1.64223
1.65200
1.65689
1.65689
1.67155
1.66667
1.66178
1.65689
1.64712
1.64223
1.61779
1.60313
1.60802
1.56891
1.55425
1.53470
1.52493
1.50538
1.49071
1.48094
1.46139
1.44673
1.47116
1.43206
1.42717
1.41740
1.41251
1.43695
1.40762
1.40762
1.40274
1.39785
1.41251
1.39296
1.39785
1.42717
1.39296
1.39785
1.39296
1.38807
1.40274
1.38807
1.38807
1.38807
1.38319
1.39785
1.38807
1.38319
1.40274
1.38319
1.38319
1.37830
1.36852
1.36852
1.37341
1.38319
1.41251
1.45161
1.53470
1.63734
1.75953
1.89150
2.02346
2.13099
2.22385
2.27761
2.31183
2.31672
2.29717
2.26295
2.22385
2.17498
2.12610
2.08700
2.03812
2.01369
1.95992
1.93548
1.92082
1.88172
1.86706
1.84751
1.82307
1.80841
1.78397
1.75953
1.73998
1.70577
1.68133
1.66667
1.65200
1.64712
1.64223
1.64712
1.64223
1.64712
1.67155
1.65689
1.66667
1.66178
1.65689
1.66178
1.68133
1.65200
1.63245
1.61779
1.60802
1.58358
1.56891
1.55425
1.53470
1.52004
1.50538
1.49071
1.49560
1.46139
1.45650
1.44673
1.43206
1.43206
1.42229
1.42229
1.41251
1.40762
1.41740
1.40274
1.40274
1.39785
1.39296
1.40274
1.39296
1.39296
1.39296
1.38807
1.38319
1.38807
1.38807
1.38807
1.38807
1.38319
1.39785
1.38807
1.38807
1.38319
1.38319
1.41251
1.38319
1.37830
1.37341
1.37341
1.36852
1.40274
1.38319
1.41740
1.47116
1.55914
1.69110
1.79863
1.94037
2.06256
2.17009
2.26784
2.30205
2.32649
2.32160
2.30205
2.26784
2.21896
2.17009
2.12121
2.07722
2.03324
1.98925
1.96481
1.92571
1.90127
1.88172
1.86217
1.84262
1.81818
1.80352
1.77419
1.74976
1.72532
1.69599
1.67644
1.68133
1.64712
1.64712
1.64223
1.64223
1.65689
1.65200
1.65200
1.66178
1.66178
1.65689
1.66667
1.65200
1.64712
1.65200
1.62757
1.60802
1.60313
1.61290
1.56403
1.55425
1.53470
1.52004
1.51515
1.49071
1.47605
1.46628
1.45650
1.45161
1.43695
1.43206
1.46628
1.42229
1.42717
1.41740
1.41251
1.45161
1.40762
1.40762
1.44184
1.40274
1.40762
1.40274
1.39785
1.39785
1.40274
1.41740
1.39785
1.40274
1.39785
1.39785
1.40274
1.40274
1.40762
1.40274
1.40762
1.41251
1.40274
1.40274
1.42229
1.40274
1.40274
1.39296
1.39785
1.40762
1.43206
1.49560
1.56891
1.68133
1.81329
1.93548
2.05767
2.18964
2.24829
2.29717
2.32649
2.32160
2.30205
2.26784
2.22385
2.20919
2.12610
2.07722
2.02835
1.99413
1.95015
1.91593
1.88661
1.86217
1.84262
1.81818
1.79863
1.77908
1.74976
1.73021
1.70088
1.67644
1.68622
1.65200
1.64712
1.64712
1.65200
1.69599
1.67155
1.68133
1.68622
1.69110
1.72532
1.70088
1.70088
1.69599
1.68622
1.67644
1.66667
1.65200
1.63734
1.61779
1.61779
1.58847
1.56891
1.54936
1.53959
1.52493
1.54448
1.50049
1.49071
1.48583
1.47116
1.46628
1.46139
1.45161
1.44673
1.48094
1.44184
1.45161
1.43695
1.43695
1.46139
1.43206
1.43206
1.43695
1.43206
1.42717
1.46139
1.42717
1.42717
1.42229
1.41740
1.42717
1.41740
1.41740
1.42717
1.41251
1.40762
1.40274
1.39785
1.40274
1.40274
1.41251
1.45650
1.50538
1.59335
1.70088
1.82796
1.95992
2.07722
2.17498
2.24340
2.29228
2.34115
2.29717
2.27761
2.23851
2.19453
2.16031
2.10166
2.05767
2.00880
1.96481
1.93060
1.89150
1.86217
1.84262
1.81818
1.81329
1.77908
1.76442
1.73509
1.70577
1.68622
1.66667
1.64223
1.63245
1.62757
1.62268
1.62757
1.65689
1.63245
1.64223
1.64712
1.65200
1.65689
1.65200
1.65200
1.65689
1.63734
1.62757
1.61779
1.60313
1.58358
1.59335
1.55425
1.53470
1.52004
1.50049
1.49071
1.47116
1.45650
1.45161
1.43695
1.42717
1.43206
1.41740
1.41251
1.41251
1.40274
1.39785
1.39785
1.39296
1.39296
1.38807
1.38807
1.39296
1.38319
1.38807
1.38319
1.38319
1.38319
1.37830
1.38319
1.37830
1.37830
1.38807
1.37830
1.37830
1.37830
1.37341
1.40274
1.37341
1.37341
1.39296
1.36364
1.35875
1.36852
1.39296
1.44184
1.51026
1.61779
1.77908
1.88172
2.01857
2.13099
2.22874
2.32160
2.32160
2.33627
2.34604
2.28739
2.24829
2.19941
2.15054
2.11144
2.05279
2.01369
1.96970
1.96481
1.90616
1.88172
1.86217
1.83773
1.81818
1.80352
1.81329
1.74976
1.72532
1.72043
1.67644
1.66667
1.64712
1.64223
1.67644
1.64223
1.64712
1.64712
1.65689
1.67644
1.66178
1.66667
1.66178
1.65689
1.67644
1.64712
1.63734
1.62268
1.60802
1.58847
1.57380
1.56403
1.53959
1.52493
1.52004
1.50049
1.48583
1.48583
1.46628
1.45650
1.44184
1.43695
1.43206
1.42229
1.41740
1.42229
1.40762
1.40762
1.40274
1.39785
1.40762
1.39785
1.39296
1.41740
1.39296
1.39296
1.38807
1.38807
1.38807
1.38319
1.38319
1.38319
1.38319
1.38319
1.40274
1.38319
1.38807
1.38807
1.38319
1.41251
1.38319
1.38807
1.37830
1.37341
1.37341
1.37341
1.38319
1.44184
1.48094
1.57869
1.69110
1.82307
1.96481
2.08700
2.19453
2.27273
2.32160
2.34115
2.35093
2.31183
2.27273
2.22874
2.17498
2.15543
2.08211
2.03812
1.98925
1.95015
1.91593
1.89150
1.86217
1.83773
1.82307
1.82307
1.77908
1.75953
1.73021
1.71065
1.69110
1.66667
1.65689
1.64712
1.64712
1.64712
1.65200
1.65689
1.66667
1.67155
1.67644
1.68133
1.67644
1.67644
1.67155
1.65689
1.65689
1.64223
1.62757
1.61290
1.59824
1.59335
1.56891
1.55425
1.53470
1.52493
1.51515
1.49560
1.49071
1.48094
1.47116
1.46628
1.45650
1.44673
1.44673
1.44184
1.46139
1.43695
1.43695
1.43206
1.42717
1.42717
1.42717
1.43206
1.42717
1.42717
1.43695
1.42717
1.42717
1.42717
1.42229
1.43206
1.42229
1.42717
1.42229
1.42717
1.46139
1.42229
1.42717
1.42229
1.42229
1.41740
1.41251
1.41251
1.43206
1.42717
1.46628
1.52004
1.60802
1.72532
1.84751
1.97458
2.11632
2.18964
2.26295
2.33138
2.32160
2.31672
2.30694
2.25318
2.21408
2.16031
2.11144
2.06256
2.01857
1.97458
1.96970
1.90127
1.86706
1.88172
1.82307
1.80352
1.77908
1.75953
1.73509
1.71554
1.69599
1.66667
1.66178
1.65200
1.64712
1.65200
1.65689
1.69110
1.67644
1.68622
1.69110
1.69599
1.72043
1.70088
1.70088
1.69599
1.68622
1.69599
1.66178
1.64712
1.62757
1.60802
1.62268
1.57869
1.56403
1.54448
1.52981
1.52493
1.50049
1.49071
1.48094
1.47116
1.46628
1.45650
1.45161
1.45161
1.44673
1.44673
1.43695
1.43695
1.47116
1.43206
1.42717
1.44673
1.42717
1.42229
1.43695
1.42229
1.42229
1.42717
1.41740
1.41740
1.44184
1.41251
1.41740
1.41251
1.40762
1.41251
1.39785
1.39785
1.39296
1.39785
1.41251
1.43695
1.49071
1.58358
1.68622
1.81329
1.94037
2.06256
2.18964
2.23851
2.28739
2.34115
2.30694
2.28739
2.24829
2.20430
2.18964
2.10655
2.07234
2.01369
1.97458
1.94037
1.90616
1.87683
1.85728
1.85239
1.81329
1.79863
1.77419
1.74976
1.72532
1.70088
1.67644
1.67644
1.64712
1.64223
1.63734
1.64223
1.64223
1.64712
1.65200
1.69110
1.66178
1.66667
1.69110
1.66178
1.65689
1.64712
1.63734
1.63245
1.61290
1.59824
1.58358
1.55914
1.54448
1.52981
1.51026
1.50049
1.48094
1.46628
1.49560
1.44673
1.43695
1.47116
1.42717
1.41740
1.44184
1.41251
1.41740
1.40762
1.40762
1.44184
1.40274
1.40762
1.40274
1.40274
1.40762
1.39785
1.40274
1.39785
1.39296
1.43206
1.39296
1.40274
1.39785
1.39296
1.39296
1.39296
1.41251
1.38807
1.38319
1.37830
1.37830
1.37830
1.41251
1.42229
1.47605
1.58847
1.67155
1.80841
1.93548
2.06256
2.17009
2.24829
2.29717
2.33627
2.32160
2.29717
2.27273
2.21896
2.17986
2.12121
2.07722
2.03324
1.99413
1.95503
1.92571
1.90127
1.88172
1.85728
1.83773
1.82307
1.79863
1.80841
1.75464
1.73998
1.70088
1.68622
1.66667
1.65689
1.66178
1.65200
1.65689
1.66178
1.66178
1.67644
1.67155
1.67644
1.67155
1.66667
1.66667
1.65200
1.64223
1.65689
1.61779
1.61290
1.58847
1.56891
1.55425
1.53959
1.52493
1.50538
1.49560
1.49560
1.47116
1.46139
1.49071
1.44184
1.43695
1.42717
1.42229
1.43206
1.41740
1.41740
1.41251
1.41251
1.43695
1.40762
1.41251
1.40274
1.40762
1.41251
1.40274
1.40762
1.40274
1.39296
1.42229
1.39296
1.39785
1.39296
1.39785
1.39296
1.38807
1.42717
1.38319
1.38319
1.37830
1.37830
1.37830
1.38807
1.42229
1.46628
1.54936
1.65200
1.77419
1.92082
2.03812
2.14565
2.22874
2.28739
2.34115
2.31672
2.29717
2.26295
2.22385
2.17498
2.13099
2.10166
2.03324
2.00391
1.95503
1.92571
1.90127
1.87683
1.85728
1.83773
1.82307
1.80352
1.77908
1.78397
1.73021
1.71065
1.69110
1.67155
1.67644
1.66178
1.66667
1.66667
1.67155
1.69599
1.69110
1.69110
1.69110
1.69599
1.70577
1.68622
1.67644
1.66667
1.65689
1.64712
1.66178
1.61290
1.59824
1.57380
1.55914
1.54448
1.52981
1.51515
1.50049
1.49071
1.48583
1.47116
1.46139
1.49560
1.45161
1.44673
1.46628
1.44184
1.44673
1.43695
1.43206
1.45161
1.43695
1.43695
1.43695
1.43206
1.43695
1.43206
1.43206
1.44184
1.43695
1.43695
1.47116
1.43206
1.43695
1.43206
1.42717
1.44673
1.41740
1.42717
1.41251
1.41740
1.43695
1.47116
1.57380
1.62757
1.74487
1.86217
1.98436
2.10655
2.18475
2.24829
2.29228
2.29228
2.28739
2.25806
2.21408
2.18475
2.12121
2.08211
2.03324
1.98925
1.96481
1.91593
1.88661
1.85728
1.84262
1.82307
1.80352
1.77908
1.75953
1.73509
1.70577
1.70088
1.66178
1.65200
1.64223
1.64223
1.67644
1.64712
1.66178
1.66178
1.67155
1.67644
1.67644
1.70577
1.67644
1.67155
1.66178
1.64712
1.66178
1.62268
1.60802
1.58847
1.56891
1.55425
1.53470
1.52004
1.49560
1.48583
1.48583
1.45650
1.45161
1.44184
1.43206
1.44184
1.41740
1.41740
1.41251
1.40762
1.40274
1.40762
1.41251
1.40274
1.40274
1.40274
1.39785
1.42717
1.39785
1.40274
1.39785
1.39785
1.39785
1.39296
1.43206
1.39296
1.39296
1.38807
1.37830
1.41740
1.38319
1.39296
1.41740
1.46628
1.54448
1.68133
1.76442
1.89638
2.01857
2.12121
2.21408
2.26295
2.29228
2.32160
2.26784
2.23851
2.19453
2.14565
2.11632
2.05767
2.01369
1.97458
1.94037
1.92082
1.89150
1.86706
1.88661
1.83284
1.80841
1.79374
1.76442
1.76442
1.71554
1.69110
1.66667
1.64712
1.63734
1.63245
1.63245
1.62757
1.63734
1.64712
1.64223
1.65200
1.65200
1.64712
1.65200
1.64223
1.63245
1.62757
1.61290
1.60313
1.58358
1.56891
1.55425
1.53470
1.52004
1.52493
1.49071
1.47605
1.46139
1.45161
1.47605
1.43206
1.42717
1.41740
1.40762
1.43206
1.40274
1.40274
1.39785
1.39785
1.39296
1.39296
1.39296
1.38807
1.38807
1.38807
1.38319
1.39296
1.38319
1.38807
1.38807
1.38319
1.40762
1.38319
1.38319
1.40762
1.37830
1.37830
1.37341
1.37341
1.37341
1.37830
1.40274
1.44184
1.51026
1.60802
1.72532
1.88661
1.98925
2.10655
2.19453
2.26295
2.30694
2.30694
2.28739
2.25806
2.21896
2.17009
2.12121
2.09189
2.03324
1.99413
1.95503
1.92571
1.90127
1.88172
1.85728
1.87683
1.82796
1.80841
1.78397
1.75953
1.73021
1.70088
1.69110
1.65689
1.64712
1.63734
1.63734
1.65689
1.63734
1.64712
1.65200
1.65200
1.68133
1.65689
1.66178
1.65200
1.64223
1.65200
1.62268
1.60802
1.63245
1.57869
1.56891
1.54448
1.52981
1.51026
1.49560
1.48583
1.46628
1.45650
1.44184
1.43206
1.46139
1.41740
1.41740
1.40762
1.40274
1.42229
1.39785
1.39785
1.39296
1.39296
1.42717
1.39296
1.39296
1.39296
1.39296
1.41251
1.38807
1.39296
1.38807
1.38807
1.40762
1.39296
1.38807
1.41740
1.39296
1.39785
1.38807
1.38807
1.38319
1.37830
1.38319
1.38807
1.40762
1.45161
1.52493
1.65689
1.74487
1.88172
2.00880
2.11632
2.22874
2.27273
2.30694
2.31183
2.29717
2.28739
2.22874
2.18475
2.13099
2.09189
2.04790
2.00391
1.97458
1.94037
1.91105
1.88661
1.86706
1.88661
1.83284
1.81329
1.80352
1.76442
1.75464
1.71065
1.69599
1.68133
1.66667
1.66667
1.66667
1.67155
1.67644
1.68133
1.71554
1.69110
1.70088
1.69110
1.69110
1.68622
1.67644
1.67155
1.65689
1.64223
1.63245
1.60802
1.59335
1.57869
1.56403
1.54936
1.53470
1.52004
1.50538
1.49071
1.52004
1.48094
1.47116
1.48583
1.46139
1.46139
1.45650
1.45161
1.48094
1.44673
1.44673
1.44673
1.44184
1.45650
1.44184
1.44673
1.44673
1.44673
1.47116
1.44184
1.44673
1.44184
1.43695
1.45650
1.43695
1.43206
1.44673
1.42717
1.42717
1.42717
1.44184
1.47116
1.52981
1.61779
1.71554
1.83773
1.95992
2.07234
2.18964
2.23851
2.27761
2.29717
2.28739
2.26295
2.22385
2.18475
2.17009
2.08700
2.05767
1.99902
1.96481
1.92571
1.89638
1.87683
1.88661
1.84262
1.81329
1.79863
1.76931
1.73998
1.72043
1.69110
1.67155
1.65200
1.64223
1.66667
1.63245
1.64223
1.63734
1.64712
1.65200
1.65200
1.68133
1.65689
1.66178
1.65200
1.64712
1.63734
1.61779
1.64223
1.59335
1.57869
1.55914
1.53959
1.55425
1.50049
1.48583
1.47605
1.45650
1.45161
1.43695
1.43206
1.42229
1.41251
1.44184
1.40274
1.40274
1.39785
1.39785
1.39785
1.39296
1.39296
1.39296
1.42229
1.39296
1.40274
1.38807
1.38807
1.39296
1.38807
1.40274
1.38807
1.38319
1.38319
1.37830
1.38319
1.37341
1.36852
1.36852
1.38319
1.41740
1.46139
1.54936
1.69110
1.77419
1.91105
2.02835
2.13587
2.21408
2.26784
2.29717
2.29228
2.27273
2.27273
2.19453
2.15054
2.10166
2.05767
2.01369
1.97947
1.94526
1.92082
1.89150
1.87683
1.88172
1.84262
1.82307
1.80352
1.77908
1.74976
1.72043
1.70088
1.67155
1.65200
1.64223
1.63245
1.66178
1.62757
1.63245
1.63734
1.64223
1.64712
1.64712
1.64223
1.67155
1.63734
1.63245
1.61779
1.60313
1.58847
1.57380
1.55914
1.53959
1.52981
1.51026
1.49071
1.48094
1.46139
1.45161
1.44184
1.43206
1.42717
1.41740
1.40762
1.40762
1.39785
1.41251
1.39296
1.39296
1.38807
1.38807
1.38319
1.38319
1.38807
1.38319
1.37830
1.38807
1.37830
1.37341
1.40762
1.37341
1.37830
1.37341
1.37341
1.38319
1.36852
1.36852
1.36852
1.35875
1.37341
1.35875
1.37830
1.40762
1.47116
1.59335
1.67644
1.81329
1.93548
2.06256
2.16520
2.23851
2.28739
2.30694
2.31672
2.27273
2.23851
2.18964
2.14076
2.13099
2.04790
2.00880
1.96970
1.94037
1.92082
1.88661
1.86706
1.86217
1.83284
1.81329
1.79374
1.76931
1.75464
1.71065
1.69110
1.66667
1.64712
1.63734
1.62757
1.63245
1.62757
1.63245
1.63245
1.64223
1.65689
1.63734
1.64712
1.63734
1.63245
1.62757
1.61290
1.60313
1.58358
1.56891
1.55425
1.53959
1.52493
1.50538
1.49071
1.47605
1.46139
1.46628
1.43695
1.43695
1.42229
1.41740
1.40762
1.39785
1.40274
1.39785
1.39785
1.38807
1.39296
1.38807
1.38807
1.38807
1.38319
1.38807
1.38807
1.38319
1.41740
1.38319
1.38807
1.38319
1.38319
1.41251
1.38807
1.38807
1.39785
1.38319
1.38807
1.37830
1.37830
1.37830
1.37341
1.38319
1.38807
1.41740
1.47116
1.54936
1.66667
1.78886
1.92082
2.07234
2.16031
2.23851
2.30694
2.31183
2.31672
2.28739
2.25318
2.20919
2.16031
2.12610
2.06256
2.01857
1.97458
1.94037
1.90616
1.88172
1.86217
1.86217
1.82307
1.80352
1.77908
1.75953
1.73021
1.70577
1.68622
1.66667
1.65200
1.64712
1.64223
1.68622
1.65200
1.66178
1.66667
1.67155
1.68133
1.68133
1.69110
1.68133
1.67644
1.66667
1.65689
1.68133
1.62757
1.62268
1.59335
1.58358
1.55914
1.54448
1.56403
1.51515
1.50538
1.48583
1.47605
1.46628
1.45161
1.48583
1.44184
1.44673
1.43695
1.43695
1.43206
1.43206
1.43206
1.42717
1.42717
1.42717
1.43206
1.45650
1.42229
1.43206
1.42717
1.42717
1.46139
1.42717
1.42717
1.42229
1.41740
1.41740
1.41251
1.42229
1.40762
1.40274
1.39785
1.39785
1.41251
1.43695
1.48583
1.57380
1.68133
1.80841
1.93548
2.05279
2.17009
2.23851
2.28250
2.30694
2.30205
2.27761
2.24829
2.19453
2.15054
2.09677
2.05279
2.00391
1.95992
1.94037
1.89638
1.86706
1.84751
1.86217
1.80352
1.79374
1.76442
1.73998
1.71065
1.68622
1.69110
1.63734
1.62757
1.61290
1.60802
1.63734
1.61290
1.62268
1.62268
1.63245
1.63734
1.63734
1.64223
1.63734
1.63245
1.64712
1.61290
1.60313
1.58358
1.57380
1.55425
1.53470
1.54448
1.50049
1.49071
1.46628
1.45650
1.44184
1.42717
1.43695
1.41251
1.41251
1.39785
1.39296
1.38807
1.38319
1.42229
1.38319
1.38807
1.37830
1.37830
1.37830
1.37341
1.41251
1.37341
1.38319
1.37341
1.37341
1.37341
1.36852
1.36852
1.36852
1.38807
1.36852
1.36852
1.36364
1.35875
1.35875
1.35386
1.35875
1.35875
1.38319
1.42229
1.49560
1.61779
1.72043
1.85728
1.98925
2.10655
2.19941
2.26784
2.31183
2.31672
2.30694
2.31183
2.23363
2.18964
2.13587
2.09189
2.03812
1.99902
1.95992
1.92571
1.90127
1.87683
1.85239
1.83773
1.85239
1.79863
1.77908
1.74976
1.72043
1.69599
1.66667
1.67644
1.63734
1.62757
1.62268
1.62757
1.64223
1.62757
1.63734
1.63734
1.64223
1.64223
1.63734
1.63245
1.64223
1.62268
1.61779
1.59335
1.58847
1.56403
1.54448
1.53470
1.51515
1.49560
1.48583
1.47116
1.49560
1.44673
1.44184
1.42717
1.42229
1.41251
1.40762
1.42229
1.39785
1.39296
1.39296
1.38807
1.38319
1.37830
1.39785
1.37830
1.39296
1.37341
1.37830
1.37341
1.36852
1.36852
1.37341
1.38319
1.36852
1.37341
1.39785
1.36364
1.36852
1.36852
1.36364
1.39296
1.35875
1.36364
1.35386
1.35386
1.35875
1.37830
1.41251
1.48583
1.60313
1.70088
1.83773
1.97458
2.09189
2.23363
2.26784
2.31183
2.32160
2.31183
2.28250
2.24340
2.21408
2.14565
2.10166
2.04790
2.00391
1.96481
1.92571
1.89638
1.86706
1.84262
1.83284
1.80352
1.78886
1.75953
1.73998
1.73509
1.68622
1.66667
1.64223
1.63734
1.62757
1.62757
1.66178
1.63245
1.64712
1.64223
1.64712
1.65689
1.65689
1.65689
1.65200
1.65689
1.63734
1.62757
1.62268
1.60802
1.59335
1.57380
1.55425
1.53959
1.52493
1.51515
1.49560
1.48583
1.48583
1.46139
1.47116
1.44184
1.43695
1.42717
1.42717
1.41740
1.41740
1.41740
1.41251
1.40762
1.43695
1.40274
1.41251
1.40762
1.40762
1.40274
1.40274
1.40274
1.40274
1.40274
1.39785
1.40274
1.41251
1.40274
1.40274
1.40762
1.40274
1.40274
1.39785
1.39785
1.41251
1.38807
1.39785
1.40274
1.42717
1.51515
1.55914
1.67155
1.78886
1.92571
2.08211
2.15543
2.24340
2.29228
2.32160
2.31672
2.29717
2.26295
2.21896
2.20430
2.11632
2.07234
2.02346
1.97947
1.94526
1.90127
1.87683
1.85728
1.82307
1.80352
1.78397
1.75953
1.73021
1.70577
1.69110
1.66178
1.64712
1.63734
1.62757
1.64712
1.63734
1.65200
1.65689
1.66667
1.67155
1.68622
1.69599
1.68622
1.68622
1.68133
1.67644
1.66667
1.65689
1.64223
1.65689
1.60313
1.59824
1.56891
1.55425
1.52981
1.51515
1.50049
1.48583
1.48094
1.46628
1.45650
1.44184
1.44184
1.45650
1.42229
1.43695
1.42229
1.42229
1.41740
1.42229
1.41251
1.41251
1.43206
1.40762
1.41251
1.40762
1.40762
1.43206
1.40274
1.40762
1.40274
1.40274
1.42717
1.39296
1.39296
1.38319
1.37830
1.38319
1.39296
1.42229
1.47116
1.54936
1.65689
1.78886
1.92082
2.04301
2.14565
2.25806
2.28250
2.30694
2.33138
2.28250
2.24829
2.20430
2.15054
2.10166
2.05767
2.04301
1.96481
1.94037
1.89150
1.86217
1.87195
1.81329
1.79863
1.77419
1.75464
1.72532
1.69599
1.71065
1.64712
1.63245
1.61290
1.60802
1.59824
1.60313
1.64712
1.61290
1.62268
1.64223
1.63734
1.65689
1.63734
1.64223
1.67155
1.62757
1.63245
1.60802
1.59824
1.57869
1.56403
1.54448
1.52981
1.54936
1.49560
1.48583
1.46628
1.45161
1.44184
1.43206
1.42229
1.40762
1.40762
1.40274
1.39296
1.40762
1.38807
1.39296
1.38319
1.38319
1.41251
1.37830
1.38807
1.38319
1.37830
1.37830
1.37341
1.37341
1.37830
1.39785
1.37341
1.37830
1.37341
1.37341
1.40274
1.36364
1.36852
1.36364
1.36364
1.36852
1.38319
1.42229
1.49071
1.58847
1.72043
1.84751
1.98925
2.10655
2.20919
2.27761
2.32160
2.35582
2.32649
2.29717
2.25318
2.20430
2.15054
2.10655
2.05767
2.01369
1.98436
1.93548
1.90616
1.88172
1.85728
1.83284
1.81329
1.78886
1.76931
1.73998
1.71554
1.70088
1.66178
1.64223
1.62757
1.62268
1.65200
1.61779
1.62757
1.63245
1.63734
1.63734
1.64712
1.67644
1.64712
1.64712
1.63734
1.62757
1.61779
1.60802
1.62757
1.57869
1.56891
1.54936
1.52493
1.51026
1.50049
1.50538
1.47116
1.46139
1.44673
1.44184
1.43206
1.42229
1.41740
1.40762
1.40274
1.41251
1.39785
1.39785
1.39296
1.38807
1.39296
1.38319
1.38319
1.38319
1.38319
1.37341
1.38807
1.37830
1.37830
1.37341
1.37341
1.39785
1.37341
1.37341
1.38807
1.37341
1.36852
1.36364
1.36364
1.38319
1.36364
1.37341
1.39785
1.44673
1.52981
1.63734
1.78397
1.90616
2.04301
2.15543
2.24340
2.30205
2.33138
2.33138
2.31183
2.30205
2.22874
2.17986
2.13099
2.07722
2.02835
1.98925
1.95015
1.90616
1.87683
1.85239
1.86217
1.80841
1.79863
1.76442
1.74487
1.71554
1.69110
1.68133
1.64223
1.63734
1.62268
1.61290
1.65689
1.62268
1.63245
1.63734
1.64223
1.68133
1.65689
1.66667
1.65689
1.65200
1.64712
1.63734
1.63734
1.61290
1.61290
1.57869
1.56891
1.54936
1.53470
1.52004
1.50049
1.49560
1.48094
1.47116
1.49560
1.45161
1.44673
1.43695
1.43206
1.42717
1.42229
1.41740
1.41740
1.41251
1.43695
1.41251
1.41251
1.41251
1.40762
1.40762
1.40762
1.41251
1.40274
1.40762
1.40762
1.40762
1.43695
1.40762
1.41251
1.40762
1.41251
1.40762
1.40274
1.43206
1.40274
1.40274
1.40274
1.42229
1.46139
1.52493
1.65200
1.73509
1.87195
1.99902
2.12121
2.20919
2.28250
2.32160
2.33627
2.32160
2.31672
2.25318
2.20919
2.15543
2.10655
2.05767
2.00880
1.95992
1.92571
1.89150
1.86217
1.86706
1.80841
1.79863
1.76931
1.74487
1.71554
1.69599
1.69599
1.65200
1.64712
1.63734
1.63734
1.64223
1.64712
1.67644
1.67155
1.69110
1.69110
1.70088
1.70088
1.70088
1.71554
1.69599
1.69110
1.67644
1.66178
1.64712
1.63245
1.62268
1.59335
1.57380
1.55914
1.54448
1.52981
1.51515
1.49560
1.52981
1.48094
1.47605
1.46628
1.46139
1.45161
1.44673
1.48094
1.44184
1.44184
1.43695
1.43695
1.46628
1.43206
1.43206
1.42717
1.42717
1.42717
1.42229
1.42717
1.42229
1.42229
1.41740
1.41740
1.43695
1.40762
1.40274
1.39785
1.39296
1.42717
1.41251
1.45161
1.50538
1.59824
1.70577
1.83284
1.97458
2.08211
2.17986
2.24829
2.29228
2.32649
2.29717
2.27273
2.22874
2.18964
2.13587
2.08211
2.03812
1.98925
1.97458
1.91105
1.88172
1.85239
1.82307
1.80352
1.77908
1.75953
1.75464
1.71065
1.69110
1.66178
1.64223
1.63734
1.61779
1.61290
1.60802
1.61290
1.63734
1.62757
1.63734
1.64223
1.64712
1.64223
1.64712
1.64712
1.63734
1.62757
1.61779
1.60313
1.58847
1.56891
1.56891
1.53959
1.52493
1.51026
1.49560
1.48094
1.46139
1.48094
1.44184
1.43695
1.42717
1.42229
1.41251
1.40762
1.40274
1.39785
1.41251
1.39785
1.39785
1.39296
1.39296
1.39296
1.38807
1.41251
1.38807
1.39785
1.38807
1.38807
1.38319
1.37830
1.39296
1.37830
1.39296
1.37341
1.37341
1.36852
1.36852
1.40274
1.37830
1.40762
1.45161
1.53470
1.64223
1.76931
1.94037
2.03812
2.16031
2.24340
2.29717
2.33138
2.33138
2.33138
2.27761
2.23851
2.18964
2.14076
2.08700
2.04301
1.99902
1.95503
1.92571
1.89150
1.87195
1.85728
1.82796
1.81329
1.78886
1.76442
1.77908
1.71554
1.69110
1.69110
1.65200
1.64223
1.63734
1.63245
1.66667
1.64223
1.65689
1.65200
1.65689
1.66178
1.66178
1.65689
1.64712
1.68133
1.63245
1.62268
1.60802
1.59335
1.60802
1.55914
1.54936
1.52981
1.51026
1.49560
1.48583
1.48094
1.46139
1.45161
1.44184
1.43206
1.43206
1.42229
1.42717
1.41251
1.41251
1.40762
1.40762
1.42229
1.40274
1.41251
1.39785
1.39785
1.39785
1.39785
1.39785
1.39296
1.39296
1.39296
1.39296
1.40274
1.38807
1.39296
1.38319
1.37830
1.37830
1.37341
1.37341
1.36852
1.38319
1.44184
1.45161
1.52981
1.63245
1.75953
1.89150
2.01857
2.14565
2.22385
2.28739
2.31672
2.32160
2.30205
2.27273
2.26295
2.17986
2.13587
2.08211
2.03812
1.98925
1.95015
1.91593
1.89150
1.86706
1.87683
1.82307
1.81329
1.77908
1.75953
1.73509
1.70577
1.68133
1.66178
1.66178
1.64223
1.65200
1.63734
1.65200
1.65200
1.65689
1.69599
1.67644
1.68622
1.68133
1.68133
1.67644
1.66667
1.69599
1.64712
1.63734
1.61290
1.60313
1.58358
1.56403
1.54936
1.53470
1.53470
1.51026
1.50049
1.48583
1.47605
1.46628
1.46139
1.46139
1.44673
1.44673
1.44184
1.43695
1.43695
1.43206
1.47116
1.43206
1.43695
1.43206
1.42717
1.43206
1.42717
1.46139
1.42717
1.42717
1.42717
1.42717
1.42229
1.42229
1.43206
1.41740
1.42717
1.41251
1.41251
1.41251
1.43206
1.49071
1.53470
1.63245
1.73998
1.86706
1.98925
2.11144
2.19941
2.26295
2.31672
2.31183
2.30694
2.26784
2.23363
2.18475
2.13587
2.08700
2.03812
2.02346
1.95015
1.91593
1.89150
1.85728
1.83773
1.81329
1.79374
1.76442
1.74487
1.72043
1.69599
1.69599
1.65689
1.64712
1.64223
1.64223
1.64223
1.65200
1.68133
1.67155
1.68133
1.68622
1.69110
1.70088
1.69110
1.68622
1.67644
1.66178
1.67644
1.63734
1.62268
1.60313
1.58847
1.56403
1.54936
1.54936
1.51515
1.50538
1.49071
1.47605
1.46628
1.46139
1.45161
1.44184
1.43695
1.43206
1.42717
1.43695
1.42717
1.42229
1.42229
1.42229
1.42717
1.41740
1.41740
1.41251
1.41740
1.41740
1.41251
1.41251
1.42229
1.40274
1.40762
1.40274
1.39296
1.39296
1.38319
1.40274
1.39785
1.42717
1.47605
1.55425
1.65689
1.78397
1.92082
2.03812
2.14565
2.22874
2.27761
2.31672
2.30205
2.28250
2.24340
2.19941
2.18964
2.10166
2.05767
2.01369
1.96970
1.94526
1.90127
1.87683
1.86706
1.83284
1.80841
1.81329
1.76931
1.74976
1.71554
1.69110
1.66667
1.64223
1.64223
1.62268
1.62268
1.62268
1.62268
1.63245
1.64223
1.66178
1.64712
1.65689
1.65200
1.65200
1.64712
1.63734
1.65200
1.61290
1.60313
1.57869
1.56403
1.54448
1.52493
1.53470
1.49560
1.48094
1.47116
1.45161
1.47116
1.43695
1.42717
1.42229
1.41251
1.40274
1.40274
1.42229
1.39785
1.40274
1.39296
1.39296
1.42717
1.39296
1.39296
1.38807
1.38807
1.39296
1.38319
1.38807
1.38319
1.38319
1.40762
1.38319
1.38319
1.37830
1.37830
1.37830
1.37341
1.37341
1.36852
1.36852
1.36852
1.38319
1.39785
1.45650
1.52981
1.63734
1.75953
1.89638
2.03324
2.14565
2.26295
2.30205
2.33627
2.33138
2.31183
2.31672
2.23363
2.18475
2.13587
2.09189
2.04790
1.99902
1.96970
1.93548
1.90616
1.89150
1.86217
1.84751
1.86706
1.80841
1.79374
1.75953
1.73021
1.70088
1.68133
1.65689
1.64712
1.65689
1.63734
1.64712
1.64712
1.65200
1.65689
1.66178
1.70088
1.66667
1.66667
1.65689
1.64712
1.67155
1.61779
1.61290
1.59335
1.57869
1.55914
1.54448
1.55425
1.51026
1.50049
1.48094
1.47116
1.45650
1.44673
1.43695
1.43206
1.45650
1.41251
1.41740
1.40762
1.40762
1.43206
1.39785
1.40274
1.39296
1.39296
1.39296
1.39296
1.39296
1.38807
1.38319
1.41251
1.38319
1.38807
1.38319
1.38319
1.41740
1.38319
1.38319
1.37830
1.37830
1.37830
1.37341
1.37341
1.36852
1.36364
1.37341
1.38807
1.42229
1.52493
1.57869
1.70577
1.83284
1.96970
2.09189
2.19453
2.30205
2.31183
2.32649
2.31672
2.29228
2.24829
2.19941
2.17986
2.10166
2.05767
2.00391
1.96970
1.93060
1.89638
1.87683
1.86706
1.82796
1.81329
1.78886
1.76931
1.73998
1.72043
1.71065
1.67155
1.67155
1.64223
1.64223
1.63245
1.63245
1.63734
1.64223
1.67155
1.65200
1.65689
1.65689
1.65200
1.65200
1.64712
1.63734
1.62268
1.61290
1.59335
1.58358
1.58847
1.54936
1.53470
1.51515
1.50538
1.48583
1.48094
1.48583
1.45650
1.45161
1.44184
1.43206
1.44673
1.42229
1.42229
1.41740
1.41740
1.41251
1.40762
1.44184
1.41251
1.41740
1.41251
1.40762
