2022-12-02 11:30:33.071652
2022-12-02 11:30:33.080489
2022-12-02 11:30:33.088270
2022-12-02 11:30:33.100859
2022-12-02 11:30:33.109029
2022-12-02 11:30:33.117212
2022-12-02 11:30:33.125110
2022-12-02 11:30:33.136616
2022-12-02 11:30:33.145586
2022-12-02 11:30:33.153081
2022-12-02 11:30:33.166250
2022-12-02 11:30:33.175236
2022-12-02 11:30:33.182801
2022-12-02 11:30:33.191639
2022-12-02 11:30:33.203399
2022-12-02 11:30:33.211322
2022-12-02 11:30:33.219711
2022-12-02 11:30:33.227015
2022-12-02 11:30:33.240187
2022-12-02 11:30:33.248488
2022-12-02 11:30:33.256107
2022-12-02 11:30:33.268658
2022-12-02 11:30:33.276602
2022-12-02 11:30:33.284981
2022-12-02 11:30:33.293540
2022-12-02 11:30:33.306227
2022-12-02 11:30:33.313713
2022-12-02 11:30:33.322294
2022-12-02 11:30:33.333975
2022-12-02 11:30:33.342305
2022-12-02 11:30:33.349734
2022-12-02 11:30:33.359164
2022-12-02 11:30:33.371323
2022-12-02 11:30:33.378510
2022-12-02 11:30:33.387704
2022-12-02 11:30:33.399755
2022-12-02 11:30:33.408242
2022-12-02 11:30:33.415903
2022-12-02 11:30:33.424966
2022-12-02 11:30:33.435839
2022-12-02 11:30:33.444337
2022-12-02 11:30:33.453040
2022-12-02 11:30:33.465935
2022-12-02 11:30:33.474163
2022-12-02 11:30:33.482323
2022-12-02 11:30:33.490554
2022-12-02 11:30:33.502066
2022-12-02 11:30:33.510104
2022-12-02 11:30:33.517712
2022-12-02 11:30:33.531322
2022-12-02 11:30:33.539411
2022-12-02 11:30:33.547388
2022-12-02 11:30:33.555717
2022-12-02 11:30:33.567572
2022-12-02 11:30:33.576065
2022-12-02 11:30:33.583873
2022-12-02 11:30:33.596352
2022-12-02 11:30:33.604762
2022-12-02 11:30:33.612645
2022-12-02 11:30:33.621581
2022-12-02 11:30:33.633293
2022-12-02 11:30:33.641127
2022-12-02 11:30:33.649716
2022-12-02 11:30:33.661027
2022-12-02 11:30:33.670139
2022-12-02 11:30:33.677486
2022-12-02 11:30:33.685946
2022-12-02 11:30:33.699072
2022-12-02 11:30:33.707429
2022-12-02 11:30:33.715627
2022-12-02 11:30:33.726677
2022-12-02 11:30:33.735830
2022-12-02 11:30:33.743342
2022-12-02 11:30:33.752169
2022-12-02 11:30:33.763753
2022-12-02 11:30:33.772475
2022-12-02 11:30:33.780500
2022-12-02 11:30:33.792816
2022-12-02 11:30:33.800473
2022-12-02 11:30:33.809364
2022-12-02 11:30:33.817630
2022-12-02 11:30:33.829634
2022-12-02 11:30:33.838160
2022-12-02 11:30:33.846389
2022-12-02 11:30:33.858613
2022-12-02 11:30:33.865926
2022-12-02 11:30:33.875083
2022-12-02 11:30:33.883278
2022-12-02 11:30:33.895145
2022-12-02 11:30:33.903657
2022-12-02 11:30:33.911649
2022-12-02 11:30:33.924168
2022-12-02 11:30:33.932010
2022-12-02 11:30:33.940416
2022-12-02 11:30:33.948712
2022-12-02 11:30:33.960840
2022-12-02 11:30:33.969115
2022-12-02 11:30:33.976926
2022-12-02 11:30:33.989808
2022-12-02 11:30:33.997642
2022-12-02 11:30:34.005408
2022-12-02 11:30:34.014177
2022-12-02 11:30:34.026339
2022-12-02 11:30:34.034184
2022-12-02 11:30:34.042506
2022-12-02 11:30:34.050437
2022-12-02 11:30:34.063027
2022-12-02 11:30:34.071004
2022-12-02 11:30:34.079707
2022-12-02 11:30:34.092196
2022-12-02 11:30:34.099692
2022-12-02 11:30:34.108250
2022-12-02 11:30:34.117211
2022-12-02 11:30:34.128853
2022-12-02 11:30:34.136947
2022-12-02 11:30:34.145111
2022-12-02 11:30:34.157638
2022-12-02 11:30:34.165353
2022-12-02 11:30:34.173828
2022-12-02 11:30:34.182253
2022-12-02 11:30:34.194335
2022-12-02 11:30:34.201954
2022-12-02 11:30:34.210521
2022-12-02 11:30:34.222439
2022-12-02 11:30:34.230844
2022-12-02 11:30:34.238573
2022-12-02 11:30:34.247372
2022-12-02 11:30:34.259351
2022-12-02 11:30:34.267678
2022-12-02 11:30:34.276267
2022-12-02 11:30:34.288093
2022-12-02 11:30:34.296342
2022-12-02 11:30:34.304901
2022-12-02 11:30:34.312636
2022-12-02 11:30:34.324964
2022-12-02 11:30:34.333657
2022-12-02 11:30:34.341048
2022-12-02 11:30:34.354895
2022-12-02 11:30:34.362815
2022-12-02 11:30:34.370797
2022-12-02 11:30:34.378838
2022-12-02 11:30:34.391674
2022-12-02 11:30:34.399394
2022-12-02 11:30:34.407653
2022-12-02 11:30:34.419840
2022-12-02 11:30:34.427523
2022-12-02 11:30:34.436264
2022-12-02 11:30:34.443968
2022-12-02 11:30:34.457284
2022-12-02 11:30:34.465381
2022-12-02 11:30:34.472810
2022-12-02 11:30:34.485106
2022-12-02 11:30:34.492915
2022-12-02 11:30:34.501620
2022-12-02 11:30:34.509706
2022-12-02 11:30:34.522743
2022-12-02 11:30:34.530200
2022-12-02 11:30:34.539244
2022-12-02 11:30:34.549939
2022-12-02 11:30:34.559592
2022-12-02 11:30:34.566192
2022-12-02 11:30:34.575575
2022-12-02 11:30:34.587716
2022-12-02 11:30:34.595740
2022-12-02 11:30:34.604246
2022-12-02 11:30:34.615896
2022-12-02 11:30:34.625130
2022-12-02 11:30:34.632829
2022-12-02 11:30:34.641025
2022-12-02 11:30:34.653213
2022-12-02 11:30:34.660644
2022-12-02 11:30:34.669573
2022-12-02 11:30:34.682030
2022-12-02 11:30:34.690800
2022-12-02 11:30:34.698678
2022-12-02 11:30:34.707020
2022-12-02 11:30:34.718002
2022-12-02 11:30:34.726281
2022-12-02 11:30:34.734501
2022-12-02 11:30:34.747485
2022-12-02 11:30:34.755682
2022-12-02 11:30:34.763919
2022-12-02 11:30:34.772072
2022-12-02 11:30:34.783992
2022-12-02 11:30:34.792543
2022-12-02 11:30:34.799911
2022-12-02 11:30:34.812294
2022-12-02 11:30:34.821032
2022-12-02 11:30:34.829171
2022-12-02 11:30:34.837102
2022-12-02 11:30:34.848798
2022-12-02 11:30:34.857950
2022-12-02 11:30:34.865946
2022-12-02 11:30:34.874254
2022-12-02 11:30:34.887035
2022-12-02 11:30:34.894850
2022-12-02 11:30:34.902650
2022-12-02 11:30:34.915147
2022-12-02 11:30:34.923489
2022-12-02 11:30:34.931727
2022-12-02 11:30:34.939228
2022-12-02 11:30:34.951676
2022-12-02 11:30:34.959513
2022-12-02 11:30:34.968444
2022-12-02 11:30:34.980379
2022-12-02 11:30:34.988499
2022-12-02 11:30:34.996933
2022-12-02 11:30:35.005072
2022-12-02 11:30:35.017035
2022-12-02 11:30:35.025860
2022-12-02 11:30:35.033929
2022-12-02 11:30:35.045712
2022-12-02 11:30:35.054266
2022-12-02 11:30:35.061800
2022-12-02 11:30:35.070627
2022-12-02 11:30:35.083116
2022-12-02 11:30:35.090899
2022-12-02 11:30:35.099201
2022-12-02 11:30:35.111733
2022-12-02 11:30:35.119936
2022-12-02 11:30:35.128111
2022-12-02 11:30:35.136284
2022-12-02 11:30:35.148622
2022-12-02 11:30:35.156858
2022-12-02 11:30:35.164966
2022-12-02 11:30:35.176659
2022-12-02 11:30:35.185544
2022-12-02 11:30:35.193507
2022-12-02 11:30:35.201928
2022-12-02 11:30:35.214260
2022-12-02 11:30:35.223008
2022-12-02 11:30:35.230465
2022-12-02 11:30:35.242522
2022-12-02 11:30:35.250918
2022-12-02 11:30:35.259252
2022-12-02 11:30:35.267350
2022-12-02 11:30:35.279918
2022-12-02 11:30:35.288126
2022-12-02 11:30:35.296384
2022-12-02 11:30:35.308438
2022-12-02 11:30:35.316724
2022-12-02 11:30:35.324959
2022-12-02 11:30:35.333359
2022-12-02 11:30:35.345208
2022-12-02 11:30:35.352926
2022-12-02 11:30:35.361654
2022-12-02 11:30:35.374438
2022-12-02 11:30:35.382309
2022-12-02 11:30:35.390598
2022-12-02 11:30:35.398606
2022-12-02 11:30:35.410608
2022-12-02 11:30:35.419015
2022-12-02 11:30:35.427145
2022-12-02 11:30:35.439773
2022-12-02 11:30:35.447959
2022-12-02 11:30:35.456471
2022-12-02 11:30:35.464062
2022-12-02 11:30:35.475725
2022-12-02 11:30:35.484568
2022-12-02 11:30:35.492195
2022-12-02 11:30:35.504960
2022-12-02 11:30:35.513990
2022-12-02 11:30:35.521599
2022-12-02 11:30:35.529577
2022-12-02 11:30:35.542420
2022-12-02 11:30:35.550107
2022-12-02 11:30:35.558532
2022-12-02 11:30:35.570557
2022-12-02 11:30:35.578972
2022-12-02 11:30:35.587346
2022-12-02 11:30:35.595448
2022-12-02 11:30:35.607686
2022-12-02 11:30:35.615015
2022-12-02 11:30:35.624085
2022-12-02 11:30:35.636271
2022-12-02 11:30:35.643601
2022-12-02 11:30:35.652607
2022-12-02 11:30:35.660162
2022-12-02 11:30:35.672935
2022-12-02 11:30:35.681114
2022-12-02 11:30:35.689238
2022-12-02 11:30:35.701120
2022-12-02 11:30:35.708971
2022-12-02 11:30:35.718060
2022-12-02 11:30:35.725719
2022-12-02 11:30:35.738926
2022-12-02 11:30:35.747336
2022-12-02 11:30:35.755340
2022-12-02 11:30:35.763046
2022-12-02 11:30:35.775587
2022-12-02 11:30:35.783857
2022-12-02 11:30:35.791999
2022-12-02 11:30:35.804263
2022-12-02 11:30:35.811319
2022-12-02 11:30:35.820497
2022-12-02 11:30:35.828572
2022-12-02 11:30:35.840689
2022-12-02 11:30:35.848917
2022-12-02 11:30:35.856991
2022-12-02 11:30:35.870380
2022-12-02 11:30:35.877857
2022-12-02 11:30:35.886226
2022-12-02 11:30:35.894099
2022-12-02 11:30:35.906785
2022-12-02 11:30:35.914552
2022-12-02 11:30:35.923445
2022-12-02 11:30:35.935602
2022-12-02 11:30:35.943262
2022-12-02 11:30:35.951791
2022-12-02 11:30:35.960134
2022-12-02 11:30:35.972275
2022-12-02 11:30:35.980186
2022-12-02 11:30:35.988401
2022-12-02 11:30:36.000681
2022-12-02 11:30:36.008932
2022-12-02 11:30:36.017084
2022-12-02 11:30:36.025751
2022-12-02 11:30:36.037402
2022-12-02 11:30:36.045770
2022-12-02 11:30:36.053202
2022-12-02 11:30:36.066128
2022-12-02 11:30:36.074224
2022-12-02 11:30:36.082600
2022-12-02 11:30:36.091139
2022-12-02 11:30:36.103701
2022-12-02 11:30:36.111209
2022-12-02 11:30:36.119678
2022-12-02 11:30:36.131685
2022-12-02 11:30:36.139515
2022-12-02 11:30:36.147751
2022-12-02 11:30:36.155902
2022-12-02 11:30:36.167797
2022-12-02 11:30:36.176396
2022-12-02 11:30:36.184965
2022-12-02 11:30:36.197198
2022-12-02 11:30:36.205623
2022-12-02 11:30:36.213649
2022-12-02 11:30:36.222017
2022-12-02 11:30:36.234248
2022-12-02 11:30:36.242162
2022-12-02 11:30:36.250703
2022-12-02 11:30:36.262780
2022-12-02 11:30:36.271303
2022-12-02 11:30:36.279463
2022-12-02 11:30:36.287666
2022-12-02 11:30:36.299605
2022-12-02 11:30:36.308089
2022-12-02 11:30:36.315615
2022-12-02 11:30:36.328677
2022-12-02 11:30:36.337342
2022-12-02 11:30:36.344736
2022-12-02 11:30:36.353650
2022-12-02 11:30:36.365098
2022-12-02 11:30:36.374040
2022-12-02 11:30:36.381255
2022-12-02 11:30:36.393151
2022-12-02 11:30:36.402530
2022-12-02 11:30:36.409577
2022-12-02 11:30:36.418535
2022-12-02 11:30:36.431292
2022-12-02 11:30:36.439616
2022-12-02 11:30:36.447608
2022-12-02 11:30:36.458915
2022-12-02 11:30:36.467705
2022-12-02 11:30:36.475490
2022-12-02 11:30:36.484064
2022-12-02 11:30:36.495965
2022-12-02 11:30:36.505310
2022-12-02 11:30:36.512584
2022-12-02 11:30:36.525551
2022-12-02 11:30:36.533021
2022-12-02 11:30:36.541500
2022-12-02 11:30:36.549561
2022-12-02 11:30:36.561804
2022-12-02 11:30:36.570297
2022-12-02 11:30:36.577598
2022-12-02 11:30:36.586248
2022-12-02 11:30:36.598341
2022-12-02 11:30:36.606887
2022-12-02 11:30:36.614767
2022-12-02 11:30:36.626531
2022-12-02 11:30:36.635421
2022-12-02 11:30:36.644016
2022-12-02 11:30:36.651976
2022-12-02 11:30:36.664940
2022-12-02 11:30:36.672269
2022-12-02 11:30:36.680286
2022-12-02 11:30:36.692435
2022-12-02 11:30:36.701321
2022-12-02 11:30:36.708597
2022-12-02 11:30:36.717531
2022-12-02 11:30:36.729978
2022-12-02 11:30:36.738239
2022-12-02 11:30:36.746376
2022-12-02 11:30:36.758542
2022-12-02 11:30:36.766430
2022-12-02 11:30:36.774450
2022-12-02 11:30:36.783388
2022-12-02 11:30:36.795410
2022-12-02 11:30:36.803697
2022-12-02 11:30:36.811720
2022-12-02 11:30:36.823501
2022-12-02 11:30:36.831478
2022-12-02 11:30:36.841051
2022-12-02 11:30:36.848266
2022-12-02 11:30:36.860038
2022-12-02 11:30:36.868198
2022-12-02 11:30:36.876652
2022-12-02 11:30:36.888636
2022-12-02 11:30:36.897586
2022-12-02 11:30:36.905443
2022-12-02 11:30:36.913987
2022-12-02 11:30:36.926249
2022-12-02 11:30:36.934435
2022-12-02 11:30:36.943207
2022-12-02 11:30:36.954516
2022-12-02 11:30:36.963314
2022-12-02 11:30:36.970819
2022-12-02 11:30:36.979334
2022-12-02 11:30:36.991427
2022-12-02 11:30:37.000030
2022-12-02 11:30:37.008699
2022-12-02 11:30:37.020243
2022-12-02 11:30:37.028357
2022-12-02 11:30:37.036962
2022-12-02 11:30:37.045968
2022-12-02 11:30:37.058067
2022-12-02 11:30:37.066042
2022-12-02 11:30:37.074259
2022-12-02 11:30:37.086687
2022-12-02 11:30:37.094130
2022-12-02 11:30:37.103365
2022-12-02 11:30:37.110275
2022-12-02 11:30:37.123441
2022-12-02 11:30:37.131354
2022-12-02 11:30:37.139618
2022-12-02 11:30:37.151813
2022-12-02 11:30:37.158898
2022-12-02 11:30:37.168838
2022-12-02 11:30:37.176401
2022-12-02 11:30:37.188730
2022-12-02 11:30:37.196384
2022-12-02 11:30:37.204494
2022-12-02 11:30:37.216702
2022-12-02 11:30:37.224958
2022-12-02 11:30:37.233101
2022-12-02 11:30:37.241025
2022-12-02 11:30:37.253981
2022-12-02 11:30:37.261756
2022-12-02 11:30:37.270560
2022-12-02 11:30:37.282679
2022-12-02 11:30:37.290691
2022-12-02 11:30:37.298368
2022-12-02 11:30:37.307047
2022-12-02 11:30:37.318692
2022-12-02 11:30:37.327729
2022-12-02 11:30:37.335607
2022-12-02 11:30:37.347320
2022-12-02 11:30:37.355908
2022-12-02 11:30:37.364185
2022-12-02 11:30:37.372774
2022-12-02 11:30:37.384891
2022-12-02 11:30:37.393027
2022-12-02 11:30:37.401127
2022-12-02 11:30:37.409392
2022-12-02 11:30:37.421423
2022-12-02 11:30:37.429809
2022-12-02 11:30:37.438293
2022-12-02 11:30:37.450254
2022-12-02 11:30:37.458407
2022-12-02 11:30:37.466957
2022-12-02 11:30:37.474725
2022-12-02 11:30:37.487556
2022-12-02 11:30:37.495442
2022-12-02 11:30:37.504107
2022-12-02 11:30:37.515541
2022-12-02 11:30:37.524815
2022-12-02 11:30:37.532876
2022-12-02 11:30:37.541312
2022-12-02 11:30:37.553818
2022-12-02 11:30:37.561222
2022-12-02 11:30:37.570106
2022-12-02 11:30:37.581437
2022-12-02 11:30:37.590694
2022-12-02 11:30:37.597582
2022-12-02 11:30:37.607156
2022-12-02 11:30:37.618257
2022-12-02 11:30:37.626113
2022-12-02 11:30:37.634963
2022-12-02 11:30:37.647516
2022-12-02 11:30:37.655692
2022-12-02 11:30:37.664395
2022-12-02 11:30:37.672160
2022-12-02 11:30:37.684174
2022-12-02 11:30:37.692644
2022-12-02 11:30:37.700265
2022-12-02 11:30:37.712158
2022-12-02 11:30:37.721792
2022-12-02 11:30:37.729158
2022-12-02 11:30:37.738092
2022-12-02 11:30:37.749949
2022-12-02 11:30:37.758058
2022-12-02 11:30:37.765874
2022-12-02 11:30:37.779045
2022-12-02 11:30:37.787371
2022-12-02 11:30:37.794688
2022-12-02 11:30:37.803301
2022-12-02 11:30:37.814664
2022-12-02 11:30:37.823656
2022-12-02 11:30:37.831841
2022-12-02 11:30:37.843819
2022-12-02 11:30:37.852195
2022-12-02 11:30:37.860323
2022-12-02 11:30:37.868963
2022-12-02 11:30:37.880074
2022-12-02 11:30:37.889757
2022-12-02 11:30:37.896390
2022-12-02 11:30:37.909047
2022-12-02 11:30:37.916813
2022-12-02 11:30:37.925756
2022-12-02 11:30:37.934063
2022-12-02 11:30:37.945814
2022-12-02 11:30:37.953778
2022-12-02 11:30:37.963353
2022-12-02 11:30:37.974952
2022-12-02 11:30:37.983133
2022-12-02 11:30:37.991434
2022-12-02 11:30:37.999259
2022-12-02 11:30:38.011931
2022-12-02 11:30:38.019205
2022-12-02 11:30:38.028159
2022-12-02 11:30:38.040806
2022-12-02 11:30:38.048530
2022-12-02 11:30:38.057672
2022-12-02 11:30:38.065164
2022-12-02 11:30:38.077290
2022-12-02 11:30:38.085929
2022-12-02 11:30:38.093739
2022-12-02 11:30:38.105333
2022-12-02 11:30:38.113508
2022-12-02 11:30:38.122613
2022-12-02 11:30:38.130553
2022-12-02 11:30:38.142880
2022-12-02 11:30:38.151613
2022-12-02 11:30:38.159314
2022-12-02 11:30:38.171779
2022-12-02 11:30:38.179950
2022-12-02 11:30:38.188080
2022-12-02 11:30:38.196053
2022-12-02 11:30:38.207532
2022-12-02 11:30:38.216357
2022-12-02 11:30:38.224121
2022-12-02 11:30:38.237529
2022-12-02 11:30:38.245436
2022-12-02 11:30:38.253578
2022-12-02 11:30:38.261638
2022-12-02 11:30:38.274653
2022-12-02 11:30:38.282074
2022-12-02 11:30:38.290937
2022-12-02 11:30:38.298109
2022-12-02 11:30:38.310684
2022-12-02 11:30:38.319241
2022-12-02 11:30:38.327355
2022-12-02 11:30:38.339801
2022-12-02 11:30:38.347655
2022-12-02 11:30:38.356093
2022-12-02 11:30:38.363824
2022-12-02 11:30:38.376422
2022-12-02 11:30:38.385373
2022-12-02 11:30:38.392482
2022-12-02 11:30:38.405743
2022-12-02 11:30:38.413328
2022-12-02 11:30:38.422153
2022-12-02 11:30:38.430490
2022-12-02 11:30:38.441453
2022-12-02 11:30:38.450114
2022-12-02 11:30:38.458104
2022-12-02 11:30:38.470824
2022-12-02 11:30:38.479641
2022-12-02 11:30:38.487461
2022-12-02 11:30:38.494798
2022-12-02 11:30:38.507632
2022-12-02 11:30:38.515446
2022-12-02 11:30:38.524001
2022-12-02 11:30:38.535317
2022-12-02 11:30:38.544009
2022-12-02 11:30:38.552431
2022-12-02 11:30:38.560448
2022-12-02 11:30:38.573300
2022-12-02 11:30:38.581373
2022-12-02 11:30:38.589736
2022-12-02 11:30:38.602351
2022-12-02 11:30:38.609062
2022-12-02 11:30:38.618320
2022-12-02 11:30:38.625701
2022-12-02 11:30:38.639221
2022-12-02 11:30:38.647288
2022-12-02 11:30:38.655453
2022-12-02 11:30:38.666913
2022-12-02 11:30:38.674684
2022-12-02 11:30:38.682871
2022-12-02 11:30:38.691347
2022-12-02 11:30:38.704334
2022-12-02 11:30:38.712174
2022-12-02 11:30:38.720613
2022-12-02 11:30:38.732703
2022-12-02 11:30:38.741058
2022-12-02 11:30:38.749058
2022-12-02 11:30:38.757415
2022-12-02 11:30:38.769934
2022-12-02 11:30:38.777816
2022-12-02 11:30:38.786172
2022-12-02 11:30:38.798252
2022-12-02 11:30:38.806422
2022-12-02 11:30:38.814379
2022-12-02 11:30:38.822971
2022-12-02 11:30:38.835489
2022-12-02 11:30:38.843343
2022-12-02 11:30:38.851486
2022-12-02 11:30:38.863820
2022-12-02 11:30:38.872232
2022-12-02 11:30:38.879961
2022-12-02 11:30:38.889220
2022-12-02 11:30:38.900943
2022-12-02 11:30:38.908776
2022-12-02 11:30:38.917022
2022-12-02 11:30:38.928910
2022-12-02 11:30:38.936955
2022-12-02 11:30:38.945585
2022-12-02 11:30:38.953369
2022-12-02 11:30:38.966039
2022-12-02 11:30:38.973975
2022-12-02 11:30:38.982242
2022-12-02 11:30:38.994346
2022-12-02 11:30:39.002779
2022-12-02 11:30:39.010420
2022-12-02 11:30:39.018766
2022-12-02 11:30:39.030968
2022-12-02 11:30:39.039270
2022-12-02 11:30:39.047898
2022-12-02 11:30:39.060313
2022-12-02 11:30:39.068191
2022-12-02 11:30:39.076771
2022-12-02 11:30:39.084903
2022-12-02 11:30:39.096754
2022-12-02 11:30:39.105964
2022-12-02 11:30:39.113754
2022-12-02 11:30:39.122038
2022-12-02 11:30:39.134096
2022-12-02 11:30:39.141811
2022-12-02 11:30:39.150864
2022-12-02 11:30:39.163463
2022-12-02 11:30:39.171360
2022-12-02 11:30:39.179366
2022-12-02 11:30:39.186888
2022-12-02 11:30:39.199856
2022-12-02 11:30:39.207908
2022-12-02 11:30:39.216843
2022-12-02 11:30:39.228482
2022-12-02 11:30:39.236486
2022-12-02 11:30:39.245231
2022-12-02 11:30:39.252772
2022-12-02 11:30:39.265009
2022-12-02 11:30:39.274090
2022-12-02 11:30:39.281229
2022-12-02 11:30:39.293824
2022-12-02 11:30:39.302800
2022-12-02 11:30:39.310209
2022-12-02 11:30:39.318433
2022-12-02 11:30:39.330632
2022-12-02 11:30:39.338840
2022-12-02 11:30:39.347070
2022-12-02 11:30:39.358605
2022-12-02 11:30:39.367442
2022-12-02 11:30:39.375630
2022-12-02 11:30:39.383387
2022-12-02 11:30:39.395406
2022-12-02 11:30:39.404684
2022-12-02 11:30:39.412830
2022-12-02 11:30:39.424715
2022-12-02 11:30:39.433733
2022-12-02 11:30:39.441440
2022-12-02 11:30:39.450153
2022-12-02 11:30:39.461825
2022-12-02 11:30:39.470230
2022-12-02 11:30:39.478299
2022-12-02 11:30:39.490297
2022-12-02 11:30:39.498025
2022-12-02 11:30:39.506998
2022-12-02 11:30:39.514316
2022-12-02 11:30:39.526467
2022-12-02 11:30:39.534875
2022-12-02 11:30:39.542956
2022-12-02 11:30:39.555570
2022-12-02 11:30:39.564219
2022-12-02 11:30:39.571882
2022-12-02 11:30:39.580678
2022-12-02 11:30:39.591962
2022-12-02 11:30:39.601811
2022-12-02 11:30:39.609067
2022-12-02 11:30:39.621222
2022-12-02 11:30:39.630380
2022-12-02 11:30:39.638667
2022-12-02 11:30:39.646418
2022-12-02 11:30:39.657566
2022-12-02 11:30:39.666471
2022-12-02 11:30:39.674278
2022-12-02 11:30:39.686812
2022-12-02 11:30:39.695622
2022-12-02 11:30:39.703095
2022-12-02 11:30:39.711879
2022-12-02 11:30:39.724139
2022-12-02 11:30:39.732307
2022-12-02 11:30:39.740449
2022-12-02 11:30:39.753428
2022-12-02 11:30:39.761550
2022-12-02 11:30:39.769826
2022-12-02 11:30:39.777167
2022-12-02 11:30:39.789087
2022-12-02 11:30:39.797699
2022-12-02 11:30:39.805940
2022-12-02 11:30:39.818510
2022-12-02 11:30:39.826057
2022-12-02 11:30:39.834817
2022-12-02 11:30:39.842770
2022-12-02 11:30:39.854233
2022-12-02 11:30:39.863093
2022-12-02 11:30:39.870887
2022-12-02 11:30:39.883927
2022-12-02 11:30:39.891862
2022-12-02 11:30:39.900054
2022-12-02 11:30:39.908422
2022-12-02 11:30:39.920327
2022-12-02 11:30:39.929554
2022-12-02 11:30:39.936495
2022-12-02 11:30:39.944922
2022-12-02 11:30:39.957310
2022-12-02 11:30:39.965860
2022-12-02 11:30:39.973997
2022-12-02 11:30:39.986123
2022-12-02 11:30:39.994574
2022-12-02 11:30:40.002725
2022-12-02 11:30:40.010649
2022-12-02 11:30:40.023134
2022-12-02 11:30:40.031239
2022-12-02 11:30:40.039608
2022-12-02 11:30:40.051423
2022-12-02 11:30:40.059765
2022-12-02 11:30:40.067330
2022-12-02 11:30:40.075963
2022-12-02 11:30:40.088455
2022-12-02 11:30:40.096744
2022-12-02 11:30:40.104951
2022-12-02 11:30:40.116542
2022-12-02 11:30:40.124834
2022-12-02 11:30:40.133652
2022-12-02 11:30:40.141516
2022-12-02 11:30:40.154135
2022-12-02 11:30:40.162938
2022-12-02 11:30:40.171262
2022-12-02 11:30:40.182694
2022-12-02 11:30:40.190747
2022-12-02 11:30:40.199327
2022-12-02 11:30:40.207409
2022-12-02 11:30:40.219788
2022-12-02 11:30:40.227376
2022-12-02 11:30:40.236295
2022-12-02 11:30:40.247948
2022-12-02 11:30:40.256425
2022-12-02 11:30:40.264504
2022-12-02 11:30:40.272924
2022-12-02 11:30:40.284269
2022-12-02 11:30:40.293057
2022-12-02 11:30:40.302108
2022-12-02 11:30:40.313267
2022-12-02 11:30:40.322169
2022-12-02 11:30:40.330589
2022-12-02 11:30:40.339173
2022-12-02 11:30:40.351370
2022-12-02 11:30:40.358957
2022-12-02 11:30:40.367626
2022-12-02 11:30:40.379132
2022-12-02 11:30:40.387485
2022-12-02 11:30:40.395286
2022-12-02 11:30:40.404062
2022-12-02 11:30:40.416991
2022-12-02 11:30:40.424144
2022-12-02 11:30:40.432576
2022-12-02 11:30:40.445244
2022-12-02 11:30:40.453905
2022-12-02 11:30:40.461221
2022-12-02 11:30:40.469695
2022-12-02 11:30:40.481452
2022-12-02 11:30:40.489913
2022-12-02 11:30:40.498207
2022-12-02 11:30:40.509639
2022-12-02 11:30:40.518096
2022-12-02 11:30:40.526790
2022-12-02 11:30:40.534766
2022-12-02 11:30:40.546575
2022-12-02 11:30:40.555355
2022-12-02 11:30:40.562965
2022-12-02 11:30:40.575482
2022-12-02 11:30:40.584060
2022-12-02 11:30:40.592269
2022-12-02 11:30:40.600439
2022-12-02 11:30:40.611971
2022-12-02 11:30:40.620253
2022-12-02 11:30:40.629146
2022-12-02 11:30:40.641339
2022-12-02 11:30:40.650346
2022-12-02 11:30:40.657352
2022-12-02 11:30:40.666859
2022-12-02 11:30:40.679035
2022-12-02 11:30:40.686419
2022-12-02 11:30:40.694872
2022-12-02 11:30:40.707031
2022-12-02 11:30:40.715189
2022-12-02 11:30:40.723556
2022-12-02 11:30:40.731056
2022-12-02 11:30:40.744013
2022-12-02 11:30:40.752183
2022-12-02 11:30:40.760198
2022-12-02 11:30:40.772793
2022-12-02 11:30:40.780027
2022-12-02 11:30:40.789018
2022-12-02 11:30:40.797245
2022-12-02 11:30:40.809436
2022-12-02 11:30:40.817549
2022-12-02 11:30:40.825781
2022-12-02 11:30:40.834754
2022-12-02 11:30:40.846184
2022-12-02 11:30:40.853742
2022-12-02 11:30:40.862560
2022-12-02 11:30:40.874820
2022-12-02 11:30:40.883097
2022-12-02 11:30:40.891118
2022-12-02 11:30:40.899342
2022-12-02 11:30:40.911804
2022-12-02 11:30:40.919852
2022-12-02 11:30:40.928896
2022-12-02 11:30:40.940132
2022-12-02 11:30:40.949040
2022-12-02 11:30:40.956857
2022-12-02 11:30:40.965384
2022-12-02 11:30:40.977176
2022-12-02 11:30:40.986156
2022-12-02 11:30:40.993864
2022-12-02 11:30:41.005816
2022-12-02 11:30:41.013463
2022-12-02 11:30:41.021706
2022-12-02 11:30:41.030432
2022-12-02 11:30:41.042692
2022-12-02 11:30:41.050630
2022-12-02 11:30:41.058886
2022-12-02 11:30:41.071570
2022-12-02 11:30:41.079845
2022-12-02 11:30:41.088048
2022-12-02 11:30:41.096027
2022-12-02 11:30:41.107933
2022-12-02 11:30:41.116698
2022-12-02 11:30:41.124984
2022-12-02 11:30:41.136684
2022-12-02 11:30:41.145440
2022-12-02 11:30:41.154012
2022-12-02 11:30:41.161781
2022-12-02 11:30:41.173576
2022-12-02 11:30:41.181478
2022-12-02 11:30:41.190096
2022-12-02 11:30:41.202542
2022-12-02 11:30:41.210856
2022-12-02 11:30:41.219332
2022-12-02 11:30:41.227237
2022-12-02 11:30:41.239570
2022-12-02 11:30:41.247545
2022-12-02 11:30:41.256183
2022-12-02 11:30:41.267805
2022-12-02 11:30:41.276201
2022-12-02 11:30:41.284548
2022-12-02 11:30:41.292667
2022-12-02 11:30:41.305837
2022-12-02 11:30:41.313101
2022-12-02 11:30:41.322204
2022-12-02 11:30:41.333703
2022-12-02 11:30:41.341925
2022-12-02 11:30:41.350082
2022-12-02 11:30:41.357756
2022-12-02 11:30:41.371344
2022-12-02 11:30:41.377961
2022-12-02 11:30:41.387378
2022-12-02 11:30:41.399633
2022-12-02 11:30:41.407334
2022-12-02 11:30:41.415584
2022-12-02 11:30:41.423668
2022-12-02 11:30:41.436314
2022-12-02 11:30:41.444256
2022-12-02 11:30:41.452751
2022-12-02 11:30:41.464560
2022-12-02 11:30:41.473563
2022-12-02 11:30:41.480932
2022-12-02 11:30:41.490337
2022-12-02 11:30:41.501572
2022-12-02 11:30:41.509801
2022-12-02 11:30:41.518741
2022-12-02 11:30:41.530106
2022-12-02 11:30:41.539210
2022-12-02 11:30:41.545721
2022-12-02 11:30:41.555136
2022-12-02 11:30:41.567730
2022-12-02 11:30:41.575504
2022-12-02 11:30:41.583281
2022-12-02 11:30:41.595442
2022-12-02 11:30:41.604174
2022-12-02 11:30:41.612437
2022-12-02 11:30:41.619953
2022-12-02 11:30:41.633421
2022-12-02 11:30:41.641062
2022-12-02 11:30:41.649817
2022-12-02 11:30:41.656818
2022-12-02 11:30:41.670295
2022-12-02 11:30:41.677729
2022-12-02 11:30:41.685975
2022-12-02 11:30:41.697983
2022-12-02 11:30:41.706794
2022-12-02 11:30:41.714926
2022-12-02 11:30:41.723379
2022-12-02 11:30:41.735413
2022-12-02 11:30:41.743393
2022-12-02 11:30:41.751759
2022-12-02 11:30:41.763797
2022-12-02 11:30:41.772139
2022-12-02 11:30:41.780072
2022-12-02 11:30:41.788425
2022-12-02 11:30:41.801428
2022-12-02 11:30:41.808772
2022-12-02 11:30:41.817733
2022-12-02 11:30:41.828916
2022-12-02 11:30:41.838204
2022-12-02 11:30:41.846152
2022-12-02 11:30:41.854602
2022-12-02 11:30:41.865998
2022-12-02 11:30:41.874544
2022-12-02 11:30:41.882694
2022-12-02 11:30:41.894462
2022-12-02 11:30:41.902654
2022-12-02 11:30:41.910819
2022-12-02 11:30:41.919650
2022-12-02 11:30:41.931769
2022-12-02 11:30:41.939846
2022-12-02 11:30:41.948059
2022-12-02 11:30:41.960303
2022-12-02 11:30:41.969395
2022-12-02 11:30:41.976799
2022-12-02 11:30:41.984654
2022-12-02 11:30:41.997278
2022-12-02 11:30:42.005505
2022-12-02 11:30:42.013387
2022-12-02 11:30:42.025135
2022-12-02 11:30:42.033378
2022-12-02 11:30:42.041828
2022-12-02 11:30:42.050696
2022-12-02 11:30:42.062584
2022-12-02 11:30:42.071262
2022-12-02 11:30:42.079249
2022-12-02 11:30:42.091499
2022-12-02 11:30:42.099563
2022-12-02 11:30:42.107698
2022-12-02 11:30:42.116299
2022-12-02 11:30:42.128126
2022-12-02 11:30:42.137348
2022-12-02 11:30:42.144121
2022-12-02 11:30:42.156173
2022-12-02 11:30:42.165907
2022-12-02 11:30:42.173039
2022-12-02 11:30:42.181713
2022-12-02 11:30:42.194081
2022-12-02 11:30:42.202292
2022-12-02 11:30:42.209601
2022-12-02 11:30:42.222179
2022-12-02 11:30:42.230238
2022-12-02 11:30:42.238306
2022-12-02 11:30:42.247428
2022-12-02 11:30:42.259405
2022-12-02 11:30:42.268033
2022-12-02 11:30:42.275549
2022-12-02 11:30:42.288774
2022-12-02 11:30:42.296039
2022-12-02 11:30:42.305261
2022-12-02 11:30:42.312144
2022-12-02 11:30:42.324501
2022-12-02 11:30:42.332318
2022-12-02 11:30:42.341516
2022-12-02 11:30:42.354175
2022-12-02 11:30:42.361578
2022-12-02 11:30:42.370344
2022-12-02 11:30:42.378133
2022-12-02 11:30:42.390191
2022-12-02 11:30:42.398754
2022-12-02 11:30:42.407049
2022-12-02 11:30:42.419370
2022-12-02 11:30:42.427566
2022-12-02 11:30:42.435707
2022-12-02 11:30:42.443853
2022-12-02 11:30:42.456130
2022-12-02 11:30:42.464180
2022-12-02 11:30:42.473078
2022-12-02 11:30:42.480387
2022-12-02 11:30:42.492929
2022-12-02 11:30:42.500797
2022-12-02 11:30:42.509463
2022-12-02 11:30:42.521446
2022-12-02 11:30:42.529519
2022-12-02 11:30:42.538201
2022-12-02 11:30:42.545991
2022-12-02 11:30:42.558236
2022-12-02 11:30:42.566754
2022-12-02 11:30:42.574771
2022-12-02 11:30:42.587340
2022-12-02 11:30:42.594597
2022-12-02 11:30:42.603185
2022-12-02 11:30:42.612101
2022-12-02 11:30:42.623631
2022-12-02 11:30:42.631778
2022-12-02 11:30:42.640389
2022-12-02 11:30:42.652098
2022-12-02 11:30:42.660849
2022-12-02 11:30:42.669133
2022-12-02 11:30:42.677359
2022-12-02 11:30:42.689966
2022-12-02 11:30:42.698027
2022-12-02 11:30:42.706397
2022-12-02 11:30:42.718862
2022-12-02 11:30:42.727044
2022-12-02 11:30:42.734780
2022-12-02 11:30:42.742683
2022-12-02 11:30:42.755349
2022-12-02 11:30:42.763205
2022-12-02 11:30:42.771653
2022-12-02 11:30:42.784026
2022-12-02 11:30:42.791631
2022-12-02 11:30:42.800894
2022-12-02 11:30:42.807860
2022-12-02 11:30:42.820544
2022-12-02 11:30:42.828750
2022-12-02 11:30:42.836922
2022-12-02 11:30:42.849942
2022-12-02 11:30:42.856984
2022-12-02 11:30:42.865643
2022-12-02 11:30:42.874100
2022-12-02 11:30:42.885928
2022-12-02 11:30:42.893601
2022-12-02 11:30:42.901696
2022-12-02 11:30:42.913954
2022-12-02 11:30:42.922187
2022-12-02 11:30:42.931239
2022-12-02 11:30:42.939266
2022-12-02 11:30:42.951918
2022-12-02 11:30:42.959587
2022-12-02 11:30:42.968751
2022-12-02 11:30:42.980264
2022-12-02 11:30:42.988798
2022-12-02 11:30:42.996425
2022-12-02 11:30:43.004744
2022-12-02 11:30:43.017855
2022-12-02 11:30:43.024704
2022-12-02 11:30:43.033883
2022-12-02 11:30:43.045791
2022-12-02 11:30:43.054339
2022-12-02 11:30:43.062067
2022-12-02 11:30:43.069775
2022-12-02 11:30:43.082453
2022-12-02 11:30:43.090686
2022-12-02 11:30:43.098892
2022-12-02 11:30:43.111312
2022-12-02 11:30:43.118881
2022-12-02 11:30:43.127044
2022-12-02 11:30:43.135788
2022-12-02 11:30:43.147372
2022-12-02 11:30:43.156015
2022-12-02 11:30:43.164624
2022-12-02 11:30:43.176715
2022-12-02 11:30:43.185347
2022-12-02 11:30:43.192591
2022-12-02 11:30:43.202151
2022-12-02 11:30:43.213611
2022-12-02 11:30:43.222568
2022-12-02 11:30:43.230173
2022-12-02 11:30:43.242420
2022-12-02 11:30:43.250876
2022-12-02 11:30:43.258586
2022-12-02 11:30:43.267234
2022-12-02 11:30:43.278783
2022-12-02 11:30:43.287771
2022-12-02 11:30:43.295637
2022-12-02 11:30:43.307011
2022-12-02 11:30:43.315804
2022-12-02 11:30:43.323793
2022-12-02 11:30:43.333040
2022-12-02 11:30:43.345157
2022-12-02 11:30:43.353858
2022-12-02 11:30:43.360960
2022-12-02 11:30:43.370233
2022-12-02 11:30:43.382057
2022-12-02 11:30:43.389448
2022-12-02 11:30:43.398038
2022-12-02 11:30:43.411076
2022-12-02 11:30:43.418985
2022-12-02 11:30:43.426343
2022-12-02 11:30:43.434409
2022-12-02 11:30:43.447126
2022-12-02 11:30:43.454578
2022-12-02 11:30:43.463287
2022-12-02 11:30:43.475698
2022-12-02 11:30:43.483403
2022-12-02 11:30:43.492048
2022-12-02 11:30:43.500230
2022-12-02 11:30:43.512265
2022-12-02 11:30:43.520550
2022-12-02 11:30:43.528355
2022-12-02 11:30:43.541218
2022-12-02 11:30:43.549686
2022-12-02 11:30:43.557266
2022-12-02 11:30:43.565516
2022-12-02 11:30:43.577881
2022-12-02 11:30:43.586183
2022-12-02 11:30:43.593945
2022-12-02 11:30:43.606119
2022-12-02 11:30:43.614766
2022-12-02 11:30:43.622686
2022-12-02 11:30:43.631603
2022-12-02 11:30:43.642965
2022-12-02 11:30:43.651209
2022-12-02 11:30:43.659740
2022-12-02 11:30:43.672409
2022-12-02 11:30:43.680350
2022-12-02 11:30:43.688922
2022-12-02 11:30:43.696358
2022-12-02 11:30:43.708509
2022-12-02 11:30:43.717575
2022-12-02 11:30:43.725819
2022-12-02 11:30:43.737274
2022-12-02 11:30:43.746308
2022-12-02 11:30:43.754748
2022-12-02 11:30:43.762851
2022-12-02 11:30:43.774940
2022-12-02 11:30:43.783719
2022-12-02 11:30:43.791312
2022-12-02 11:30:43.803924
2022-12-02 11:30:43.811801
2022-12-02 11:30:43.820315
2022-12-02 11:30:43.828054
2022-12-02 11:30:43.839754
2022-12-02 11:30:43.848755
2022-12-02 11:30:43.856371
2022-12-02 11:30:43.869963
2022-12-02 11:30:43.877344
2022-12-02 11:30:43.885330
2022-12-02 11:30:43.894141
2022-12-02 11:30:43.905896
2022-12-02 11:30:43.914140
2022-12-02 11:30:43.922558
2022-12-02 11:30:43.935405
2022-12-02 11:30:43.942891
2022-12-02 11:30:43.951794
2022-12-02 11:30:43.959751
2022-12-02 11:30:43.971832
2022-12-02 11:30:43.979857
2022-12-02 11:30:43.988094
2022-12-02 11:30:44.001035
2022-12-02 11:30:44.007951
2022-12-02 11:30:44.017418
2022-12-02 11:30:44.024770
2022-12-02 11:30:44.037897
2022-12-02 11:30:44.044990
2022-12-02 11:30:44.053341
2022-12-02 11:30:44.066429
2022-12-02 11:30:44.073985
2022-12-02 11:30:44.082837
2022-12-02 11:30:44.090000
2022-12-02 11:30:44.101990
2022-12-02 11:30:44.111495
2022-12-02 11:30:44.118082
2022-12-02 11:30:44.131499
2022-12-02 11:30:44.138927
2022-12-02 11:30:44.147738
2022-12-02 11:30:44.155672
2022-12-02 11:30:44.168976
2022-12-02 11:30:44.176214
2022-12-02 11:30:44.185325
2022-12-02 11:30:44.192664
2022-12-02 11:30:44.205689
2022-12-02 11:30:44.213248
2022-12-02 11:30:44.221385
2022-12-02 11:30:44.234522
2022-12-02 11:30:44.240907
2022-12-02 11:30:44.250350
2022-12-02 11:30:44.258486
2022-12-02 11:30:44.270474
2022-12-02 11:30:44.278981
2022-12-02 11:30:44.287017
2022-12-02 11:30:44.299203
2022-12-02 11:30:44.307566
2022-12-02 11:30:44.315319
2022-12-02 11:30:44.323248
2022-12-02 11:30:44.336901
2022-12-02 11:30:44.344495
2022-12-02 11:30:44.353292
2022-12-02 11:30:44.364883
2022-12-02 11:30:44.373097
2022-12-02 11:30:44.381844
2022-12-02 11:30:44.389057
2022-12-02 11:30:44.402399
2022-12-02 11:30:44.410069
2022-12-02 11:30:44.418327
2022-12-02 11:30:44.430253
2022-12-02 11:30:44.438641
2022-12-02 11:30:44.446575
2022-12-02 11:30:44.455149
2022-12-02 11:30:44.467506
2022-12-02 11:30:44.475474
2022-12-02 11:30:44.483743
2022-12-02 11:30:44.495273
2022-12-02 11:30:44.504320
2022-12-02 11:30:44.512258
2022-12-02 11:30:44.521201
2022-12-02 11:30:44.531636
2022-12-02 11:30:44.540931
2022-12-02 11:30:44.549361
2022-12-02 11:30:44.561274
2022-12-02 11:30:44.569224
2022-12-02 11:30:44.577411
2022-12-02 11:30:44.585627
2022-12-02 11:30:44.598934
2022-12-02 11:30:44.606560
2022-12-02 11:30:44.615329
2022-12-02 11:30:44.626504
2022-12-02 11:30:44.634465
2022-12-02 11:30:44.643543
2022-12-02 11:30:44.651704
2022-12-02 11:30:44.663962
2022-12-02 11:30:44.672192
2022-12-02 11:30:44.680875
2022-12-02 11:30:44.692269
2022-12-02 11:30:44.700569
2022-12-02 11:30:44.709078
2022-12-02 11:30:44.717717
2022-12-02 11:30:44.728699
2022-12-02 11:30:44.738276
2022-12-02 11:30:44.745574
2022-12-02 11:30:44.757895
2022-12-02 11:30:44.766882
2022-12-02 11:30:44.773839
2022-12-02 11:30:44.782428
2022-12-02 11:30:44.794661
2022-12-02 11:30:44.803346
2022-12-02 11:30:44.810994
2022-12-02 11:30:44.823297
2022-12-02 11:30:44.831977
2022-12-02 11:30:44.839514
2022-12-02 11:30:44.848325
2022-12-02 11:30:44.860156
2022-12-02 11:30:44.868535
2022-12-02 11:30:44.877177
2022-12-02 11:30:44.888830
2022-12-02 11:30:44.897401
2022-12-02 11:30:44.905022
2022-12-02 11:30:44.913203
2022-12-02 11:30:44.925917
2022-12-02 11:30:44.934827
2022-12-02 11:30:44.942243
2022-12-02 11:30:44.955321
2022-12-02 11:30:44.961935
2022-12-02 11:30:44.970935
2022-12-02 11:30:44.978753
2022-12-02 11:30:44.990948
2022-12-02 11:30:45.000003
2022-12-02 11:30:45.008285
2022-12-02 11:30:45.019396
2022-12-02 11:30:45.027811
2022-12-02 11:30:45.036467
2022-12-02 11:30:45.044419
2022-12-02 11:30:45.057005
2022-12-02 11:30:45.064489
2022-12-02 11:30:45.073321
2022-12-02 11:30:45.081409
2022-12-02 11:30:45.093883
2022-12-02 11:30:45.101683
2022-12-02 11:30:45.110214
2022-12-02 11:30:45.121813
2022-12-02 11:30:45.130608
2022-12-02 11:30:45.138184
2022-12-02 11:30:45.146848
2022-12-02 11:30:45.159255
2022-12-02 11:30:45.167111
2022-12-02 11:30:45.175792
2022-12-02 11:30:45.187414
2022-12-02 11:30:45.195998
2022-12-02 11:30:45.204320
2022-12-02 11:30:45.212725
2022-12-02 11:30:45.224716
2022-12-02 11:30:45.233037
2022-12-02 11:30:45.241176
2022-12-02 11:30:45.253475
2022-12-02 11:30:45.261229
2022-12-02 11:30:45.269749
2022-12-02 11:30:45.278330
2022-12-02 11:30:45.290324
2022-12-02 11:30:45.298629
2022-12-02 11:30:45.306302
2022-12-02 11:30:45.319714
2022-12-02 11:30:45.327636
2022-12-02 11:30:45.335857
2022-12-02 11:30:45.343810
2022-12-02 11:30:45.355318
2022-12-02 11:30:45.363816
2022-12-02 11:30:45.371732
2022-12-02 11:30:45.384001
2022-12-02 11:30:45.392514
2022-12-02 11:30:45.401844
2022-12-02 11:30:45.408541
2022-12-02 11:30:45.422164
2022-12-02 11:30:45.429937
2022-12-02 11:30:45.438411
2022-12-02 11:30:45.450536
2022-12-02 11:30:45.458601
2022-12-02 11:30:45.466549
2022-12-02 11:30:45.474726
2022-12-02 11:30:45.487662
2022-12-02 11:30:45.494612
2022-12-02 11:30:45.503674
2022-12-02 11:30:45.515142
2022-12-02 11:30:45.523877
2022-12-02 11:30:45.532203
2022-12-02 11:30:45.540224
2022-12-02 11:30:45.553410
2022-12-02 11:30:45.560804
2022-12-02 11:30:45.569833
2022-12-02 11:30:45.581402
2022-12-02 11:30:45.589152
2022-12-02 11:30:45.597690
2022-12-02 11:30:45.605994
2022-12-02 11:30:45.618493
2022-12-02 11:30:45.626949
2022-12-02 11:30:45.634765
2022-12-02 11:30:45.646334
2022-12-02 11:30:45.654843
2022-12-02 11:30:45.663360
2022-12-02 11:30:45.671598
2022-12-02 11:30:45.683835
2022-12-02 11:30:45.691881
2022-12-02 11:30:45.700253
2022-12-02 11:30:45.711773
2022-12-02 11:30:45.720176
2022-12-02 11:30:45.728336
2022-12-02 11:30:45.736529
2022-12-02 11:30:45.748664
2022-12-02 11:30:45.757404
2022-12-02 11:30:45.765516
2022-12-02 11:30:45.777821
2022-12-02 11:30:45.786370
2022-12-02 11:30:45.793943
2022-12-02 11:30:45.803203
2022-12-02 11:30:45.814954
2022-12-02 11:30:45.822457
2022-12-02 11:30:45.831664
2022-12-02 11:30:45.843753
2022-12-02 11:30:45.851841
2022-12-02 11:30:45.860297
2022-12-02 11:30:45.868167
2022-12-02 11:30:45.881086
2022-12-02 11:30:45.888626
2022-12-02 11:30:45.896719
2022-12-02 11:30:45.905100
2022-12-02 11:30:45.917308
2022-12-02 11:30:45.926067
2022-12-02 11:30:45.932725
2022-12-02 11:30:45.945485
2022-12-02 11:30:45.953519
2022-12-02 11:30:45.962104
2022-12-02 11:30:45.970008
2022-12-02 11:30:45.982862
2022-12-02 11:30:45.991036
2022-12-02 11:30:45.999227
2022-12-02 11:30:46.011118
2022-12-02 11:30:46.019799
2022-12-02 11:30:46.027483
2022-12-02 11:30:46.036095
2022-12-02 11:30:46.049041
2022-12-02 11:30:46.056254
2022-12-02 11:30:46.065335
2022-12-02 11:30:46.077101
2022-12-02 11:30:46.085228
2022-12-02 11:30:46.093221
2022-12-02 11:30:46.100793
2022-12-02 11:30:46.114463
2022-12-02 11:30:46.121674
2022-12-02 11:30:46.129933
2022-12-02 11:30:46.143115
2022-12-02 11:30:46.150922
2022-12-02 11:30:46.159052
2022-12-02 11:30:46.167210
2022-12-02 11:30:46.179236
2022-12-02 11:30:46.187643
2022-12-02 11:30:46.195606
2022-12-02 11:30:46.206808
2022-12-02 11:30:46.216939
2022-12-02 11:30:46.224550
2022-12-02 11:30:46.232487
2022-12-02 11:30:46.243955
2022-12-02 11:30:46.252661
2022-12-02 11:30:46.260841
2022-12-02 11:30:46.272676
2022-12-02 11:30:46.282228
2022-12-02 11:30:46.289908
2022-12-02 11:30:46.298334
2022-12-02 11:30:46.310696
2022-12-02 11:30:46.319281
2022-12-02 11:30:46.326739
2022-12-02 11:30:46.338305
2022-12-02 11:30:46.347460
2022-12-02 11:30:46.354916
2022-12-02 11:30:46.363702
2022-12-02 11:30:46.376014
2022-12-02 11:30:46.384381
2022-12-02 11:30:46.393355
2022-12-02 11:30:46.404565
2022-12-02 11:30:46.412766
2022-12-02 11:30:46.420930
2022-12-02 11:30:46.428946
2022-12-02 11:30:46.441351
2022-12-02 11:30:46.450254
2022-12-02 11:30:46.457338
2022-12-02 11:30:46.470791
2022-12-02 11:30:46.478428
2022-12-02 11:30:46.486257
2022-12-02 11:30:46.494678
2022-12-02 11:30:46.507022
2022-12-02 11:30:46.515390
2022-12-02 11:30:46.523357
2022-12-02 11:30:46.535889
2022-12-02 11:30:46.543845
2022-12-02 11:30:46.552303
2022-12-02 11:30:46.560120
2022-12-02 11:30:46.572419
2022-12-02 11:30:46.580959
2022-12-02 11:30:46.588961
2022-12-02 11:30:46.601894
2022-12-02 11:30:46.608637
2022-12-02 11:30:46.617402
2022-12-02 11:30:46.625229
2022-12-02 11:30:46.638128
2022-12-02 11:30:46.646493
2022-12-02 11:30:46.655255
2022-12-02 11:30:46.667519
2022-12-02 11:30:46.675058
2022-12-02 11:30:46.683137
2022-12-02 11:30:46.691457
2022-12-02 11:30:46.702872
2022-12-02 11:30:46.711538
2022-12-02 11:30:46.720310
2022-12-02 11:30:46.728163
2022-12-02 11:30:46.740382
2022-12-02 11:30:46.748627
2022-12-02 11:30:46.757067
2022-12-02 11:30:46.768972
2022-12-02 11:30:46.776929
2022-12-02 11:30:46.784762
2022-12-02 11:30:46.793607
2022-12-02 11:30:46.805900
2022-12-02 11:30:46.813708
2022-12-02 11:30:46.822071
2022-12-02 11:30:46.834277
2022-12-02 11:30:46.842818
2022-12-02 11:30:46.850644
2022-12-02 11:30:46.858707
2022-12-02 11:30:46.871218
2022-12-02 11:30:46.879230
2022-12-02 11:30:46.887632
2022-12-02 11:30:46.899915
2022-12-02 11:30:46.908341
2022-12-02 11:30:46.916377
2022-12-02 11:30:46.924740
2022-12-02 11:30:46.936937
2022-12-02 11:30:46.944881
2022-12-02 11:30:46.953421
2022-12-02 11:30:46.965718
2022-12-02 11:30:46.973732
2022-12-02 11:30:46.982067
2022-12-02 11:30:46.990284
2022-12-02 11:30:47.003196
2022-12-02 11:30:47.010392
2022-12-02 11:30:47.019517
2022-12-02 11:30:47.031676
2022-12-02 11:30:47.039180
2022-12-02 11:30:47.047902
2022-12-02 11:30:47.055782
2022-12-02 11:30:47.068171
2022-12-02 11:30:47.075991
2022-12-02 11:30:47.085272
2022-12-02 11:30:47.097011
2022-12-02 11:30:47.104602
2022-12-02 11:30:47.113896
2022-12-02 11:30:47.121492
2022-12-02 11:30:47.134481
2022-12-02 11:30:47.141808
2022-12-02 11:30:47.149408
2022-12-02 11:30:47.162023
2022-12-02 11:30:47.171234
2022-12-02 11:30:47.178663
2022-12-02 11:30:47.186859
2022-12-02 11:30:47.198734
2022-12-02 11:30:47.207606
2022-12-02 11:30:47.214838
2022-12-02 11:30:47.227368
2022-12-02 11:30:47.235997
2022-12-02 11:30:47.243630
2022-12-02 11:30:47.252401
2022-12-02 11:30:47.264697
2022-12-02 11:30:47.272871
2022-12-02 11:30:47.281052
2022-12-02 11:30:47.293135
2022-12-02 11:30:47.301842
2022-12-02 11:30:47.310011
2022-12-02 11:30:47.317029
2022-12-02 11:30:47.330487
2022-12-02 11:30:47.337722
2022-12-02 11:30:47.346784
2022-12-02 11:30:47.359641
2022-12-02 11:30:47.367405
2022-12-02 11:30:47.375827
2022-12-02 11:30:47.383096
2022-12-02 11:30:47.395347
2022-12-02 11:30:47.403373
2022-12-02 11:30:47.411939
2022-12-02 11:30:47.424455
2022-12-02 11:30:47.433409
2022-12-02 11:30:47.440989
2022-12-02 11:30:47.449781
2022-12-02 11:30:47.461557
2022-12-02 11:30:47.469793
2022-12-02 11:30:47.477794
2022-12-02 11:30:47.490069
2022-12-02 11:30:47.498896
2022-12-02 11:30:47.506160
2022-12-02 11:30:47.514841
2022-12-02 11:30:47.526508
2022-12-02 11:30:47.535045
2022-12-02 11:30:47.543240
2022-12-02 11:30:47.555427
2022-12-02 11:30:47.563711
2022-12-02 11:30:47.571909
2022-12-02 11:30:47.580137
2022-12-02 11:30:47.592978
2022-12-02 11:30:47.600568
2022-12-02 11:30:47.609152
2022-12-02 11:30:47.617141
2022-12-02 11:30:47.629333
2022-12-02 11:30:47.637374
2022-12-02 11:30:47.645430
2022-12-02 11:30:47.657871
2022-12-02 11:30:47.666389
2022-12-02 11:30:47.674105
2022-12-02 11:30:47.682929
2022-12-02 11:30:47.694909
2022-12-02 11:30:47.702445
2022-12-02 11:30:47.711072
2022-12-02 11:30:47.723028
2022-12-02 11:30:47.731732
2022-12-02 11:30:47.739837
2022-12-02 11:30:47.748325
2022-12-02 11:30:47.761236
2022-12-02 11:30:47.769252
2022-12-02 11:30:47.776323
2022-12-02 11:30:47.788450
2022-12-02 11:30:47.796366
2022-12-02 11:30:47.805420
2022-12-02 11:30:47.814409
2022-12-02 11:30:47.824695
2022-12-02 11:30:47.834421
2022-12-02 11:30:47.841566
2022-12-02 11:30:47.854255
2022-12-02 11:30:47.862802
2022-12-02 11:30:47.870873
2022-12-02 11:30:47.879678
2022-12-02 11:30:47.891380
2022-12-02 11:30:47.899871
2022-12-02 11:30:47.907904
2022-12-02 11:30:47.920376
2022-12-02 11:30:47.928027
2022-12-02 11:30:47.936754
2022-12-02 11:30:47.944422
2022-12-02 11:30:47.956618
2022-12-02 11:30:47.965128
2022-12-02 11:30:47.973388
2022-12-02 11:30:47.986086
2022-12-02 11:30:47.994014
2022-12-02 11:30:48.002390
2022-12-02 11:30:48.010432
2022-12-02 11:30:48.021592
2022-12-02 11:30:48.031394
2022-12-02 11:30:48.038427
2022-12-02 11:30:48.051417
2022-12-02 11:30:48.059423
2022-12-02 11:30:48.067771
2022-12-02 11:30:48.075704
2022-12-02 11:30:48.087396
2022-12-02 11:30:48.097032
2022-12-02 11:30:48.104085
2022-12-02 11:30:48.116530
2022-12-02 11:30:48.125597
2022-12-02 11:30:48.133061
2022-12-02 11:30:48.142203
2022-12-02 11:30:48.153659
2022-12-02 11:30:48.161538
2022-12-02 11:30:48.170072
2022-12-02 11:30:48.182545
2022-12-02 11:30:48.190609
2022-12-02 11:30:48.198830
2022-12-02 11:30:48.206994
2022-12-02 11:30:48.218255
2022-12-02 11:30:48.227285
2022-12-02 11:30:48.235828
2022-12-02 11:30:48.247854
2022-12-02 11:30:48.254838
2022-12-02 11:30:48.264469
2022-12-02 11:30:48.272400
2022-12-02 11:30:48.284556
2022-12-02 11:30:48.292840
2022-12-02 11:30:48.300655
2022-12-02 11:30:48.313450
2022-12-02 11:30:48.320908
2022-12-02 11:30:48.329678
2022-12-02 11:30:48.337779
2022-12-02 11:30:48.350970
2022-12-02 11:30:48.359533
2022-12-02 11:30:48.367256
2022-12-02 11:30:48.378869
2022-12-02 11:30:48.387433
2022-12-02 11:30:48.395095
2022-12-02 11:30:48.403344
2022-12-02 11:30:48.416074
2022-12-02 11:30:48.423852
2022-12-02 11:30:48.432813
2022-12-02 11:30:48.440234
2022-12-02 11:30:48.452554
2022-12-02 11:30:48.460711
2022-12-02 11:30:48.469116
2022-12-02 11:30:48.482172
2022-12-02 11:30:48.489491
2022-12-02 11:30:48.497603
2022-12-02 11:30:48.505871
2022-12-02 11:30:48.518920
2022-12-02 11:30:48.525747
2022-12-02 11:30:48.534731
2022-12-02 11:30:48.547544
2022-12-02 11:30:48.554695
2022-12-02 11:30:48.563404
2022-12-02 11:30:48.571691
2022-12-02 11:30:48.583891
2022-12-02 11:30:48.592107
2022-12-02 11:30:48.600548
2022-12-02 11:30:48.612292
2022-12-02 11:30:48.620722
2022-12-02 11:30:48.628684
2022-12-02 11:30:48.636991
2022-12-02 11:30:48.650010
2022-12-02 11:30:48.657295
2022-12-02 11:30:48.665305
2022-12-02 11:30:48.678185
2022-12-02 11:30:48.686641
2022-12-02 11:30:48.694502
2022-12-02 11:30:48.703141
2022-12-02 11:30:48.714160
2022-12-02 11:30:48.722630
2022-12-02 11:30:48.730933
2022-12-02 11:30:48.743226
2022-12-02 11:30:48.751821
2022-12-02 11:30:48.759857
2022-12-02 11:30:48.768307
2022-12-02 11:30:48.780263
2022-12-02 11:30:48.788314
2022-12-02 11:30:48.796892
2022-12-02 11:30:48.809168
2022-12-02 11:30:48.817916
2022-12-02 11:30:48.825413
2022-12-02 11:30:48.834220
2022-12-02 11:30:48.846513
2022-12-02 11:30:48.853907
2022-12-02 11:30:48.862907
2022-12-02 11:30:48.873672
2022-12-02 11:30:48.882581
2022-12-02 11:30:48.890405
2022-12-02 11:30:48.899407
2022-12-02 11:30:48.911146
2022-12-02 11:30:48.919804
2022-12-02 11:30:48.927502
2022-12-02 11:30:48.939929
2022-12-02 11:30:48.948335
2022-12-02 11:30:48.956495
2022-12-02 11:30:48.965026
2022-12-02 11:30:48.976358
2022-12-02 11:30:48.985085
2022-12-02 11:30:48.992772
2022-12-02 11:30:49.004746
2022-12-02 11:30:49.014429
2022-12-02 11:30:49.021211
2022-12-02 11:30:49.030838
2022-12-02 11:30:49.042308
2022-12-02 11:30:49.050538
2022-12-02 11:30:49.058642
2022-12-02 11:30:49.070488
2022-12-02 11:30:49.078922
2022-12-02 11:30:49.087155
2022-12-02 11:30:49.094814
2022-12-02 11:30:49.108118
2022-12-02 11:30:49.116341
2022-12-02 11:30:49.124125
2022-12-02 11:30:49.137121
2022-12-02 11:30:49.144166
2022-12-02 11:30:49.153126
2022-12-02 11:30:49.161186
2022-12-02 11:30:49.172244
2022-12-02 11:30:49.182491
2022-12-02 11:30:49.189841
2022-12-02 11:30:49.202026
2022-12-02 11:30:49.210245
2022-12-02 11:30:49.217699
2022-12-02 11:30:49.226529
2022-12-02 11:30:49.238386
2022-12-02 11:30:49.246374
2022-12-02 11:30:49.255427
2022-12-02 11:30:49.263482
2022-12-02 11:30:49.275454
2022-12-02 11:30:49.283708
2022-12-02 11:30:49.292007
2022-12-02 11:30:49.303855
2022-12-02 11:30:49.312546
2022-12-02 11:30:49.320971
2022-12-02 11:30:49.329091
2022-12-02 11:30:49.341145
2022-12-02 11:30:49.350343
2022-12-02 11:30:49.357915
2022-12-02 11:30:49.370282
2022-12-02 11:30:49.378785
2022-12-02 11:30:49.386787
2022-12-02 11:30:49.394799
2022-12-02 11:30:49.407080
2022-12-02 11:30:49.415444
2022-12-02 11:30:49.423272
2022-12-02 11:30:49.435872
2022-12-02 11:30:49.443648
2022-12-02 11:30:49.452116
2022-12-02 11:30:49.459808
2022-12-02 11:30:49.472451
2022-12-02 11:30:49.480889
2022-12-02 11:30:49.488853
2022-12-02 11:30:49.501881
2022-12-02 11:30:49.508731
2022-12-02 11:30:49.518354
2022-12-02 11:30:49.526009
2022-12-02 11:30:49.537961
2022-12-02 11:30:49.546911
2022-12-02 11:30:49.554097
2022-12-02 11:30:49.566904
2022-12-02 11:30:49.575226
2022-12-02 11:30:49.583704
2022-12-02 11:30:49.591695
2022-12-02 11:30:49.603099
2022-12-02 11:30:49.611870
2022-12-02 11:30:49.619429
2022-12-02 11:30:49.632981
2022-12-02 11:30:49.640108
2022-12-02 11:30:49.648162
2022-12-02 11:30:49.656605
2022-12-02 11:30:49.668847
2022-12-02 11:30:49.676848
2022-12-02 11:30:49.684818
2022-12-02 11:30:49.697733
2022-12-02 11:30:49.705678
2022-12-02 11:30:49.713953
2022-12-02 11:30:49.721292
2022-12-02 11:30:49.734557
2022-12-02 11:30:49.742747
2022-12-02 11:30:49.750834
2022-12-02 11:30:49.763158
2022-12-02 11:30:49.771222
2022-12-02 11:30:49.779400
2022-12-02 11:30:49.788057
2022-12-02 11:30:49.800107
2022-12-02 11:30:49.808143
2022-12-02 11:30:49.817375
2022-12-02 11:30:49.828790
2022-12-02 11:30:49.836967
2022-12-02 11:30:49.845503
2022-12-02 11:30:49.853251
2022-12-02 11:30:49.865364
2022-12-02 11:30:49.874610
2022-12-02 11:30:49.882047
2022-12-02 11:30:49.894093
2022-12-02 11:30:49.902210
2022-12-02 11:30:49.910825
2022-12-02 11:30:49.918399
2022-12-02 11:30:49.930294
2022-12-02 11:30:49.939049
2022-12-02 11:30:49.947395
2022-12-02 11:30:49.959889
2022-12-02 11:30:49.967288
2022-12-02 11:30:49.975774
2022-12-02 11:30:49.984467
2022-12-02 11:30:49.996158
2022-12-02 11:30:50.005000
2022-12-02 11:30:50.013957
2022-12-02 11:30:50.025587
2022-12-02 11:30:50.033399
2022-12-02 11:30:50.041874
2022-12-02 11:30:50.049962
2022-12-02 11:30:50.062517
2022-12-02 11:30:50.069909
2022-12-02 11:30:50.078727
2022-12-02 11:30:50.091196
2022-12-02 11:30:50.099362
2022-12-02 11:30:50.107544
2022-12-02 11:30:50.115014
2022-12-02 11:30:50.127822
2022-12-02 11:30:50.135575
2022-12-02 11:30:50.145055
2022-12-02 11:30:50.153144
2022-12-02 11:30:50.163821
2022-12-02 11:30:50.172952
2022-12-02 11:30:50.181880
2022-12-02 11:30:50.193267
2022-12-02 11:30:50.200543
2022-12-02 11:30:50.209729
2022-12-02 11:30:50.218123
2022-12-02 11:30:50.230087
2022-12-02 11:30:50.237833
2022-12-02 11:30:50.245655
2022-12-02 11:30:50.258640
2022-12-02 11:30:50.267435
2022-12-02 11:30:50.274727
2022-12-02 11:30:50.283685
2022-12-02 11:30:50.296008
2022-12-02 11:30:50.303887
2022-12-02 11:30:50.312998
2022-12-02 11:30:50.324133
2022-12-02 11:30:50.332948
2022-12-02 11:30:50.341450
2022-12-02 11:30:50.349138
2022-12-02 11:30:50.362142
2022-12-02 11:30:50.369647
2022-12-02 11:30:50.377640
2022-12-02 11:30:50.390196
2022-12-02 11:30:50.398358
2022-12-02 11:30:50.406556
2022-12-02 11:30:50.414432
2022-12-02 11:30:50.426698
2022-12-02 11:30:50.435305
2022-12-02 11:30:50.442629
2022-12-02 11:30:50.455553
2022-12-02 11:30:50.463988
2022-12-02 11:30:50.471850
2022-12-02 11:30:50.480462
2022-12-02 11:30:50.491637
2022-12-02 11:30:50.500787
2022-12-02 11:30:50.508177
2022-12-02 11:30:50.520862
2022-12-02 11:30:50.530091
2022-12-02 11:30:50.537045
2022-12-02 11:30:50.546413
2022-12-02 11:30:50.558650
2022-12-02 11:30:50.566770
2022-12-02 11:30:50.574832
2022-12-02 11:30:50.586534
2022-12-02 11:30:50.595535
2022-12-02 11:30:50.602931
2022-12-02 11:30:50.611296
2022-12-02 11:30:50.623626
2022-12-02 11:30:50.631876
2022-12-02 11:30:50.640136
2022-12-02 11:30:50.652206
2022-12-02 11:30:50.660604
2022-12-02 11:30:50.668453
2022-12-02 11:30:50.675701
2022-12-02 11:30:50.688905
2022-12-02 11:30:50.698033
2022-12-02 11:30:50.705245
2022-12-02 11:30:50.718496
2022-12-02 11:30:50.726616
2022-12-02 11:30:50.734799
2022-12-02 11:30:50.741776
2022-12-02 11:30:50.754228
2022-12-02 11:30:50.763362
2022-12-02 11:30:50.770225
2022-12-02 11:30:50.782585
2022-12-02 11:30:50.791698
2022-12-02 11:30:50.800026
2022-12-02 11:30:50.807774
2022-12-02 11:30:50.819790
2022-12-02 11:30:50.828131
2022-12-02 11:30:50.836208
2022-12-02 11:30:50.849449
2022-12-02 11:30:50.856709
2022-12-02 11:30:50.865831
2022-12-02 11:30:50.873286
2022-12-02 11:30:50.886305
2022-12-02 11:30:50.892937
2022-12-02 11:30:50.902700
2022-12-02 11:30:50.915110
2022-12-02 11:30:50.922677
2022-12-02 11:30:50.930905
2022-12-02 11:30:50.938845
2022-12-02 11:30:50.951791
2022-12-02 11:30:50.959579
2022-12-02 11:30:50.967755
2022-12-02 11:30:50.975467
2022-12-02 11:30:50.987332
2022-12-02 11:30:50.996292
2022-12-02 11:30:51.004126
2022-12-02 11:30:51.016437
2022-12-02 11:30:51.024895
2022-12-02 11:30:51.033036
2022-12-02 11:30:51.041070
2022-12-02 11:30:51.052947
2022-12-02 11:30:51.062307
2022-12-02 11:30:51.069427
2022-12-02 11:30:51.082631
2022-12-02 11:30:51.091146
2022-12-02 11:30:51.099326
2022-12-02 11:30:51.106790
2022-12-02 11:30:51.119648
2022-12-02 11:30:51.127497
2022-12-02 11:30:51.135672
2022-12-02 11:30:51.147978
2022-12-02 11:30:51.155874
2022-12-02 11:30:51.163888
2022-12-02 11:30:51.172554
2022-12-02 11:30:51.185426
2022-12-02 11:30:51.192788
2022-12-02 11:30:51.200928
2022-12-02 11:30:51.213310
2022-12-02 11:30:51.220808
2022-12-02 11:30:51.228927
2022-12-02 11:30:51.237625
2022-12-02 11:30:51.249908
2022-12-02 11:30:51.258353
2022-12-02 11:30:51.266130
2022-12-02 11:30:51.278347
2022-12-02 11:30:51.286224
2022-12-02 11:30:51.294883
2022-12-02 11:30:51.302910
2022-12-02 11:30:51.315839
2022-12-02 11:30:51.324060
2022-12-02 11:30:51.331883
2022-12-02 11:30:51.343597
2022-12-02 11:30:51.351792
2022-12-02 11:30:51.360424
2022-12-02 11:30:51.368522
2022-12-02 11:30:51.381230
2022-12-02 11:30:51.389506
2022-12-02 11:30:51.397871
2022-12-02 11:30:51.409904
2022-12-02 11:30:51.417832
2022-12-02 11:30:51.426132
2022-12-02 11:30:51.433942
2022-12-02 11:30:51.446986
2022-12-02 11:30:51.455036
2022-12-02 11:30:51.463289
2022-12-02 11:30:51.475020
2022-12-02 11:30:51.483827
2022-12-02 11:30:51.491494
2022-12-02 11:30:51.500187
2022-12-02 11:30:51.513118
2022-12-02 11:30:51.520495
2022-12-02 11:30:51.529510
2022-12-02 11:30:51.540898
2022-12-02 11:30:51.549973
2022-12-02 11:30:51.558208
2022-12-02 11:30:51.565633
2022-12-02 11:30:51.577625
2022-12-02 11:30:51.586081
2022-12-02 11:30:51.593688
2022-12-02 11:30:51.606021
2022-12-02 11:30:51.615272
2022-12-02 11:30:51.623625
2022-12-02 11:30:51.631554
2022-12-02 11:30:51.643447
2022-12-02 11:30:51.651764
2022-12-02 11:30:51.659578
2022-12-02 11:30:51.671523
2022-12-02 11:30:51.680262
2022-12-02 11:30:51.688542
2022-12-02 11:30:51.697466
2022-12-02 11:30:51.708692
2022-12-02 11:30:51.717941
2022-12-02 11:30:51.725364
2022-12-02 11:30:51.737033
2022-12-02 11:30:51.746502
2022-12-02 11:30:51.753339
2022-12-02 11:30:51.761627
2022-12-02 11:30:51.774343
2022-12-02 11:30:51.782197
2022-12-02 11:30:51.790643
2022-12-02 11:30:51.803010
2022-12-02 11:30:51.811524
2022-12-02 11:30:51.819261
2022-12-02 11:30:51.827925
2022-12-02 11:30:51.840144
2022-12-02 11:30:51.847936
2022-12-02 11:30:51.857099
2022-12-02 11:30:51.864396
2022-12-02 11:30:51.876801
2022-12-02 11:30:51.885751
2022-12-02 11:30:51.892943
2022-12-02 11:30:51.905215
2022-12-02 11:30:51.914411
2022-12-02 11:30:51.921761
2022-12-02 11:30:51.930901
2022-12-02 11:30:51.941944
2022-12-02 11:30:51.951392
2022-12-02 11:30:51.958860
2022-12-02 11:30:51.970319
2022-12-02 11:30:51.979498
2022-12-02 11:30:51.986904
2022-12-02 11:30:51.995834
2022-12-02 11:30:52.007570
2022-12-02 11:30:52.016241
2022-12-02 11:30:52.023675
2022-12-02 11:30:52.035879
2022-12-02 11:30:52.044913
2022-12-02 11:30:52.052420
2022-12-02 11:30:52.061527
2022-12-02 11:30:52.073948
2022-12-02 11:30:52.082358
2022-12-02 11:30:52.089756
2022-12-02 11:30:52.102584
2022-12-02 11:30:52.110173
2022-12-02 11:30:52.119229
2022-12-02 11:30:52.126308
2022-12-02 11:30:52.138696
2022-12-02 11:30:52.147551
2022-12-02 11:30:52.155278
2022-12-02 11:30:52.167909
2022-12-02 11:30:52.175848
2022-12-02 11:30:52.184355
2022-12-02 11:30:52.192401
2022-12-02 11:30:52.204048
2022-12-02 11:30:52.213039
2022-12-02 11:30:52.220887
2022-12-02 11:30:52.232851
2022-12-02 11:30:52.242118
2022-12-02 11:30:52.249050
2022-12-02 11:30:52.257996
2022-12-02 11:30:52.269990
2022-12-02 11:30:52.278427
2022-12-02 11:30:52.285844
2022-12-02 11:30:52.299551
2022-12-02 11:30:52.307455
2022-12-02 11:30:52.315453
2022-12-02 11:30:52.323817
2022-12-02 11:30:52.335729
2022-12-02 11:30:52.344109
2022-12-02 11:30:52.352209
2022-12-02 11:30:52.364412
2022-12-02 11:30:52.372504
2022-12-02 11:30:52.380867
2022-12-02 11:30:52.388878
2022-12-02 11:30:52.400856
2022-12-02 11:30:52.409305
2022-12-02 11:30:52.417376
2022-12-02 11:30:52.430504
2022-12-02 11:30:52.438001
2022-12-02 11:30:52.446603
2022-12-02 11:30:52.454482
2022-12-02 11:30:52.466909
2022-12-02 11:30:52.475124
2022-12-02 11:30:52.483557
2022-12-02 11:30:52.495622
2022-12-02 11:30:52.503359
2022-12-02 11:30:52.511609
2022-12-02 11:30:52.519990
2022-12-02 11:30:52.532380
2022-12-02 11:30:52.539963
2022-12-02 11:30:52.548875
2022-12-02 11:30:52.561638
2022-12-02 11:30:52.569536
2022-12-02 11:30:52.577429
2022-12-02 11:30:52.585684
2022-12-02 11:30:52.598455
2022-12-02 11:30:52.606159
2022-12-02 11:30:52.614693
2022-12-02 11:30:52.626538
2022-12-02 11:30:52.634885
2022-12-02 11:30:52.642799
2022-12-02 11:30:52.651228
2022-12-02 11:30:52.663038
2022-12-02 11:30:52.671405
2022-12-02 11:30:52.679797
2022-12-02 11:30:52.687348
2022-12-02 11:30:52.700360
2022-12-02 11:30:52.707979
2022-12-02 11:30:52.716567
2022-12-02 11:30:52.729531
2022-12-02 11:30:52.736409
2022-12-02 11:30:52.746059
2022-12-02 11:30:52.752925
2022-12-02 11:30:52.766510
2022-12-02 11:30:52.774074
2022-12-02 11:30:52.782597
2022-12-02 11:30:52.795064
2022-12-02 11:30:52.802437
2022-12-02 11:30:52.810193
2022-12-02 11:30:52.818975
2022-12-02 11:30:52.831338
2022-12-02 11:30:52.839726
2022-12-02 11:30:52.847520
2022-12-02 11:30:52.859548
2022-12-02 11:30:52.868392
2022-12-02 11:30:52.876513
2022-12-02 11:30:52.884507
2022-12-02 11:30:52.897606
2022-12-02 11:30:52.904914
2022-12-02 11:30:52.913864
2022-12-02 11:30:52.925532
2022-12-02 11:30:52.933724
2022-12-02 11:30:52.941964
2022-12-02 11:30:52.950316
2022-12-02 11:30:52.962613
2022-12-02 11:30:52.969609
2022-12-02 11:30:52.978594
2022-12-02 11:30:52.990671
2022-12-02 11:30:52.999149
2022-12-02 11:30:53.007530
2022-12-02 11:30:53.015626
2022-12-02 11:30:53.027280
2022-12-02 11:30:53.035898
2022-12-02 11:30:53.043955
2022-12-02 11:30:53.056077
2022-12-02 11:30:53.064599
2022-12-02 11:30:53.072167
2022-12-02 11:30:53.081064
2022-12-02 11:30:53.092785
2022-12-02 11:30:53.101103
2022-12-02 11:30:53.109774
2022-12-02 11:30:53.121857
2022-12-02 11:30:53.129332
2022-12-02 11:30:53.137766
2022-12-02 11:30:53.146450
2022-12-02 11:30:53.158771
2022-12-02 11:30:53.167111
2022-12-02 11:30:53.175252
2022-12-02 11:30:53.187543
2022-12-02 11:30:53.196021
2022-12-02 11:30:53.203974
2022-12-02 11:30:53.212224
2022-12-02 11:30:53.224296
2022-12-02 11:30:53.233375
2022-12-02 11:30:53.240987
2022-12-02 11:30:53.252574
2022-12-02 11:30:53.261607
2022-12-02 11:30:53.269199
2022-12-02 11:30:53.277744
2022-12-02 11:30:53.289837
2022-12-02 11:30:53.298468
2022-12-02 11:30:53.305569
2022-12-02 11:30:53.318763
2022-12-02 11:30:53.326688
2022-12-02 11:30:53.334852
2022-12-02 11:30:53.343254
2022-12-02 11:30:53.355142
2022-12-02 11:30:53.363990
2022-12-02 11:30:53.372239
2022-12-02 11:30:53.383708
2022-12-02 11:30:53.391808
2022-12-02 11:30:53.399897
2022-12-02 11:30:53.408830
2022-12-02 11:30:53.420625
2022-12-02 11:30:53.429226
2022-12-02 11:30:53.437481
2022-12-02 11:30:53.450232
2022-12-02 11:30:53.458532
2022-12-02 11:30:53.466485
2022-12-02 11:30:53.474218
2022-12-02 11:30:53.486161
2022-12-02 11:30:53.495508
2022-12-02 11:30:53.503119
2022-12-02 11:30:53.511791
2022-12-02 11:30:53.523431
2022-12-02 11:30:53.531950
2022-12-02 11:30:53.540017
2022-12-02 11:30:53.551919
2022-12-02 11:30:53.561145
2022-12-02 11:30:53.568587
2022-12-02 11:30:53.576892
2022-12-02 11:30:53.589378
2022-12-02 11:30:53.597373
2022-12-02 11:30:53.605634
2022-12-02 11:30:53.617841
2022-12-02 11:30:53.625980
2022-12-02 11:30:53.634241
2022-12-02 11:30:53.642288
2022-12-02 11:30:53.654368
2022-12-02 11:30:53.662710
2022-12-02 11:30:53.671073
2022-12-02 11:30:53.683545
2022-12-02 11:30:53.691527
2022-12-02 11:30:53.699940
2022-12-02 11:30:53.707949
2022-12-02 11:30:53.719725
2022-12-02 11:30:53.729051
2022-12-02 11:30:53.735905
2022-12-02 11:30:53.749028
2022-12-02 11:30:53.757285
2022-12-02 11:30:53.765410
2022-12-02 11:30:53.773325
2022-12-02 11:30:53.784198
2022-12-02 11:30:53.794595
2022-12-02 11:30:53.801900
2022-12-02 11:30:53.814249
2022-12-02 11:30:53.822404
2022-12-02 11:30:53.830659
2022-12-02 11:30:53.838650
2022-12-02 11:30:53.851467
2022-12-02 11:30:53.859531
2022-12-02 11:30:53.867837
2022-12-02 11:30:53.880019
2022-12-02 11:30:53.887931
2022-12-02 11:30:53.896907
2022-12-02 11:30:53.904311
2022-12-02 11:30:53.915766
2022-12-02 11:30:53.924430
2022-12-02 11:30:53.933318
2022-12-02 11:30:53.946106
2022-12-02 11:30:53.952957
2022-12-02 11:30:53.962428
2022-12-02 11:30:53.969257
2022-12-02 11:30:53.981888
2022-12-02 11:30:53.990351
2022-12-02 11:30:53.998529
2022-12-02 11:30:54.011131
2022-12-02 11:30:54.018487
2022-12-02 11:30:54.027098
2022-12-02 11:30:54.035148
2022-12-02 11:30:54.047993
2022-12-02 11:30:54.056070
2022-12-02 11:30:54.063850
2022-12-02 11:30:54.075794
2022-12-02 11:30:54.084133
2022-12-02 11:30:54.091997
2022-12-02 11:30:54.100804
2022-12-02 11:30:54.112337
2022-12-02 11:30:54.120838
2022-12-02 11:30:54.130465
2022-12-02 11:30:54.142022
2022-12-02 11:30:54.150869
2022-12-02 11:30:54.158180
2022-12-02 11:30:54.166395
2022-12-02 11:30:54.179599
2022-12-02 11:30:54.187115
2022-12-02 11:30:54.195552
2022-12-02 11:30:54.207310
2022-12-02 11:30:54.215716
2022-12-02 11:30:54.223349
2022-12-02 11:30:54.232385
2022-12-02 11:30:54.244127
2022-12-02 11:30:54.252657
2022-12-02 11:30:54.260704
2022-12-02 11:30:54.272579
2022-12-02 11:30:54.282048
2022-12-02 11:30:54.289974
2022-12-02 11:30:54.298284
2022-12-02 11:30:54.310114
2022-12-02 11:30:54.318366
2022-12-02 11:30:54.326881
2022-12-02 11:30:54.338517
2022-12-02 11:30:54.347028
2022-12-02 11:30:54.354901
2022-12-02 11:30:54.363449
2022-12-02 11:30:54.375360
2022-12-02 11:30:54.383676
2022-12-02 11:30:54.391901
2022-12-02 11:30:54.400355
2022-12-02 11:30:54.412337
2022-12-02 11:30:54.420063
2022-12-02 11:30:54.429153
2022-12-02 11:30:54.441075
2022-12-02 11:30:54.449959
2022-12-02 11:30:54.456895
2022-12-02 11:30:54.466185
2022-12-02 11:30:54.478552
2022-12-02 11:30:54.485582
2022-12-02 11:30:54.494822
2022-12-02 11:30:54.506543
2022-12-02 11:30:54.515387
2022-12-02 11:30:54.522740
2022-12-02 11:30:54.531295
2022-12-02 11:30:54.543729
2022-12-02 11:30:54.552071
2022-12-02 11:30:54.560001
2022-12-02 11:30:54.572150
2022-12-02 11:30:54.580391
2022-12-02 11:30:54.588499
2022-12-02 11:30:54.596536
2022-12-02 11:30:54.609217
2022-12-02 11:30:54.617824
2022-12-02 11:30:54.625154
2022-12-02 11:30:54.637495
2022-12-02 11:30:54.646469
2022-12-02 11:30:54.653903
2022-12-02 11:30:54.662865
2022-12-02 11:30:54.674492
2022-12-02 11:30:54.682196
2022-12-02 11:30:54.691065
2022-12-02 11:30:54.702610
2022-12-02 11:30:54.711126
2022-12-02 11:30:54.719251
2022-12-02 11:30:54.727884
2022-12-02 11:30:54.739701
2022-12-02 11:30:54.748390
2022-12-02 11:30:54.756168
2022-12-02 11:30:54.768177
2022-12-02 11:30:54.777562
2022-12-02 11:30:54.784844
2022-12-02 11:30:54.793943
2022-12-02 11:30:54.806145
2022-12-02 11:30:54.813739
2022-12-02 11:30:54.822649
2022-12-02 11:30:54.834439
2022-12-02 11:30:54.843585
2022-12-02 11:30:54.850039
2022-12-02 11:30:54.858927
2022-12-02 11:30:54.871022
2022-12-02 11:30:54.879470
2022-12-02 11:30:54.887360
2022-12-02 11:30:54.899933
2022-12-02 11:30:54.908316
2022-12-02 11:30:54.916392
2022-12-02 11:30:54.924199
2022-12-02 11:30:54.936298
2022-12-02 11:30:54.945468
2022-12-02 11:30:54.952542
2022-12-02 11:30:54.966139
2022-12-02 11:30:54.973534
2022-12-02 11:30:54.981492
2022-12-02 11:30:54.989918
2022-12-02 11:30:55.001979
2022-12-02 11:30:55.011037
2022-12-02 11:30:55.018081
2022-12-02 11:30:55.030752
2022-12-02 11:30:55.039590
2022-12-02 11:30:55.047367
2022-12-02 11:30:55.055567
2022-12-02 11:30:55.067779
2022-12-02 11:30:55.075777
2022-12-02 11:30:55.084132
2022-12-02 11:30:55.096612
2022-12-02 11:30:55.104183
2022-12-02 11:30:55.113438
2022-12-02 11:30:55.120866
2022-12-02 11:30:55.133911
2022-12-02 11:30:55.140986
2022-12-02 11:30:55.149219
2022-12-02 11:30:55.161645
2022-12-02 11:30:55.170153
2022-12-02 11:30:55.178315
2022-12-02 11:30:55.185929
2022-12-02 11:30:55.198699
2022-12-02 11:30:55.206249
2022-12-02 11:30:55.215257
2022-12-02 11:30:55.223328
2022-12-02 11:30:55.235492
2022-12-02 11:30:55.243985
2022-12-02 11:30:55.252135
2022-12-02 11:30:55.264582
2022-12-02 11:30:55.272431
2022-12-02 11:30:55.280928
2022-12-02 11:30:55.289081
2022-12-02 11:30:55.301292
2022-12-02 11:30:55.309380
2022-12-02 11:30:55.317951
2022-12-02 11:30:55.330361
2022-12-02 11:30:55.337940
2022-12-02 11:30:55.346549
2022-12-02 11:30:55.354263
2022-12-02 11:30:55.366362
2022-12-02 11:30:55.374968
2022-12-02 11:30:55.382365
2022-12-02 11:30:55.394856
2022-12-02 11:30:55.403462
2022-12-02 11:30:55.411832
2022-12-02 11:30:55.419914
2022-12-02 11:30:55.432906
2022-12-02 11:30:55.440466
2022-12-02 11:30:55.447846
2022-12-02 11:30:55.460033
2022-12-02 11:30:55.468395
2022-12-02 11:30:55.476699
2022-12-02 11:30:55.484973
2022-12-02 11:30:55.497701
2022-12-02 11:30:55.506122
2022-12-02 11:30:55.514923
2022-12-02 11:30:55.526634
2022-12-02 11:30:55.534533
2022-12-02 11:30:55.543600
2022-12-02 11:30:55.550958
2022-12-02 11:30:55.563506
2022-12-02 11:30:55.571795
2022-12-02 11:30:55.579746
2022-12-02 11:30:55.591878
2022-12-02 11:30:55.600276
2022-12-02 11:30:55.608380
2022-12-02 11:30:55.616779
2022-12-02 11:30:55.628132
2022-12-02 11:30:55.636928
2022-12-02 11:30:55.645150
2022-12-02 11:30:55.656929
2022-12-02 11:30:55.666392
2022-12-02 11:30:55.673922
2022-12-02 11:30:55.682501
2022-12-02 11:30:55.694639
2022-12-02 11:30:55.701803
2022-12-02 11:30:55.711039
2022-12-02 11:30:55.722748
2022-12-02 11:30:55.731416
2022-12-02 11:30:55.739514
2022-12-02 11:30:55.747851
2022-12-02 11:30:55.759930
2022-12-02 11:30:55.768155
2022-12-02 11:30:55.775468
2022-12-02 11:30:55.788433
2022-12-02 11:30:55.796571
2022-12-02 11:30:55.804770
2022-12-02 11:30:55.812924
2022-12-02 11:30:55.825376
2022-12-02 11:30:55.834288
2022-12-02 11:30:55.842030
2022-12-02 11:30:55.854120
2022-12-02 11:30:55.861797
2022-12-02 11:30:55.870563
2022-12-02 11:30:55.878713
2022-12-02 11:30:55.890940
2022-12-02 11:30:55.898355
2022-12-02 11:30:55.907080
2022-12-02 11:30:55.919574
2022-12-02 11:30:55.927641
2022-12-02 11:30:55.935296
2022-12-02 11:30:55.944304
2022-12-02 11:30:55.955533
2022-12-02 11:30:55.964655
2022-12-02 11:30:55.972788
2022-12-02 11:30:55.985036
2022-12-02 11:30:55.993401
2022-12-02 11:30:56.000646
2022-12-02 11:30:56.010527
2022-12-02 11:30:56.022601
2022-12-02 11:30:56.029948
2022-12-02 11:30:56.038654
2022-12-02 11:30:56.047419
2022-12-02 11:30:56.059072
2022-12-02 11:30:56.067602
2022-12-02 11:30:56.074832
2022-12-02 11:30:56.087769
2022-12-02 11:30:56.096092
2022-12-02 11:30:56.103835
2022-12-02 11:30:56.112861
2022-12-02 11:30:56.124702
2022-12-02 11:30:56.132700
2022-12-02 11:30:56.140772
2022-12-02 11:30:56.153054
2022-12-02 11:30:56.161591
2022-12-02 11:30:56.169298
2022-12-02 11:30:56.177684
2022-12-02 11:30:56.189007
2022-12-02 11:30:56.196983
2022-12-02 11:30:56.206407
2022-12-02 11:30:56.218155
2022-12-02 11:30:56.226598
2022-12-02 11:30:56.234258
2022-12-02 11:30:56.243004
2022-12-02 11:30:56.254868
2022-12-02 11:30:56.262931
2022-12-02 11:30:56.271895
2022-12-02 11:30:56.284099
2022-12-02 11:30:56.292386
2022-12-02 11:30:56.300549
2022-12-02 11:30:56.309213
2022-12-02 11:30:56.320867
2022-12-02 11:30:56.329158
2022-12-02 11:30:56.337457
2022-12-02 11:30:56.349562
2022-12-02 11:30:56.357769
2022-12-02 11:30:56.366814
2022-12-02 11:30:56.374106
2022-12-02 11:30:56.386593
2022-12-02 11:30:56.394490
2022-12-02 11:30:56.402980
2022-12-02 11:30:56.415735
2022-12-02 11:30:56.423742
2022-12-02 11:30:56.431976
2022-12-02 11:30:56.440076
2022-12-02 11:30:56.451841
2022-12-02 11:30:56.460386
2022-12-02 11:30:56.468487
2022-12-02 11:30:56.481595
2022-12-02 11:30:56.488950
2022-12-02 11:30:56.497979
2022-12-02 11:30:56.505123
2022-12-02 11:30:56.517244
2022-12-02 11:30:56.526667
2022-12-02 11:30:56.533820
2022-12-02 11:30:56.547058
2022-12-02 11:30:56.555235
2022-12-02 11:30:56.563484
2022-12-02 11:30:56.570811
2022-12-02 11:30:56.583747
2022-12-02 11:30:56.591490
2022-12-02 11:30:56.599788
2022-12-02 11:30:56.611723
2022-12-02 11:30:56.620481
2022-12-02 11:30:56.628048
2022-12-02 11:30:56.636254
2022-12-02 11:30:56.647774
2022-12-02 11:30:56.657081
2022-12-02 11:30:56.665297
2022-12-02 11:30:56.677668
2022-12-02 11:30:56.685702
2022-12-02 11:30:56.693909
2022-12-02 11:30:56.701432
2022-12-02 11:30:56.714308
2022-12-02 11:30:56.721978
2022-12-02 11:30:56.730746
2022-12-02 11:30:56.743598
2022-12-02 11:30:56.751098
2022-12-02 11:30:56.759493
2022-12-02 11:30:56.767388
2022-12-02 11:30:56.779785
2022-12-02 11:30:56.787934
2022-12-02 11:30:56.796331
2022-12-02 11:30:56.809181
2022-12-02 11:30:56.817357
2022-12-02 11:30:56.824903
2022-12-02 11:30:56.833750
2022-12-02 11:30:56.846043
2022-12-02 11:30:56.853677
2022-12-02 11:30:56.862390
2022-12-02 11:30:56.873593
2022-12-02 11:30:56.882458
2022-12-02 11:30:56.890166
2022-12-02 11:30:56.898281
2022-12-02 11:30:56.911622
2022-12-02 11:30:56.918872
2022-12-02 11:30:56.927836
2022-12-02 11:30:56.935104
2022-12-02 11:30:56.947924
2022-12-02 11:30:56.955314
2022-12-02 11:30:56.964251
2022-12-02 11:30:56.977087
2022-12-02 11:30:56.983810
2022-12-02 11:30:56.993501
2022-12-02 11:30:57.000512
2022-12-02 11:30:57.013216
2022-12-02 11:30:57.021693
2022-12-02 11:30:57.030365
2022-12-02 11:30:57.042075
2022-12-02 11:30:57.049984
2022-12-02 11:30:57.058411
2022-12-02 11:30:57.066813
2022-12-02 11:30:57.079042
2022-12-02 11:30:57.087350
2022-12-02 11:30:57.095238
2022-12-02 11:30:57.107429
2022-12-02 11:30:57.115886
2022-12-02 11:30:57.123315
2022-12-02 11:30:57.131668
2022-12-02 11:30:57.145068
2022-12-02 11:30:57.152348
2022-12-02 11:30:57.161529
2022-12-02 11:30:57.173422
2022-12-02 11:30:57.181647
2022-12-02 11:30:57.189577
2022-12-02 11:30:57.197005
2022-12-02 11:30:57.210176
2022-12-02 11:30:57.217841
2022-12-02 11:30:57.226656
2022-12-02 11:30:57.238850
2022-12-02 11:30:57.247341
2022-12-02 11:30:57.254922
2022-12-02 11:30:57.262947
2022-12-02 11:30:57.275174
2022-12-02 11:30:57.283649
2022-12-02 11:30:57.291642
2022-12-02 11:30:57.303960
2022-12-02 11:30:57.312472
2022-12-02 11:30:57.320599
2022-12-02 11:30:57.328148
2022-12-02 11:30:57.340591
2022-12-02 11:30:57.348423
2022-12-02 11:30:57.356995
2022-12-02 11:30:57.368901
2022-12-02 11:30:57.377500
2022-12-02 11:30:57.386003
2022-12-02 11:30:57.393903
2022-12-02 11:30:57.405719
2022-12-02 11:30:57.414060
2022-12-02 11:30:57.422391
2022-12-02 11:30:57.434405
2022-12-02 11:30:57.443343
2022-12-02 11:30:57.451387
2022-12-02 11:30:57.459973
2022-12-02 11:30:57.472365
2022-12-02 11:30:57.480946
2022-12-02 11:30:57.488669
2022-12-02 11:30:57.500157
2022-12-02 11:30:57.508049
2022-12-02 11:30:57.516716
2022-12-02 11:30:57.524445
2022-12-02 11:30:57.537520
2022-12-02 11:30:57.545099
2022-12-02 11:30:57.553646
2022-12-02 11:30:57.565908
2022-12-02 11:30:57.574668
2022-12-02 11:30:57.582453
2022-12-02 11:30:57.590233
2022-12-02 11:30:57.603576
2022-12-02 11:30:57.611434
2022-12-02 11:30:57.619313
2022-12-02 11:30:57.632026
2022-12-02 11:30:57.640091
2022-12-02 11:30:57.648587
2022-12-02 11:30:57.656390
2022-12-02 11:30:57.668059
2022-12-02 11:30:57.676342
2022-12-02 11:30:57.684814
2022-12-02 11:30:57.698127
2022-12-02 11:30:57.705239
2022-12-02 11:30:57.714339
2022-12-02 11:30:57.721776
2022-12-02 11:30:57.733787
2022-12-02 11:30:57.743162
2022-12-02 11:30:57.750010
2022-12-02 11:30:57.759569
2022-12-02 11:30:57.771484
2022-12-02 11:30:57.778674
2022-12-02 11:30:57.787655
2022-12-02 11:30:57.799929
2022-12-02 11:30:57.808037
2022-12-02 11:30:57.816280
2022-12-02 11:30:57.824515
2022-12-02 11:30:57.836220
2022-12-02 11:30:57.844703
2022-12-02 11:30:57.853297
2022-12-02 11:30:57.865583
2022-12-02 11:30:57.872659
2022-12-02 11:30:57.881785
2022-12-02 11:30:57.889645
2022-12-02 11:30:57.902097
2022-12-02 11:30:57.909887
2022-12-02 11:30:57.918459
2022-12-02 11:30:57.931475
2022-12-02 11:30:57.939131
2022-12-02 11:30:57.947325
2022-12-02 11:30:57.955122
2022-12-02 11:30:57.967539
2022-12-02 11:30:57.976091
2022-12-02 11:30:57.983498
2022-12-02 11:30:57.996256
2022-12-02 11:30:58.003790
2022-12-02 11:30:58.012634
2022-12-02 11:30:58.021079
2022-12-02 11:30:58.033520
2022-12-02 11:30:58.041461
2022-12-02 11:30:58.050189
2022-12-02 11:30:58.062571
2022-12-02 11:30:58.070769
2022-12-02 11:30:58.078509
2022-12-02 11:30:58.086511
2022-12-02 11:30:58.099002
2022-12-02 11:30:58.106965
2022-12-02 11:30:58.115355
2022-12-02 11:30:58.127511
2022-12-02 11:30:58.135374
2022-12-02 11:30:58.144011
2022-12-02 11:30:58.151241
2022-12-02 11:30:58.164519
2022-12-02 11:30:58.172034
2022-12-02 11:30:58.180604
2022-12-02 11:30:58.193678
2022-12-02 11:30:58.201030
2022-12-02 11:30:58.210021
2022-12-02 11:30:58.217187
2022-12-02 11:30:58.230494
2022-12-02 11:30:58.238016
2022-12-02 11:30:58.246986
2022-12-02 11:30:58.258047
2022-12-02 11:30:58.266611
2022-12-02 11:30:58.274984
2022-12-02 11:30:58.282969
2022-12-02 11:30:58.295598
2022-12-02 11:30:58.303437
2022-12-02 11:30:58.311958
2022-12-02 11:30:58.323811
2022-12-02 11:30:58.332351
2022-12-02 11:30:58.340447
2022-12-02 11:30:58.348172
2022-12-02 11:30:58.361171
2022-12-02 11:30:58.368288
2022-12-02 11:30:58.377125
2022-12-02 11:30:58.389287
2022-12-02 11:30:58.397401
2022-12-02 11:30:58.405915
2022-12-02 11:30:58.413624
2022-12-02 11:30:58.426563
2022-12-02 11:30:58.434202
2022-12-02 11:30:58.442917
2022-12-02 11:30:58.455118
2022-12-02 11:30:58.463435
2022-12-02 11:30:58.471245
2022-12-02 11:30:58.479945
2022-12-02 11:30:58.492087
2022-12-02 11:30:58.499803
2022-12-02 11:30:58.508335
2022-12-02 11:30:58.520187
2022-12-02 11:30:58.529586
2022-12-02 11:30:58.536484
2022-12-02 11:30:58.545993
2022-12-02 11:30:58.558161
2022-12-02 11:30:58.565172
2022-12-02 11:30:58.573819
2022-12-02 11:30:58.581047
2022-12-02 11:30:58.594534
2022-12-02 11:30:58.602489
2022-12-02 11:30:58.610658
2022-12-02 11:30:58.622944
2022-12-02 11:30:58.630532
2022-12-02 11:30:58.639530
2022-12-02 11:30:58.647892
2022-12-02 11:30:58.659996
2022-12-02 11:30:58.668218
2022-12-02 11:30:58.676351
2022-12-02 11:30:58.688269
2022-12-02 11:30:58.697447
2022-12-02 11:30:58.704718
2022-12-02 11:30:58.713909
2022-12-02 11:30:58.725809
2022-12-02 11:30:58.733243
2022-12-02 11:30:58.741868
2022-12-02 11:30:58.753811
2022-12-02 11:30:58.762626
2022-12-02 11:30:58.771194
2022-12-02 11:30:58.779470
2022-12-02 11:30:58.791194
2022-12-02 11:30:58.798551
2022-12-02 11:30:58.807465
2022-12-02 11:30:58.819721
2022-12-02 11:30:58.827299
2022-12-02 11:30:58.835690
2022-12-02 11:30:58.844004
2022-12-02 11:30:58.855920
2022-12-02 11:30:58.864070
2022-12-02 11:30:58.872600
2022-12-02 11:30:58.885177
2022-12-02 11:30:58.893575
2022-12-02 11:30:58.900636
2022-12-02 11:30:58.910564
2022-12-02 11:30:58.921251
2022-12-02 11:30:58.929824
2022-12-02 11:30:58.937638
2022-12-02 11:30:58.950463
2022-12-02 11:30:58.959143
2022-12-02 11:30:58.966468
2022-12-02 11:30:58.975587
2022-12-02 11:30:58.987586
2022-12-02 11:30:58.995535
2022-12-02 11:30:59.004245
2022-12-02 11:30:59.016356
2022-12-02 11:30:59.024472
2022-12-02 11:30:59.033130
2022-12-02 11:30:59.040498
2022-12-02 11:30:59.052852
2022-12-02 11:30:59.060961
2022-12-02 11:30:59.070159
2022-12-02 11:30:59.082018
2022-12-02 11:30:59.089847
2022-12-02 11:30:59.098684
2022-12-02 11:30:59.106513
2022-12-02 11:30:59.118349
2022-12-02 11:30:59.127500
2022-12-02 11:30:59.134833
2022-12-02 11:30:59.147509
2022-12-02 11:30:59.154925
2022-12-02 11:30:59.163906
2022-12-02 11:30:59.171440
2022-12-02 11:30:59.183274
2022-12-02 11:30:59.192140
2022-12-02 11:30:59.200535
2022-12-02 11:30:59.213043
2022-12-02 11:30:59.221346
2022-12-02 11:30:59.229391
2022-12-02 11:30:59.237297
2022-12-02 11:30:59.248822
2022-12-02 11:30:59.258652
2022-12-02 11:30:59.266235
2022-12-02 11:30:59.279059
2022-12-02 11:30:59.286365
2022-12-02 11:30:59.294928
2022-12-02 11:30:59.302852
2022-12-02 11:30:59.314329
2022-12-02 11:30:59.323329
2022-12-02 11:30:59.331629
2022-12-02 11:30:59.343926
2022-12-02 11:30:59.351616
2022-12-02 11:30:59.360251
2022-12-02 11:30:59.367917
2022-12-02 11:30:59.380713
2022-12-02 11:30:59.388965
2022-12-02 11:30:59.397129
2022-12-02 11:30:59.409171
2022-12-02 11:30:59.417199
2022-12-02 11:30:59.426348
2022-12-02 11:30:59.434037
2022-12-02 11:30:59.447111
2022-12-02 11:30:59.454471
2022-12-02 11:30:59.462424
2022-12-02 11:30:59.470026
2022-12-02 11:30:59.482945
2022-12-02 11:30:59.491519
2022-12-02 11:30:59.499716
2022-12-02 11:30:59.512187
2022-12-02 11:30:59.520009
2022-12-02 11:30:59.528234
2022-12-02 11:30:59.536669
2022-12-02 11:30:59.548895
2022-12-02 11:30:59.556895
2022-12-02 11:30:59.564419
2022-12-02 11:30:59.577276
2022-12-02 11:30:59.585150
2022-12-02 11:30:59.593066
2022-12-02 11:30:59.601880
2022-12-02 11:30:59.613994
2022-12-02 11:30:59.622162
2022-12-02 11:30:59.630142
2022-12-02 11:30:59.642258
2022-12-02 11:30:59.650350
2022-12-02 11:30:59.658880
2022-12-02 11:30:59.666602
2022-12-02 11:30:59.679180
2022-12-02 11:30:59.687330
2022-12-02 11:30:59.696305
2022-12-02 11:30:59.708029
2022-12-02 11:30:59.716426
2022-12-02 11:30:59.725650
2022-12-02 11:30:59.732573
2022-12-02 11:30:59.746043
2022-12-02 11:30:59.754208
2022-12-02 11:30:59.761821
2022-12-02 11:30:59.774782
2022-12-02 11:30:59.782824
2022-12-02 11:30:59.790613
2022-12-02 11:30:59.798532
2022-12-02 11:30:59.811505
2022-12-02 11:30:59.819281
2022-12-02 11:30:59.827505
2022-12-02 11:30:59.839305
2022-12-02 11:30:59.848039
2022-12-02 11:30:59.856029
2022-12-02 11:30:59.864469
2022-12-02 11:30:59.876260
2022-12-02 11:30:59.884603
2022-12-02 11:30:59.892392
2022-12-02 11:30:59.905536
2022-12-02 11:30:59.913943
2022-12-02 11:30:59.920937
2022-12-02 11:30:59.930289
2022-12-02 11:30:59.942791
2022-12-02 11:30:59.949227
2022-12-02 11:30:59.957645
2022-12-02 11:30:59.970401
2022-12-02 11:30:59.978007
2022-12-02 11:30:59.986923
2022-12-02 11:30:59.995500
2022-12-02 11:31:00.007217
2022-12-02 11:31:00.014988
2022-12-02 11:31:00.023495
2022-12-02 11:31:00.035561
2022-12-02 11:31:00.044037
2022-12-02 11:31:00.052426
2022-12-02 11:31:00.060787
2022-12-02 11:31:00.072953
2022-12-02 11:31:00.081465
2022-12-02 11:31:00.089099
2022-12-02 11:31:00.101678
2022-12-02 11:31:00.109978
2022-12-02 11:31:00.118086
2022-12-02 11:31:00.125850
2022-12-02 11:31:00.137751
2022-12-02 11:31:00.147100
2022-12-02 11:31:00.154941
2022-12-02 11:31:00.166591
2022-12-02 11:31:00.175536
2022-12-02 11:31:00.183038
2022-12-02 11:31:00.191260
2022-12-02 11:31:00.203670
2022-12-02 11:31:00.211532
2022-12-02 11:31:00.220024
2022-12-02 11:31:00.232250
2022-12-02 11:31:00.240920
2022-12-02 11:31:00.249118
2022-12-02 11:31:00.257440
2022-12-02 11:31:00.269563
2022-12-02 11:31:00.277546
2022-12-02 11:31:00.285934
2022-12-02 11:31:00.294133
2022-12-02 11:31:00.306512
2022-12-02 11:31:00.314862
2022-12-02 11:31:00.322721
2022-12-02 11:31:00.335226
2022-12-02 11:31:00.343640
2022-12-02 11:31:00.351524
2022-12-02 11:31:00.359708
2022-12-02 11:31:00.371866
2022-12-02 11:31:00.380183
2022-12-02 11:31:00.387993
2022-12-02 11:31:00.400092
2022-12-02 11:31:00.408979
2022-12-02 11:31:00.416881
2022-12-02 11:31:00.425771
2022-12-02 11:31:00.437639
2022-12-02 11:31:00.445825
2022-12-02 11:31:00.453920
2022-12-02 11:31:00.465800
2022-12-02 11:31:00.474258
2022-12-02 11:31:00.482890
2022-12-02 11:31:00.491026
2022-12-02 11:31:00.502521
2022-12-02 11:31:00.510934
2022-12-02 11:31:00.519335
2022-12-02 11:31:00.531276
2022-12-02 11:31:00.539558
2022-12-02 11:31:00.547899
2022-12-02 11:31:00.556562
2022-12-02 11:31:00.568364
2022-12-02 11:31:00.575884
2022-12-02 11:31:00.584528
2022-12-02 11:31:00.597844
2022-12-02 11:31:00.605677
2022-12-02 11:31:00.613629
2022-12-02 11:31:00.621730
2022-12-02 11:31:00.633674
2022-12-02 11:31:00.641763
2022-12-02 11:31:00.650157
2022-12-02 11:31:00.662696
2022-12-02 11:31:00.670488
2022-12-02 11:31:00.678779
2022-12-02 11:31:00.687014
2022-12-02 11:31:00.699309
2022-12-02 11:31:00.707994
2022-12-02 11:31:00.715887
2022-12-02 11:31:00.728349
2022-12-02 11:31:00.736332
2022-12-02 11:31:00.744775
2022-12-02 11:31:00.752924
2022-12-02 11:31:00.764540
2022-12-02 11:31:00.773196
2022-12-02 11:31:00.781513
2022-12-02 11:31:00.794207
2022-12-02 11:31:00.801629
2022-12-02 11:31:00.809807
2022-12-02 11:31:00.818494
2022-12-02 11:31:00.831151
2022-12-02 11:31:00.839034
2022-12-02 11:31:00.847015
2022-12-02 11:31:00.859294
2022-12-02 11:31:00.867451
2022-12-02 11:31:00.876043
2022-12-02 11:31:00.883994
2022-12-02 11:31:00.896753
2022-12-02 11:31:00.904479
2022-12-02 11:31:00.912706
2022-12-02 11:31:00.925272
2022-12-02 11:31:00.933214
2022-12-02 11:31:00.941458
2022-12-02 11:31:00.948948
2022-12-02 11:31:00.961755
2022-12-02 11:31:00.969945
2022-12-02 11:31:00.978773
2022-12-02 11:31:00.990228
2022-12-02 11:31:00.998908
2022-12-02 11:31:01.006809
2022-12-02 11:31:01.015294
2022-12-02 11:31:01.027205
2022-12-02 11:31:01.035492
2022-12-02 11:31:01.043894
2022-12-02 11:31:01.056091
2022-12-02 11:31:01.064875
2022-12-02 11:31:01.071756
2022-12-02 11:31:01.080764
2022-12-02 11:31:01.093194
2022-12-02 11:31:01.100455
2022-12-02 11:31:01.109339
2022-12-02 11:31:01.121581
2022-12-02 11:31:01.129444
2022-12-02 11:31:01.137717
2022-12-02 11:31:01.145954
2022-12-02 11:31:01.158247
2022-12-02 11:31:01.166329
2022-12-02 11:31:01.174892
2022-12-02 11:31:01.183068
2022-12-02 11:31:01.195578
2022-12-02 11:31:01.203361
2022-12-02 11:31:01.211959
2022-12-02 11:31:01.223628
2022-12-02 11:31:01.231778
2022-12-02 11:31:01.240864
2022-12-02 11:31:01.248669
2022-12-02 11:31:01.261122
2022-12-02 11:31:01.269167
2022-12-02 11:31:01.276494
2022-12-02 11:31:01.289888
2022-12-02 11:31:01.297226
2022-12-02 11:31:01.306021
2022-12-02 11:31:01.314007
2022-12-02 11:31:01.326540
2022-12-02 11:31:01.334518
2022-12-02 11:31:01.342860
2022-12-02 11:31:01.354811
2022-12-02 11:31:01.363175
2022-12-02 11:31:01.370729
2022-12-02 11:31:01.379665
2022-12-02 11:31:01.391031
2022-12-02 11:31:01.399792
2022-12-02 11:31:01.408860
2022-12-02 11:31:01.419730
2022-12-02 11:31:01.428962
2022-12-02 11:31:01.436645
2022-12-02 11:31:01.445865
2022-12-02 11:31:01.457899
2022-12-02 11:31:01.465395
2022-12-02 11:31:01.474203
2022-12-02 11:31:01.485489
2022-12-02 11:31:01.494774
2022-12-02 11:31:01.502492
2022-12-02 11:31:01.510255
2022-12-02 11:31:01.522619
2022-12-02 11:31:01.531158
2022-12-02 11:31:01.539533
2022-12-02 11:31:01.551833
2022-12-02 11:31:01.559072
2022-12-02 11:31:01.568049
2022-12-02 11:31:01.576290
2022-12-02 11:31:01.588549
2022-12-02 11:31:01.596663
2022-12-02 11:31:01.604844
2022-12-02 11:31:01.616098
2022-12-02 11:31:01.624991
2022-12-02 11:31:01.633720
2022-12-02 11:31:01.641025
2022-12-02 11:31:01.654202
2022-12-02 11:31:01.662610
2022-12-02 11:31:01.670266
2022-12-02 11:31:01.682265
2022-12-02 11:31:01.691283
2022-12-02 11:31:01.698310
2022-12-02 11:31:01.707774
2022-12-02 11:31:01.719824
2022-12-02 11:31:01.728001
2022-12-02 11:31:01.736193
2022-12-02 11:31:01.747440
2022-12-02 11:31:01.756501
2022-12-02 11:31:01.764697
2022-12-02 11:31:01.773086
2022-12-02 11:31:01.785413
2022-12-02 11:31:01.793772
2022-12-02 11:31:01.801772
2022-12-02 11:31:01.814018
2022-12-02 11:31:01.821800
2022-12-02 11:31:01.830395
2022-12-02 11:31:01.838408
2022-12-02 11:31:01.850260
2022-12-02 11:31:01.859211
2022-12-02 11:31:01.867173
2022-12-02 11:31:01.879055
2022-12-02 11:31:01.886958
2022-12-02 11:31:01.895860
2022-12-02 11:31:01.904256
2022-12-02 11:31:01.916156
2022-12-02 11:31:01.923769
2022-12-02 11:31:01.931842
2022-12-02 11:31:01.945162
2022-12-02 11:31:01.952931
2022-12-02 11:31:01.961860
2022-12-02 11:31:01.969726
2022-12-02 11:31:01.981794
2022-12-02 11:31:01.989304
2022-12-02 11:31:01.998237
2022-12-02 11:31:02.006483
2022-12-02 11:31:02.017923
2022-12-02 11:31:02.026511
2022-12-02 11:31:02.034861
2022-12-02 11:31:02.046537
2022-12-02 11:31:02.055010
2022-12-02 11:31:02.063641
2022-12-02 11:31:02.071491
2022-12-02 11:31:02.083825
2022-12-02 11:31:02.092032
2022-12-02 11:31:02.100487
2022-12-02 11:31:02.112354
2022-12-02 11:31:02.120986
2022-12-02 11:31:02.129012
2022-12-02 11:31:02.137273
2022-12-02 11:31:02.149208
2022-12-02 11:31:02.157877
2022-12-02 11:31:02.165454
2022-12-02 11:31:02.178785
2022-12-02 11:31:02.186064
2022-12-02 11:31:02.194681
2022-12-02 11:31:02.202910
2022-12-02 11:31:02.215041
2022-12-02 11:31:02.223784
2022-12-02 11:31:02.231779
2022-12-02 11:31:02.244055
2022-12-02 11:31:02.252187
2022-12-02 11:31:02.260471
2022-12-02 11:31:02.268370
2022-12-02 11:31:02.280424
2022-12-02 11:31:02.288992
2022-12-02 11:31:02.297445
2022-12-02 11:31:02.309587
2022-12-02 11:31:02.317886
2022-12-02 11:31:02.325950
2022-12-02 11:31:02.333992
2022-12-02 11:31:02.346898
2022-12-02 11:31:02.354420
2022-12-02 11:31:02.363008
2022-12-02 11:31:02.375189
2022-12-02 11:31:02.383194
2022-12-02 11:31:02.391332
2022-12-02 11:31:02.399366
2022-12-02 11:31:02.412078
2022-12-02 11:31:02.419270
2022-12-02 11:31:02.427738
2022-12-02 11:31:02.440421
2022-12-02 11:31:02.448228
2022-12-02 11:31:02.456903
2022-12-02 11:31:02.464553
2022-12-02 11:31:02.476833
2022-12-02 11:31:02.485118
2022-12-02 11:31:02.493259
2022-12-02 11:31:02.505392
2022-12-02 11:31:02.513499
2022-12-02 11:31:02.521796
2022-12-02 11:31:02.530745
2022-12-02 11:31:02.542368
2022-12-02 11:31:02.551305
2022-12-02 11:31:02.559507
2022-12-02 11:31:02.571488
2022-12-02 11:31:02.579979
2022-12-02 11:31:02.587958
2022-12-02 11:31:02.596393
2022-12-02 11:31:02.608867
2022-12-02 11:31:02.616253
2022-12-02 11:31:02.625111
2022-12-02 11:31:02.637390
2022-12-02 11:31:02.645783
2022-12-02 11:31:02.653773
2022-12-02 11:31:02.661907
2022-12-02 11:31:02.674292
2022-12-02 11:31:02.681788
2022-12-02 11:31:02.690908
2022-12-02 11:31:02.702614
2022-12-02 11:31:02.711050
2022-12-02 11:31:02.718925
2022-12-02 11:31:02.727245
2022-12-02 11:31:02.739133
2022-12-02 11:31:02.747865
2022-12-02 11:31:02.756007
2022-12-02 11:31:02.768767
2022-12-02 11:31:02.776543
2022-12-02 11:31:02.784492
2022-12-02 11:31:02.793102
2022-12-02 11:31:02.805073
2022-12-02 11:31:02.813777
2022-12-02 11:31:02.821458
2022-12-02 11:31:02.829970
2022-12-02 11:31:02.842281
2022-12-02 11:31:02.850054
2022-12-02 11:31:02.857456
2022-12-02 11:31:02.869953
2022-12-02 11:31:02.878788
2022-12-02 11:31:02.887272
2022-12-02 11:31:02.895420
2022-12-02 11:31:02.907907
2022-12-02 11:31:02.915798
2022-12-02 11:31:02.923967
2022-12-02 11:31:02.936313
2022-12-02 11:31:02.944912
2022-12-02 11:31:02.952401
2022-12-02 11:31:02.961049
2022-12-02 11:31:02.972599
2022-12-02 11:31:02.980759
2022-12-02 11:31:02.988985
2022-12-02 11:31:03.001154
2022-12-02 11:31:03.008985
2022-12-02 11:31:03.017884
2022-12-02 11:31:03.026163
2022-12-02 11:31:03.038749
2022-12-02 11:31:03.046761
2022-12-02 11:31:03.054575
2022-12-02 11:31:03.066933
2022-12-02 11:31:03.075515
2022-12-02 11:31:03.083566
2022-12-02 11:31:03.092264
2022-12-02 11:31:03.104279
2022-12-02 11:31:03.112477
2022-12-02 11:31:03.120275
2022-12-02 11:31:03.132480
2022-12-02 11:31:03.141044
2022-12-02 11:31:03.148943
2022-12-02 11:31:03.157564
2022-12-02 11:31:03.168725
2022-12-02 11:31:03.178105
2022-12-02 11:31:03.185246
2022-12-02 11:31:03.198295
2022-12-02 11:31:03.206956
2022-12-02 11:31:03.214502
2022-12-02 11:31:03.223193
2022-12-02 11:31:03.235349
2022-12-02 11:31:03.243763
2022-12-02 11:31:03.251762
2022-12-02 11:31:03.264012
2022-12-02 11:31:03.272231
2022-12-02 11:31:03.280890
2022-12-02 11:31:03.288608
2022-12-02 11:31:03.300628
2022-12-02 11:31:03.308963
2022-12-02 11:31:03.317075
2022-12-02 11:31:03.329786
2022-12-02 11:31:03.337681
2022-12-02 11:31:03.345730
2022-12-02 11:31:03.354201
2022-12-02 11:31:03.366183
2022-12-02 11:31:03.374875
2022-12-02 11:31:03.382028
2022-12-02 11:31:03.394386
2022-12-02 11:31:03.403201
2022-12-02 11:31:03.411838
2022-12-02 11:31:03.419387
2022-12-02 11:31:03.431364
2022-12-02 11:31:03.439163
2022-12-02 11:31:03.447418
2022-12-02 11:31:03.460185
2022-12-02 11:31:03.468023
2022-12-02 11:31:03.476788
2022-12-02 11:31:03.484480
2022-12-02 11:31:03.496441
2022-12-02 11:31:03.504748
2022-12-02 11:31:03.512858
2022-12-02 11:31:03.526162
2022-12-02 11:31:03.533557
2022-12-02 11:31:03.541778
2022-12-02 11:31:03.550252
2022-12-02 11:31:03.562378
2022-12-02 11:31:03.570859
2022-12-02 11:31:03.579745
2022-12-02 11:31:03.591879
2022-12-02 11:31:03.599693
2022-12-02 11:31:03.607889
2022-12-02 11:31:03.615616
2022-12-02 11:31:03.628118
2022-12-02 11:31:03.636091
2022-12-02 11:31:03.644458
2022-12-02 11:31:03.657187
2022-12-02 11:31:03.664760
2022-12-02 11:31:03.672656
2022-12-02 11:31:03.680904
2022-12-02 11:31:03.693764
2022-12-02 11:31:03.702068
2022-12-02 11:31:03.710228
2022-12-02 11:31:03.718798
2022-12-02 11:31:03.730984
2022-12-02 11:31:03.739165
2022-12-02 11:31:03.747449
2022-12-02 11:31:03.759883
2022-12-02 11:31:03.767827
2022-12-02 11:31:03.776107
2022-12-02 11:31:03.784211
2022-12-02 11:31:03.796124
2022-12-02 11:31:03.803880
2022-12-02 11:31:03.813052
2022-12-02 11:31:03.825137
2022-12-02 11:31:03.833142
2022-12-02 11:31:03.841411
2022-12-02 11:31:03.849581
2022-12-02 11:31:03.862116
2022-12-02 11:31:03.870085
2022-12-02 11:31:03.878495
2022-12-02 11:31:03.890736
2022-12-02 11:31:03.898680
2022-12-02 11:31:03.907154
2022-12-02 11:31:03.914986
2022-12-02 11:31:03.927548
2022-12-02 11:31:03.935694
2022-12-02 11:31:03.944070
2022-12-02 11:31:03.956205
2022-12-02 11:31:03.964446
2022-12-02 11:31:03.972374
2022-12-02 11:31:03.980330
2022-12-02 11:31:03.993198
2022-12-02 11:31:04.001300
2022-12-02 11:31:04.009589
2022-12-02 11:31:04.021570
2022-12-02 11:31:04.029237
2022-12-02 11:31:04.037962
2022-12-02 11:31:04.046387
2022-12-02 11:31:04.057609
2022-12-02 11:31:04.066534
2022-12-02 11:31:04.074526
2022-12-02 11:31:04.087033
2022-12-02 11:31:04.095914
2022-12-02 11:31:04.103433
2022-12-02 11:31:04.111990
2022-12-02 11:31:04.124236
2022-12-02 11:31:04.131996
2022-12-02 11:31:04.140488
2022-12-02 11:31:04.152267
2022-12-02 11:31:04.161140
2022-12-02 11:31:04.169028
2022-12-02 11:31:04.177427
2022-12-02 11:31:04.189890
2022-12-02 11:31:04.197531
2022-12-02 11:31:04.206154
2022-12-02 11:31:04.218532
2022-12-02 11:31:04.226154
2022-12-02 11:31:04.234783
2022-12-02 11:31:04.242113
2022-12-02 11:31:04.255118
2022-12-02 11:31:04.263903
2022-12-02 11:31:04.271560
2022-12-02 11:31:04.283619
2022-12-02 11:31:04.292096
2022-12-02 11:31:04.300217
2022-12-02 11:31:04.308439
2022-12-02 11:31:04.320587
2022-12-02 11:31:04.328733
2022-12-02 11:31:04.336898
2022-12-02 11:31:04.348944
2022-12-02 11:31:04.357882
2022-12-02 11:31:04.365703
2022-12-02 11:31:04.374173
2022-12-02 11:31:04.385469
2022-12-02 11:31:04.394542
2022-12-02 11:31:04.402729
2022-12-02 11:31:04.414135
2022-12-02 11:31:04.422889
2022-12-02 11:31:04.430705
2022-12-02 11:31:04.439817
2022-12-02 11:31:04.451700
2022-12-02 11:31:04.459939
2022-12-02 11:31:04.468198
2022-12-02 11:31:04.480201
2022-12-02 11:31:04.488540
2022-12-02 11:31:04.496992
2022-12-02 11:31:04.504964
2022-12-02 11:31:04.516866
2022-12-02 11:31:04.525643
2022-12-02 11:31:04.533298
2022-12-02 11:31:04.542073
2022-12-02 11:31:04.554107
2022-12-02 11:31:04.563170
2022-12-02 11:31:04.570616
2022-12-02 11:31:04.582744
2022-12-02 11:31:04.591260
2022-12-02 11:31:04.599157
2022-12-02 11:31:04.607793
2022-12-02 11:31:04.619807
2022-12-02 11:31:04.628051
2022-12-02 11:31:04.635957
2022-12-02 11:31:04.648130
2022-12-02 11:31:04.656048
2022-12-02 11:31:04.664064
2022-12-02 11:31:04.672875
2022-12-02 11:31:04.684516
2022-12-02 11:31:04.693889
2022-12-02 11:31:04.701376
2022-12-02 11:31:04.714033
2022-12-02 11:31:04.721963
2022-12-02 11:31:04.730809
2022-12-02 11:31:04.738294
2022-12-02 11:31:04.750486
2022-12-02 11:31:04.759109
2022-12-02 11:31:04.767005
2022-12-02 11:31:04.779253
2022-12-02 11:31:04.787534
2022-12-02 11:31:04.795888
2022-12-02 11:31:04.803844
2022-12-02 11:31:04.816057
2022-12-02 11:31:04.824301
2022-12-02 11:31:04.832745
2022-12-02 11:31:04.845086
2022-12-02 11:31:04.853056
2022-12-02 11:31:04.861894
2022-12-02 11:31:04.869757
2022-12-02 11:31:04.880763
2022-12-02 11:31:04.890228
2022-12-02 11:31:04.898274
2022-12-02 11:31:04.910891
2022-12-02 11:31:04.918014
2022-12-02 11:31:04.927102
2022-12-02 11:31:04.935025
2022-12-02 11:31:04.947485
2022-12-02 11:31:04.955772
2022-12-02 11:31:04.963669
2022-12-02 11:31:04.976223
2022-12-02 11:31:04.984315
2022-12-02 11:31:04.992787
2022-12-02 11:31:05.000979
2022-12-02 11:31:05.012441
2022-12-02 11:31:05.020241
2022-12-02 11:31:05.029905
2022-12-02 11:31:05.041132
2022-12-02 11:31:05.049176
2022-12-02 11:31:05.057815
2022-12-02 11:31:05.065802
2022-12-02 11:31:05.078588
2022-12-02 11:31:05.086670
2022-12-02 11:31:05.094961
2022-12-02 11:31:05.106110
2022-12-02 11:31:05.114368
2022-12-02 11:31:05.123119
2022-12-02 11:31:05.131278
2022-12-02 11:31:05.144137
2022-12-02 11:31:05.151877
2022-12-02 11:31:05.160704
2022-12-02 11:31:05.172577
2022-12-02 11:31:05.180789
2022-12-02 11:31:05.188973
2022-12-02 11:31:05.196491
2022-12-02 11:31:05.208833
2022-12-02 11:31:05.217396
2022-12-02 11:31:05.225649
2022-12-02 11:31:05.237146
2022-12-02 11:31:05.246538
2022-12-02 11:31:05.254544
2022-12-02 11:31:05.262946
2022-12-02 11:31:05.275108
2022-12-02 11:31:05.283159
2022-12-02 11:31:05.291770
2022-12-02 11:31:05.303034
2022-12-02 11:31:05.311255
2022-12-02 11:31:05.320107
2022-12-02 11:31:05.328409
2022-12-02 11:31:05.340466
2022-12-02 11:31:05.348693
2022-12-02 11:31:05.357110
2022-12-02 11:31:05.365003
2022-12-02 11:31:05.376887
2022-12-02 11:31:05.385573
2022-12-02 11:31:05.394108
2022-12-02 11:31:05.406255
2022-12-02 11:31:05.413562
2022-12-02 11:31:05.422483
2022-12-02 11:31:05.430487
2022-12-02 11:31:05.443031
2022-12-02 11:31:05.451000
2022-12-02 11:31:05.459870
2022-12-02 11:31:05.471159
2022-12-02 11:31:05.479982
2022-12-02 11:31:05.487915
2022-12-02 11:31:05.495478
2022-12-02 11:31:05.508372
2022-12-02 11:31:05.516691
2022-12-02 11:31:05.525065
2022-12-02 11:31:05.536596
2022-12-02 11:31:05.544705
2022-12-02 11:31:05.552927
2022-12-02 11:31:05.561273
2022-12-02 11:31:05.573839
2022-12-02 11:31:05.581851
2022-12-02 11:31:05.589781
2022-12-02 11:31:05.602027
2022-12-02 11:31:05.610628
2022-12-02 11:31:05.618525
2022-12-02 11:31:05.626839
2022-12-02 11:31:05.639369
2022-12-02 11:31:05.646742
2022-12-02 11:31:05.655563
2022-12-02 11:31:05.667343
2022-12-02 11:31:05.675548
2022-12-02 11:31:05.684046
2022-12-02 11:31:05.692695
2022-12-02 11:31:05.705040
2022-12-02 11:31:05.713185
2022-12-02 11:31:05.720900
2022-12-02 11:31:05.732593
2022-12-02 11:31:05.741019
2022-12-02 11:31:05.749451
2022-12-02 11:31:05.757534
2022-12-02 11:31:05.770515
2022-12-02 11:31:05.778841
2022-12-02 11:31:05.786626
2022-12-02 11:31:05.798906
2022-12-02 11:31:05.807439
2022-12-02 11:31:05.815568
2022-12-02 11:31:05.823952
2022-12-02 11:31:05.835252
2022-12-02 11:31:05.844310
2022-12-02 11:31:05.852555
2022-12-02 11:31:05.863793
2022-12-02 11:31:05.872876
2022-12-02 11:31:05.881284
2022-12-02 11:31:05.889849
2022-12-02 11:31:05.900972
2022-12-02 11:31:05.910198
2022-12-02 11:31:05.917858
2022-12-02 11:31:05.930197
2022-12-02 11:31:05.938914
2022-12-02 11:31:05.947026
2022-12-02 11:31:05.954914
2022-12-02 11:31:05.967283
2022-12-02 11:31:05.975775
2022-12-02 11:31:05.983804
2022-12-02 11:31:05.995440
2022-12-02 11:31:06.004068
2022-12-02 11:31:06.012319
2022-12-02 11:31:06.020449
2022-12-02 11:31:06.032695
2022-12-02 11:31:06.041273
2022-12-02 11:31:06.049144
2022-12-02 11:31:06.061800
2022-12-02 11:31:06.069547
2022-12-02 11:31:06.077234
2022-12-02 11:31:06.085940
2022-12-02 11:31:06.097843
2022-12-02 11:31:06.106699
2022-12-02 11:31:06.114614
2022-12-02 11:31:06.127087
2022-12-02 11:31:06.134798
2022-12-02 11:31:06.143557
2022-12-02 11:31:06.151291
2022-12-02 11:31:06.163541
2022-12-02 11:31:06.172269
2022-12-02 11:31:06.180279
2022-12-02 11:31:06.192899
2022-12-02 11:31:06.200847
2022-12-02 11:31:06.209042
2022-12-02 11:31:06.217142
2022-12-02 11:31:06.229546
2022-12-02 11:31:06.237465
2022-12-02 11:31:06.245888
2022-12-02 11:31:06.253918
2022-12-02 11:31:06.266413
2022-12-02 11:31:06.274932
2022-12-02 11:31:06.282557
2022-12-02 11:31:06.295068
2022-12-02 11:31:06.302411
2022-12-02 11:31:06.311900
2022-12-02 11:31:06.319193
2022-12-02 11:31:06.331737
2022-12-02 11:31:06.339351
2022-12-02 11:31:06.347866
2022-12-02 11:31:06.360587
2022-12-02 11:31:06.368252
2022-12-02 11:31:06.376913
2022-12-02 11:31:06.384447
2022-12-02 11:31:06.397248
2022-12-02 11:31:06.404845
2022-12-02 11:31:06.413593
2022-12-02 11:31:06.425984
2022-12-02 11:31:06.434198
2022-12-02 11:31:06.442909
2022-12-02 11:31:06.450751
2022-12-02 11:31:06.463014
2022-12-02 11:31:06.470970
2022-12-02 11:31:06.479240
2022-12-02 11:31:06.491879
2022-12-02 11:31:06.499752
2022-12-02 11:31:06.508230
2022-12-02 11:31:06.515818
2022-12-02 11:31:06.528941
2022-12-02 11:31:06.535875
2022-12-02 11:31:06.544934
2022-12-02 11:31:06.557287
2022-12-02 11:31:06.565135
2022-12-02 11:31:06.573226
2022-12-02 11:31:06.581660
2022-12-02 11:31:06.593910
2022-12-02 11:31:06.601962
2022-12-02 11:31:06.610232
2022-12-02 11:31:06.622699
2022-12-02 11:31:06.629894
2022-12-02 11:31:06.638861
2022-12-02 11:31:06.646508
2022-12-02 11:31:06.659602
2022-12-02 11:31:06.667424
2022-12-02 11:31:06.675995
2022-12-02 11:31:06.688366
2022-12-02 11:31:06.696535
2022-12-02 11:31:06.703859
2022-12-02 11:31:06.712292
2022-12-02 11:31:06.725204
2022-12-02 11:31:06.733260
2022-12-02 11:31:06.741590
2022-12-02 11:31:06.753968
2022-12-02 11:31:06.761697
2022-12-02 11:31:06.770327
2022-12-02 11:31:06.777816
2022-12-02 11:31:06.790800
2022-12-02 11:31:06.798625
2022-12-02 11:31:06.806841
2022-12-02 11:31:06.819049
2022-12-02 11:31:06.827780
2022-12-02 11:31:06.834834
2022-12-02 11:31:06.844055
2022-12-02 11:31:06.856207
2022-12-02 11:31:06.864208
2022-12-02 11:31:06.872825
2022-12-02 11:31:06.884035
2022-12-02 11:31:06.892957
2022-12-02 11:31:06.901106
2022-12-02 11:31:06.909514
2022-12-02 11:31:06.921487
2022-12-02 11:31:06.929538
2022-12-02 11:31:06.937945
2022-12-02 11:31:06.950409
2022-12-02 11:31:06.958797
2022-12-02 11:31:06.966342
2022-12-02 11:31:06.975044
2022-12-02 11:31:06.987310
2022-12-02 11:31:06.995755
2022-12-02 11:31:07.003509
2022-12-02 11:31:07.015710
2022-12-02 11:31:07.024177
2022-12-02 11:31:07.032171
2022-12-02 11:31:07.040809
2022-12-02 11:31:07.052382
2022-12-02 11:31:07.061076
2022-12-02 11:31:07.069211
2022-12-02 11:31:07.077391
2022-12-02 11:31:07.089920
2022-12-02 11:31:07.097764
2022-12-02 11:31:07.105277
2022-12-02 11:31:07.117367
2022-12-02 11:31:07.126946
2022-12-02 11:31:07.134641
2022-12-02 11:31:07.142846
2022-12-02 11:31:07.155147
2022-12-02 11:31:07.162967
2022-12-02 11:31:07.171292
2022-12-02 11:31:07.183716
2022-12-02 11:31:07.191882
2022-12-02 11:31:07.200438
2022-12-02 11:31:07.208030
2022-12-02 11:31:07.220480
2022-12-02 11:31:07.228826
2022-12-02 11:31:07.236598
2022-12-02 11:31:07.249810
2022-12-02 11:31:07.257925
2022-12-02 11:31:07.265808
2022-12-02 11:31:07.273811
2022-12-02 11:31:07.286022
2022-12-02 11:31:07.294922
2022-12-02 11:31:07.302510
2022-12-02 11:31:07.314737
2022-12-02 11:31:07.323278
2022-12-02 11:31:07.331040
2022-12-02 11:31:07.339024
2022-12-02 11:31:07.351848
2022-12-02 11:31:07.360397
2022-12-02 11:31:07.367627
2022-12-02 11:31:07.379894
2022-12-02 11:31:07.388488
2022-12-02 11:31:07.396276
2022-12-02 11:31:07.404989
2022-12-02 11:31:07.417410
2022-12-02 11:31:07.424966
2022-12-02 11:31:07.433573
2022-12-02 11:31:07.446041
2022-12-02 11:31:07.453252
2022-12-02 11:31:07.462114
2022-12-02 11:31:07.469950
2022-12-02 11:31:07.481867
2022-12-02 11:31:07.490768
2022-12-02 11:31:07.499178
2022-12-02 11:31:07.510978
2022-12-02 11:31:07.519189
2022-12-02 11:31:07.527959
2022-12-02 11:31:07.535967
2022-12-02 11:31:07.548209
2022-12-02 11:31:07.556450
2022-12-02 11:31:07.563979
2022-12-02 11:31:07.576375
2022-12-02 11:31:07.585273
2022-12-02 11:31:07.593926
2022-12-02 11:31:07.601802
2022-12-02 11:31:07.613216
2022-12-02 11:31:07.621495
2022-12-02 11:31:07.630177
2022-12-02 11:31:07.642911
2022-12-02 11:31:07.649957
2022-12-02 11:31:07.659127
2022-12-02 11:31:07.666851
2022-12-02 11:31:07.679736
2022-12-02 11:31:07.687658
2022-12-02 11:31:07.695913
2022-12-02 11:31:07.708181
2022-12-02 11:31:07.716386
2022-12-02 11:31:07.724446
2022-12-02 11:31:07.732749
2022-12-02 11:31:07.745067
2022-12-02 11:31:07.752819
2022-12-02 11:31:07.761398
2022-12-02 11:31:07.773919
2022-12-02 11:31:07.781041
2022-12-02 11:31:07.789895
2022-12-02 11:31:07.798074
2022-12-02 11:31:07.810049
2022-12-02 11:31:07.817934
2022-12-02 11:31:07.826913
2022-12-02 11:31:07.838460
2022-12-02 11:31:07.847063
2022-12-02 11:31:07.855599
2022-12-02 11:31:07.863713
2022-12-02 11:31:07.876043
2022-12-02 11:31:07.884044
2022-12-02 11:31:07.892373
2022-12-02 11:31:07.900236
2022-12-02 11:31:07.912882
2022-12-02 11:31:07.921237
2022-12-02 11:31:07.929087
2022-12-02 11:31:07.941927
2022-12-02 11:31:07.949854
2022-12-02 11:31:07.958071
2022-12-02 11:31:07.966190
2022-12-02 11:31:07.978506
2022-12-02 11:31:07.986753
2022-12-02 11:31:07.994880
2022-12-02 11:31:08.006965
2022-12-02 11:31:08.015086
2022-12-02 11:31:08.023969
2022-12-02 11:31:08.031584
2022-12-02 11:31:08.043977
2022-12-02 11:31:08.052032
2022-12-02 11:31:08.060436
2022-12-02 11:31:08.072942
2022-12-02 11:31:08.080400
2022-12-02 11:31:08.089200
2022-12-02 11:31:08.096894
2022-12-02 11:31:08.109908
2022-12-02 11:31:08.117195
2022-12-02 11:31:08.126125
2022-12-02 11:31:08.138018
2022-12-02 11:31:08.146291
2022-12-02 11:31:08.154429
2022-12-02 11:31:08.162769
2022-12-02 11:31:08.175162
2022-12-02 11:31:08.183359
2022-12-02 11:31:08.191330
2022-12-02 11:31:08.203110
2022-12-02 11:31:08.211639
2022-12-02 11:31:08.219951
2022-12-02 11:31:08.227913
2022-12-02 11:31:08.240245
2022-12-02 11:31:08.248434
2022-12-02 11:31:08.256453
2022-12-02 11:31:08.268731
2022-12-02 11:31:08.277404
2022-12-02 11:31:08.285427
2022-12-02 11:31:08.293447
2022-12-02 11:31:08.305140
2022-12-02 11:31:08.314188
2022-12-02 11:31:08.321983
2022-12-02 11:31:08.334135
2022-12-02 11:31:08.341539
2022-12-02 11:31:08.350172
2022-12-02 11:31:08.359503
2022-12-02 11:31:08.371843
2022-12-02 11:31:08.379203
2022-12-02 11:31:08.388096
2022-12-02 11:31:08.400182
2022-12-02 11:31:08.408330
2022-12-02 11:31:08.416685
2022-12-02 11:31:08.424745
2022-12-02 11:31:08.437205
2022-12-02 11:31:08.445554
2022-12-02 11:31:08.453356
2022-12-02 11:31:08.465879
2022-12-02 11:31:08.474230
2022-12-02 11:31:08.482323
2022-12-02 11:31:08.490635
2022-12-02 11:31:08.502592
2022-12-02 11:31:08.511627
2022-12-02 11:31:08.519535
2022-12-02 11:31:08.530465
2022-12-02 11:31:08.539705
2022-12-02 11:31:08.547718
2022-12-02 11:31:08.556038
2022-12-02 11:31:08.567992
2022-12-02 11:31:08.576353
2022-12-02 11:31:08.584323
2022-12-02 11:31:08.596635
2022-12-02 11:31:08.605272
2022-12-02 11:31:08.613258
2022-12-02 11:31:08.621029
2022-12-02 11:31:08.633503
2022-12-02 11:31:08.642669
2022-12-02 11:31:08.650245
2022-12-02 11:31:08.662564
2022-12-02 11:31:08.671271
2022-12-02 11:31:08.679230
2022-12-02 11:31:08.687621
2022-12-02 11:31:08.698929
2022-12-02 11:31:08.706957
2022-12-02 11:31:08.715414
2022-12-02 11:31:08.727169
2022-12-02 11:31:08.735853
2022-12-02 11:31:08.744078
2022-12-02 11:31:08.752557
2022-12-02 11:31:08.763992
2022-12-02 11:31:08.772375
2022-12-02 11:31:08.780391
2022-12-02 11:31:08.788658
2022-12-02 11:31:08.800695
2022-12-02 11:31:08.808951
2022-12-02 11:31:08.817671
2022-12-02 11:31:08.829981
2022-12-02 11:31:08.838279
2022-12-02 11:31:08.846692
2022-12-02 11:31:08.854841
2022-12-02 11:31:08.867097
2022-12-02 11:31:08.874796
2022-12-02 11:31:08.883338
2022-12-02 11:31:08.895466
2022-12-02 11:31:08.903654
2022-12-02 11:31:08.911769
2022-12-02 11:31:08.920186
2022-12-02 11:31:08.932372
2022-12-02 11:31:08.940833
2022-12-02 11:31:08.949109
2022-12-02 11:31:08.961123
2022-12-02 11:31:08.968978
2022-12-02 11:31:08.977714
2022-12-02 11:31:08.985649
2022-12-02 11:31:08.997638
2022-12-02 11:31:09.006128
2022-12-02 11:31:09.013797
2022-12-02 11:31:09.026589
2022-12-02 11:31:09.034898
2022-12-02 11:31:09.043192
2022-12-02 11:31:09.051057
2022-12-02 11:31:09.063527
2022-12-02 11:31:09.071953
2022-12-02 11:31:09.079777
2022-12-02 11:31:09.092382
2022-12-02 11:31:09.100568
2022-12-02 11:31:09.108830
2022-12-02 11:31:09.117039
2022-12-02 11:31:09.128864
2022-12-02 11:31:09.137100
2022-12-02 11:31:09.145578
2022-12-02 11:31:09.157927
2022-12-02 11:31:09.165790
2022-12-02 11:31:09.173945
2022-12-02 11:31:09.182164
2022-12-02 11:31:09.194051
2022-12-02 11:31:09.202742
2022-12-02 11:31:09.211227
2022-12-02 11:31:09.222952
2022-12-02 11:31:09.231517
2022-12-02 11:31:09.239746
2022-12-02 11:31:09.247658
2022-12-02 11:31:09.259843
2022-12-02 11:31:09.268254
2022-12-02 11:31:09.276482
2022-12-02 11:31:09.288109
2022-12-02 11:31:09.297173
2022-12-02 11:31:09.304909
2022-12-02 11:31:09.313361
2022-12-02 11:31:09.324945
2022-12-02 11:31:09.333930
2022-12-02 11:31:09.342170
2022-12-02 11:31:09.354545
2022-12-02 11:31:09.362591
2022-12-02 11:31:09.370883
2022-12-02 11:31:09.378491
2022-12-02 11:31:09.391339
2022-12-02 11:31:09.399210
2022-12-02 11:31:09.407777
2022-12-02 11:31:09.419791
2022-12-02 11:31:09.428427
2022-12-02 11:31:09.436608
2022-12-02 11:31:09.444806
2022-12-02 11:31:09.457208
2022-12-02 11:31:09.465007
2022-12-02 11:31:09.472725
2022-12-02 11:31:09.485563
2022-12-02 11:31:09.494411
2022-12-02 11:31:09.501996
2022-12-02 11:31:09.510407
2022-12-02 11:31:09.522839
2022-12-02 11:31:09.530673
2022-12-02 11:31:09.539104
2022-12-02 11:31:09.550924
2022-12-02 11:31:09.559355
2022-12-02 11:31:09.567682
2022-12-02 11:31:09.575293
2022-12-02 11:31:09.587213
2022-12-02 11:31:09.595756
2022-12-02 11:31:09.604281
2022-12-02 11:31:09.612098
2022-12-02 11:31:09.624222
2022-12-02 11:31:09.633009
2022-12-02 11:31:09.640541
2022-12-02 11:31:09.653514
2022-12-02 11:31:09.661095
2022-12-02 11:31:09.669994
2022-12-02 11:31:09.677817
2022-12-02 11:31:09.689660
2022-12-02 11:31:09.698488
2022-12-02 11:31:09.706094
2022-12-02 11:31:09.718871
2022-12-02 11:31:09.727103
2022-12-02 11:31:09.735458
2022-12-02 11:31:09.743594
2022-12-02 11:31:09.755981
2022-12-02 11:31:09.764077
2022-12-02 11:31:09.772082
2022-12-02 11:31:09.784521
2022-12-02 11:31:09.792969
2022-12-02 11:31:09.800886
2022-12-02 11:31:09.809063
2022-12-02 11:31:09.821559
2022-12-02 11:31:09.829677
2022-12-02 11:31:09.837948
2022-12-02 11:31:09.849826
2022-12-02 11:31:09.858166
2022-12-02 11:31:09.866363
2022-12-02 11:31:09.874660
2022-12-02 11:31:09.887242
2022-12-02 11:31:09.894884
2022-12-02 11:31:09.902878
2022-12-02 11:31:09.915061
2022-12-02 11:31:09.923383
2022-12-02 11:31:09.931408
2022-12-02 11:31:09.939782
2022-12-02 11:31:09.952381
2022-12-02 11:31:09.960703
2022-12-02 11:31:09.968239
2022-12-02 11:31:09.981053
2022-12-02 11:31:09.988782
2022-12-02 11:31:09.996683
2022-12-02 11:31:10.004874
2022-12-02 11:31:10.017576
2022-12-02 11:31:10.026374
2022-12-02 11:31:10.034387
2022-12-02 11:31:10.046715
2022-12-02 11:31:10.054479
2022-12-02 11:31:10.062724
2022-12-02 11:31:10.070590
2022-12-02 11:31:10.082735
2022-12-02 11:31:10.091343
2022-12-02 11:31:10.099634
2022-12-02 11:31:10.112079
2022-12-02 11:31:10.119935
2022-12-02 11:31:10.127307
2022-12-02 11:31:10.136729
2022-12-02 11:31:10.148976
2022-12-02 11:31:10.156626
2022-12-02 11:31:10.165534
2022-12-02 11:31:10.177306
2022-12-02 11:31:10.185682
2022-12-02 11:31:10.193443
2022-12-02 11:31:10.201996
2022-12-02 11:31:10.214376
2022-12-02 11:31:10.222285
2022-12-02 11:31:10.230503
2022-12-02 11:31:10.243279
2022-12-02 11:31:10.251223
2022-12-02 11:31:10.259199
2022-12-02 11:31:10.267649
2022-12-02 11:31:10.279839
2022-12-02 11:31:10.288309
2022-12-02 11:31:10.296030
2022-12-02 11:31:10.308213
2022-12-02 11:31:10.316265
2022-12-02 11:31:10.324806
2022-12-02 11:31:10.333212
2022-12-02 11:31:10.345164
2022-12-02 11:31:10.353973
2022-12-02 11:31:10.361818
2022-12-02 11:31:10.373746
2022-12-02 11:31:10.382134
2022-12-02 11:31:10.390574
2022-12-02 11:31:10.398948
2022-12-02 11:31:10.410862
2022-12-02 11:31:10.419520
2022-12-02 11:31:10.427199
2022-12-02 11:31:10.439666
2022-12-02 11:31:10.448212
2022-12-02 11:31:10.456393
2022-12-02 11:31:10.464640
2022-12-02 11:31:10.476509
2022-12-02 11:31:10.484951
2022-12-02 11:31:10.492821
2022-12-02 11:31:10.501254
2022-12-02 11:31:10.513687
2022-12-02 11:31:10.521593
2022-12-02 11:31:10.529515
2022-12-02 11:31:10.541677
2022-12-02 11:31:10.549846
2022-12-02 11:31:10.558819
2022-12-02 11:31:10.566991
2022-12-02 11:31:10.579031
2022-12-02 11:31:10.587378
2022-12-02 11:31:10.594720
2022-12-02 11:31:10.607727
2022-12-02 11:31:10.615776
2022-12-02 11:31:10.624167
2022-12-02 11:31:10.632254
2022-12-02 11:31:10.644475
2022-12-02 11:31:10.652794
2022-12-02 11:31:10.660944
2022-12-02 11:31:10.673160
2022-12-02 11:31:10.681482
2022-12-02 11:31:10.689395
2022-12-02 11:31:10.697923
2022-12-02 11:31:10.710097
2022-12-02 11:31:10.718401
2022-12-02 11:31:10.725848
2022-12-02 11:31:10.738972
2022-12-02 11:31:10.747085
2022-12-02 11:31:10.755119
2022-12-02 11:31:10.763758
2022-12-02 11:31:10.775613
2022-12-02 11:31:10.783857
2022-12-02 11:31:10.792222
2022-12-02 11:31:10.804189
2022-12-02 11:31:10.812593
2022-12-02 11:31:10.820024
2022-12-02 11:31:10.829066
2022-12-02 11:31:10.840893
2022-12-02 11:31:10.849308
2022-12-02 11:31:10.857407
2022-12-02 11:31:10.869866
2022-12-02 11:31:10.878007
2022-12-02 11:31:10.885799
2022-12-02 11:31:10.894499
2022-12-02 11:31:10.906884
2022-12-02 11:31:10.914212
2022-12-02 11:31:10.922711
2022-12-02 11:31:10.935086
2022-12-02 11:31:10.943530
2022-12-02 11:31:10.951101
2022-12-02 11:31:10.959288
2022-12-02 11:31:10.971620
2022-12-02 11:31:10.980304
2022-12-02 11:31:10.988828
2022-12-02 11:31:11.000561
2022-12-02 11:31:11.009206
2022-12-02 11:31:11.017540
2022-12-02 11:31:11.025540
2022-12-02 11:31:11.038039
2022-12-02 11:31:11.045980
2022-12-02 11:31:11.054368
2022-12-02 11:31:11.066638
2022-12-02 11:31:11.074779
2022-12-02 11:31:11.082766
2022-12-02 11:31:11.090366
2022-12-02 11:31:11.103270
2022-12-02 11:31:11.111331
2022-12-02 11:31:11.119061
2022-12-02 11:31:11.131699
2022-12-02 11:31:11.140096
2022-12-02 11:31:11.148164
2022-12-02 11:31:11.156353
2022-12-02 11:31:11.168976
2022-12-02 11:31:11.177246
2022-12-02 11:31:11.184992
2022-12-02 11:31:11.197202
2022-12-02 11:31:11.205677
2022-12-02 11:31:11.214058
2022-12-02 11:31:11.222231
2022-12-02 11:31:11.234300
2022-12-02 11:31:11.242728
2022-12-02 11:31:11.250364
2022-12-02 11:31:11.263204
2022-12-02 11:31:11.270841
2022-12-02 11:31:11.279734
2022-12-02 11:31:11.287853
2022-12-02 11:31:11.300062
2022-12-02 11:31:11.308302
2022-12-02 11:31:11.316783
2022-12-02 11:31:11.324900
2022-12-02 11:31:11.337317
2022-12-02 11:31:11.344815
2022-12-02 11:31:11.353011
2022-12-02 11:31:11.365628
2022-12-02 11:31:11.373373
2022-12-02 11:31:11.381869
2022-12-02 11:31:11.390427
2022-12-02 11:31:11.402979
2022-12-02 11:31:11.410962
2022-12-02 11:31:11.419212
2022-12-02 11:31:11.431844
2022-12-02 11:31:11.439524
2022-12-02 11:31:11.447262
2022-12-02 11:31:11.455463
2022-12-02 11:31:11.467491
2022-12-02 11:31:11.475815
2022-12-02 11:31:11.484607
2022-12-02 11:31:11.496792
2022-12-02 11:31:11.505278
2022-12-02 11:31:11.513134
2022-12-02 11:31:11.521748
2022-12-02 11:31:11.533838
2022-12-02 11:31:11.542060
2022-12-02 11:31:11.550274
2022-12-02 11:31:11.562003
2022-12-02 11:31:11.570944
2022-12-02 11:31:11.578531
2022-12-02 11:31:11.587222
2022-12-02 11:31:11.598717
2022-12-02 11:31:11.608099
2022-12-02 11:31:11.615621
2022-12-02 11:31:11.627844
2022-12-02 11:31:11.636252
2022-12-02 11:31:11.644247
2022-12-02 11:31:11.652341
2022-12-02 11:31:11.664889
2022-12-02 11:31:11.673166
2022-12-02 11:31:11.681201
2022-12-02 11:31:11.693944
2022-12-02 11:31:11.701465
2022-12-02 11:31:11.709972
2022-12-02 11:31:11.717520
2022-12-02 11:31:11.729859
2022-12-02 11:31:11.737933
2022-12-02 11:31:11.746869
2022-12-02 11:31:11.759170
2022-12-02 11:31:11.767053
2022-12-02 11:31:11.775487
2022-12-02 11:31:11.783377
2022-12-02 11:31:11.795450
2022-12-02 11:31:11.804159
2022-12-02 11:31:11.812121
2022-12-02 11:31:11.824128
2022-12-02 11:31:11.832271
2022-12-02 11:31:11.841159
2022-12-02 11:31:11.848763
2022-12-02 11:31:11.860952
2022-12-02 11:31:11.869150
2022-12-02 11:31:11.877327
2022-12-02 11:31:11.889193
2022-12-02 11:31:11.898097
2022-12-02 11:31:11.905651
2022-12-02 11:31:11.914567
2022-12-02 11:31:11.926684
2022-12-02 11:31:11.934386
2022-12-02 11:31:11.942764
2022-12-02 11:31:11.955074
2022-12-02 11:31:11.963770
2022-12-02 11:31:11.971175
2022-12-02 11:31:11.980050
2022-12-02 11:31:11.992021
2022-12-02 11:31:12.000423
2022-12-02 11:31:12.008817
2022-12-02 11:31:12.020790
2022-12-02 11:31:12.029234
2022-12-02 11:31:12.037343
2022-12-02 11:31:12.045563
2022-12-02 11:31:12.057721
2022-12-02 11:31:12.065912
2022-12-02 11:31:12.074076
2022-12-02 11:31:12.086214
2022-12-02 11:31:12.094623
2022-12-02 11:31:12.102978
2022-12-02 11:31:12.111202
2022-12-02 11:31:12.123045
2022-12-02 11:31:12.131640
2022-12-02 11:31:12.139534
2022-12-02 11:31:12.148068
2022-12-02 11:31:12.160049
2022-12-02 11:31:12.168265
2022-12-02 11:31:12.176402
2022-12-02 11:31:12.188967
2022-12-02 11:31:12.196329
2022-12-02 11:31:12.205265
2022-12-02 11:31:12.213538
2022-12-02 11:31:12.225820
2022-12-02 11:31:12.233989
2022-12-02 11:31:12.242216
2022-12-02 11:31:12.254462
2022-12-02 11:31:12.262806
2022-12-02 11:31:12.270278
2022-12-02 11:31:12.278634
2022-12-02 11:31:12.291849
2022-12-02 11:31:12.299328
2022-12-02 11:31:12.307972
2022-12-02 11:31:12.320041
2022-12-02 11:31:12.327918
2022-12-02 11:31:12.336454
2022-12-02 11:31:12.353441
2022-12-02 11:31:12.398243
2022-12-02 11:31:12.431842
2022-12-02 11:31:12.463594
2022-12-02 11:31:12.480574
2022-12-02 11:31:12.497928
2022-12-02 11:31:12.504129
2022-12-02 11:31:12.512932
2022-12-02 11:31:12.519006
2022-12-02 11:31:12.528762
2022-12-02 11:31:12.534888
2022-12-02 11:31:12.545661
2022-12-02 11:31:12.552532
2022-12-02 11:31:12.565317
2022-12-02 11:31:12.571470
2022-12-02 11:31:12.576345
2022-12-02 11:31:12.582871
2022-12-02 11:31:12.589816
2022-12-02 11:31:12.604171
2022-12-02 11:31:12.615278
2022-12-02 11:31:12.620062
2022-12-02 11:31:12.624304
2022-12-02 11:31:12.630784
2022-12-02 11:31:12.636095
2022-12-02 11:31:12.643278
2022-12-02 11:31:12.653366
2022-12-02 11:31:12.664782
2022-12-02 11:31:12.675383
2022-12-02 11:31:12.681639
2022-12-02 11:31:12.686266
2022-12-02 11:31:12.691445
2022-12-02 11:31:12.699172
2022-12-02 11:31:12.709903
2022-12-02 11:31:12.716133
2022-12-02 11:31:12.719310
2022-12-02 11:31:12.729001
2022-12-02 11:31:12.739927
2022-12-02 11:31:12.747985
2022-12-02 11:31:12.752488
2022-12-02 11:31:12.755334
2022-12-02 11:31:12.760103
2022-12-02 11:31:12.764178
2022-12-02 11:31:12.765636
2022-12-02 11:31:12.767936
2022-12-02 11:31:12.772148
2022-12-02 11:31:12.778979
2022-12-02 11:31:12.782101
2022-12-02 11:31:12.786194
2022-12-02 11:31:12.795217
2022-12-02 11:31:12.803365
2022-12-02 11:31:12.815435
2022-12-02 11:31:12.823360
2022-12-02 11:31:12.832087
2022-12-02 11:31:12.843752
2022-12-02 11:31:12.852157
2022-12-02 11:31:12.860219
2022-12-02 11:31:12.868815
2022-12-02 11:31:12.881080
2022-12-02 11:31:12.888849
2022-12-02 11:31:12.896936
2022-12-02 11:31:12.909335
2022-12-02 11:31:12.917209
2022-12-02 11:31:12.925890
2022-12-02 11:31:12.934032
2022-12-02 11:31:12.946777
2022-12-02 11:31:12.954077
2022-12-02 11:31:12.962582
2022-12-02 11:31:12.975124
2022-12-02 11:31:12.983485
2022-12-02 11:31:12.991516
2022-12-02 11:31:12.999230
2022-12-02 11:31:13.011659
2022-12-02 11:31:13.020135
2022-12-02 11:31:13.028495
2022-12-02 11:31:13.036092
2022-12-02 11:31:13.048741
2022-12-02 11:31:13.057305
2022-12-02 11:31:13.065334
2022-12-02 11:31:13.077094
2022-12-02 11:31:13.085843
2022-12-02 11:31:13.094068
2022-12-02 11:31:13.101581
2022-12-02 11:31:13.114408
2022-12-02 11:31:13.122814
2022-12-02 11:31:13.130264
2022-12-02 11:31:13.143212
2022-12-02 11:31:13.150922
