HR_time,RR-interval,heart_rate
1.3108563023284803,801,77.29679821295608
2.050553787213837,745,78.86738644825019
2.79961453140154,754,82.99824865614704
3.483132460472819,688,81.08968573730861
4.279009501172253,801,80.76005610767899
5.037433504662302,764,77.54856262288112
5.805220767454698,773,79.45712554171955
6.544918252340055,745,79.13553565915406
7.312705515132451,773,79.78675517134917
8.061766259320153,754,79.11915085817523
8.820190262810202,764,80.45498575498576
9.550524488393213,735,82.61985061985061
10.243405676766839,698,81.67805167805167
11.029919458163926,792,81.67805167805167
11.760253683746937,735,80.1978021978022
12.490587909329948,735,82.50949050949052
13.211558875610612,726,84.38514909747786
13.89507680468189,688,84.03850839640678
14.634774289567247,745,82.03318841518318
15.411924811661988,783,78.50785420161658
16.18907533375673,783,76.59929128277817
16.984952374456164,801,77.90232620728634
17.724649859341522,745,79.20536113179449
18.46434734422688,745,81.11392405063292
19.204044829112235,745,81.11392405063292
19.943742313997593,745,80.12472985489349
20.71152957678999,773,80.12472985489349
21.451227061675343,745,78.82169493038532
22.228377583770087,783,80.87817760047517
22.939985290748403,716,79.26877434550231
23.726499072145494,792,78.0855587243972
24.54110263144962,820,76.68029556650245
25.290163375637324,754,75.25172413793103
26.123493453546143,839,76.12857142857143
26.91000723494323,792,74.265780730897
27.71524753494501,811,77.30375541444131
28.45494501983037,745,78.57518398586987
29.20400576401807,754,81.1225900681597
29.93433998960108,735,81.82487512487512
30.655310955881745,726,81.17365561268
31.42309821867414,773,80.82701491160893
32.162795703559496,745,80.82701491160893
32.88376666984016,726,82.51849416406378
33.604737636120824,726,82.18051948051948
34.353798380308525,754,79.86883116883116
35.140312161705616,792,79.16654611211573
35.88000964659097,745,79.85116149673112
36.610343872173985,735,81.1225900681597
37.35940461636169,754,80.13339587242027
38.12719187915408,773,78.48372024684102
38.904342401248826,783,79.1683356314564
39.63467662683183,735,80.50417052826691
40.36501085241485,735,81.46923076923076
41.11407159660255,754,81.1225900681597
41.853769081487904,745,80.10834505391466
42.61219308497795,764,80.79296043853006
43.34252731056097,735,80.12535612535612
44.10095131405102,764,79.80376624279063
44.86873857684341,773,77.84772228674667
45.655252358240496,792,77.52613240418118
46.42303962103289,773,77.21229167541244
47.200190143127635,783,77.51866000587715
47.97734066522238,783,77.20481927710843
48.75449118731712,783,76.59929128277817
49.55036822801655,801,76.9131320115469
50.31815549080895,773,76.60676368108219
51.10466927220604,792,78.1773519163763
51.85373001639374,754,79.86883116883116
52.5747009826744,726,81.14025974025972
53.32376172686211,754,81.82487512487512
54.05409595244512,735,81.46923076923076
54.784430178028124,735,81.13960113960114
55.54285418151818,764,79.80376624279063
56.31064144431057,773,79.45712554171955
57.05033892919593,745,80.12472985489349
57.790036414081285,745,80.12472985489349
58.55782367687368,773,78.51532659992061
59.34433745827077,792,76.90592334494774
60.130851239667855,792,77.22751322751323
60.889275243157904,764,78.16931216931216
61.64769924664795,764,79.1111111111111
62.40612325013801,764,77.87015250544661
63.20200029083744,801,77.54856262288112
63.969787553629835,773,77.87819225251076
64.71884829781754,754,80.13339587242027
65.44918252340055,735,81.1225900681597
66.1888800082859,745,80.47137055596457
66.9566672710783,773,78.82169493038532
67.73381779317305,783,77.83250073464589
68.50160505596544,773,76.05644751956828
69.3255718745719,830,77.02150776053213
70.07463261875961,754,74.44525474525474
70.92668921527313,858,75.6010989010989
71.71320299667022,792,74.03051066580478
72.50908003736966,801,76.92835356364768
73.2675040408597,764,79.24004187533598
73.98847500714037,726,79.84556986966625
74.76562552923511,783,79.21013925833202
75.54277605132985,783,78.5078542016166
76.2824735362152,745,80.15752982719583
77.01280776179821,735,81.460564751704
77.75250524668357,745,80.15752982719583
78.52965576877831,783,77.04564171530771
79.35362258738479,830,76.37803740213377
80.11204659087484,764,77.013468013468
80.87047059436489,764,77.013468013468
81.69443741297135,830,74.64309764309763
82.52776749088018,839,72.0060606060606
83.37046082809134,849,72.86274509803921
84.16633786879078,801,71.11274509803921
85.06521076181602,905,72.21662106703145
85.8704510618178,811,70.3046006066734
86.73187091763366,867,73.48317203524483
87.51838469903075,792,74.07453416149069
88.30489848042784,792,78.24175824175825
89.03523270601085,735,80.91844997108154
89.74684041298916,716,84.35474340737498
90.43972160136279,698,85.83499288762445
91.13260278973641,698,86.20972972972973
91.83484723741239,707,87.42937190711838
92.49963864787897,669,89.07879275653923
93.15506679904321,660,89.85906672914196
93.8385847281145,688,86.47455968688844
94.5876454723022,754,81.08968573730861
95.38352251300164,801,78.19978213507625
96.14194651649169,764,77.87015250544661
96.90037051998173,764,78.16931216931216
97.68688430137881,792,76.35066593687283
98.50148786068294,820,74.5320197044335
99.31609141998707,820,74.83838803489822
100.09324194208182,783,77.32463858051148
100.83293942696717,745,79.14328481295081
101.59136343045722,764,79.14328481295081
102.36851395255196,783,76.37803740213377
103.19248077115843,830,76.05644751956828
103.96026803395083,773,76.37028824833702
104.72805529674322,773,77.22697274031563
105.52393233744266,801,74.65071972503821
106.37598893395617,858,73.43914853955893
107.18122923395795,811,73.73830820342448
107.96774301535504,792,73.99911406423033
108.8104363525662,849,73.43463203463203
109.63440317117268,830,72.27878787878787
110.45836998977916,830,75.24545454545454
111.20743073396686,754,77.02150776053215
111.97521799675926,773,79.78675517134917
112.71491548164461,745,79.45712554171955
113.47333948513466,764,79.77871542428504
114.23176348862471,764,76.74074074074073
115.06509356653352,839,75.49978213507625
115.86097060723296,801,73.40213903743314
116.68493742583944,830,74.83071046600458
117.47145120723653,792,73.43463203463202
118.31414454444769,849,74.59047619047618
119.10065832584478,792,72.63443223443223
119.95271492235828,858,73.73830820342448
120.75795522236007,811,72.58246404758032
121.58192204096655,830,73.38266384778012
122.40588885957301,830,72.81818181818181
123.22985567817949,830,74.91582491582491
123.98827968166954,764,77.68107232664194
124.7279771665549,745,79.14328481295081
125.50512768864964,783,78.20148587115187
126.29164147004673,792,76.8984509466437
127.06879199214147,783,77.21229167541244
127.83657925493387,773,76.91313201154689
128.6324562956333,801,75.17819225251075
129.46578637354213,839,73.96662106703145
130.2710266735439,811,74.88598979013045
131.03881393633628,773,75.72319909245603
131.84405423633808,811,75.43771392806148
132.6586577956422,820,72.35667537574048
133.5294409107604,877,73.25440583245104
134.30659143285516,783,74.13125312309144
135.09310521425223,792,76.00072048993314
135.898345514254,811,73.99911406423033
136.7410388514652,849,74.61932312346379
137.50882611425757,773,75.51705358017435
138.28597663635233,783,76.62092954916659
139.0912169363541,811,74.30548239469505
139.93391027356526,849,73.69995440036479
140.7297873142647,801,72.86274509803921
141.56311739217352,839,72.09715370018975
142.43390050729172,877,70.70107526881719
143.27659384450288,849,71.83048703352308
144.07247088520234,801,74.59768485707535
144.84962140729706,783,76.29292295231346
145.63613518869414,792,76.8984509466437
146.4132857107889,783,76.00072048993314
147.21852601079067,811,75.7015608260676
148.01440305149012,801,75.09603283173735
148.81028009218954,801,73.4762148337596
149.6716999480054,867,72.89852720698474
150.48630350730954,820,73.81789593008374
151.25409077010193,773,74.87323189846317
152.0780575887084,830,73.28924969601601
152.94884070382662,877,70.97380254154447
153.79153404103778,849,71.53828457114278
154.59677434103955,811,73.12226677358994
155.41137790034367,820,73.66166071298389
156.23534471895016,830,74.55939116969445
157.0124952410449,783,77.04564171530771
157.75219272593026,745,79.14328481295081
158.5106167294203,764,78.53775681862055
159.30649377011974,801,75.23311546840958
160.1491871073309,849,74.29131652661064
160.93570088872798,792,74.59047619047618
161.72221467012508,792,75.12987012987013
162.54618148873155,830,73.7012987012987
163.37951156664036,839,72.27272727272727
164.2128416445492,839,74.37037037037037
164.97126564803924,764,77.40834505391467
165.7109631329246,745,78.53775681862055
166.50684017362403,801,77.29679821295606
167.30271721432345,801,76.30760401721665
168.07050447711586,773,76.91313201154689
168.8476549992106,783,77.51866000587715
169.62480552130535,783,76.02160365600332
170.43940908060947,820,76.98666389696717
171.18846982479718,754,77.30050462573591
171.95625708758956,773,77.87819225251076
172.75213412828901,801,75.72991639044179
173.56673768759313,820,75.41607566167306
174.34388820968786,783,76.33544438477205
175.11167547248027,773,77.83250073464589
175.87946273527265,773,78.14634146341463
176.64724999806506,773,77.83250073464589
177.4244005201598,783,79.1683356314564
178.15473474574281,735,78.54812657222296
178.9412485271399,792,76.28571428571428
179.7933051236534,858,74.32967032967034
180.5798189050505,792,74.32967032967034
181.36633268644758,792,73.34135338345865
182.25584232017047,896,73.0421937195931
183.05171936086992,801,71.61362229102167
183.88504943877874,839,75.17819225251075
184.65283670157115,773,74.88598979013045
185.45807700157292,811,76.62092954916659
186.23522752366765,783,75.12387319929276
187.0498310829718,820,77.32463858051148
187.78952856785713,745,77.01827025004677
188.57604234925424,792,79.16654611211573
189.32510309344192,754,77.55714285714285
190.11161687483903,792,77.55714285714285
190.8981306562361,792,77.22751322751323
191.65655465972617,764,77.53388155797794
192.4337051818209,783,77.84024988844264
193.21085570391563,783,76.30708882039787
194.01609600391743,811,76.30708882039787
194.79324652601215,783,78.31240880162146
195.51421749229283,726,77.47519949929588
196.34754757020164,839,76.86967150496562
197.1434246109011,801,75.17819225251075
197.91121187369347,773,75.45091952523802
198.73517869229994,830,75.75007918910357
199.52169247369704,792,75.43623846033483
200.29884299579177,783,77.86351118760757
201.0479037399795,754,78.16987951807228
201.82505426207422,783,76.98666389696717
202.63965782137836,820,75.41607566167306
203.4355348620778,801,75.72991639044179
204.20332212487017,773,76.30760401721663
204.99919916556962,801,76.01540155483633
205.8044394655714,811,76.66662106703146
206.5535002097591,754,77.58598979013045
207.3212874725515,773,79.44878048780487
208.0703482167392,754,78.1773519163763
208.85686199813628,792,78.1773519163763
209.6246492609287,773,77.52613240418118
210.39243652372107,773,77.83250073464589
211.16958704581583,783,78.82169493038532
211.90928453070117,745,75.74065637806432
212.78006764581937,877,75.13512838373406
213.57594468651882,801,73.52572512876118
214.3624584679159,792,76.60676368108219
215.1302457307083,773,73.7273519163763
216.02911862373355,905,72.03211382113821
216.8718119609447,849,72.3537037037037
217.63023596443475,764,74.94091300602928
218.43547626443655,811,77.90757967269593
219.18453700862423,754,75.2705426356589
220.02723034583542,849,77.81794871794871
220.7575645714184,735,76.85288847698486
221.53471509351317,783,79.1683356314564
222.30250235630555,773,76.33544438477205
223.11710591560967,820,75.72991639044179
223.91298295630912,801,76.05150627300728
224.67140695979916,764,76.33699143740182
225.47664725980096,811,76.63615110126737
226.26316104119803,792,74.265780730897
227.09649111910684,839,73.98029556650246
227.911094678411,820,74.9220945083014
228.66951868190102,764,77.29246487867177
229.4279426853911,764,79.77871542428504
230.16764017027643,745,79.14328481295081
230.94479069237119,783,79.14328481295081
231.70321469586122,764,78.47568049977687
232.46163869935128,764,80.12535612535612
233.19197292493428,735,78.59219505731133
233.99721322493608,811,79.9620844272007
234.71818419121672,726,77.12919318051635
235.53278775052087,820,78.02692363722691
236.3099382726156,783,76.98666389696717
237.0589990168033,754,75.9074672315636
237.91105561331682,858,77.55714285714285
238.64138983889984,735,77.22751322751321
239.39981384238988,764,81.49524549524548
240.12078480867055,726,80.15941059843499
240.88857207146293,773,79.52397998710076
241.6657225935577,783,79.88898340473574
242.377330300536,716,78.67741221925645
243.1825706005378,811,80.3270878448357
243.91290482612078,735,79.60644007155635
244.6432390517038,735,81.13960113960114
245.40166305519384,764,77.48831908831909
246.24435639240502,849,76.15248419150856
247.0121436551974,773,75.51705358017435
247.78929417729216,783,77.51866000587715
248.5664446993869,783,77.20481927710843
249.34359522148162,783,78.16987951807228
250.09265596566934,754,79.13493975903614
250.84171670985705,754,78.82857142857142
251.62823049125413,792,76.12857142857143
252.46156056916294,839,75.7989417989418
253.219984572653,764,78.1106301106301
253.94095553893365,726,78.94783941295569
254.74619583893545,811,79.96208442720071
255.47653006451844,735,78.27060517474584
256.24431732731085,773,81.91339587242027
256.94656177498683,707,80.89915085817523
257.7049857784769,764,80.27894179894179
258.49149955987394,792,79.18355718355718
259.22183378545697,735,78.24175824175825
260.00834756685407,792,78.8619673009917
260.7761348296464,773,76.60676368108219
261.5720118703459,801,77.22697274031563
262.3397991331383,773,77.87819225251076
263.088859877326,754,79.11915085817523
263.847283880816,764,81.55037037037036
264.549528328492,707,81.22074074074072
265.30795233198205,764,81.22074074074072
266.0663763354721,764,78.47568049977687
266.84352685756687,783,79.14328481295081
267.5832243424522,745,80.15752982719583
268.3135585680352,735,81.460564751704
269.0532560529206,745,80.79296043853006
269.81168005641064,764,80.79296043853006
270.5420142819936,735,80.79296043853006
271.28171176687897,745,78.69531734088696
272.10567858548546,830,79.41596511416631
272.8172862924638,716,79.07799043062201
273.5663470366515,754,82.18987854251012
274.2966812622345,735,80.78461538461538
275.0457420064222,754,79.21402714932127
275.84161904712164,801,79.21402714932127
276.57195327270466,735,79.55200183286557
277.31165075759,745,80.15752982719583
278.08880127968473,783,79.14328481295081
278.8472252831748,764,78.80531012940651
279.5962860273625,754,78.49894179894179
280.38279980875956,792,77.55714285714285
281.16931359015666,792,77.89511754068717
281.90901107504203,745,79.16654611211573
282.65807181922975,754,80.4379746835443
283.4071325634174,754,79.77037037037036
284.16555656690747,764,78.49894179894179
284.9520703483046,792,78.8369164824861
285.69176783318994,745,80.57180927001048
286.4033755401682,716,82.52785322605442
287.13370976575123,735,82.18987854251012
287.88277050993895,754,78.92182468694097
288.68801080994075,811,77.90757967269595
289.44643481343076,764,76.94251943173208
290.2235853355255,783,76.94251943173208
291.0288256355273,811,75.7015608260676
291.82470267622676,801,75.39519249560288
292.6112164576238,792,76.29292295231345
293.38836697971857,783,76.592082616179
294.1748807611157,792,76.29292295231345
294.97075780181507,801,77.25798319327731
295.7198185460028,754,79.9346749226006
296.4314262529811,716,80.23383458646616
297.2179400343782,792,80.57180927001048
297.9576375192636,745,79.16654611211573
298.70669826345124,754,79.47291444258045
299.483848785546,783,76.98666389696717
300.29845234485015,820,75.12387319929276
301.1036926448519,811,75.12387319929276
301.88084316694665,783,76.94251943173208
302.6392671704367,764,76.94251943173208
303.4445074704385,811,75.75930381062697
304.2591110297426,820,76.42690812380093
304.99880851462797,745,76.42690812380091
305.80404881462977,811,75.34771145839736
306.65610541114324,858,74.35851726265793
307.42389267393565,773,75.25624771936849
308.2010431960304,783,76.33544438477205
309.0156467553345,820,74.28666389696718
309.84897683324334,839,75.25172413793103
310.59803757743106,754,77.73797468354431
311.3377350623164,745,79.78675517134917
312.1055223251088,773,78.82169493038532
312.88267284720354,783,79.1683356314564
313.61300707278656,735,79.81955514365151
314.3620678169743,754,79.81955514365153
315.139218339069,783,76.98666389696717
315.9538218983731,820,75.12387319929276
316.7590621983749,811,73.94065757818765
317.573665757679,820,73.94065757818765
318.38826931698316,820,73.37617554858934
319.21223613558965,830,73.09717868338558
320.0362029541961,830,77.4103194103194
320.7290841425697,698,79.18637262539701
321.4968714053621,773,79.46536949060078
322.3114749646663,820,77.63847930928021
323.0511724495516,745,77.01827025004677
323.8376862309487,792,77.30375541444131
324.6429265309505,811,76.31456121870188
325.4107137937429,773,75.43771392806148
326.225317353047,820,76.02907605430734
327.0118311344441,792,73.98029556650246
327.84516121235293,839,71.22448979591837
328.76276062398284,924,71.53085812638308
329.5399111460776,783,72.36806742870866
330.34515144607934,811,74.844876334089
331.16911826468584,830,73.38266384778012
331.9930850832923,830,73.67486631016043
332.7889621239917,801,74.83071046600458
333.5754759053888,792,75.68739495798319
334.3713529460883,801,77.25798319327731
335.120413690276,754,77.87819225251076
335.88820095306835,773,79.11915085817523
336.6466249565584,764,78.46793134598012
337.4144122193508,773,77.84772228674667
338.2009260007479,792,76.02907605430734
339.015529560052,820,75.10970733120834
339.81140660075147,801,76.71911058618122
340.55110408563684,745,77.00459575057576
341.3563443856386,811,76.42690812380091
342.1709479449427,820,73.94065757818765
342.98555150424687,820,75.80344827586207
343.73461224843453,754,75.25172413793103
344.56794232634337,839,76.74878048780488
345.3357295891358,773,75.17819225251075
346.13160662983523,801,76.60676368108219
346.9181204112323,792,74.83071046600458
347.7420872298388,830,73.43463203463202
348.58478056704996,849,72.55778474399163
349.39938412635405,820,73.41446923597024
350.1952611670535,801,75.10970733120834
350.9817749484506,792,75.10970733120834
351.7963785077547,820,75.10970733120834
352.59225554845415,801,77.42139564289666
353.3132265147348,726,78.60461126400176
354.0903770368295,783,78.60461126400176
354.886254077529,801,74.08174282808986
355.74767393334486,867,71.31454500453758
356.61845704846303,877,71.02234254215728
357.4236973484648,811,72.07767851053671
358.2476641670713,830,73.10993657505284
359.0809942449801,839,73.40213903743314
359.87687128567956,801,73.12941176470588
360.7102013635884,839,73.96662106703145
361.51544166359014,811,75.20757967269594
362.2738656670802,764,76.63615110126737
363.0603794484773,792,77.53388155797794
363.83752997057206,783,76.8984509466437
364.61468049266676,783,78.5078542016166
365.35437797755213,745,78.50785420161658
366.1315284996469,783,78.20148587115187
366.91804228104394,792,76.29292295231345
367.7139193217434,801,76.92835356364768
368.47234332523345,764,76.92835356364768
369.25885710663056,792,77.53388155797794
370.03600762872526,783,74.3809024919554
370.89742748454114,867,76.6925908036437
371.6183984508218,726,77.00643153241245
372.3861857136142,773,79.52397998710076
373.1633362357089,783,75.78372024684101
373.99666631361777,839,75.78372024684101
374.7644535764102,773,76.74878048780488
375.51351432059784,754,78.48372024684102
376.2906648426926,783,79.47291444258045
377.03036232757796,745,79.14328481295081
377.788786331068,764,80.79296043853006
378.519120556651,735,81.13960113960114
379.249454782234,735,80.1978021978022
380.0359685636311,792,79.18355718355718
380.7943925671212,764,78.49894179894179
381.54345331130884,754,78.19978213507625
382.3393303520083,801,77.87819225251076
383.1071176148007,773,77.87819225251076
383.8561783589884,754,79.11915085817523
384.6146023624784,764,79.77037037037036
385.36366310666614,754,79.44074074074072
386.1220871101562,764,80.10834505391466
386.86178459504157,745,79.77871542428504
387.62020859853163,764,79.14328481295081
388.39735912062633,783,78.47568049977687
389.1557831241164,764,77.23472189411238
389.95166016481585,801,76.33699143740182
390.7569004648176,811,76.66662106703146
391.5059612090053,754,75.80993657505284
392.3299280276118,830,73.45693779904306
393.21943766133467,896,73.12730816941342
393.97786166482473,764,75.22495126705653
394.7362856683148,764,79.1111111111111
395.49470967180486,764,75.7084826762246
396.365492786923,877,77.44337546374896
397.07710049390136,716,75.91021439570419
397.88234079390315,811,79.64247246022032
398.6314015380908,754,77.58598979013045
399.3991888008832,773,79.78675517134917
400.1388862857686,745,79.45712554171955
400.89731028925866,764,80.10834505391466
401.64637103344637,754,77.6220945083014
402.46097459275046,820,76.08893344025661
403.26621489275226,811,74.81750486882805
404.05272867414936,792,75.39519249560288
404.84860571484876,801,75.10970733120834
405.6632092741529,820,76.05150627300728
406.42163327764297,764,76.65703426733754
407.19878379973767,783,78.80531012940651
407.9478445439254,754,79.13493975903614
408.6969052881131,754,78.82857142857142
409.4834190695102,792,81.38884540117417
410.1669369985815,688,80.73762588897904
410.93472426137384,773,81.35783494821248
411.70251152416625,773,76.09756097560975
412.5358416020751,839,76.09756097560975
413.30362886486745,773,76.09756097560975
414.07141612765986,773,77.52613240418118
414.85792990905696,792,76.31456121870188
415.66317020905876,811,76.31456121870188
416.4309574718511,773,76.31456121870188
417.2174712532482,792,76.90592334494774
418.0039850346453,792,76.28571428571429
418.7904988160424,792,77.22751322751323
419.54892281953244,764,77.22751322751323
420.33543660092954,792,78.16931216931216
421.0938606044196,764,77.53388155797794
421.8710111265143,783,79.14328481295081
422.6107086113997,745,78.82169493038532
423.3784958741921,773,77.92396447367476
424.1837361741939,811,76.31456121870188
424.97024995559093,792,77.30375541444131
425.7099474404763,745,78.51532659992061
426.4777347032687,773,79.78675517134917
427.2267954474564,754,80.13339587242027
427.9571296730394,735,81.46923076923076
428.6874638986224,735,80.1978021978022
429.4739776800195,792,77.08591408591408
430.297944498626,830,73.17382617382617
431.1500010951395,858,72.58246404758032
431.9552413951413,811,71.52712807920088
432.8166612509571,867,70.5388111329892
433.70617088468003,896,68.91899313501145
434.5675907404959,867,70.5388111329892
435.37283104049766,811,72.0546006066734
436.2061611184065,839,73.38893344025661
437.02076467771064,820,73.98029556650246
437.8072784591077,792,77.72055530676221
438.52824942538837,726,78.29824293353705
439.3241264660878,801,76.86967150496562
440.1574565439966,839,74.25882352941176
440.95333358469605,801,74.55798319327731
441.73984736609316,792,75.68739495798319
442.53572440679255,801,74.83071046600458
443.35969122539905,830,74.23934833975873
444.16493152540085,811,74.53850800362429
444.95144530679795,792,74.53850800362427
445.7754121254044,830,74.53850800362427
446.5806524254062,811,75.15871706285773
447.3484396881986,773,76.31456121870188
448.13495346959564,792,76.31456121870188
448.94019376959744,811,76.31456121870188
449.70798103238985,773,77.58598979013044
450.45704177657757,754,78.1773519163763
451.2435555579746,792,78.49894179894179
452.0019795614647,764,78.49894179894179
452.7510403056524,754,79.11915085817523
453.51882756844475,773,79.11915085817523
454.2772515719348,764,77.84772228674667
455.0637653533319,792,78.8369164824861
455.8034628382173,745,78.8369164824861
456.56188684170735,764,79.45712554171955
457.3296741044997,773,77.84772228674667
458.1161878858968,792,78.1773519163763
458.8652486300845,754,79.51318681318682
459.59558285566754,735,80.45498575498576
460.35400685915755,764,80.45498575498576
461.10306760334527,754,80.45498575498576
461.8334018289283,735,81.1225900681597
462.57309931381366,745,81.1225900681597
463.3221600580013,754,81.1225900681597
464.05249428358434,735,80.78461538461538
464.80155502777205,754,80.45498575498576
465.5599790312621,764,78.19978213507625
466.3558560719615,801,76.92835356364768
467.1423698533586,792,75.98655462184874
467.9288836347557,792,74.59047619047618
468.77157697196685,849,75.21068524970963
469.53936423475926,773,75.83089430894307
470.3071514975517,773,78.46793134598012
471.06557550104174,764,79.11915085817523
471.8146362452294,754,79.44074074074072
472.57306024871946,764,76.80370370370369
473.41575358593064,849,74.65542784163473
474.2303571452348,820,72.55778474399163
475.0543239638412,830,70.84506996735934
475.96256011616885,915,68.31396438612933
476.8707962684964,915,67.00897904888593
477.74157938361463,877,67.95610242766878
478.6123624987328,877,69.15287517531557
479.4737823545487,867,68.66934376614748
480.36329198827156,896,69.97432910339089
481.18725880687805,830,71.88634956374894
481.9831358475775,801,73.95386317536419
482.7977394068816,820,73.68113590263692
483.63106948479043,839,74.60050462573591
484.39885674758284,773,75.4773519163763
485.18537052897994,792,76.02907605430734
485.99997408828403,820,74.5320197044335
486.8145776475882,820,75.47381864623244
487.57300165107824,764,76.97087499610628
488.3407889138706,773,77.84772228674667
489.1273026952677,792,76.31456121870188
489.9325429952695,811,76.63615110126737
490.69096699875956,764,76.04478897502152
491.4962072987613,811,75.48030694542321
492.3201741173678,830,73.10993657505284
493.15350419527664,839,73.40213903743314
493.94938123597603,801,73.68113590263691
494.7639847952802,820,73.68113590263692
495.597314873189,839,74.9220945083014
496.355738876679,764,76.1053101294065
497.1328893987738,783,76.94251943173208
497.9381296987756,811,75.7015608260676
498.734006739475,801,76.66662106703146
499.4830674836627,754,77.25798319327731
500.2695812650598,792,77.25798319327731
501.06545830575925,801,76.60676368108219
501.8332455685516,773,77.22697274031563
502.601032831344,773,77.83250073464589
503.37818335343877,783,77.21229167541244
504.1646971348358,792,76.8984509466437
504.9418476569306,783,78.20148587115187
505.68154514181595,745,78.20148587115187
506.46805892321305,792,78.51532659992061
507.2358461860054,773,78.51532659992061
507.9755436708908,745,80.82701491160893
508.69651463717145,726,81.81620910734836
509.4362121220568,745,80.20680585237548
510.2227259034539,792,77.89511754068717
511.00923968485097,792,75.12987012987013
511.83320650345746,830,72.66904063678257
512.7039896185756,877,69.03638757555808
513.6215890302055,924,67.98105160717864
514.4830088860215,867,67.98105160717864
515.3537920011397,877,69.40252454417953
516.2152118569555,867,68.90853749515085
517.095358231376,886,70.49251969759801
517.9099617906802,820,72.40454015795606
518.7058388313797,801,73.41446923597024
519.5485321685908,849,72.86274509803921
520.3818622464996,839,73.46827309236947
521.1590127685944,783,75.16351118760757
521.9455265499914,792,76.29292295231345
522.7414035906909,801,74.83071046600458
523.5653704092973,830,75.1370787964693
524.3425209313921,783,75.74260679079956
525.1196714534868,783,75.46987951807228
525.9530015313957,839,74.28666389696717
526.7676050906998,820,73.68113590263691
527.5634821313993,801,77.06575128725231
528.2938163569822,735,78.2489669083574
529.070966879077,783,77.9567644459771
529.8762071790787,811,74.844876334089
530.7001739976852,830,73.66166071298389
531.5147775569893,820,72.29697888318577
532.3668341535029,858,72.29697888318577
533.1908009721093,830,71.2177822177822
534.0428575686228,858,72.017982017982
534.8668243872294,830,72.87466650996062
535.6627014279287,801,73.40213903743316
536.4960315058375,839,72.8627450980392
537.3387248430488,849,72.28505747126437
538.1533284023528,820,73.12226677358994
538.9585687023547,811,73.38893344025661
539.7918987802635,839,72.83720930232558
540.6252288581722,839,71.47252747252747
541.4772854546858,858,73.20746723156361
542.2544359767805,783,72.94080056489693
543.0971293139917,849,74.30548239469505
543.9023696139935,811,75.9551580202743
544.6327038395765,735,78.27060517474584
545.4004911023688,773,78.8619673009917
546.187004883766,792,76.02907605430734
547.0016084430702,820,73.45282303902994
547.8536650395836,858,72.57597574838954
548.6682685988877,820,73.45282303902994
549.4547823802849,792,74.81750486882804
550.2600226802866,811,74.265780730897
551.0933527581955,839,74.265780730897
551.8798665395925,792,74.85714285714286
552.6663803209896,792,75.4088669950739
553.4809838802937,820,73.98029556650246
554.3143139582025,839,73.68113590263691
555.110190998902,801,75.17819225251075
555.8779782616944,773,76.01540155483633
556.6832185616962,811,74.35851726265793
557.5352751582096,858,73.43914853955893
558.3311521989091,801,74.97230960760372
559.0895762023991,764,78.19978213507625
559.8386369465869,754,79.11915085817523
560.6064242093793,773,77.02150776053215
561.4303910279857,830,75.15871706285772
562.2356313279876,811,73.94714587737843
563.0408716279893,811,73.67441860465115
563.8742017058981,839,73.38893344025661
564.6888052652023,820,74.28666389696717
565.4659557872969,783,73.75919136949464
566.3180123838105,858,72.67999470409109
567.170068980324,858,72.37362637362637
567.956582761721,792,72.90109890109889
568.7899128396299,839,73.98029556650246
569.604516398934,820,74.28666389696717
570.3816669210288,783,76.33544438477205
571.1494541838211,773,76.91313201154689
571.9453312245206,801,75.45091952523802
572.769298043127,830,75.45091952523802
573.5370853059195,773,75.45091952523802
574.332962346619,801,74.65071972503821
575.1850189431325,858,73.73135100193923
575.9808959838318,801,74.03051066580478
576.767409765229,792,75.68739495798319
577.5632868059284,801,75.39519249560288
578.3685271059302,811,75.39519249560288
579.1550408873272,792,76.31456121870188
579.9228281501197,773,77.21229167541244
580.6999786722143,783,76.91313201154689
581.4958557129138,801,77.2347218941124
582.2542797164039,764,76.92835356364768
583.040793497801,792,78.16931216931216
583.799217501291,764,77.84772228674667
584.5670047640834,773,79.11915085817523
585.3160655082711,754,79.11915085817523
586.0744895117612,764,78.49894179894179
586.8610032931582,792,77.84772228674667
587.6287905559507,773,76.60676368108219
588.4246675966501,801,77.22697274031563
589.1924548594425,773,77.22697274031563
589.9602421222348,773,78.46793134598012
590.7186661257249,764,79.45712554171955
591.4583636106103,745,81.51360821180941
592.1699713175886,716,81.84323784143903
592.9190320617763,754,79.35698729582576
593.7336356210805,820,76.98666389696717
594.5107861431752,783,76.33544438477205
595.2785734059676,773,76.05644751956828
596.102540224574,830,75.15871706285772
596.9077805245759,811,74.844876334089
597.6849310466706,783,74.844876334089
598.508897865277,830,73.22505833611123
599.3703177210929,867,71.76284584980236
600.1942845396994,830,73.22505833611123
600.9714350617941,783,74.55939116969445
601.7860386210982,820,74.83838803489822
602.6006421804024,820,74.83838803489822
603.3777927024971,783,76.65703426733754
604.1362167059872,764,76.1053101294065
604.969546783896,839,73.84289784289783
605.8216033804094,858,72.60193923723335
606.6174804211089,801,72.33527257056667
607.4601737583201,849,73.13547237076648
608.2841405769266,830,72.55778474399163
609.0987441362307,820,74.87323189846319
609.8665313990231,773,75.43771392806148
610.6717716990248,811,75.72319909245603
611.4770119990267,811,75.1029900332226
612.2635257804237,792,76.63615110126737
613.0219497839138,764,75.7989417989418
613.8552798618226,839,73.5877616747182
614.7166997176384,867,71.21739130434783
615.5500297955473,839,69.94079555966698
616.4301761699678,886,69.94079555966698
617.2915960257836,867,69.6741288930003
618.1342893629949,849,71.78793394000674
618.9395296629966,811,74.94091300602928
619.6979536664867,764,77.90757967269593
620.4470144106743,754,82.3306443429731
621.1305323397456,688,81.69521373163887
621.9076828618404,783,80.73015349067502
622.6848333839351,783,74.68727082242012
623.546253239751,867,71.43654158969974
624.4357628734739,896,68.1858123569794
625.3252725071968,896,67.21842105263157
626.224145400222,905,67.70195246179966
627.0949285153403,877,68.95107526881719
627.9376218525514,849,72.43601502785334
628.7147723746461,783,74.59768485707535
629.5106494153456,801,75.7015608260676
630.3158897153473,811,75.39519249560288
631.1024034967445,792,76.965780730897
631.8514642409322,754,77.55714285714285
632.6379780223292,792,76.96578073089701
633.4432183223311,811,76.63615110126737
634.2016423258211,764,77.90757967269593
634.9507030700088,754,78.49894179894179
635.7372168514058,792,79.51318681318682
636.4675510769889,735,78.54812657222296
637.2447015990837,783,77.9567644459771
638.0499418990854,811,75.12387319929276
638.8645454583896,820,74.81750486882805
639.6510592397866,792,76.68029556650245
640.4001199839744,754,77.25798319327731
641.1959970246737,801,79.21402714932127
641.9263312502568,735,78.88439751969163
642.6847552537469,764,82.61985061985061
643.3776364421204,698,80.66380666380667
644.1641502235175,792,79.42284805814218
644.9600272642169,801,75.39519249560288
645.7652675642188,811,74.23934833975873
646.5892343828252,830,73.38266384778012
647.4132012014317,830,72.81818181818181
648.2371680200382,830,74.59423503325942
649.0049552828306,773,75.15871706285772
649.8101955828323,811,76.62092954916659
650.5873461049271,783,76.62092954916659
651.3551333677195,773,77.21229167541244
652.1416471491166,792,76.02907605430734
652.9562507084207,820,75.10970733120834
653.7521277491202,801,73.41446923597024
654.5948210863313,849,73.13547237076648
655.4187879049377,830,71.73939393939392
656.261481242149,849,72.55778474399163
657.076084801453,820,73.12226677358994
657.8813251014549,811,73.66166071298389
658.7052919200613,830,73.10993657505284
659.5386219979702,839,73.7012987012987
660.3251357793672,792,73.16190476190476
661.1678291165784,849,72.89523809523808
662.0105224537896,849,72.01839080459769
662.8251260130937,820,74.33383795906924
663.5929132758861,773,76.33544438477205
664.3700637979808,783,76.33544438477205
665.184667357285,820,76.02160365600332
665.9618178793797,783,74.55939116969445
666.7857846979862,830,75.1370787964693
667.5816617386856,801,74.53155080213904
668.3775387793851,801,74.53155080213904
669.2015055979915,830,73.67486631016043
670.025472416598,830,72.81818181818181
670.8494392352045,830,73.67486631016043
671.6453162759038,801,73.67486631016043
672.4692830945104,830,73.40213903743316
673.3026131724192,839,73.7012987012987
674.0891269538163,792,75.7989417989418
674.8475509573063,764,78.49894179894179
675.596611701494,754,79.44074074074072
676.3550357049841,764,78.80531012940651
677.1321862270788,783,77.84024988844264
677.9093367491736,783,76.02160365600332
678.7239403084777,820,75.41607566167306
679.5198173491771,801,73.41446923597024
680.3625106863883,849,69.60060917570911
681.32692639453,971,68.47119741100323
682.1602564724387,839,69.86727584237578
682.9561335131382,801,73.68113590263691
683.7707370724423,820,73.95386317536419
684.5947038910488,830,74.55939116969445
685.3718544131435,783,75.74260679079956
686.1490049352383,783,76.59929128277817
686.9448819759377,801,75.1370787964693
687.7688487945442,830,75.1370787964693
688.5459993166389,783,74.00766703176342
689.3793293945478,839,73.73493975903614
690.2126594724566,839,72.83720930232558
691.0178997724583,811,73.67441860465115
691.8231400724601,811,75.72319909245604
692.5909273352526,773,75.72319909245603
693.3961676352543,811,77.25636016050082
694.1545916387444,764,76.94251943173208
694.9317421608391,783,76.65703426733754
695.7463457201433,820,75.12387319929276
696.551586020145,811,74.2261427425822
697.3568263201468,811,74.2261427425822
698.1714298794509,820,72.60632474460445
699.0328497352667,867,71.50244877561218
699.875543072478,849,71.78793394000674
700.6807833724797,811,74.30548239469505
701.4579338945745,783,76.62092954916659
702.2257211573668,773,76.91313201154689
703.0215981980663,801,76.91313201154689
703.798748720161,783,77.90232620728634
704.5384462050464,745,77.04564171530771
705.3624130236528,830,77.04564171530771
706.1395635457476,783,73.48019450429088
706.9916201422611,858,73.48019450429088
707.8155869608676,830,72.017982017982
708.6395537794741,830,72.54545454545453
709.4728838573828,839,75.65734265734265
710.2032180829659,735,78.42259006815969
710.9429155678513,745,80.15752982719583
711.720066089946,783,78.20148587115187
712.5065798713431,792,76.00072048993314
713.3118201713448,811,76.31456121870188
714.0796074341373,773,77.25636016050082
714.8380314376274,764,78.15409061721138
715.615181959722,783,76.94251943173208
716.4204222597239,811,76.30708882039787
717.1975727818186,783,76.00072048993314
717.9840865632157,792,76.8984509466437
718.7612370853104,783,76.29292295231345
719.5571141260099,801,76.9131320115469
720.3249013888022,773,77.87819225251076
721.0739621329899,754,79.11915085817523
721.83238613648,764,81.1756335282651
722.5439938434583,716,83.73590750086784
723.2275117725296,688,86.6258111031002
723.9110297016009,688,88.18721461187214
724.5851843713698,679,89.44122635355511
725.2406125225341,660,88.2862155388471
725.9522202295124,716,86.00416425679583
726.6825544550953,735,81.86024891288048
727.4409784585854,764,78.59219505731133
728.2462187585872,811,77.57795004306631
729.0046427620772,764,79.68757967269593
729.7068872097532,707,82.23498575498576
730.4372214353363,735,82.56461538461538
731.1862821795239,754,81.82487512487512
731.9072531458046,726,81.47823442380404
732.64695063069,745,81.47823442380404
733.3960113748776,754,78.86738644825019
734.1918884155771,801,78.52941176470588
734.9409491597648,754,78.52941176470588
735.6900099039525,754,79.44878048780487
736.4577971667449,773,77.30050462573591
737.272400726049,820,75.43771392806148
738.0776410260507,811,75.12387319929276
738.8547915481455,783,76.00072048993314
739.6413053295427,792,76.592082616179
740.4278191109397,792,75.69435215946844
741.2330594109415,811,76.63615110126737
741.9914834144315,764,76.63615110126737
742.7779971958287,792,76.92835356364768
743.573874236528,801,75.68739495798319
744.3697512772275,801,76.95882352941176
745.1188120214152,754,78.52941176470588
745.8678727656029,754,79.77037037037036
746.626296769093,764,79.11915085817523
747.3940840318853,773,78.46793134598012
748.1618712946778,773,78.14634146341463
748.9296585574701,773,78.14634146341463
749.6974458202625,773,77.83250073464589
750.4745963423572,783,75.25624771936847
751.3266529388708,858,73.75919136949464
752.1412564981749,820,75.06222629400281
752.8809539830603,745,74.07390934779113
753.7704636167832,896,73.79491248258736
754.5944304353897,830,71.59414710136863
755.3996707353914,811,76.14791125859716
756.1393682202768,745,77.92396447367476
756.9071554830692,773,79.45712554171955
757.6655794865592,764,77.54856262288112
758.4614565272586,801,76.92835356364768
759.2479703086558,792,76.29292295231345
760.0251208307504,783,76.29292295231345
760.8209978714499,801,76.9131320115469
761.5887851342424,773,77.54856262288112
762.3472091377324,764,82.50365790042876
763.012000548199,669,86.96916312690959
763.6674286993632,660,90.68329979879275
764.3322201098298,669,88.70405591443395
765.0438278168081,716,83.31918196485414
765.8397048575075,801,80.97493466286036
766.5606758237882,726,77.9990832696715
767.3565528644876,801,77.42139564289666
768.1711564237918,820,73.68113590263692
769.0044865017006,839,73.10344827586206
769.8190900610047,820,71.03593466424681
770.7085996947276,896,72.1653464289527
771.504476735427,801,73.0421937195931
772.2909905168241,792,77.25798319327731
773.0400512610119,754,78.49894179894179
773.7984752645019,764,79.44074074074072
774.556899267992,764,78.47568049977687
775.3340497900866,783,76.94251943173208
776.1392900900885,811,74.844876334089
776.9632569086949,830,73.94714587737843
777.7684972086967,811,75.15871706285773
778.5362844714891,773,77.25636016050082
779.2947084749792,764,78.46793134598012
780.0624957377715,773,79.11915085817523
780.8115564819592,754,78.1773519163763
781.5980702633564,792,78.82857142857142
782.347131007544,754,78.1773519163763
783.1149182703365,773,78.1773519163763
783.9014320517335,792,76.31456121870188
784.7066723517353,811,74.53850800362427
785.5306391703418,830,74.844876334089
786.3077896924365,783,76.37803740213377
787.0662136959265,764,78.80531012940651
787.8152744401143,754,79.77037037037036
788.564335184302,754,79.77037037037036
789.322759187792,764,79.77037037037036
790.0718199319797,754,79.77037037037036
790.8208806761675,754,78.82857142857142
791.6073944575645,792,77.25798319327731
792.403271498264,801,75.68739495798319
793.1991485389634,801,76.62919389978214
793.9575725424535,764,76.92835356364768
794.7440863238505,792,77.53388155797794
795.5212368459453,783,76.8984509466437
796.29838736804,783,78.85449490268766
797.028721593623,735,82.37982911625426
797.7122395226943,688,86.72939639947164
798.3770309331609,669,90.30130275398668
799.0230958250228,650,90.30130275398669
799.7066137540941,688,87.25477039527748
800.4463112389794,745,81.72682008471847
801.2328250203765,792,78.8369164824861
801.9912490238665,764,78.49894179894179
802.7403097680542,754,79.11915085817523
803.5080970308467,773,77.58598979013045
804.3133373308484,811,76.93477027793533
805.0811245936409,773,77.92396447367476
805.8208220785261,745,79.45712554171955
806.5792460820162,764,79.45712554171955
807.3470333448087,773,78.15409061721138
808.1241838669034,783,77.51866000587715
808.9013343889981,783,78.5078542016166
809.6410318738834,745,80.15752982719583
810.3713660994665,735,82.16284980841942
811.0923370657472,726,82.16284980841942
811.8320345506326,745,81.81620910734836
812.5717320355178,745,81.11392405063292
813.3114295204032,745,81.460564751704
814.0417637459863,735,81.460564751704
814.7814612308716,745,81.1225900681597
815.5305219750593,754,79.78675517134917
816.2983092378516,773,78.48372024684102
817.0754597599464,783,77.83250073464589
817.8432470227389,773,79.1683356314564
818.5735812483218,735,80.47137055596457
819.3132787332072,745,81.460564751704
820.0529762180926,745,80.7759493670886
820.8020369622802,754,80.7759493670886
821.5417344471656,745,80.10834505391466
822.3001584506557,764,79.45712554171955
823.067945713448,773,77.54856262288112
823.8638227541475,801,77.54856262288112
824.6222467576375,764,77.54856262288112
825.3900340204299,773,78.46793134598012
826.1578212832223,773,78.14634146341463
826.9256085460147,773,78.79756097560974
827.6746692902025,754,79.11915085817523
828.4330932936924,764,78.80531012940651
829.2102438157872,783,77.23472189411238
830.0061208564866,801,76.59929128277817
830.7832713785814,783,76.9131320115469
831.5510586413737,773,77.21229167541244
832.3375724227709,792,76.60676368108219
833.1334494634704,801,75.68739495798319
833.9293265041697,801,76.62919389978214
834.6877505076598,764,78.53775681862055
835.4274479925451,745,80.10834505391466
836.1765087367329,754,80.7759493670886
836.9162062216182,745,80.4379746835443
837.6652669658059,754,80.7759493670886
838.4049644506913,745,79.47291444258045
839.182114972786,783,77.32463858051148
839.9967185320901,820,73.25440583245106
840.8675016472083,877,70.48720800889878
841.7382847623265,877,70.77269317329332
842.5435250623283,811,72.93436300251533
843.3394021030277,801,75.7015608260676
844.1165526251225,783,76.9131320115469
844.8843398879148,773,78.82169493038532
845.6240373728002,745,79.78675517134917
846.373098116988,754,79.78675517134917
847.1408853797803,773,77.87819225251076
847.9367624204798,801,76.01540155483633
848.7420027204815,811,75.7015608260676
849.5191532425763,783,76.62092954916659
850.2869405053688,773,77.83250073464589
851.0547277681611,773,77.83250073464589
851.8318782902559,783,78.48372024684102
852.5809390344435,754,80.17519949929587
853.3019100007242,726,83.70053371286247
853.9854279297955,688,86.26080768546521
854.6689458588668,688,85.90516332982085
855.3992800844497,735,85.50975422208299
856.0921612728234,698,85.50975422208299
856.7756792018947,688,87.38541281007033
857.459197130966,688,88.605054987459
858.1239885414326,669,89.85906672914196
858.7794166925968,660,90.68329979879275
859.4442081030634,669,90.2654594232059
860.1183627728323,679,88.61603857378505
860.811243961206,698,86.63679468942627
861.5228516681842,716,84.71038776301933
862.2438226344649,726,82.88349758169878
862.9835201193503,745,82.88349758169878
863.6951278263286,716,82.88349758169878
864.4160987926092,726,82.54552289815447
865.165159536797,754,80.48904022806461
865.9329467995893,773,77.30050462573591
866.7475503588935,820,76.02907605430734
867.5340641402905,792,75.4088669950739
868.3205779216877,792,75.98655462184874
869.1164549623871,801,75.98655462184874
869.9029687437842,792,75.10970733120834
870.7175723030883,820,75.10970733120834
871.5134493437878,801,75.10970733120834
872.2999631251848,792,75.10970733120834
873.114566684489,820,74.5320197044335
873.9291702437931,820,72.8367816091954
874.7718635810043,849,73.12226677358994
875.577103881006,811,72.84326990838618
876.4010706996125,830,73.38266384778012
877.225037518219,830,73.09717868338558
878.0396410775231,820,73.66166071298389
878.8448813775249,811,73.66166071298389
879.6688481961313,830,73.94714587737843
880.4740884961332,811,73.94714587737843
881.2793287961349,811,75.1029900332226
882.065842577532,792,74.81750486882804
882.8804461368361,820,74.5320197044335
883.6950496961402,820,73.37617554858934
884.5190165147467,830,73.95386317536419
885.3148935554461,801,74.53155080213904
886.1107705961456,801,75.38823529411765
886.906647636845,801,74.8105476673428
887.7212511961492,820,75.41607566167306
888.4984017182439,783,76.65703426733754
889.256825721734,764,77.84024988844264
890.0339762438286,783,77.53388155797794
890.8204900252258,792,76.29292295231345
891.6163670659253,801,76.60676368108219
892.3841543287176,773,76.01540155483633
893.1893946287194,811,75.43771392806148
894.0039981880235,820,74.2261427425822
894.8092384880254,811,75.12387319929276
895.58638901012,783,77.61012374490602
896.3260864950054,745,79.47291444258045
897.0751472391931,754,80.10834505391466
897.8335712426832,764,78.49894179894179
898.6200850240803,792,76.92835356364768
899.4159620647797,801,79.42284805814216
900.1088432531533,698,81.03225131311505
900.8485407380387,745,86.41712526269488
901.503968889203,660,88.06654611211572
902.1593970403671,660,88.76883116883116
902.8803680066478,726,82.52727272727272
903.7043348252543,830,78.71298701298701
904.453395569442,754,79.45272727272726
905.155640017118,707,79.73172413793102
905.970243576422,820,77.03172413793104
906.8035736543309,839,70.80172413793103
907.7024465473561,905,69.98333333333332
908.5451398845673,849,73.02130801687764
909.2848373694527,745,76.8200885046825
910.052624632245,773,78.82169493038532
910.8297751543398,783,78.82169493038532
911.5694726392252,745,79.81088912612475
912.3091701241106,745,79.81088912612475
913.0863206462053,783,78.82169493038532
913.8541079089977,773,78.15409061721138
914.6125319124877,764,78.46793134598012
915.3803191752801,773,78.15409061721138
916.1574696973748,783,77.21229167541244
916.9439834787719,792,76.29292295231345
917.7398605194713,801,77.25798319327731
918.4889212636591,754,77.56435152374202
919.2660717857538,783,77.86351118760757
920.0525855671509,792,76.00072048993314
920.8578258671527,811,74.53850800362427
921.6817926857591,830,74.53850800362429
922.4683064671563,792,75.12987012987013
923.2548202485533,792,76.90592334494774
924.0226075113458,773,76.90592334494774
924.8091212927428,792,76.60676368108219
925.6049983334423,801,76.60676368108219
926.3727855962346,773,77.54856262288112
927.1312095997247,764,78.78952122854561
927.8896336032147,764,79.1111111111111
928.6480576067048,764,79.1111111111111
929.4064816101949,764,79.1111111111111
930.1649056136849,764,78.47568049977687
930.9420561357796,783,78.15409061721138
931.709843398572,773,76.91313201154689
932.5057204392715,801,77.22697274031563
933.2735077020639,773,76.60676368108219
934.0600214834609,792,76.02907605430734
934.874625042765,820,74.25302283922973
935.6985918613715,830,73.37617554858934
936.5131954206756,820,74.55939116969445
937.2903459427704,783,76.02160365600332
938.0674964648651,783,78.16987951807228
938.8165572090528,754,79.47291444258045
939.5562546939382,745,81.84323784143903
940.2678624009166,716,82.88349758169878
940.9888333671972,726,82.88349758169878
941.7285308520826,745,80.51317418284019
942.5056813741772,783,77.32463858051148
943.3202849334814,820,75.7152353255386
944.1067987148786,792,75.10970733120834
944.9026757555779,801,74.83071046600458
945.7266425741844,830,72.87466650996062
946.578699170698,858,71.47858807858807
947.4213925079091,849,72.33527257056667
948.2172695486086,801,73.99215686274509
949.013146589308,801,75.38823529411765
949.8090236300073,801,75.09603283173735
950.6142639300092,811,75.7015608260676
951.391414452104,783,77.61012374490602
952.1311119369893,745,78.82169493038532
952.8988991997817,773,78.82169493038532
953.6760497218764,783,76.91313201154689
954.4719267625759,801,76.59929128277817
955.2490772846705,783,76.9131320115469
956.016864547463,773,76.91313201154689
956.8127415881625,801,76.30760401721663
957.6086186288619,801,74.25882352941176
958.4419487067706,839,74.55798319327731
959.2284624881678,792,74.85714285714286
960.0149762695648,792,75.98655462184874
960.8108533102643,801,75.10970733120834
961.6254568695684,820,75.10970733120834
962.4119706509655,792,76.02907605430734
963.1797579137578,773,77.52613240418118
963.9475451765503,773,76.93477027793533
964.752785476552,811,75.43771392806148
965.5673890358562,820,75.12387319929276
966.344539557951,783,76.02160365600332
967.1216900800457,783,76.59929128277817
967.9175671207452,801,75.41607566167306
968.7321706800492,820,74.5183452049625
969.537410980051,811,75.12387319929276
970.3145615021458,783,76.00072048993314
971.1010752835429,792,77.21229167541244
971.8688625463352,773,78.1773519163763
972.617923290523,754,79.11915085817523
973.376347294013,764,79.44074074074072
974.134771297503,764,78.16931216931216
974.9212850789002,792,77.84772228674667
975.6890723416925,773,76.90592334494774
976.4755861230897,792,76.02907605430734
977.2901896823937,820,74.5320197044335
978.1047932416978,820,74.23286004056796
978.9006702823973,801,75.10970733120834
979.6871840637943,792,75.98655462184874
980.4736978451915,792,77.22751322751323
981.2321218486816,764,78.49894179894179
981.9811825928692,754,79.44074074074072
982.7396065963593,764,79.44074074074072
983.4980305998494,764,79.44074074074072
984.247091344037,754,80.45498575498576
984.9774255696201,735,81.1225900681597
985.7171230545054,745,81.460564751704
986.4568205393907,745,80.44631973745898
987.2152445428808,764,80.79296043853006
987.9455787684639,735,81.49524549524548
988.6665497347445,726,82.86513486513486
989.3875207010251,726,83.2207792207792
990.1084916673058,726,88.34205794205793
990.7171035219583,613,88.34205794205793
991.438074488239,726,90.26846486846486
992.112229158008,679,84.10692640692639
992.8612899021956,754,82.41544715447154
993.6290771649881,773,76.22130796033234
994.4811337615015,858,77.62657111822708
995.1927414684799,716,76.70720239512808
995.9886185091793,801,79.60504529297098
996.7470425126693,764,77.87015250544661
997.5054665161593,764,79.1111111111111
998.2638905196494,764,79.77871542428504
999.0035880045348,745,80.10834505391466
999.7526487487224,754,78.86738644825019
1000.5485257894219,801,76.66662106703146
1001.3537660894237,811,75.09603283173735
1002.1496431301232,801,76.01540155483633
1002.9174303929155,773,76.60676368108219
1003.7039441743126,792,76.31456121870188
1004.5091844743145,811,75.10299003322258
1005.3144247743162,811,75.72319909245604
1006.0822120371085,773,77.25636016050082
1006.8406360405986,764,79.11915085817523
1007.5896967847864,754,79.11915085817523
1008.3574840475787,773,78.1773519163763
1009.1439978289758,792,76.31456121870188
1009.9492381289776,811,75.10299003322258
1010.7544784289794,811,73.40775193798449
1011.5971717661905,849,71.0547531619747
1012.4866813999134,896,68.23816241635015
1013.394917552241,915,68.23816241635015
1014.2376108894522,849,69.22647936256183
1015.0896674859657,858,71.2058608058608
1015.9229975638746,839,71.74525474525474
1016.746964382481,830,74.0076670317634
1017.5241149045758,783,75.43623846033483
1018.3106286859728,792,76.29292295231345
1019.1065057266723,801,75.10970733120834
1019.9211092859764,820,74.23286004056796
1020.7357128452805,820,74.83838803489822
1021.5128633673753,783,75.12387319929276
1022.318103667377,811,75.4093583636873
1023.1233439673788,811,74.51162790697674
1023.9285842673806,811,75.72319909245604
1024.696371530173,773,77.25636016050082
1025.454795533663,764,77.54856262288112
1026.2506725743624,801,74.9723096076037
1027.102729170876,858,71.81933054158118
1027.9641490266918,867,71.24164291480633
1028.778752585996,820,71.24164291480633
1029.6308091825094,858,71.49677908298597
1030.482865779023,858,71.2177822177822
1031.3068325976294,830,73.17382617382617
1032.0933463790266,792,75.12987012987013
1032.8798601604237,792,75.4088669950739
1033.6944637197278,820,74.81750486882804
1034.4997040197295,811,74.81750486882805
1035.2862178011267,792,76.63615110126737
1036.0446418046167,764,78.49894179894179
1036.7937025488045,754,79.11915085817523
1037.5614898115969,773,77.58598979013045
1038.3667301115986,811,75.43771392806148
1039.1813336709026,820,75.12387319929276
1039.9584841929975,783,75.12387319929276
1040.7637244929992,811,75.4093583636873
1041.568964793001,811,74.2261427425822
1042.3835683523052,820,74.5183452049625
1043.1794453930045,801,76.71911058618122
1043.91914287789,745,79.20536113179449
1044.6588403627752,745,84.16045640934213
1045.323631773242,669,88.53424643168017
1045.9603334058015,641,88.88088713275125
1046.6906676313845,735,84.84516057830261
1047.4584548941768,773,83.51790291467378
1048.1232463046433,669,81.26269929476427
1048.9191233453428,801,78.94725214029273
1049.761816682554,849,71.11274509803921
1050.6606895755792,905,67.77925170068026
1051.5782889872091,924,63.46410018552875
1052.6082475104672,1037,65.48682745825602
1053.4322143290738,830,69.42584884994523
1054.2093648511684,783,74.28039430449068
1055.033331669775,830,76.7076670317634
1055.7823924139627,754,76.7076670317634
1056.5595429360574,783,77.27214906136172
1057.364783236059,811,74.57214906136173
1058.198113313968,839,71.56061355764473
1059.0782596883885,886,69.20761478163493
1059.9677693221115,896,68.1753567171188
1060.8385524372297,877,68.66934376614748
1061.6999722930454,867,70.45786051255897
1062.523939111652,830,72.61953034178097
1063.3198161523515,801,73.95386317536419
1064.1344197116555,820,74.23286004056796
1064.9490232709597,820,72.8367816091954
1065.7917166081709,849,71.75758494379184
1066.6437732046843,858,71.2058608058608
1067.4771032825931,839,72.0242516104585
1068.2917068418974,820,73.10344827586206
1069.1063104012014,820,72.8367816091954
1069.9490037384126,849,72.8367816091954
1070.7636072977168,820,73.12226677358994
1071.5688475977186,811,74.81750486882805
1072.3553613791155,792,75.69435215946844
1073.1418751605127,792,75.4088669950739
1073.956478719817,820,74.5320197044335
1074.771082279121,820,74.83838803489822
1075.5482328012156,783,75.41607566167306
1076.344109841915,801,76.29292295231346
1077.1306236233122,792,75.68739495798319
1077.9265006640117,801,76.29292295231345
1078.7036511861063,783,76.9131320115469
1079.4714384488989,773,77.83250073464589
1080.2392257116912,773,78.14634146341463
1081.0070129744836,773,78.46793134598012
1081.7654369779736,764,79.45712554171955
1082.505134462859,745,81.88834505391466
1083.207378910535,707,83.9979746835443
1083.9096233582109,707,85.06526315789472
1084.6212310651892,716,83.96987854251012
1085.3515652907722,735,82.52785322605442
1086.0912627756577,745,80.15752982719583
1086.8684132977523,783,76.50624777591378
1087.7111066349635,849,72.43601502785334
1088.5818897500817,877,72.74985575662208
1089.349677012874,773,72.23391372763658
1090.21109686869,867,71.5161717921527
1091.1099697617153,905,67.48800986104885
1092.0182059140427,915,66.29123711340206
1092.9264420663703,915,66.52544763971784
1093.8159517000934,896,68.77755635574408
1094.6399185186997,830,70.75693779904306
1095.4732485966085,839,73.40213903743314
1096.269125637308,801,74.25882352941176
1097.0650026780074,801,75.99376328844791
1097.8421532001023,783,75.99376328844791
1098.6380302408015,801,74.86435152374202
1099.4713603187104,839,72.3468030690537
1100.3327801745263,867,70.43478260869566
1101.1942000303422,867,70.98650674662669
1102.0088035896463,820,70.98650674662669
1102.8702234454622,867,71.50244877561218
1103.7129167826733,849,70.68405797101448
1104.5556101198845,849,72.59607843137253
1105.351487160584,801,74.59768485707535
1106.1286376826786,783,75.41607566167306
1106.9432412419828,820,74.55939116969445
1107.7672080605892,830,73.66166071298389
1108.5724483605911,811,73.94714587737843
1109.3776886605929,811,72.891809908999
1110.2391085164086,867,71.02234254215728
1111.1098916315268,877,69.91846657316503
1111.9525849687382,849,71.25279940674824
1112.7671885280422,820,71.75758494379184
1113.6192451245556,858,72.0242516104585
1114.4525752024645,839,70.94505494505493
1115.304631798978,858,71.2058608058608
1116.1473251361892,849,72.63443223443223
1116.9338389175862,792,74.59047619047618
1117.7203526989833,792,75.69435215946844
1118.525592998985,811,75.39519249560288
1119.3214700396845,801,76.01540155483633
1120.0892573024769,773,76.30760401721663
1120.8851343431763,801,75.45091952523802
1121.7091011617829,830,74.83071046600458
1122.49561494318,792,76.07166907166906
1123.25403894667,764,77.53388155797794
1124.0311894687648,783,77.23472189411238
1124.8270665094642,801,75.7015608260676
1125.632306809466,811,76.33699143740182
1126.390730812956,764,77.57795004306631
1127.149154816446,764,78.47568049977687
1127.9263053385407,783,77.23472189411238
1128.7221823792402,801,77.56435152374202
1129.471243123428,754,78.52941176470588
1130.2203038676157,754,79.13493975903613
1130.9974543897104,783,78.80531012940651
1131.7558783932004,764,78.47568049977687
1132.5143023966905,764,78.47568049977687
1133.2914529187854,783,77.84024988844264
1134.06860344088,783,77.20481927710843
1134.8457539629746,783,77.84024988844266
1135.6041779664647,764,77.23472189411238
1136.4000550071642,801,76.33699143740182
1137.205295307166,811,75.39519249560288
1137.991809088563,792,76.31456121870188
1138.7595963513554,773,77.21229167541244
1139.5367468734503,783,77.21229167541244
1140.3232606548472,792,77.53388155797794
1141.0816846583373,764,78.16931216931216
1141.8401086618273,764,78.16931216931216
1142.6266224432245,792,76.92835356364768
1143.422499483924,801,76.60676368108219
1144.1902867467163,773,76.01540155483633
1144.995527046718,811,76.31456121870188
1145.7820408281152,792,76.31456121870188
1146.5498280909076,773,77.21229167541244
1147.3269786130024,783,77.51866000587715
1148.104129135097,783,77.51866000587717
1148.8719163978894,773,78.48372024684102
1149.6209771420772,754,80.48904022806461
1150.3419481083579,726,81.82487512487512
1151.0722823339408,735,81.49524549524548
1151.830706337431,764,79.80376624279063
1152.5984936002233,773,77.54856262288112
1153.3943706409227,801,74.65071972503821
1154.2464272374361,858,72.60193923723335
1155.079757315345,839,72.30973677485305
1155.884997615347,811,72.57054263565891
1156.727690952558,849,72.04307010818638
1157.5797475490715,858,71.2058608058608
1158.4130776269803,839,73.20746723156361
1159.190228149075,783,75.16351118760757
1159.9767419304721,792,76.8984509466437
1160.753892452567,783,76.29292295231345
1161.5497694932662,801,76.9131320115469
1162.3175567560588,773,76.60676368108219
1163.1040705374558,792,76.02907605430734
1163.91867409676,820,74.81750486882804
1164.7239143967618,811,75.12387319929276
1165.5010649188564,783,76.00072048993314
1166.2875787002536,792,75.7152353255386
1167.1021822595576,820,74.25302283922973
1167.9261490781641,830,74.25302283922974
1168.7126628595613,792,74.25302283922973
1169.5272664188653,820,74.5320197044335
1170.3418699781696,820,73.65517241379311
1171.1564735374736,820,74.83838803489822
1171.9336240595683,783,74.55939116969445
1172.7575908781748,830,73.74100036509674
1173.600284215386,849,72.27878787878787
1174.4242510339925,830,73.74100036509674
1175.2014015560871,783,75.1370787964693
1175.9972785967866,801,75.7015608260676
1176.8025188967883,811,74.5183452049625
1177.6171224560926,820,74.2261427425822
1178.4223627560943,811,75.12387319929276
1179.199513278189,783,76.94251943173208
1179.957937281679,764,78.15409061721138
1180.7257245444716,773,78.15409061721138
1181.5028750665663,783,78.48372024684102
1182.251935810754,754,78.48372024684102
1183.0197230735464,773,77.87819225251076
1183.8156001142459,801,76.01540155483633
1184.6208404142476,811,75.39519249560288
1185.4073541956448,792,74.53850800362427
1186.231321014251,830,73.7012987012987
1187.06465109216,839,72.0060606060606
1187.907344429371,849,73.46827309236947
1188.684494951466,783,74.30548239469505
1189.4897352514677,811,75.7015608260676
1190.2856122921671,801,74.5183452049625
1191.1002158514711,820,75.41607566167306
1191.877366373566,783,76.33544438477205
1192.6451536363584,773,77.51866000587715
1193.422304158453,783,76.62092954916659
1194.227544458455,811,75.7015608260676
1195.0234214991542,801,75.09603283173735
1195.8192985398537,801,74.53155080213904
1196.6432653584602,830,73.67486631016043
1197.4672321770668,830,74.59423503325942
1198.2350194398591,773,76.69187813090251
1198.9934434433492,764,78.78952122854561
1199.7518674468392,764,78.78952122854561
1200.5196547096316,773,78.46793134598012
1201.287441972424,773,75.31495227995758
1202.14886182824,867,73.2661717921527
1202.9821919061487,839,71.76911544227886
1203.7967954654528,820,73.10344827586206
1204.611399024757,820,73.65517241379311
1205.426002584061,820,76.48806366047745
1206.156336809644,735,76.20906679527369
1206.9803036282506,830,76.78675442204853
1207.77618066895,801,73.95386317536419
1208.590784228254,820,73.15366337516438
1209.4428408247677,858,73.75919136949464
1210.2199913468623,783,71.6916777578794
1211.1095009805852,896,77.0840151502168
1211.802382168959,698,78.04907539118065
1212.5514429131465,754,82.60283954840916
1213.291140398032,745,78.28969882147534
1214.105743957336,820,79.32995856173508
1214.8267149236167,726,78.34076436599565
1215.594502186409,773,79.8378207158695
1216.3622894492014,773,77.52613240418118
1217.1488032305986,792,76.02907605430734
1217.9634067899028,820,74.81750486882804
1218.7686470899046,811,75.4377139280615
1219.536434352697,773,76.62092954916659
1220.3135848747916,783,77.51866000587715
1221.0907353968864,783,77.51866000587717
1221.8585226596788,773,79.52397998710074
1222.5794936259595,726,81.52929996832435
1223.3004645922401,726,82.51849416406378
1224.0401620771254,745,81.47823442380404
1224.7892228213132,754,80.4379746835443
1225.538283565501,754,78.52941176470587
1226.3341606062004,801,76.10213903743315
1227.1581274248067,830,73.95386317536419
1227.972730984111,820,73.66166071298389
1228.7779712841127,811,72.86146091278408
1229.6300278806261,858,71.27747871033692
1230.5008109957444,877,70.44026940801135
1231.3341410736532,839,70.96774193548387
1232.167471151562,839,72.0
1233.0008012294709,839,72.83720930232558
1233.8060415294726,811,75.20757967269594
1234.5644655329627,764,78.24555435624025
1235.304163017848,745,80.10834505391466
1236.0532237620357,754,79.78675517134917
1236.821011024828,773,79.11915085817523
1237.5794350283181,764,79.11915085817523
1238.328495772506,754,78.80531012940651
1239.1056462946005,783,76.16827309236947
1239.948339631812,849,74.0199972303005
1240.762943191116,820,72.01839080459769
1241.605636528327,849,71.5024487756122
1242.467056384143,867,70.95072463768116
1243.3003864620518,839,74.25536598789213
1244.040083946937,745,75.31070195627157
1244.8640507655437,830,76.14791125859715
1245.6692910655454,811,73.94714587737843
1246.4745313655471,811,77.77968176254589
1247.1861390725255,716,78.99125294802519
1247.9539263353179,773,80.8540436456996
1248.7029870795056,754,75.47218474312402
1249.5831334539262,886,78.68367822792187
1250.2666513829975,688,77.71861798695802
1251.043801905092,783,81.04399421944376
1251.8115891678844,773,77.21229167541244
1252.5981029492816,792,76.31456121870188
1253.4033432492834,811,75.69435215946844
1254.1898570306805,792,76.31456121870188
1254.9576442934729,773,77.84772228674667
1255.716068296963,764,78.46793134598012
1256.4838555597553,773,77.84772228674667
1257.2703693411524,792,76.31456121870188
1258.0756096411542,811,75.69435215946844
1258.8621234225513,792,75.69435215946844
1259.6486372039483,792,75.98655462184874
1260.4445142446477,801,75.39519249560288
1261.2497545446497,811,75.39519249560288
1262.0362683260466,792,75.10299003322258
1262.8415086260484,811,74.53850800362427
1263.665475444655,830,73.38266384778012
1264.4894422632615,830,74.28039430449068
1265.2665927853561,783,77.3922824163788
1265.996927010939,735,81.59955514365151
1266.6991714586152,707,84.72948024948025
1267.3920526469888,698,85.0851246051246
1268.1130236132694,726,82.65390509292948
1268.8808108760618,773,77.52237356139794
1269.723504213273,849,72.26632434745399
1270.613013846996,896,68.7017543859649
1271.5025234807188,896,68.7017543859649
1272.34521681793,849,68.7017543859649
1273.234726451653,896,68.7017543859649
1274.1242360853757,896,67.93616298811544
1274.995019200494,877,70.0036765997307
1275.809622759798,820,72.07119021134594
1276.6242263191023,820,74.53201970443351
1277.4107401004992,792,76.68029556650245
1278.159800844687,754,76.68029556650247
1278.9744044039912,820,76.38113590263691
1279.7702814446905,801,75.41607566167306
1280.5474319667853,783,74.59768485707535
1281.3901253039965,849,72.94080056489693
1282.2421819005099,858,73.57623117623116
1283.000605904,764,75.57783760193398
1283.7777564260948,783,76.1053101294065
1284.6110865040037,839,74.28666389696717
1285.4256900633077,820,73.98029556650246
1286.2122038447048,792,76.68029556650245
1286.9612645888926,754,78.1773519163763
1287.729051851685,773,77.02150776053215
1288.5530186702913,830,78.06176750079189
1289.273989636572,726,78.38335738335738
1290.032413640062,764,79.24004187533599
1290.8282906807615,801,77.23472189411238
1291.6054412028564,783,76.59929128277817
1292.382591724951,783,77.20481927710843
1293.1597422470456,783,76.59929128277817
1293.955619287745,801,75.41607566167306
1294.7702228470494,820,73.95386317536419
1295.5941896656557,830,74.55939116969445
1296.3713401877505,783,75.74260679079956
1297.1484907098452,783,77.84024988844266
1297.9069147133353,764,78.47568049977687
1298.6653387168253,764,79.44074074074072
1299.414399461013,754,79.11915085817523
1300.1821867238054,773,77.87819225251076
1300.978063764505,801,75.72991639044179
1301.792667323809,820,75.10970733120834
1302.579181105206,792,74.81750486882804
1303.3844214052078,811,74.81750486882804
1304.199024964512,820,73.94065757818765
1305.0136285238161,820,74.83838803489822
1305.790779045911,783,77.67127928158257
1306.521113271494,735,80.15752982719583
1307.2608107563792,745,81.1225900681597
1308.009871500567,754,80.4379746835443
1308.7589322447548,754,79.44878048780487
1309.526719507547,773,77.02150776053215
1310.3506863261534,830,74.59423503325941
1311.17465314476,830,73.09717868338558
1311.9892567040642,820,73.09717868338558
1312.8132235226706,830,72.8244514106583
1313.6465536005794,839,72.8244514106583
1314.4611571598837,820,75.58969882147534
1315.200854644769,745,77.9600691918457
1315.959278648259,764,79.14328481295081
1316.7364291703536,783,78.15409061721138
1317.5042164331462,773,78.15409061721138
1318.262640436636,764,79.45712554171955
1319.0023379215215,745,78.53775681862055
1319.798214962221,801,78.21616693605506
1320.5660022250133,773,76.91313201154689
1321.343152747108,783,77.83250073464589
1322.1109400099006,773,77.21229167541244
1322.8974537912975,792,77.52613240418118
1323.6652410540898,773,77.52613240418118
1324.4330283168824,773,78.79756097560974
1325.18208906107,754,80.13339587242027
1325.9124232866532,735,81.82487512487512
1326.6333942529338,726,81.49524549524548
1327.3918182564237,764,80.15941059843499
1328.1596055192163,773,79.11915085817523
1328.9086662634038,754,78.48372024684102
1329.6858167854987,783,78.48372024684102
1330.453604048291,773,78.15409061721138
1331.212028051781,764,80.15941059843499
1331.9329990180618,726,80.48100048100048
1332.6914230215518,764,78.94783941295569
1333.4966633215536,811,76.33699143740182
1334.292540362253,801,77.00459575057576
1335.0322378471383,745,79.90764618850991
1335.753208813419,726,85.29252013808976
1336.4086369645834,660,87.11941031941032
1337.101518152957,698,91.25974759407595
1337.728856526214,632,95.19707478301605
1338.3093786029594,584,95.99887658481785
1338.9835332727284,679,93.78494623655914
1339.6576879424974,679,88.59360730593606
1340.3412058715687,688,84.35551206784083
1341.1277196529659,792,85.20313111545987
1341.78314780413,660,83.68311688311687
1342.5041187704107,726,85.63916083916084
1343.2344529959937,735,81.49524549524548
1343.9928769994838,764,79.18355718355718
1344.779390780881,792,78.49894179894179
1345.5284515250685,754,79.16654611211573
1346.268149009954,745,81.1225900681597
1346.998483235537,735,81.460564751704
1347.7381807204222,745,81.80720545277508
1348.4685149460054,735,82.52785322605442
1349.1801226529835,716,82.87449392712551
1349.9104568785665,735,80.91844997108154
1350.6969706599637,792,76.28571428571428
1351.5490272564773,858,73.73830820342448
1352.354267556479,811,72.86146091278408
1353.168871115783,820,73.38893344025661
1354.002201193692,839,72.02425161045849
1354.8542577902053,858,72.30973677485305
1355.6594980902073,811,74.04467653388919
1356.436648612302,783,75.7015608260676
1357.2325256530014,801,75.99376328844791
1358.0284026937009,801,75.09603283173735
1358.8336429937026,811,76.01540155483633
1359.601430256495,773,76.93477027793533
1360.3692175192873,773,77.22697274031563
1361.1650945599868,801,75.45091952523802
1361.9890613785933,830,75.77250940780351
1362.7474853820834,764,75.19482178102866
1363.5620889413874,820,76.65703426733754
1364.3392394634823,783,76.02160365600332
1365.116389985577,783,76.59929128277817
1365.9122670262764,801,76.9131320115469
1366.6800542890687,773,76.91313201154689
1367.4572048111636,783,77.51866000587715
1368.2343553332582,783,77.51866000587717
1369.0021425960506,773,78.82169493038532
1369.741840080936,745,79.13553565915406
1370.5096273437284,773,78.82169493038532
1371.286777865823,783,77.83250073464589
1372.0545651286156,773,78.82169493038532
1372.794262613501,745,79.78675517134917
1373.5433233576887,754,80.4379746835443
1374.2923841018762,754,81.50526315789472
1375.0039918088546,716,82.18987854251012
1375.7343260344376,735,91.69326837301858
1376.286758333276,556,94.54452695425428
1376.932823225138,650,94.54452695425428
1377.663157450721,735,84.71150749411618
1378.421581454211,764,84.26927146927146
1379.0770096053752,660,83.58465608465607
1379.826070349563,754,88.62605042016806
1380.4627719821226,641,85.49638009049774
1381.1931062077056,735,86.53663983075748
1381.9140771739862,726,85.20938216712864
1382.5788685844527,669,87.49143344917992
1383.2530232542217,679,88.23117370892018
1383.9552677018978,707,87.01153153153152
1384.6481488902714,698,86.20972972972973
1385.341030078645,698,87.3963963963964
1386.015184748414,679,87.79180550413426
1386.6987026774852,688,88.18721461187214
1387.3822206065565,688,86.26080768546521
1388.1031915728372,726,85.10579687075722
1388.8147992798154,716,84.32552289815447
1389.5170437274915,707,84.69052631578947
1390.2286514344696,716,85.4501280227596
1390.9215326228434,698,86.23040199536233
1391.6050505519147,688,86.23040199536234
1392.3166582588929,716,84.75015251511286
1393.046992484476,735,81.53865903031499
1393.8147797472684,773,80.47137055596457
1394.5544772321537,745,80.12472985489349
1395.2941747170391,745,80.12472985489349
1396.0619619798315,773,79.13553565915406
1396.8297492426238,773,78.46793134598012
1397.588173246114,764,80.15941059843499
1398.3091442123946,726,82.21589326852484
1399.020751919373,716,83.23013828276986
1399.751086144956,735,82.18987854251012
1400.5001468891435,754,80.78461538461538
1401.2492076333313,754,81.14025974025972
1401.970178599612,726,80.17519949929587
1402.7473291217068,783,78.60461126400176
1403.543206162406,801,75.99376328844791
1404.3390832031055,801,74.8105476673428
1405.1536867624097,820,74.8105476673428
1405.9495638031092,801,74.23286004056796
1406.7641673624132,820,74.8105476673428
1407.5600444031127,801,76.05150627300728
1408.3184684066027,764,79.24004187533598
1409.0394393728834,726,82.97549497549497
1409.732320561257,698,85.46998946998946
1410.4252017496306,698,86.20972972972973
1411.1274461973067,707,84.72948024948025
1411.8577804228896,735,83.96987854251012
1412.569388129868,716,83.59514170040485
1413.2809958368464,716,83.59514170040485
1414.0113300624294,735,82.52785322605442
1414.7510275473146,745,81.1225900681597
1415.5000882915024,754,81.84323784143903
1416.2116959984808,716,82.18987854251012
1416.9420302240637,735,83.23013828276986
1417.6630011903444,726,82.86513486513486
1418.383972156625,726,83.5857826384142
1419.0955798636032,716,81.2740943267259
1419.8820936450004,792,79.90420495683654
1420.6405176484905,764,77.22751322751323
1421.4270314298876,792,78.8369164824861
1422.1667289147729,745,79.16654611211573
1422.9157896589606,754,79.78675517134917
1423.683576921753,773,79.11915085817523
1424.442000925243,764,78.46793134598012
1425.2097881880354,773,78.15409061721138
1425.9869387101303,783,77.83250073464589
1426.7547259729226,773,77.21229167541244
1427.5412397543196,792,76.90592334494774
1428.3277535357167,792,76.28571428571429
1429.114267317114,792,77.22751322751323
1429.872691320604,764,78.16931216931216
1430.631115324094,764,79.1111111111111
1431.389539327584,764,79.77871542428504
1432.1292368124693,745,81.14860479417442
1432.85020777875,726,82.51849416406378
1433.5711787450307,726,82.86513486513486
1434.3015129706137,735,81.82487512487512
1435.0505737148014,754,80.13339587242027
1435.8183609775938,773,79.44878048780487
1436.5674217217816,754,78.79756097560974
1437.335208984574,773,78.48372024684102
1438.1123595066686,783,77.21229167541244
1438.8988732880657,792,77.21229167541244
1439.666660550858,773,77.52613240418118
1440.4344478136504,773,77.22697274031563
1441.2303248543499,801,76.01540155483633
1442.0355651543516,811,75.09603283173735
1442.831442195051,801,76.01540155483633
1443.5992294578436,773,76.91313201154689
1444.3763799799383,783,76.62092954916659
1445.18162027994,811,75.4093583636873
1445.9868605799418,811,75.1029900332226
1446.773374361339,792,76.00072048993314
1447.5505248834336,783,76.592082616179
1448.3370386648307,792,76.592082616179
1449.123552446228,792,76.90592334494774
1449.8913397090203,773,78.8619673009917
1450.6216739346032,735,81.17365561268
1451.342644900884,726,82.50949050949052
1452.0729791264669,735,82.16284980841942
1452.8126766113523,745,80.47137055596457
1453.5804638741447,773,79.78675517134917
1454.3295246183325,754,79.78675517134917
1455.0692221032177,745,80.10834505391466
1455.8276461067078,764,79.77871542428504
1456.5860701101979,764,79.44074074074072
1457.3351308543856,754,80.45498575498576
1458.0654650799686,735,81.82487512487512
1458.7864360462493,726,82.86513486513486
1459.50740701253,726,83.5857826384142
1460.2190147195083,716,84.32552289815447
1460.9212591671842,707,85.06526315789472
1461.62350361486,707,84.70025974025972
1462.3444745811407,726,82.92025974025972
1463.0935353253285,754,80.48904022806461
1463.8613225881209,773,79.78675517134917
1464.6010200730063,745,79.45712554171955
1465.3594440764964,764,79.77871542428504
1466.1178680799865,764,78.78952122854561
1466.8856553427788,773,80.52441401606998
1467.597263049757,716,82.6340436456996
1468.299507497433,707,84.69052631578947
1469.0111152044115,716,83.96987854251012
1469.7414494299944,735,83.23013828276986
1470.462420396275,726,82.86513486513486
1471.1833913625558,726,81.52929996832435
1471.9511786253481,773,78.9184519927705
1472.7470556660476,801,76.91313201154689
1473.5242061881422,783,76.59929128277817
1474.301356710237,783,76.89845094664372
1475.087870491634,792,76.29292295231345
1475.8837475323335,801,75.98655462184874
1476.6702613137306,792,75.98655462184874
1477.4567750951278,792,76.28571428571429
1478.2432888765247,792,76.90592334494774
1479.0110761393173,773,79.58261507427105
1479.7226838462955,716,81.53865903031499
1480.4530180718784,735,82.52785322605442
1481.192715556764,745,81.460564751704
1481.9324130416492,745,80.12472985489349
1482.7002003044418,773,79.13553565915406
1483.467987567234,773,76.37028824833702
1484.2919543858404,830,74.59423503325941
1485.115921204447,830,76.65071770334927
1485.8275289114254,716,78.42677091842688
1486.5953161742177,773,79.58261507427105
1487.3818299556149,792,76.60676368108219
1488.1777069963143,801,76.92835356364768
1488.9361309998044,764,77.54856262288112
1489.7039182625967,773,78.15409061721138
1490.4810687846914,783,76.33544438477205
1491.2956723439956,820,75.12387319929276
1492.1009126439974,811,74.81750486882805
1492.8874264253943,792,75.10299003322258
1493.6926667253963,811,73.99911406423033
1494.5353600626074,849,72.84326990838618
1495.3593268812137,830,72.55778474399163
1496.173930440518,820,73.95386317536419
1496.9698074812175,801,74.8105476673428
1497.765684521917,801,75.09603283173735
1498.5709248219187,811,75.7015608260676
1499.3480753440133,783,76.62092954916659
1500.1158626068056,773,78.15409061721138
1500.8742866102957,764,78.46793134598012
1501.6420738730883,773,79.11915085817523
1502.3911346172758,754,80.48904022806461
1503.1121055835565,726,81.47823442380404
1503.851803068442,745,80.20680585237548
1504.638316849839,792,78.8369164824861
1505.396740853329,764,77.84772228674667
1506.1645281161213,773,78.46793134598012
1506.932315378914,773,77.52613240418118
1507.7188291603109,792,78.51532659992061
1508.4585266451963,745,79.16654611211573
1509.207587389384,754,81.47823442380404
1509.9285583556646,726,85.39678147939017
1510.5746232475265,650,88.36344814605684
1511.2487779172955,679,90.70769544805061
1511.9135693277622,669,91.63177072384556
1512.5409077010193,632,94.32874042081525
1513.158882814974,622,97.61923337856173
1513.7581314103243,603,98.60017482517482
1514.3667432649768,613,99.61153846153846
1514.965991860327,603,100.14130036630036
1515.5558771963747,594,101.1845238095238
1516.1457625324226,594,99.69012082444917
1516.7731009056797,632,95.86986596194079
1517.4378923161464,669,90.82996892204375
1518.13077350452,698,89.03387894937191
1518.7955649149867,669,89.03387894937191
1519.4603563254532,669,88.64901408450703
1520.162600773129,707,84.93487741262388
1520.921024776619,764,81.22074074074072
1521.6794487801092,764,80.12535612535612
1522.4097830056924,735,81.86024891288048
1523.1213907126705,716,83.96987854251012
1523.8236351603466,707,83.96987854251012
1524.5539693859296,735,82.9025900681597
1525.2936668708148,745,81.80720545277508
1526.024001096398,735,82.52785322605442
1526.7356088033762,716,82.52785322605442
1527.4753062882617,745,79.98044714376462
1528.2805465882634,811,76.14791125859715
1529.10451340687,830,73.38266384778012
1529.9284802254763,830,74.28039430449068
1530.7056307475711,783,76.05644751956828
1531.4734180103635,773,77.83250073464589
1532.2412052731559,773,77.52613240418118
1533.027719054553,792,77.21229167541244
1533.8048695766477,783,76.8984509466437
1534.5820200987425,783,76.30708882039787
1535.3872603987443,811,73.78954036570954
1536.24868025456,867,71.02234254215728
1537.1194633696782,877,70.73685737776273
1537.9340669289825,820,71.79219334614217
1538.7580337475888,830,73.37617554858934
1539.572637306893,820,73.66166071298389
1540.3778776068948,811,76.08893344025661
1541.1269383510826,754,78.57518398586988
1541.8666358359678,745,81.1225900681597
1542.5969700615508,735,81.460564751704
1543.3366675464363,745,81.460564751704
1544.0763650313215,745,80.7759493670886
1544.8254257755093,754,79.16654611211573
1545.6119395569065,792,76.68029556650247
1546.4265431162105,820,75.10970733120834
1547.22242015691,801,74.23286004056796
1548.037023716214,820,73.15366337516438
1548.8890803127276,858,71.75758494379184
1549.7317736499388,849,72.63443223443223
1550.518287431336,792,75.53227513227512
1551.2767114348258,764,77.84772228674667
1552.0444986976183,773,78.15409061721138
1552.821649219713,783,78.48372024684102
1553.5707099639008,754,78.80531012940651
1554.3291339673908,764,78.49894179894179
1555.1156477487878,792,76.07166907166906
1555.9396145673943,830,73.43463203463202
1556.7823079046054,849,73.13547237076648
1557.5781849453049,801,73.41446923597024
1558.3927885046091,820,74.23286004056796
1559.2073920639132,820,73.37617554858934
1560.0313588825197,830,74.87323189846319
1560.799146145312,773,75.75007918910357
1561.585659926709,792,76.60676368108219
1562.3815369674085,801,74.83071046600458
1563.205503786015,830,73.13547237076648
1564.0481971232261,849,72.55778474399163
1564.8628006825304,820,72.55778474399163
1565.6867675011367,830,72.29697888318577
1566.5388240976504,858,72.017982017982
1567.3627909162567,830,72.58246404758032
1568.1680312162587,811,75.48030694542322
1568.9264552197485,764,74.94091300602926
1569.7691485569599,849,73.83703703703702
1570.611841894171,849,72.30387596899223
1571.4170821941727,811,73.69995440036479
1572.2129592348722,801,74.5183452049625
1573.0275627941762,820,74.5183452049625
1573.832803094178,811,75.12387319929276
1574.6099536162728,783,78.31240880162146
1575.3309245825535,726,80.85981488391127
1576.0612588081365,735,82.50949050949052
1576.7915930337194,735,81.13960113960114
1577.5500170372095,764,80.12535612535612
1578.3084410406996,764,78.78952122854561
1579.076228303492,773,78.78952122854561
1579.834652306982,764,80.52441401606998
1580.5462600139604,716,79.60504529297098
1581.3421370546598,801,76.70720239512809
1582.1941936511732,858,74.65071972503823
1582.9619809139656,773,76.22130796033234
1583.7110416581534,754,78.1773519163763
1584.4975554395505,792,78.1773519163763
1585.2653427023429,773,78.1773519163763
1586.0144034465307,754,79.11915085817523
1586.7728274500207,764,79.44074074074072
1587.5312514535108,764,78.47568049977687
1588.3084019756054,783,79.14328481295081
1589.0480994604907,745,79.81088912612475
1589.7877969453762,745,80.7759493670886
1590.536857689564,754,80.4379746835443
1591.2859184337515,754,80.4379746835443
1592.025615918637,745,81.47823442380404
1592.7465868849176,726,81.81620910734836
1593.486284369803,745,81.14860479417442
1594.244708373293,764,78.53775681862055
1595.0405854139924,801,76.33699143740182
1595.8458257139941,811,75.7015608260676
1596.622976236089,783,75.7015608260676
1597.4188532767885,801,76.29292295231346
1598.2053670581854,792,75.68739495798319
1599.0012440988849,801,76.92835356364768
1599.759668102375,764,78.88439751969163
1600.4900023279579,735,81.13960113960114
1601.2203365535408,735,81.13960113960114
1601.978760557031,764,80.12535612535612
1602.737184560521,764,79.44074074074072
1603.4862453047087,754,84.48213507625272
1604.1229469372684,641,87.77843137254902
1604.7971016070373,679,88.81869111280875
1605.5180725733178,726,85.14718614718615
1606.2390435395985,726,82.18051948051948
1606.9881042837862,754,80.17519949929587
1607.765254805881,783,80.54020291693087
1608.4768625128593,716,78.11293018965814
1609.3008293314658,830,75.59538173496983
1610.1622491872818,867,70.96264604960257
1611.0143057837952,858,72.42485853591144
1611.7914563058898,783,73.75919136949464
1612.606059865194,820,76.65703426733754
1613.3644838686841,764,77.9600691918457
1614.1041813535694,745,79.77871542428504
1614.8626053570595,764,79.45712554171955
1615.6303926198518,773,78.15409061721138
1616.4075431419467,783,75.78372024684101
1617.2408732198555,839,74.0076670317634
1618.0648400384619,830,72.8244514106583
1618.879443597766,820,72.8244514106583
1619.712773675675,839,72.55172413793103
1620.5461037535838,839,71.21739130434783
1621.4075236093995,867,69.7016018306636
1622.2970332431225,896,69.97432910339089
1623.1210000617289,830,71.59414710136863
1623.9262403617306,811,73.94714587737843
1624.7314806617326,811,73.67441860465115
1625.5648107396414,839,72.83720930232558
1626.39814081755,839,73.42857142857143
1627.1846545989472,792,74.55798319327731
1627.9805316396466,801,75.68739495798319
1628.776408680346,801,74.53155080213904
1629.6003754989526,830,73.13547237076648
1630.4430688361638,849,72.0060606060606
1631.2763989140726,839,71.73333333333332
1632.1097289919815,839,70.96774193548387
1632.9805121070995,877,69.69114619080301
1633.8606584815202,886,67.94114619080301
1634.7595313745453,905,68.19079555966698
1635.6209512303612,867,69.7401185770751
1636.4449180489678,830,72.04184271500613
1637.2595216082718,820,74.55939116969445
1638.0366721303665,783,76.33544438477205
1638.804459393159,773,78.48372024684102
1639.5535201373466,754,79.11915085817523
1640.3119441408367,764,79.44074074074072
1641.0703681443267,764,77.87015250544661
1641.8662451850262,801,77.54856262288112
1642.6340324478185,773,76.91313201154689
1643.4111829699134,783,77.21229167541244
1644.1976967513103,792,75.7152353255386
1645.0123003106146,820,75.7152353255386
1645.7894508327092,783,76.65703426733754
1646.5478748361993,764,79.84556986966624
1647.26884580248,726,79.84556986966625
1648.0459963245748,783,78.02692363722691
1648.8605998838789,820,76.33544438477205
1649.6283871466712,773,75.15222876366694
1650.4429907059755,820,75.72991639044179
1651.2388677466747,801,74.5183452049625
1652.0441080466767,811,76.66662106703146
1652.7931687908642,754,76.37441860465115
1653.5984090908662,811,76.66662106703146
1654.3942861315654,801,78.0718842249262
1655.1058938385438,716,79.2834554104055
1655.8736811013362,773,83.41431761830235
1656.5571990304074,688,84.17391932527246
1657.2500802187812,698,88.20964587972112
1657.9148716292477,669,93.96576534974133
1658.4860304466908,575,95.61518619916217
1659.141458597855,660,96.04496487119437
1659.7968867490192,660,91.11307847082495
1660.461678159486,669,88.70405591443395
1661.1732858664643,716,88.70405591443397
1661.8287140176285,660,87.48441373704532
1662.521595206002,698,86.41712526269488
1663.2612926908876,745,81.63777930744531
1664.0384432129822,783,80.51317418284017
1664.7594141792629,726,81.58046265719062
1665.4710218862413,716,83.23013828276986
1666.2013561118242,735,84.35474340737498
1666.8942373001978,698,83.28745493302455
1667.6339347850833,745,83.28745493302455
1668.3642690106662,735,82.16284980841942
1669.085239976947,726,81.82487512487512
1669.8343007211345,754,80.17519949929587
1670.6114512432293,783,76.98666389696717
1671.4260548025334,820,75.7152353255386
1672.2125685839305,792,74.81750486882804
1673.0178088839323,811,74.53850800362427
1673.8417757025388,830,73.38266384778012
1674.6657425211451,830,73.09717868338558
1675.4803460804494,820,74.87323189846319
1676.2481333432418,773,76.33544438477205
1677.0252838653364,783,76.91313201154689
1677.8211609060359,801,76.59929128277817
1678.5983114281307,783,77.2347218941124
1679.3567354316208,764,78.80531012940651
1680.1057961758083,754,79.77037037037036
1680.854856919996,754,79.13493975903613
1681.632007442091,783,76.7076670317634
1682.4559742606973,830,75.1370787964693
1683.2518513013968,801,75.1370787964693
1684.0290018234916,783,75.99376328844791
1684.8248788641909,801,76.29292295231346
1685.611392645588,792,75.39519249560288
1686.4166329455898,811,76.31456121870188
1687.184420208382,773,77.58598979013044
1687.9334809525699,754,81.61364535266974
1688.6263621409435,698,84.04486486486485
1689.3286065886196,707,84.72948024948025
1690.0589408142025,735,80.99402714932127
1690.854817854902,801,76.24736048265459
1691.697511192113,849,73.41446923597024
1692.5121147514174,820,72.28505747126437
1693.345444829326,839,72.55172413793103
1694.1787749072348,839,70.48421052631579
1695.0682845409578,896,70.75693779904306
1695.8922513595642,830,71.30866193697409
1696.7068549188684,820,73.37617554858934
1697.5214584781725,820,74.23286004056796
1698.317335518872,801,75.41607566167306
1699.0944860409668,783,77.56435152374202
1699.8435467851543,754,78.80531012940651
1700.6019707886444,764,80.10834505391466
1701.3416682735299,745,80.79296043853006
1702.0720024991128,735,80.79296043853006
1702.830426502603,764,80.12535612535612
1703.588850506093,764,78.16931216931216
1704.37536428749,792,76.35066593687283
1705.1899678467942,820,74.81750486882804
1705.995208146796,811,75.12387319929276
1706.7723586688905,783,75.4093583636873
1707.5775989688925,811,74.57214906136173
1708.4109290468014,839,73.96662106703145
1709.2068060875006,801,75.17819225251075
1709.9745933502932,773,78.21616693605506
1710.7142908351784,745,80.47137055596457
1711.4446250607614,735,80.79296043853006
1712.2030490642514,764,80.79296043853006
1712.942746549137,745,86.78334505391467
1713.541995144487,603,83.38071661902818
1714.4127782596051,877,82.07768169452001
1715.1899287817,783,76.80794485241475
1715.9015364886782,716,78.11293018965814
1716.7255033072847,830,75.59538173496983
1717.5869231631007,867,72.61953034178097
1718.3828002038001,801,72.3468030690537
1719.216130281709,839,73.40213903743314
1720.0400971003153,830,74.32150776053214
1720.8078843631076,773,74.32150776053214
1721.6412144410165,839,75.17819225251075
1722.437091481716,801,75.49978213507625
1723.195515485206,764,75.77250940780351
1724.0194823038125,830,79.12309764309762
1724.7217267514884,707,79.45272727272726
1725.4707874956762,754,82.2179746835443
1726.2104849805617,745,80.10834505391466
1726.9689089840515,764,79.14328481295081
1727.7460595061464,783,78.15409061721138
1728.5138467689387,773,76.05644751956828
1729.3378135875453,830,76.69187813090251
1730.0962375910353,764,74.9158249158249
1730.9202044096417,830,77.013468013468
1731.6786284131317,764,77.34309764309762
1732.4276891573195,754,81.93523523523523
1733.120570345693,698,82.26486486486485
1733.8696310898808,754,82.94948024948025
1734.5999653154638,735,80.13339587242027
1735.3677525782562,773,80.13339587242027
1736.116813322444,754,78.48372024684102
1736.8939638445386,783,77.27214906136172
1737.6992041445405,811,74.844876334089
1738.5231709631469,830,74.53850800362429
1739.309684744544,792,75.75007918910357
1740.0774720073364,773,76.31456121870188
1740.8827123073381,811,74.61932312346377
1741.7254056445493,849,72.57054263565891
1742.558735722458,839,73.16190476190476
1743.3452495038553,792,73.7012987012987
1744.1692163224618,830,75.75007918910357
1744.9370035852542,773,74.87323189846317
1745.7516071445582,820,75.15222876366694
1746.5662107038625,820,74.83838803489822
1747.343361225957,783,76.65703426733754
1748.1017852294472,764,78.15409061721138
1748.8695724922395,773,78.15409061721138
1749.6467230143344,783,77.51866000587715
1750.423873536429,783,76.59929128277817
1751.2197505771285,801,76.29292295231346
1752.0062643585256,792,74.29131652661064
1752.8489576957368,849,73.99911406423034
1753.6541979957385,811,73.12226677358994
1754.4688015550425,820,73.38893344025661
1755.3021316329514,839,72.28505747126437
1756.1448249701625,849,73.46827309236947
1756.9219754922574,783,75.51705358017435
1757.6897627550497,773,79.1683356314564
1758.4200969806327,735,80.13339587242027
1759.1691577248205,754,79.81955514365153
1759.9463082469151,783,78.80531012940651
1760.7047322504052,764,76.37803740213377
1761.5286990690117,830,75.77250940780351
1762.3245761097112,801,71.65213903743316
1763.2234490027365,905,72.50882352941176
1764.019326043436,801,72.50882352941176
1764.8152030841352,801,74.53155080213904
1765.6391699027417,830,74.83071046600458
1766.425683684139,792,76.07166907166906
1767.184107687629,764,78.8369164824861
1767.9238051725142,745,82.27320991877954
1768.6166863608878,698,81.95162003621405
1769.3844736236804,773,81.28401572304011
1770.1428976271702,764,76.15248419150856
1770.9855909643816,849,74.65542784163473
1771.8001945236856,820,71.5024487756122
1772.6616143795015,867,73.504055201315
1773.4387649015962,783,71.43654158969974
1774.3282745353192,896,73.0563595876775
1775.133514835321,811,73.37020031644624
1775.9013020981133,773,74.35851726265793
1776.7533586946267,858,74.65071972503823
1777.5492357353262,801,74.03051066580478
1778.3357495167234,792,74.83071046600458
1779.15971633533,830,72.91869000564652
1780.0211361911456,867,72.04184271500613
1780.8357397504499,820,72.04184271500613
1781.6597065690562,830,74.87323189846319
1782.4274938318486,773,76.05644751956828
1783.2046443539434,783,78.15409061721138
1783.9630683574335,764,76.94251943173208
1784.7683086574352,811,77.57795004306631
1785.5267326609253,764,77.90757967269593
1786.275793405113,754,79.11915085817523
1787.0435806679054,773,77.87819225251076
1787.8394577086049,801,77.22697274031563
1788.6072449713972,773,76.60676368108219
1789.3937587527944,792,77.52613240418118
1790.1615460155867,773,76.90592334494774
1790.9480597969837,792,76.60676368108219
1791.7439368376831,801,75.68739495798319
1792.5398138783826,801,75.99376328844791
1793.3169644004774,783,75.7015608260676
1794.1222047004792,811,76.00072048993314
1794.9087184818763,792,74.53850800362427
1795.7326853004827,830,76.07166907166906
1796.4911093039727,764,76.69187813090251
1797.258896566765,773,77.54856262288112
1798.0547736074645,801,76.01540155483633
1798.8600139074663,811,73.96662106703147
1799.6933439853751,839,74.265780730897
1800.4798577667723,792,74.85714285714286
1801.2663715481694,792,76.28571428571429
1802.0528853295664,792,76.90592334494774
1802.820672592359,773,78.51532659992061
1803.5603700772442,745,80.12472985489349
1804.3000675621295,745,81.81620910734836
1805.0210385284101,726,82.16284980841942
1805.7513727539933,735,82.16284980841942
1806.4910702388786,745,80.47137055596457
1807.258857501671,773,79.45712554171955
1808.017281505161,764,78.46793134598012
1808.7850687679534,773,78.78952122854561
1809.5434927714434,764,77.54856262288112
1810.3393698121429,801,77.54856262288112
1811.1071570749352,773,76.91313201154689
1811.88430759703,783,78.82169493038532
1812.6240050819154,745,79.47291444258045
1813.3730658261031,754,80.10834505391466
1814.1314898295932,764,78.19978213507625
1814.9273668702926,801,78.88439751969163
1815.6577010958756,735,78.56280763712614
1816.425488358668,773,80.13339587242027
1817.1745491028557,754,79.78675517134917
1817.914246587741,745,81.84323784143903
1818.6258542947194,716,82.52785322605442
1819.3561885203023,735,82.87449392712551
1820.0865227458855,735,80.50417052826691
1820.8636732679802,783,79.48992551402189
1821.6220972714702,764,77.53388155797794
1822.4086110528674,792,77.84772228674667
1823.1763983156598,773,80.34221678124118
1823.8692795040333,698,77.8813872881536
1824.7400626191516,877,77.8813872881536
1825.507849881944,773,75.06530291109362
1826.2756371447363,773,80.20282413350449
1826.9872448517146,716,80.20282413350449
1827.755032114507,773,80.20282413350449
1828.5228193772994,773,76.93477027793533
1829.328059677301,811,76.62092954916659
1830.105210199396,783,80.65665610361523
1830.7700016098624,669,81.5543865603258
1831.5471521319573,783,81.86822728909453
1832.3149393947497,773,77.83250073464589
1833.082726657542,773,80.96242584047462
1833.7756078459156,698,82.65390509292948
1834.4965788121963,726,85.46998946998946
1835.18946000057,698,85.46998946998946
1835.8823411889437,698,85.46998946998946
1836.6033121552243,726,82.03369603369603
1837.3898259366213,792,79.53920153920154
1838.1482499401113,764,77.22751322751323
1838.9347637215085,792,76.63615110126737
1839.7400040215102,811,74.53850800362427
1840.5639708401168,830,73.94714587737843
1841.3692111401185,811,74.23934833975873
1842.165088180818,801,74.5183452049625
1842.979691740122,820,72.40454015795606
1843.8598381145428,886,71.0084617265835
1844.7025314517539,849,71.29394689097805
1845.5077717517556,811,74.30548239469505
1846.2849222738503,783,75.7015608260676
1847.0807993145497,801,75.1370787964693
1847.9047661331563,830,74.83071046600458
1848.6912799145534,792,74.83071046600458
1849.4871569552527,801,74.83071046600458
1850.3111237738592,830,73.67486631016043
1851.1350905924658,830,73.97402597402598
1851.9216043738627,792,75.12987012987013
1852.7081181552599,792,76.28571428571429
1853.494631936657,792,76.28571428571429
1854.2811457180542,792,76.592082616179
1855.0582962401488,783,74.13125312309144
1855.929079355267,877,74.13125312309144
1856.7155931366642,792,72.66904063678257
1857.5395599552705,830,72.91869000564652
1858.4009798110865,867,70.70750988142292
1859.2623996669022,867,69.65217391304348
1860.1238195227181,867,70.16811594202898
1860.9665128599293,849,70.68405797101448
1861.8092061971404,849,71.46666666666665
1862.6425362750492,839,72.57054263565891
1863.4477765750512,811,73.67441860465115
1864.253016875053,811,74.51162790697674
1865.0582571750547,811,75.1029900332226
1865.8447709564518,792,76.63615110126737
1866.6031949599417,764,77.53388155797794
1867.3803454820365,783,78.15409061721138
1868.148132744829,773,77.83250073464589
1868.9159200076213,773,79.13553565915406
1869.6556174925067,745,79.45712554171955
1870.4140414959968,764,80.10834505391466
1871.1631022401843,754,79.77037037037036
1871.9121629843721,754,80.4379746835443
1872.6518604692574,745,79.78675517134917
1873.41964773205,773,78.82169493038532
1874.1967982541446,783,80.26372024684102
1874.8990427018207,707,81.25291444258045
1875.638740186706,745,82.5559493670886
1876.3784376715912,745,79.81088912612475
1877.155588193686,783,77.32463858051148
1877.97019175299,820,76.02160365600332
1878.747342275085,783,76.02160365600332
1879.5244927971796,783,76.59929128277817
1880.320369837879,801,75.99376328844791
1881.1162468785785,801,75.6873949579832
1881.9027606599757,792,76.29292295231345
1882.6799111820703,783,76.8984509466437
1883.4570617041652,783,77.84024988844266
1884.215485707655,764,78.47568049977687
1884.973909711145,764,79.77871542428504
1885.7136071960306,745,80.10834505391466
1886.4626679402184,754,81.1225900681597
1887.1930021658013,735,80.13339587242027
1887.9607894285937,773,79.1683356314564
1888.7379399506883,783,75.78372024684101
1889.5712700285972,839,74.0076670317634
1890.3952368472037,830,68.42367066895368
1891.3877423332524,999,69.26087997127927
1892.1929826332541,811,68.988152698552
1893.026312711163,839,72.0546006066734
1893.887732566979,867,70.95072463768116
1894.73042590419,849,72.37929606625258
1895.5169396855872,792,75.21068524970963
1896.2847269483796,773,77.21229167541244
1897.0618774704742,783,76.91313201154689
1897.8577545111737,801,76.59929128277817
1898.6349050332685,783,74.86435152374202
1899.4682351111771,839,80.69146149816657
1900.114300003039,650,77.92426367461431
1900.9850831181573,877,75.72018204196124
1901.9026825297872,924,67.98105160717864
1902.764102385603,867,70.14272143640065
1903.5599794263026,801,75.04680306905371
1904.3090401704903,754,77.56435152374202
1905.086190692585,783,78.80531012940651
1905.844614696075,764,78.15409061721138
1906.6124019588674,773,79.11915085817523
1907.3614627030552,754,77.30050462573591
1908.1760662623592,820,77.30050462573591
1908.9438535251518,773,75.43771392806148
1909.7490938251535,811,80.14626376273318
1910.4326117542248,688,76.34748327492832
1911.33148464725,905,76.34748327492831
1912.1367249472519,811,75.1924724602203
1912.84833265423,716,85.80401092175877
1913.4569445088825,613,90.63346828609986
1914.1310991786515,679,90.26846486846486
1914.8520701449322,726,90.26846486846486
1915.4606819995847,613,87.6397728853425
1916.20037948447,745,86.93748782862707
1916.9400769693555,745,79.50452079566004
1917.7265907507526,792,78.8369164824861
1918.4850147542425,764,76.63615110126737
1919.2902550542444,811,81.72186538698165
1919.9456832054086,660,81.40027550441616
1920.713470468201,773,83.26306620209058
1921.4625312123887,754,77.58598979013045
1922.2677715123905,811,78.92182468694097
1922.9981057379734,735,80.32708784483569
1923.7097134449518,716,81.86024891288048
1924.468137448442,764,79.90420495683654
1925.2546512298388,792,78.49894179894179
1926.0037119740266,754,80.99343629343629
1926.6965931624002,698,84.04486486486485
1927.3988376100763,707,85.4501280227596
1928.1104453170547,716,82.9556335282651
1928.8688693205445,764,81.51360821180941
1929.60856680543,745,81.14860479417442
1930.3295377717106,726,82.51849416406378
1931.0505087379913,726,82.18051948051948
1931.7995694821789,754,81.14025974025972
1932.5486302263666,754,79.44878048780487
1933.316417489159,773,80.8540436456996
1934.0280251961374,716,83.01890851056447
1934.720906384511,698,85.07539118065432
1935.4325140914893,716,84.35474340737498
1936.1628483170723,735,80.619290307216
1936.9587253577718,801,77.9425985778927
1937.745239139169,792,78.29824293353704
1938.4662101054496,726,80.9090909090909
1939.1871810717303,726,82.18051948051948
1939.9362418159178,754,80.48904022806461
1940.7040290787104,773,78.48372024684102
1941.481179600805,783,77.83250073464589
1942.2489668635974,773,76.91313201154689
1943.0448439042968,801,75.45091952523802
1943.8688107229034,830,75.45091952523802
1944.6365979856957,773,76.69187813090251
1945.3950219891858,764,78.46793134598012
1946.1628092519782,773,79.11915085817523
1946.911869996166,754,79.78675517134917
1947.6515674810512,745,81.1225900681597
1948.3819017066342,735,81.1225900681597
1949.130962450822,754,79.81955514365153
1949.9081129729168,783,78.48372024684102
1950.6759002357092,773,78.48372024684102
1951.4249609798967,754,79.44878048780487
1952.1740217240845,754,80.1
1952.9230824682722,754,81.14025974025972
1953.644053434553,726,82.54552289815447
1954.355661141531,716,83.9507860560492
1955.0672688485095,716,84.69052631578947
1955.7695132961856,707,85.4501280227596
1956.4623944845591,698,83.71523523523523
1957.2208184880492,764,80.36464699994112
1958.0166955287486,801,77.23472189411238
1958.7938460508433,783,77.2347218941124
1959.5522700543333,764,77.23472189411238
1960.3481470950328,801,77.54856262288112
1961.1159343578252,773,77.54856262288112
1961.8743583613152,764,80.52441401606998
1962.5859660682936,716,81.86024891288048
1963.3163002938766,735,83.59514170040485
1964.027908000855,716,84.35474340737498
1964.7207891892285,698,85.83499288762445
1965.413670377602,698,85.11434511434511
1966.144004603185,735,82.94948024948025
1966.8930653473728,754,79.81955514365153
1967.6702158694677,783,79.13493975903614
1968.4192766136553,754,77.86351118760757
1969.2057903950524,792,76.96578073089701
1970.0110306950542,811,75.39519249560288
1970.8069077357536,801,76.01540155483633
1971.574694998546,773,76.91313201154689
1972.3518455206408,783,77.51866000587715
1973.1289960427355,783,76.89845094664372
1973.9155098241326,792,78.20148587115187
1974.655207309018,745,80.57180927001048
1975.3668150159963,716,82.52785322605442
1976.0971492415792,735,81.86024891288048
1976.8555732450693,764,80.12535612535612
1977.6139972485594,764,79.44074074074072
1978.3630579927471,754,80.45498575498576
1979.09339221833,735,81.82487512487512
1979.8143631846108,726,83.98973998973999
1980.5072443729844,698,82.65390509292948
1981.2750316357767,773,80.04305711737562
1982.0709086764762,801,74.39558355685858
1982.932328532292,867,73.77537449762514
1983.718842313689,792,73.19768687085029
1984.5334458729933,820,74.25302283922973
1985.3574126915998,830,73.95386317536419
1986.153289732299,801,75.77250940780351
1986.9117137357891,764,77.54856262288112
1987.6795009985817,773,79.45712554171955
1988.419198483467,745,81.19201832924392
1989.1308061904454,716,84.40351181404178
1989.8143241195166,688,85.10579687075722
1990.5352950857973,726,84.38514909747786
1991.2656293113803,735,83.23013828276986
1991.9772370183587,716,82.18987854251012
1992.7262977625462,754,81.50526315789472
1993.475358506734,754,79.77037037037036
1994.233782510224,764,80.10834505391466
1994.9734799951093,745,81.51360821180941
1995.6850877020877,716,81.84323784143903
1996.4341484462755,754,80.23383458646616
1997.2206622276724,792,78.1773519163763
1997.988449490465,773,77.52613240418118
1998.7562367532573,773,78.46793134598012
1999.5146607567474,764,79.45712554171955
2000.2543582416326,745,79.45712554171955
2001.022145504425,773,81.56675517134917
2001.724389952101,707,83.78905446040761
2002.4079078811724,688,87.40694063926941
2003.0820625509414,679,86.66720037952913
2003.8030335172218,726,85.14718614718615
2004.5240044835025,726,82.51849416406378
2005.263701968388,745,81.81620910734836
2006.0033994532732,745,81.460564751704
2006.7337336788564,735,80.15752982719583
2007.510884200951,783,77.9567644459771
2008.3161245009528,811,76.62092954916659
2009.0839117637452,773,78.6262495303902
2009.8048827300258,726,81.52929996832435
2010.5258536963065,726,82.86513486513486
2011.2561879218895,735,83.23013828276986
2011.9677956288679,716,82.52785322605442
2012.7074931137533,745,84.40351181404178
2013.3910110428246,688,85.96491532281371
2014.0651657125934,679,86.66720037952913
2014.786136678874,726,84.79154179154179
2015.516470904457,735,81.17365561268
2016.2842581672496,773,79.80376624279063
2017.0426821707397,764,81.67942483077798
2017.726200099811,688,82.3306443429731
2018.4752608439985,754,82.3306443429731
2019.2336848474886,764,77.90757967269595
2020.0389251474903,811,76.63615110126737
2020.8254389288875,792,75.10299003322258
2021.6306792288892,811,74.53850800362427
2022.4546460474958,830,73.38266384778012
2023.278612866102,830,74.28039430449068
2024.055763388197,783,75.1370787964693
2024.8516404288964,801,76.29292295231346
2025.6381542102936,792,76.92835356364768
2026.3965782137834,764,79.53920153920154
2027.117549180064,726,81.49524549524548
2027.8478834056473,735,82.16284980841942
2028.5875808905325,745,80.47137055596457
2029.355368153325,773,78.21616693605506
2030.1512451940243,801,77.87819225251076
2030.9003059382121,754,77.56435152374202
2031.6774564603068,783,77.56435152374202
2032.4733335010062,801,76.9131320115469
2033.2411207637986,773,79.65819225251076
2033.9433652114747,707,83.00878048780487
2034.6456096591505,707,85.06526315789472
2035.357217366129,716,82.01383458646616
2036.143731147526,792,77.53383458646616
2036.977061225435,839,77.90857142857143
2037.6793056731108,707,73.62851485148514
2038.6249948626478,952,83.00351485148514
2039.224243457998,603,78.52351485148515
2040.0575735359068,839,80.09840425531914
2040.9377199103274,886,72.77218474312403
2041.7055071731197,773,73.6093940454496
2042.5107474731215,811,74.88598979013045
2043.3440775510303,839,73.96662106703145
2044.1399545917297,801,75.49978213507625
2044.8983785952198,764,76.92835356364768
2045.684892376617,792,77.53388155797794
2046.4620428987116,783,77.21229167541244
2047.229830161504,773,78.48372024684102
2047.9788909056917,754,79.44878048780487
2048.7279516498793,754,79.77037037037036
2049.4863756533696,764,78.80531012940651
2050.263526175464,783,77.23472189411238
2051.0594032161634,801,76.29292295231346
2051.845916997561,792,75.98655462184874
2052.6324307789578,792,75.12987012987013
2053.4563975975643,830,73.7012987012987
2054.289727675473,839,72.27272727272727
2055.123057753382,839,70.96774193548387
2055.9938408685002,877,70.96774193548387
2056.827170946409,839,72.09715370018975
2057.6230479871083,801,74.25882352941176
2058.4189250278077,801,75.38823529411765
2059.214802068507,801,74.8105476673428
2060.0294056278112,820,74.8105476673428
2060.8252826685107,801,73.95386317536419
2061.6492494871172,830,73.13547237076648
2062.4919428243284,849,71.73939393939392
2063.3346361615395,849,72.30387596899223
2064.1398764615415,811,74.94091300602928
2064.8983004650313,764,77.25636016050082
2065.6660877278237,773,78.15409061721138
2066.4432382499185,783,76.91313201154689
2067.239115290618,801,75.99376328844791
2068.0349923313174,801,74.53155080213904
2068.858959149924,830,73.67486631016043
2069.6829259685305,830,72.81818181818181
2070.506892787137,830,74.59423503325942
2071.2746800499294,773,77.02150776053213
2072.023740794117,754,79.78675517134917
2072.7634382790025,745,81.1225900681597
2073.493772504585,735,82.16284980841942
2074.214743470866,726,81.49524549524548
2074.973167474356,764,79.53920153920154
2075.759681255753,792,78.49894179894179
2076.508741999941,754,78.1773519163763
2077.276529262733,773,77.02150776053215
2078.1004960813398,830,74.59423503325941
2078.9244628999463,830,75.24545454545454
2079.673523644134,754,78.35734265734266
2080.403857869717,735,81.1225900681597
2081.143555354602,745,80.47137055596457
2081.9113426173944,773,79.45712554171955
2082.6697666208847,764,80.89915085817523
2083.372011068561,707,82.9556335282651
2084.083618775539,716,84.69052631578947
2084.795226482517,716,83.59514170040485
2085.5255607081003,735,81.22481830154626
2086.302711230195,783,81.59955514365151
2087.004955677871,707,82.32020291693087
2087.7165633848495,716,87.54178489702517
2088.3626282767113,650,90.01830663615559
2089.0086931685732,650,90.01830663615559
2089.7203008755514,716,85.76178489702517
2090.469361619739,754,83.28526315789472
2091.1716060674153,707,82.2179746835443
2091.9113035523005,745,82.9025900681597
2092.6416377778837,735,81.460564751704
2093.381335262769,745,77.63998137250752
2094.2427551185847,867,75.68393741646356
2095.0292688999816,792,72.91869000564652
2095.853235718588,830,74.25302283922973
2096.667839277892,820,76.20906679527369
2097.3981735034754,735,79.67659926280615
2098.119144469756,726,80.25428688958101
2098.9150215104555,801,78.60461126400176
2099.6921720325504,783,75.7015608260676
2100.497412332552,811,75.12387319929276
2101.3120158918564,820,73.38893344025661
2102.145345969765,839,73.10344827586206
2102.959949529069,820,74.9220945083014
2103.7183735325593,764,76.97087499610628
2104.4861607953517,773,77.25636016050082
2105.291401095353,811,74.88598979013045
2106.1247311732623,839,73.38893344025661
2106.9393347325663,820,73.98029556650246
2107.7258485139632,792,74.81750486882804
2108.531088813965,811,74.265780730897
2109.364418891874,839,72.30973677485304
2110.2164754883875,858,72.60193923723335
2111.012352529087,801,73.15366337516438
2111.826956088391,820,73.95386317536419
2112.6509229069975,830,72.8244514106583
2113.4842529849066,839,74.0076670317634
2114.261403507001,783,76.43493975903613
2115.0104642511888,754,79.47291444258045
2115.750161736074,745,80.10834505391466
2116.5085857395643,764,78.24555435624025
2117.313826039566,811,76.04478897502152
2118.119066339568,811,74.80383036935704
2118.9149433802672,801,76.01540155483633
2119.6827306430596,773,76.60676368108219
2120.4692444244565,792,76.90592334494774
2121.255758205854,792,75.98655462184874
2122.0516352465534,801,77.25798319327731
2122.8006959907407,754,77.87819225251076
2123.5684832535335,773,81.22878048780487
2124.270727701209,707,81.22878048780487
2125.019788445397,754,82.2179746835443
2125.759485930282,745,81.84323784143903
2126.4710936372608,716,84.40351181404178
2127.154611566332,688,86.23040199536234
2127.8474927547054,698,86.23040199536234
2128.559100461684,716,82.70506778179573
2129.3362509837784,783,78.67741221925645
2130.1414912837804,811,74.844876334089
2130.965458102387,830,77.58993657505285
2131.667702550063,707,75.72046920821114
2132.538485665181,877,77.81811230585424
2133.296909668671,764,70.69811230585424
2134.2332355989056,943,74.43037037037035
2134.9822963430934,754,74.10878048780486
2135.7500836058857,773,81.22878048780487
2136.452328053562,707,84.61328753005839
2137.1171194640283,669,87.82478101485626
2137.8006373931,688,87.45004417275098
2138.512245100078,716,84.75015251511286
2139.242579325661,735,82.18987854251012
2139.9916400698485,754,82.56461538461538
2140.6938845175246,707,86.13652173913042
2141.3399494093865,650,89.52102878138395
2142.004740819853,669,90.30130275398669
2142.6882587489245,688,86.04478101485626
2143.437319493112,754,81.08968573730861
2144.2331965338117,801,79.56967150496561
2144.9541675000924,726,76.60300483829894
2145.7968608373035,849,73.95780359990886
2146.6863704710263,896,65.99532163742688
2147.6976024756796,1018,65.99532163742688
2148.5402958128907,849,64.8711111111111
2149.4766217431256,943,67.81673758865247
2150.356768117546,886,68.92061355764473
2151.162008417548,811,71.29394689097805
2152.004701754759,849,73.40775193798449
2152.8099420547605,811,74.94091300602928
2153.568366058251,764,74.94091300602926
2154.411059395462,849,73.57623117623116
2155.2631159919756,858,71.2058608058608
2156.096446069884,839,70.94505494505493
2156.948502666398,858,71.2058608058608
2157.791196003609,849,70.93919413919411
2158.63388934082,849,71.19999999999999
2159.4765826780313,849,72.59607843137253
2160.2724597187307,801,74.29131652661064
2161.0589735001276,792,75.98655462184874
2161.845487281525,792,77.22751322751323
2162.603911285015,764,78.16931216931216
2163.362335288505,764,77.57795004306631
2164.1675755885067,811,76.33699143740182
2164.963452629206,801,76.33699143740182
2165.7218766326964,764,76.92835356364768
2166.5083904140934,792,77.84772228674667
2167.2761776768857,773,76.90592334494774
2168.0626914582826,792,77.21229167541244
2168.8398419803775,783,77.21229167541244
2169.60762924317,773,77.51866000587715
2170.3847797652647,783,78.82169493038532
2171.12447725015,745,79.81088912612475
2171.8641747350352,745,79.81088912612475
2172.64132525713,783,82.85742148483396
2173.3061166675966,669,82.18981717166002
2174.064540671087,764,84.56014057051863
2174.776148378065,716,82.21589326852484
2175.4971193443457,726,83.23013828276986
2176.227453569929,735,83.60487512487512
2176.929698017605,707,83.60487512487512
2177.650668983885,726,82.5906301106301
2178.4090929873755,764,81.14860479417442
2179.1487904722608,745,83.92263076820038
2179.804218623425,660,84.25226039783001
2180.553279367613,754,84.95454545454544
2181.2742503338936,726,82.18051948051948
2181.9952213001743,726,83.2207792207792
2182.716192266455,726,83.96051948051948
2183.4184367141306,707,86.30476678251325
2184.0832281245976,669,87.82478101485626
2184.7667460536686,688,85.07972077389239
2185.5438965757635,783,87.35885009527524
2186.1618716897183,622,84.14735661047737
2186.9296589525106,773,88.49692389369476
2187.594450362977,669,81.86822728909453
2188.371600885072,783,82.51944680128966
2189.1206616292598,754,79.13493975903614
2189.8697223734475,754,80.1
2190.618783117635,754,82.26486486486485
2191.311664306009,698,84.42972972972973
2192.0045454943825,698,84.42972972972973
2192.7536062385702,754,86.07915057915056
2193.409034389734,660,89.57792207792207
2194.027009503689,622,95.24155844155842
2194.644984617644,622,98.10227272727272
2195.244233212994,603,96.25292207792207
2195.8996613641584,660,95.30105042016805
2196.536362996718,641,92.88257215929849
2197.1824278885797,650,93.32480818414322
2197.8284927804416,650,91.99755052051438
2198.493284190908,669,91.12553582363748
2199.158075601375,669,91.12553582363748
2199.804140493237,650,91.12553582363748
2200.4689319037034,669,91.99755052051438
2201.1149967955653,650,91.55531449566966
2201.7704249467297,660,89.57607061131088
2202.482032653708,716,88.70405591443397
2203.1468240641743,669,91.0513086616867
2203.755435918827,613,92.61271217045865
2204.429590588596,679,89.22820512820512
2205.1786513327834,754,81.20387596899224
2205.9838916327853,811,76.96578073089701
2206.7704054141823,792,78.00604047115675
2207.491376380463,726,76.386222473179
2208.352796236279,867,77.00643153241245
2209.1205834990715,773,76.65078717676809
2209.850917724654,735,79.1683356314564
2210.628068246749,783,77.11955514365152
2211.4613983246577,839,74.86435152374202
2212.257275365357,801,73.96662106703145
2213.062515665359,811,73.43914853955893
2213.9145722618728,858,73.73830820342448
2214.7010860432697,792,75.6010989010989
2215.4501467874575,754,73.704329004329
2216.37710945839,933,74.64612794612793
2217.1355334618797,764,75.68638768638769
2217.8565044281604,726,81.49524549524548
2218.5868386537436,735,80.55344655344655
2219.3733524351405,792,75.53659106850597
2220.2534988095613,886,70.63618621020636
2221.143008443284,896,69.4803420543622
2221.9669752618906,830,71.88634956374894
2222.7628523025896,801,74.23934833975873
2223.5680926025916,811,75.39519249560288
2224.3546063839885,792,75.10299003322258
2225.1598466839905,811,75.69435215946844
2225.9463604653874,792,76.31456121870188
2226.71414772818,773,78.1773519163763
2227.4632084723676,754,78.79756097560974
2228.23099573516,773,77.87819225251076
2229.0268727758594,801,75.72991639044179
2229.841476335164,820,75.41607566167306
2230.6186268572583,783,75.12387319929276
2231.4238671572602,811,75.4093583636873
2232.2291074572618,811,73.94714587737843
2233.0530742758683,830,73.10993657505284
2233.8864043537774,839,73.40213903743314
2234.682281394477,801,73.40213903743314
2235.5062482130834,830,73.95386317536419
2236.3208517723874,820,73.95386317536419
2237.116728813087,801,75.72991639044179
2237.884516075879,773,76.91313201154689
2238.6616665979736,783,78.48372024684102
2239.4107273421614,754,77.86351118760757
2240.197241123559,792,78.49894179894179
2240.9556651270486,764,76.92835356364768
2241.751542167748,801,76.33699143740182
2242.55678246775,811,74.5183452049625
2243.371386027054,820,75.4377139280615
2244.1391732898464,773,77.3005046257359
2244.888234034034,754,78.48372024684102
2245.665384556129,783,77.86351118760757
2246.451898337526,792,76.00072048993314
2247.2571386375275,811,76.31456121870188
2248.0249259003203,773,75.72319909245603
2248.830166200322,811,75.15871706285772
2249.6541330189284,830,73.10993657505284
2250.487463096837,839,73.7012987012987
2251.2739768782344,792,77.53383458646616
2251.9855845852126,716,80.91844997108154
2252.7159188107958,735,83.59514170040485
2253.427526517774,716,81.86024891288048
2254.185950521264,764,80.84600389863547
2254.944374524754,764,78.78952122854561
2255.7121617875464,773,79.11915085817523
2256.461222531734,754,78.48372024684102
2257.238373053829,783,72.97340129749767
2258.2121520212727,981,72.00834105653381
2258.9893025433676,783,69.74592877002513
2259.841359139881,858,73.48019450429088
2260.6653259584878,830,74.78322942879905
2261.405023443373,745,75.04403528960489
2262.247716780584,849,75.0440352896049
2263.0716835991907,830,72.84326990838618
2263.876923899192,811,76.49455195966823
2264.6072581247754,735,78.59219505731133
2265.3656821282657,764,81.49524549524548
2266.086653094546,726,81.14860479417442
2266.8263505794316,745,82.16284980841942
2267.5566848050144,735,82.52785322605442
2268.268292511993,716,83.23013828276986
2268.9892634782736,726,82.54552289815447
2269.738324222461,754,82.54552289815447
2270.4499319294396,716,81.1756335282651
2271.2083559329294,764,82.21589326852484
2271.92932689921,726,81.85088985088984
2272.6502978654908,726,82.18051948051948
2273.3993586096785,754,79.27746904258531
2274.2045989096805,811,77.27214906136172
2274.981749431775,783,78.67741221925645
2275.6933571387535,716,82.70506778179575
2276.386238327127,698,87.92664976189002
2277.032303218989,650,89.90589364624881
2277.6970946294555,669,91.99755052051438
2278.3431595213174,650,88.78128852164369
2279.064130487598,726,91.55831994092863
2279.672742342251,613,84.87452547452547
2280.496709160857,830,81.68598987219676
2281.3113127201614,820,75.19482178102868
2282.069736723651,764,76.05150627300728
2282.8656137643507,801,76.62919389978212
2283.66149080505,801,73.99215686274509
2284.5041841422612,849,73.41446923597024
2285.3187877015653,820,70.53505747126437
2286.2176605945906,905,72.23029556650246
2287.0041743759875,792,74.0489417989418
2287.762598379478,764,79.18355718355718
2288.492932605061,735,75.77560431168678
2289.4011687573884,915,77.51049709921115
2290.1127764643666,716,75.8608214736319
2290.8899269864614,783,79.26877434550231
2291.6764407678584,792,76.29292295231345
2292.472317808558,801,75.10970733120834
2293.2869213678623,820,74.8105476673428
2294.0827984085618,801,75.10970733120834
2294.8693121899587,792,76.92835356364768
2295.6277361934485,764,77.53388155797794
2296.4048867155434,783,78.80531012940651
2297.153947459731,754,78.16987951807228
2297.931097981826,783,78.48372024684102
2298.6988852446184,773,77.21229167541244
2299.4853990260153,792,77.52613240418118
2300.2531862888077,773,78.1773519163763
2301.0022470329955,754,79.11915085817523
2301.7606710364853,764,79.44074074074072
2302.5190950399756,764,78.78952122854561
2303.286882302768,773,78.78952122854561
2304.0453063062578,764,80.89915085817523
2304.747550753934,707,82.23498575498576
2305.477884979517,735,83.60487512487512
2306.1988559457977,726,82.16284980841942
2306.938553430683,745,81.81620910734836
2307.6782509155682,745,81.11392405063292
2308.4179484004535,745,80.12472985489349
2309.1857356632463,773,77.63847930928021
2310.0003392225503,820,74.87323189846317
