2022-11-25 16:02:33.846647, 1.80841
2022-11-25 16:02:33.846854, 1.81329
2022-11-25 16:02:33.846976, 1.78886
2022-11-25 16:02:33.847090, 1.78886
2022-11-25 16:02:33.879980, 1.77908
2022-11-25 16:02:33.880227, 1.81329
2022-11-25 16:02:33.880409, 1.76931
2022-11-25 16:02:33.913249, 1.80352
2022-11-25 16:02:33.913524, 1.76931
2022-11-25 16:02:33.913704, 1.79374
2022-11-25 16:02:33.913866, 1.76442
2022-11-25 16:02:33.946574, 1.76442
2022-11-25 16:02:33.946828, 1.76442
2022-11-25 16:02:33.946994, 1.75464
2022-11-25 16:02:33.947155, 1.77419
2022-11-25 16:02:33.979960, 1.75464
2022-11-25 16:02:33.980217, 1.74976
2022-11-25 16:02:33.980394, 1.74487
2022-11-25 16:02:34.013154, 1.74487
2022-11-25 16:02:34.013409, 1.74487
2022-11-25 16:02:34.013571, 1.74976
2022-11-25 16:02:34.013740, 1.74976
2022-11-25 16:02:34.046556, 1.74487
2022-11-25 16:02:34.046812, 1.74487
2022-11-25 16:02:34.046986, 1.77908
2022-11-25 16:02:34.079805, 1.74976
2022-11-25 16:02:34.080059, 1.73998
2022-11-25 16:02:34.080235, 1.74487
2022-11-25 16:02:34.080395, 1.73998
2022-11-25 16:02:34.113110, 1.73998
2022-11-25 16:02:34.113342, 1.73509
2022-11-25 16:02:34.113511, 1.73021
2022-11-25 16:02:34.146337, 1.73021
2022-11-25 16:02:34.146574, 1.76442
2022-11-25 16:02:34.146744, 1.73021
2022-11-25 16:02:34.146900, 1.73509
2022-11-25 16:02:34.179716, 1.73998
2022-11-25 16:02:34.179978, 1.74487
2022-11-25 16:02:34.180149, 1.73509
2022-11-25 16:02:34.212911, 1.72043
2022-11-25 16:02:34.213178, 1.71065
2022-11-25 16:02:34.213348, 1.70577
2022-11-25 16:02:34.213505, 1.70088
2022-11-25 16:02:34.246334, 1.70577
2022-11-25 16:02:34.246596, 1.69599
2022-11-25 16:02:34.246766, 1.69599
2022-11-25 16:02:34.246927, 1.69599
2022-11-25 16:02:34.279687, 1.69599
2022-11-25 16:02:34.279928, 1.69599
2022-11-25 16:02:34.280094, 1.69599
2022-11-25 16:02:34.312813, 1.69110
2022-11-25 16:02:34.312879, 1.69599
2022-11-25 16:02:34.312930, 1.67644
2022-11-25 16:02:34.312981, 1.69110
2022-11-25 16:02:34.346038, 1.69110
2022-11-25 16:02:34.346107, 1.69110
2022-11-25 16:02:34.346171, 1.68622
2022-11-25 16:02:34.379370, 1.69110
2022-11-25 16:02:34.379517, 1.69110
2022-11-25 16:02:34.379610, 1.68622
2022-11-25 16:02:34.379695, 1.68622
2022-11-25 16:02:34.412822, 1.68133
2022-11-25 16:02:34.413067, 1.68622
2022-11-25 16:02:34.413241, 1.68622
2022-11-25 16:02:34.446052, 1.68622
2022-11-25 16:02:34.446335, 1.68622
2022-11-25 16:02:34.446502, 1.68622
2022-11-25 16:02:34.446666, 1.68133
2022-11-25 16:02:34.479393, 1.67644
2022-11-25 16:02:34.479641, 1.68133
2022-11-25 16:02:34.479807, 1.67155
2022-11-25 16:02:34.512626, 1.67644
2022-11-25 16:02:34.512880, 1.67155
2022-11-25 16:02:34.513047, 1.67644
2022-11-25 16:02:34.513203, 1.67155
2022-11-25 16:02:34.546010, 1.67644
2022-11-25 16:02:34.546263, 1.67644
2022-11-25 16:02:34.546438, 1.67155
2022-11-25 16:02:34.546594, 1.67155
2022-11-25 16:02:34.579349, 1.67155
2022-11-25 16:02:34.579586, 1.67155
2022-11-25 16:02:34.579748, 1.67644
2022-11-25 16:02:34.612589, 1.66178
2022-11-25 16:02:34.612839, 1.70577
2022-11-25 16:02:34.613019, 1.69110
2022-11-25 16:02:34.613184, 1.70088
2022-11-25 16:02:34.645944, 1.72043
2022-11-25 16:02:34.646187, 1.73509
2022-11-25 16:02:34.646358, 1.75953
2022-11-25 16:02:34.679193, 1.77419
2022-11-25 16:02:34.679443, 1.79863
2022-11-25 16:02:34.679603, 1.80352
2022-11-25 16:02:34.679790, 1.82307
2022-11-25 16:02:34.712456, 1.81329
2022-11-25 16:02:34.712691, 1.84751
2022-11-25 16:02:34.712853, 1.80352
2022-11-25 16:02:34.745761, 1.80352
2022-11-25 16:02:34.745982, 1.78397
2022-11-25 16:02:34.746143, 1.80352
2022-11-25 16:02:34.746297, 1.77419
2022-11-25 16:02:34.779129, 1.79863
2022-11-25 16:02:34.779377, 1.75464
2022-11-25 16:02:34.779545, 1.74976
2022-11-25 16:02:34.812202, 1.74487
2022-11-25 16:02:34.812367, 1.73998
2022-11-25 16:02:34.812462, 1.73998
2022-11-25 16:02:34.812551, 1.73509
2022-11-25 16:02:34.845728, 1.76931
2022-11-25 16:02:34.845977, 1.74976
2022-11-25 16:02:34.846151, 1.73509
2022-11-25 16:02:34.846309, 1.73021
2022-11-25 16:02:34.879087, 1.72532
2022-11-25 16:02:34.879340, 1.72532
2022-11-25 16:02:34.879510, 1.72532
2022-11-25 16:02:34.912263, 1.72532
2022-11-25 16:02:34.912490, 1.73509
2022-11-25 16:02:34.912646, 1.74976
2022-11-25 16:02:34.912802, 1.72532
2022-11-25 16:02:34.945620, 1.72532
2022-11-25 16:02:34.945853, 1.73021
2022-11-25 16:02:34.946020, 1.73021
2022-11-25 16:02:34.978905, 1.72532
2022-11-25 16:02:34.979148, 1.72532
2022-11-25 16:02:34.979310, 1.75953
2022-11-25 16:02:34.979468, 1.73021
2022-11-25 16:02:35.012159, 1.72043
2022-11-25 16:02:35.012348, 1.72043
2022-11-25 16:02:35.012465, 1.71554
2022-11-25 16:02:35.045469, 1.71554
2022-11-25 16:02:35.045720, 1.71065
2022-11-25 16:02:35.045892, 1.70577
2022-11-25 16:02:35.046044, 1.70577
2022-11-25 16:02:35.078821, 1.70088
2022-11-25 16:02:35.079063, 1.72532
2022-11-25 16:02:35.079225, 1.70577
2022-11-25 16:02:35.112024, 1.70088
2022-11-25 16:02:35.112289, 1.69110
2022-11-25 16:02:35.112465, 1.69110
2022-11-25 16:02:35.112625, 1.69110
2022-11-25 16:02:35.145423, 1.68133
2022-11-25 16:02:35.145758, 1.68133
2022-11-25 16:02:35.145964, 1.68622
2022-11-25 16:02:35.146132, 1.68133
2022-11-25 16:02:35.178796, 1.67644
2022-11-25 16:02:35.179044, 1.67644
2022-11-25 16:02:35.179210, 1.67644
2022-11-25 16:02:35.211995, 1.67644
2022-11-25 16:02:35.212153, 1.67644
2022-11-25 16:02:35.212243, 1.67644
2022-11-25 16:02:35.212328, 1.67644
2022-11-25 16:02:35.245379, 1.67644
2022-11-25 16:02:35.245617, 1.67644
2022-11-25 16:02:35.245783, 1.67155
2022-11-25 16:02:35.278594, 1.67155
2022-11-25 16:02:35.278826, 1.67155
2022-11-25 16:02:35.278987, 1.67155
2022-11-25 16:02:35.279145, 1.67155
2022-11-25 16:02:35.311672, 1.67155
2022-11-25 16:02:35.311751, 1.67155
2022-11-25 16:02:35.311813, 1.66667
2022-11-25 16:02:35.345096, 1.67155
2022-11-25 16:02:35.345239, 1.67155
2022-11-25 16:02:35.345330, 1.66667
2022-11-25 16:02:35.345412, 1.66667
2022-11-25 16:02:35.378550, 1.68622
2022-11-25 16:02:35.378787, 1.67155
2022-11-25 16:02:35.378959, 1.67644
2022-11-25 16:02:35.411744, 1.67644
2022-11-25 16:02:35.412002, 1.67155
2022-11-25 16:02:35.412169, 1.69599
2022-11-25 16:02:35.412330, 1.68622
2022-11-25 16:02:35.445130, 1.67155
2022-11-25 16:02:35.445367, 1.67644
2022-11-25 16:02:35.445538, 1.69110
2022-11-25 16:02:35.445705, 1.69599
2022-11-25 16:02:35.478459, 1.70577
2022-11-25 16:02:35.478699, 1.72532
2022-11-25 16:02:35.478867, 1.74487
2022-11-25 16:02:35.511721, 1.76931
2022-11-25 16:02:35.511973, 1.78397
2022-11-25 16:02:35.512142, 1.79863
2022-11-25 16:02:35.512300, 1.80352
2022-11-25 16:02:35.545065, 1.80841
2022-11-25 16:02:35.545314, 1.80841
2022-11-25 16:02:35.545480, 1.79374
2022-11-25 16:02:35.578297, 1.82796
2022-11-25 16:02:35.578552, 1.78397
2022-11-25 16:02:35.578726, 1.77419
2022-11-25 16:02:35.578881, 1.76442
2022-11-25 16:02:35.611665, 1.78886
2022-11-25 16:02:35.611914, 1.75464
2022-11-25 16:02:35.612086, 1.74487
2022-11-25 16:02:35.644891, 1.74487
2022-11-25 16:02:35.645150, 1.74487
2022-11-25 16:02:35.645320, 1.74487
2022-11-25 16:02:35.645486, 1.76442
2022-11-25 16:02:35.678308, 1.73509
2022-11-25 16:02:35.678562, 1.73509
2022-11-25 16:02:35.678733, 1.73021
2022-11-25 16:02:35.711431, 1.73021
2022-11-25 16:02:35.711686, 1.72532
2022-11-25 16:02:35.711853, 1.73021
2022-11-25 16:02:35.712021, 1.73021
2022-11-25 16:02:35.744824, 1.72043
2022-11-25 16:02:35.745065, 1.71554
2022-11-25 16:02:35.745234, 1.72043
2022-11-25 16:02:35.745393, 1.71554
2022-11-25 16:02:35.778204, 1.71554
2022-11-25 16:02:35.778457, 1.71554
2022-11-25 16:02:35.778629, 1.71554
2022-11-25 16:02:35.811279, 1.72043
2022-11-25 16:02:35.811431, 1.72043
2022-11-25 16:02:35.811520, 1.75464
2022-11-25 16:02:35.811652, 1.73021
2022-11-25 16:02:35.844785, 1.74487
2022-11-25 16:02:35.845058, 1.72043
2022-11-25 16:02:35.845235, 1.72043
2022-11-25 16:02:35.878021, 1.71065
2022-11-25 16:02:35.878274, 1.70088
2022-11-25 16:02:35.878441, 1.69599
2022-11-25 16:02:35.878604, 1.70088
2022-11-25 16:02:35.911345, 1.69599
2022-11-25 16:02:35.911589, 1.69599
2022-11-25 16:02:35.911755, 1.69110
2022-11-25 16:02:35.944596, 1.72043
2022-11-25 16:02:35.944849, 1.71065
2022-11-25 16:02:35.945019, 1.70088
2022-11-25 16:02:35.945180, 1.68133
2022-11-25 16:02:35.977970, 1.67155
2022-11-25 16:02:35.978220, 1.67155
2022-11-25 16:02:35.978383, 1.67155
2022-11-25 16:02:36.011196, 1.67155
2022-11-25 16:02:36.011448, 1.67155
2022-11-25 16:02:36.011616, 1.66667
2022-11-25 16:02:36.011774, 1.66667
2022-11-25 16:02:36.044525, 1.66667
2022-11-25 16:02:36.044763, 1.67155
2022-11-25 16:02:36.044921, 1.66667
2022-11-25 16:02:36.045079, 1.66667
2022-11-25 16:02:36.077913, 1.66667
2022-11-25 16:02:36.078156, 1.67155
2022-11-25 16:02:36.078319, 1.66667
2022-11-25 16:02:36.111138, 1.66667
2022-11-25 16:02:36.111392, 1.66667
2022-11-25 16:02:36.111569, 1.66667
2022-11-25 16:02:36.111730, 1.66667
2022-11-25 16:02:36.144455, 1.66667
2022-11-25 16:02:36.144688, 1.66667
2022-11-25 16:02:36.144849, 1.65689
2022-11-25 16:02:36.177721, 1.66667
2022-11-25 16:02:36.177973, 1.66178
2022-11-25 16:02:36.178142, 1.66178
2022-11-25 16:02:36.178303, 1.66178
2022-11-25 16:02:36.211067, 1.66178
2022-11-25 16:02:36.211309, 1.66178
2022-11-25 16:02:36.211476, 1.66178
2022-11-25 16:02:36.244302, 1.66178
2022-11-25 16:02:36.244543, 1.66178
2022-11-25 16:02:36.244704, 1.66178
2022-11-25 16:02:36.244858, 1.66178
2022-11-25 16:02:36.277629, 1.65689
2022-11-25 16:02:36.277882, 1.68622
2022-11-25 16:02:36.278061, 1.66178
2022-11-25 16:02:36.310787, 1.66178
2022-11-25 16:02:36.310970, 1.65200
2022-11-25 16:02:36.311066, 1.65200
2022-11-25 16:02:36.311154, 1.65200
2022-11-25 16:02:36.344297, 1.64712
2022-11-25 16:02:36.344561, 1.65689
2022-11-25 16:02:36.344734, 1.66667
2022-11-25 16:02:36.344896, 1.68133
2022-11-25 16:02:36.377631, 1.69599
2022-11-25 16:02:36.377884, 1.72043
2022-11-25 16:02:36.378054, 1.74487
2022-11-25 16:02:36.410818, 1.80352
2022-11-25 16:02:36.411062, 1.78886
2022-11-25 16:02:36.411229, 1.79863
2022-11-25 16:02:36.411386, 1.82796
2022-11-25 16:02:36.444164, 1.80841
2022-11-25 16:02:36.444354, 1.83284
2022-11-25 16:02:36.444480, 1.79863
2022-11-25 16:02:36.477412, 1.79863
2022-11-25 16:02:36.477654, 1.77908
2022-11-25 16:02:36.477823, 1.77419
2022-11-25 16:02:36.477986, 1.77419
2022-11-25 16:02:36.510785, 1.75464
2022-11-25 16:02:36.511037, 1.78886
2022-11-25 16:02:36.511206, 1.74487
2022-11-25 16:02:36.544013, 1.77908
2022-11-25 16:02:36.544271, 1.73998
2022-11-25 16:02:36.544440, 1.73998
2022-11-25 16:02:36.544604, 1.73998
2022-11-25 16:02:36.577378, 1.73998
2022-11-25 16:02:36.577622, 1.74976
2022-11-25 16:02:36.577785, 1.73509
2022-11-25 16:02:36.610592, 1.73509
2022-11-25 16:02:36.610876, 1.72532
2022-11-25 16:02:36.611046, 1.76442
2022-11-25 16:02:36.611205, 1.75953
2022-11-25 16:02:36.643957, 1.74487
2022-11-25 16:02:36.644196, 1.71065
2022-11-25 16:02:36.644367, 1.71554
2022-11-25 16:02:36.644536, 1.72043
2022-11-25 16:02:36.677284, 1.71554
2022-11-25 16:02:36.677480, 1.71554
2022-11-25 16:02:36.677609, 1.71554
2022-11-25 16:02:36.710509, 1.71554
2022-11-25 16:02:36.710746, 1.71065
2022-11-25 16:02:36.710911, 1.71065
2022-11-25 16:02:36.711068, 1.71554
2022-11-25 16:02:36.743902, 1.71554
2022-11-25 16:02:36.744151, 1.71065
2022-11-25 16:02:36.744320, 1.70577
2022-11-25 16:02:36.777118, 1.70577
2022-11-25 16:02:36.777342, 1.70088
2022-11-25 16:02:36.777503, 1.70088
2022-11-25 16:02:36.777678, 1.70088
2022-11-25 16:02:36.810472, 1.69599
2022-11-25 16:02:36.810725, 1.73021
2022-11-25 16:02:36.810895, 1.69599
2022-11-25 16:02:36.843792, 1.69110
2022-11-25 16:02:36.844059, 1.68622
2022-11-25 16:02:36.844229, 1.68622
2022-11-25 16:02:36.844396, 1.68622
2022-11-25 16:02:36.877113, 1.67644
2022-11-25 16:02:36.877369, 1.68133
2022-11-25 16:02:36.877537, 1.67155
2022-11-25 16:02:36.910308, 1.67644
2022-11-25 16:02:36.910575, 1.67155
2022-11-25 16:02:36.910749, 1.67644
2022-11-25 16:02:36.910907, 1.67155
2022-11-25 16:02:36.943622, 1.67155
2022-11-25 16:02:36.943778, 1.67155
2022-11-25 16:02:36.943867, 1.66667
2022-11-25 16:02:36.943957, 1.67155
2022-11-25 16:02:36.977044, 1.66178
2022-11-25 16:02:36.977288, 1.67155
2022-11-25 16:02:36.977449, 1.66667
2022-11-25 16:02:37.010275, 1.66667
2022-11-25 16:02:37.010520, 1.65200
2022-11-25 16:02:37.010692, 1.66178
2022-11-25 16:02:37.010855, 1.67155
2022-11-25 16:02:37.043607, 1.65689
2022-11-25 16:02:37.043850, 1.66178
2022-11-25 16:02:37.044026, 1.66178
2022-11-25 16:02:37.076812, 1.65689
2022-11-25 16:02:37.077001, 1.66178
2022-11-25 16:02:37.077117, 1.66178
2022-11-25 16:02:37.077230, 1.65689
2022-11-25 16:02:37.110185, 1.68133
2022-11-25 16:02:37.110434, 1.66667
2022-11-25 16:02:37.110614, 1.66178
2022-11-25 16:02:37.143405, 1.66178
2022-11-25 16:02:37.143666, 1.66178
2022-11-25 16:02:37.143842, 1.67155
2022-11-25 16:02:37.144001, 1.66667
2022-11-25 16:02:37.176748, 1.65689
2022-11-25 16:02:37.176906, 1.65200
2022-11-25 16:02:37.176997, 1.65200
2022-11-25 16:02:37.209981, 1.65200
2022-11-25 16:02:37.210255, 1.65689
2022-11-25 16:02:37.210425, 1.66178
2022-11-25 16:02:37.210603, 1.66667
2022-11-25 16:02:37.243394, 1.68622
2022-11-25 16:02:37.243648, 1.71065
2022-11-25 16:02:37.243818, 1.72532
2022-11-25 16:02:37.243982, 1.75464
2022-11-25 16:02:37.276725, 1.76442
2022-11-25 16:02:37.276972, 1.78397
2022-11-25 16:02:37.277137, 1.80352
2022-11-25 16:02:37.309900, 1.79374
2022-11-25 16:02:37.310235, 1.80352
2022-11-25 16:02:37.310437, 1.78886
2022-11-25 16:02:37.310645, 1.81329
2022-11-25 16:02:37.343195, 1.76931
2022-11-25 16:02:37.343296, 1.75953
2022-11-25 16:02:37.343378, 1.75464
2022-11-25 16:02:37.376499, 1.74487
2022-11-25 16:02:37.376646, 1.73998
2022-11-25 16:02:37.376739, 1.73509
2022-11-25 16:02:37.376823, 1.75464
2022-11-25 16:02:37.409898, 1.72532
2022-11-25 16:02:37.410134, 1.75953
2022-11-25 16:02:37.410302, 1.72532
2022-11-25 16:02:37.443128, 1.72532
2022-11-25 16:02:37.443392, 1.72043
2022-11-25 16:02:37.443568, 1.72043
2022-11-25 16:02:37.443728, 1.71554
2022-11-25 16:02:37.476501, 1.71554
2022-11-25 16:02:37.476750, 1.72532
2022-11-25 16:02:37.476922, 1.73509
2022-11-25 16:02:37.509666, 1.73021
2022-11-25 16:02:37.509935, 1.74487
2022-11-25 16:02:37.510113, 1.73998
2022-11-25 16:02:37.510275, 1.71554
2022-11-25 16:02:37.543104, 1.71065
2022-11-25 16:02:37.543363, 1.71065
2022-11-25 16:02:37.543532, 1.71065
2022-11-25 16:02:37.543695, 1.71554
2022-11-25 16:02:37.576402, 1.70577
2022-11-25 16:02:37.576597, 1.73021
2022-11-25 16:02:37.576719, 1.71065
2022-11-25 16:02:37.609630, 1.71554
2022-11-25 16:02:37.609813, 1.70577
2022-11-25 16:02:37.609931, 1.70088
2022-11-25 16:02:37.610051, 1.70088
2022-11-25 16:02:37.643025, 1.69110
2022-11-25 16:02:37.643274, 1.69599
2022-11-25 16:02:37.643444, 1.69110
2022-11-25 16:02:37.676257, 1.68622
2022-11-25 16:02:37.676453, 1.68622
2022-11-25 16:02:37.676579, 1.71554
2022-11-25 16:02:37.676688, 1.71554
2022-11-25 16:02:37.709576, 1.71065
2022-11-25 16:02:37.709910, 1.69599
2022-11-25 16:02:37.710117, 1.68133
2022-11-25 16:02:37.742827, 1.67644
2022-11-25 16:02:37.743071, 1.67155
2022-11-25 16:02:37.743232, 1.67155
2022-11-25 16:02:37.743397, 1.67155
2022-11-25 16:02:37.776211, 1.67155
2022-11-25 16:02:37.776466, 1.66667
2022-11-25 16:02:37.776640, 1.67155
2022-11-25 16:02:37.809397, 1.66667
2022-11-25 16:02:37.809657, 1.66667
2022-11-25 16:02:37.809830, 1.66667
2022-11-25 16:02:37.810063, 1.70088
2022-11-25 16:02:37.842752, 1.68133
2022-11-25 16:02:37.842914, 1.67155
2022-11-25 16:02:37.843006, 1.67155
2022-11-25 16:02:37.843091, 1.66667
2022-11-25 16:02:37.876133, 1.66178
2022-11-25 16:02:37.876371, 1.66667
2022-11-25 16:02:37.876535, 1.66178
2022-11-25 16:02:37.909337, 1.66667
2022-11-25 16:02:37.909573, 1.66178
2022-11-25 16:02:37.909742, 1.65200
2022-11-25 16:02:37.909910, 1.69599
2022-11-25 16:02:37.942739, 1.67155
2022-11-25 16:02:37.942986, 1.67644
2022-11-25 16:02:37.943160, 1.67644
2022-11-25 16:02:37.975945, 1.66667
2022-11-25 16:02:37.976176, 1.66178
2022-11-25 16:02:37.976335, 1.66178
2022-11-25 16:02:37.976496, 1.65200
2022-11-25 16:02:38.009294, 1.66178
2022-11-25 16:02:38.009525, 1.67644
2022-11-25 16:02:38.009693, 1.68133
2022-11-25 16:02:38.042544, 1.69599
2022-11-25 16:02:38.042806, 1.71554
2022-11-25 16:02:38.042982, 1.73509
2022-11-25 16:02:38.043148, 1.75953
2022-11-25 16:02:38.075887, 1.77419
2022-11-25 16:02:38.076080, 1.78886
2022-11-25 16:02:38.076201, 1.79374
2022-11-25 16:02:38.109117, 1.79863
2022-11-25 16:02:38.109393, 1.79374
2022-11-25 16:02:38.109562, 1.79863
2022-11-25 16:02:38.109727, 1.78397
2022-11-25 16:02:38.142422, 1.77419
2022-11-25 16:02:38.142664, 1.76931
2022-11-25 16:02:38.142829, 1.75464
2022-11-25 16:02:38.142987, 1.76931
2022-11-25 16:02:38.175834, 1.74487
2022-11-25 16:02:38.176029, 1.77908
2022-11-25 16:02:38.176152, 1.73998
2022-11-25 16:02:38.209071, 1.77908
2022-11-25 16:02:38.209317, 1.74487
2022-11-25 16:02:38.209486, 1.76442
2022-11-25 16:02:38.209643, 1.73998
2022-11-25 16:02:38.242433, 1.73998
2022-11-25 16:02:38.242674, 1.73509
2022-11-25 16:02:38.242838, 1.73021
2022-11-25 16:02:38.275658, 1.72532
2022-11-25 16:02:38.275833, 1.72043
2022-11-25 16:02:38.275947, 1.72043
2022-11-25 16:02:38.276059, 1.71554
2022-11-25 16:02:38.309033, 1.71554
2022-11-25 16:02:38.309267, 1.75464
2022-11-25 16:02:38.309424, 1.72043
2022-11-25 16:02:38.342164, 1.72043
2022-11-25 16:02:38.342286, 1.72043
2022-11-25 16:02:38.342363, 1.72043
2022-11-25 16:02:38.342435, 1.71554
2022-11-25 16:02:38.375572, 1.72043
2022-11-25 16:02:38.375763, 1.74487
2022-11-25 16:02:38.375889, 1.73509
2022-11-25 16:02:38.408810, 1.72043
2022-11-25 16:02:38.409065, 1.71554
2022-11-25 16:02:38.409236, 1.70577
2022-11-25 16:02:38.409390, 1.70577
2022-11-25 16:02:38.442261, 1.70577
2022-11-25 16:02:38.442509, 1.70088
2022-11-25 16:02:38.442686, 1.69599
2022-11-25 16:02:38.442849, 1.69599
2022-11-25 16:02:38.475568, 1.70577
2022-11-25 16:02:38.475815, 1.69599
2022-11-25 16:02:38.475986, 1.72532
2022-11-25 16:02:38.508777, 1.71554
2022-11-25 16:02:38.509024, 1.71554
2022-11-25 16:02:38.509187, 1.69599
2022-11-25 16:02:38.509361, 1.72043
2022-11-25 16:02:38.542154, 1.69599
2022-11-25 16:02:38.542385, 1.68133
2022-11-25 16:02:38.542559, 1.67155
2022-11-25 16:02:38.575384, 1.67644
2022-11-25 16:02:38.575619, 1.67644
2022-11-25 16:02:38.575791, 1.67644
2022-11-25 16:02:38.575949, 1.68133
2022-11-25 16:02:38.608705, 1.67644
2022-11-25 16:02:38.608946, 1.67644
2022-11-25 16:02:38.609105, 1.67155
2022-11-25 16:02:38.641984, 1.67155
2022-11-25 16:02:38.642247, 1.67155
2022-11-25 16:02:38.642421, 1.67644
2022-11-25 16:02:38.642583, 1.67155
2022-11-25 16:02:38.675324, 1.67155
2022-11-25 16:02:38.675558, 1.67155
2022-11-25 16:02:38.675721, 1.69599
2022-11-25 16:02:38.708538, 1.67644
2022-11-25 16:02:38.708821, 1.70088
2022-11-25 16:02:38.709000, 1.68133
2022-11-25 16:02:38.709165, 1.67644
2022-11-25 16:02:38.741880, 1.68133
2022-11-25 16:02:38.742132, 1.68622
2022-11-25 16:02:38.742300, 1.67155
2022-11-25 16:02:38.742457, 1.67155
2022-11-25 16:02:38.775332, 1.66178
2022-11-25 16:02:38.775571, 1.66178
2022-11-25 16:02:38.775732, 1.66178
2022-11-25 16:02:38.808502, 1.65689
2022-11-25 16:02:38.808735, 1.65689
2022-11-25 16:02:38.808902, 1.65689
2022-11-25 16:02:38.809161, 1.65689
2022-11-25 16:02:38.841808, 1.65689
2022-11-25 16:02:38.841970, 1.65200
2022-11-25 16:02:38.842060, 1.65689
2022-11-25 16:02:38.875127, 1.65689
2022-11-25 16:02:38.875385, 1.65689
2022-11-25 16:02:38.875558, 1.70088
2022-11-25 16:02:38.875716, 1.71065
2022-11-25 16:02:38.908443, 1.70088
2022-11-25 16:02:38.908699, 1.72043
2022-11-25 16:02:38.908870, 1.73998
2022-11-25 16:02:38.941667, 1.75464
2022-11-25 16:02:38.941866, 1.78397
2022-11-25 16:02:38.941987, 1.79374
2022-11-25 16:02:38.942104, 1.80841
2022-11-25 16:02:38.975059, 1.80352
2022-11-25 16:02:38.975316, 1.83284
2022-11-25 16:02:38.975487, 1.79863
2022-11-25 16:02:39.008217, 1.78886
2022-11-25 16:02:39.008419, 1.78886
2022-11-25 16:02:39.008539, 1.77908
2022-11-25 16:02:39.008655, 1.77908
2022-11-25 16:02:39.041605, 1.76931
2022-11-25 16:02:39.041854, 1.77419
2022-11-25 16:02:39.042023, 1.75953
2022-11-25 16:02:39.042184, 1.79374
2022-11-25 16:02:39.074985, 1.75464
2022-11-25 16:02:39.075245, 1.76931
2022-11-25 16:02:39.075423, 1.75953
2022-11-25 16:02:39.108231, 1.76442
2022-11-25 16:02:39.108410, 1.76442
2022-11-25 16:02:39.108533, 1.75464
2022-11-25 16:02:39.108650, 1.75464
2022-11-25 16:02:39.141522, 1.75464
2022-11-25 16:02:39.141781, 1.74976
2022-11-25 16:02:39.141955, 1.74487
2022-11-25 16:02:39.174804, 1.73998
2022-11-25 16:02:39.175066, 1.73509
2022-11-25 16:02:39.175242, 1.73998
2022-11-25 16:02:39.175404, 1.74976
2022-11-25 16:02:39.208151, 1.73998
2022-11-25 16:02:39.208398, 1.77908
2022-11-25 16:02:39.208575, 1.74976
2022-11-25 16:02:39.241357, 1.73998
2022-11-25 16:02:39.241618, 1.73509
2022-11-25 16:02:39.241788, 1.73998
2022-11-25 16:02:39.241954, 1.75464
2022-11-25 16:02:39.274699, 1.77419
2022-11-25 16:02:39.274858, 1.76442
2022-11-25 16:02:39.274946, 1.73998
2022-11-25 16:02:39.307952, 1.73021
2022-11-25 16:02:39.308228, 1.73021
2022-11-25 16:02:39.308411, 1.73021
2022-11-25 16:02:39.308573, 1.72532
2022-11-25 16:02:39.341302, 1.72532
2022-11-25 16:02:39.341505, 1.72043
2022-11-25 16:02:39.341626, 1.71554
2022-11-25 16:02:39.341743, 1.71554
2022-11-25 16:02:39.374692, 1.73021
2022-11-25 16:02:39.374937, 1.71554
2022-11-25 16:02:39.375125, 1.71065
2022-11-25 16:02:39.407915, 1.71065
2022-11-25 16:02:39.408159, 1.70577
2022-11-25 16:02:39.408323, 1.70577
2022-11-25 16:02:39.408479, 1.70088
2022-11-25 16:02:39.441320, 1.69110
2022-11-25 16:02:39.441577, 1.70088
2022-11-25 16:02:39.441749, 1.69599
2022-11-25 16:02:39.474483, 1.70088
2022-11-25 16:02:39.474739, 1.69599
2022-11-25 16:02:39.474912, 1.69599
2022-11-25 16:02:39.475067, 1.69599
2022-11-25 16:02:39.507860, 1.69599
2022-11-25 16:02:39.508113, 1.69599
2022-11-25 16:02:39.508283, 1.69599
2022-11-25 16:02:39.541065, 1.69599
2022-11-25 16:02:39.541316, 1.69599
2022-11-25 16:02:39.541487, 1.69599
2022-11-25 16:02:39.541641, 1.73021
2022-11-25 16:02:39.574402, 1.73021
2022-11-25 16:02:39.574587, 1.70088
2022-11-25 16:02:39.574701, 1.69599
2022-11-25 16:02:39.607658, 1.69599
2022-11-25 16:02:39.607933, 1.69599
2022-11-25 16:02:39.608103, 1.69110
2022-11-25 16:02:39.608266, 1.69110
2022-11-25 16:02:39.641038, 1.68622
2022-11-25 16:02:39.641291, 1.69110
2022-11-25 16:02:39.641470, 1.68622
2022-11-25 16:02:39.641634, 1.68622
2022-11-25 16:02:39.674388, 1.68133
2022-11-25 16:02:39.674638, 1.68622
2022-11-25 16:02:39.674831, 1.68133
2022-11-25 16:02:39.707643, 1.68622
2022-11-25 16:02:39.707903, 1.68133
2022-11-25 16:02:39.708071, 1.68133
2022-11-25 16:02:39.708229, 1.67155
2022-11-25 16:02:39.740970, 1.67644
2022-11-25 16:02:39.741202, 1.67644
2022-11-25 16:02:39.741366, 1.67644
2022-11-25 16:02:39.774231, 1.67644
2022-11-25 16:02:39.774479, 1.67155
2022-11-25 16:02:39.774647, 1.67155
2022-11-25 16:02:39.774812, 1.67155
2022-11-25 16:02:39.807582, 1.67155
2022-11-25 16:02:39.807839, 1.66667
2022-11-25 16:02:39.808008, 1.65689
2022-11-25 16:02:39.840783, 1.67155
2022-11-25 16:02:39.840987, 1.66667
2022-11-25 16:02:39.841114, 1.66667
2022-11-25 16:02:39.841230, 1.66178
2022-11-25 16:02:39.874167, 1.66667
2022-11-25 16:02:39.874433, 1.70088
2022-11-25 16:02:39.874604, 1.66667
2022-11-25 16:02:39.907369, 1.66178
2022-11-25 16:02:39.907611, 1.65689
2022-11-25 16:02:39.907775, 1.66667
2022-11-25 16:02:39.907937, 1.66178
2022-11-25 16:02:39.940730, 1.66178
2022-11-25 16:02:39.940884, 1.65689
2022-11-25 16:02:39.940979, 1.66667
2022-11-25 16:02:39.941065, 1.71065
2022-11-25 16:02:39.974086, 1.68622
2022-11-25 16:02:39.974314, 1.70088
2022-11-25 16:02:39.974478, 1.71554
2022-11-25 16:02:40.007394, 1.73998
2022-11-25 16:02:40.007673, 1.76442
2022-11-25 16:02:40.007865, 1.79374
2022-11-25 16:02:40.008030, 1.80352
2022-11-25 16:02:40.040569, 1.81818
2022-11-25 16:02:40.040727, 1.81329
2022-11-25 16:02:40.040857, 1.81818
2022-11-25 16:02:40.073905, 1.81329
2022-11-25 16:02:40.074166, 1.80841
2022-11-25 16:02:40.074344, 1.79863
2022-11-25 16:02:40.074503, 1.78886
2022-11-25 16:02:40.107297, 1.77908
2022-11-25 16:02:40.107548, 1.77419
2022-11-25 16:02:40.107722, 1.77908
2022-11-25 16:02:40.140487, 1.76442
2022-11-25 16:02:40.140741, 1.76931
2022-11-25 16:02:40.140911, 1.76442
2022-11-25 16:02:40.141076, 1.77419
2022-11-25 16:02:40.173800, 1.76442
2022-11-25 16:02:40.173965, 1.78397
2022-11-25 16:02:40.174058, 1.76442
2022-11-25 16:02:40.207093, 1.77908
2022-11-25 16:02:40.207368, 1.76442
2022-11-25 16:02:40.207539, 1.76442
2022-11-25 16:02:40.207932, 1.74976
2022-11-25 16:02:40.240386, 1.75464
2022-11-25 16:02:40.240538, 1.74487
2022-11-25 16:02:40.240630, 1.74487
2022-11-25 16:02:40.240716, 1.74487
2022-11-25 16:02:40.273743, 1.74976
2022-11-25 16:02:40.273931, 1.74487
2022-11-25 16:02:40.274046, 1.76931
2022-11-25 16:02:40.307025, 1.76931
2022-11-25 16:02:40.307266, 1.74487
2022-11-25 16:02:40.307429, 1.73998
2022-11-25 16:02:40.307591, 1.73998
2022-11-25 16:02:40.340275, 1.73509
2022-11-25 16:02:40.340434, 1.73998
2022-11-25 16:02:40.340525, 1.73998
2022-11-25 16:02:40.373605, 1.73509
2022-11-25 16:02:40.373855, 1.74976
2022-11-25 16:02:40.374022, 1.73509
2022-11-25 16:02:40.374184, 1.72043
2022-11-25 16:02:40.407007, 1.72043
2022-11-25 16:02:40.407264, 1.72043
2022-11-25 16:02:40.407433, 1.73021
2022-11-25 16:02:40.440200, 1.72043
2022-11-25 16:02:40.440451, 1.70577
2022-11-25 16:02:40.440621, 1.71065
2022-11-25 16:02:40.440787, 1.70088
2022-11-25 16:02:40.473533, 1.69599
2022-11-25 16:02:40.473725, 1.70577
2022-11-25 16:02:40.473847, 1.70088
2022-11-25 16:02:40.506777, 1.70577
2022-11-25 16:02:40.507043, 1.69599
2022-11-25 16:02:40.507216, 1.70088
2022-11-25 16:02:40.507375, 1.70088
2022-11-25 16:02:40.540143, 1.70088
2022-11-25 16:02:40.540402, 1.69599
2022-11-25 16:02:40.540576, 1.69599
2022-11-25 16:02:40.540731, 1.69599
2022-11-25 16:02:40.573551, 1.69599
2022-11-25 16:02:40.573801, 1.69599
2022-11-25 16:02:40.573973, 1.73021
2022-11-25 16:02:40.606743, 1.69599
2022-11-25 16:02:40.606980, 1.69110
2022-11-25 16:02:40.607149, 1.69599
2022-11-25 16:02:40.607306, 1.68622
2022-11-25 16:02:40.640101, 1.69599
2022-11-25 16:02:40.640338, 1.68622
2022-11-25 16:02:40.640499, 1.68622
2022-11-25 16:02:40.673357, 1.69110
2022-11-25 16:02:40.673612, 1.68622
2022-11-25 16:02:40.673781, 1.68622
2022-11-25 16:02:40.673944, 1.68622
2022-11-25 16:02:40.706746, 1.68622
2022-11-25 16:02:40.707001, 1.68622
2022-11-25 16:02:40.707170, 1.68133
2022-11-25 16:02:40.739934, 1.68133
2022-11-25 16:02:40.740200, 1.68133
2022-11-25 16:02:40.740374, 1.68133
2022-11-25 16:02:40.740534, 1.71554
2022-11-25 16:02:40.773280, 1.71554
2022-11-25 16:02:40.773477, 1.69110
2022-11-25 16:02:40.773600, 1.67644
2022-11-25 16:02:40.806486, 1.67644
2022-11-25 16:02:40.806696, 1.70088
2022-11-25 16:02:40.806818, 1.67155
2022-11-25 16:02:40.806975, 1.67155
2022-11-25 16:02:40.839884, 1.67155
2022-11-25 16:02:40.840143, 1.65689
2022-11-25 16:02:40.840323, 1.66667
2022-11-25 16:02:40.840520, 1.67155
2022-11-25 16:02:40.873240, 1.67155
2022-11-25 16:02:40.873504, 1.66667
2022-11-25 16:02:40.873682, 1.70577
2022-11-25 16:02:40.906416, 1.71065
2022-11-25 16:02:40.906584, 1.73021
2022-11-25 16:02:40.906676, 1.74487
2022-11-25 16:02:40.906759, 1.75464
2022-11-25 16:02:40.939817, 1.75953
2022-11-25 16:02:40.940067, 1.77419
2022-11-25 16:02:40.940230, 1.81818
2022-11-25 16:02:40.973060, 1.79863
2022-11-25 16:02:40.973318, 1.82796
2022-11-25 16:02:40.973490, 1.80841
2022-11-25 16:02:40.973652, 1.84262
2022-11-25 16:02:41.006406, 1.80352
2022-11-25 16:02:41.006657, 1.82307
2022-11-25 16:02:41.006826, 1.78397
2022-11-25 16:02:41.039604, 1.77908
2022-11-25 16:02:41.039856, 1.77419
2022-11-25 16:02:41.040020, 1.76931
2022-11-25 16:02:41.040179, 1.76931
2022-11-25 16:02:41.072993, 1.76442
2022-11-25 16:02:41.073250, 1.76442
2022-11-25 16:02:41.073427, 1.75464
2022-11-25 16:02:41.106199, 1.75953
2022-11-25 16:02:41.106461, 1.75464
2022-11-25 16:02:41.106639, 1.76442
2022-11-25 16:02:41.106800, 1.79374
2022-11-25 16:02:41.139578, 1.75953
2022-11-25 16:02:41.139832, 1.76442
2022-11-25 16:02:41.140003, 1.74976
2022-11-25 16:02:41.140187, 1.74976
2022-11-25 16:02:41.172963, 1.74976
2022-11-25 16:02:41.173228, 1.73998
2022-11-25 16:02:41.173396, 1.73509
2022-11-25 16:02:41.206164, 1.73509
2022-11-25 16:02:41.206369, 1.73509
2022-11-25 16:02:41.206489, 1.73998
2022-11-25 16:02:41.206601, 1.73509
2022-11-25 16:02:41.239495, 1.73509
2022-11-25 16:02:41.239819, 1.77908
2022-11-25 16:02:41.240027, 1.73998
2022-11-25 16:02:41.272746, 1.73998
2022-11-25 16:02:41.273004, 1.73021
2022-11-25 16:02:41.273166, 1.73509
2022-11-25 16:02:41.273325, 1.73021
2022-11-25 16:02:41.306120, 1.72532
2022-11-25 16:02:41.306383, 1.72532
2022-11-25 16:02:41.306558, 1.72043
2022-11-25 16:02:41.339294, 1.72043
2022-11-25 16:02:41.339546, 1.71554
2022-11-25 16:02:41.339716, 1.71554
2022-11-25 16:02:41.339875, 1.71065
2022-11-25 16:02:41.372679, 1.71065
2022-11-25 16:02:41.372945, 1.71065
2022-11-25 16:02:41.373126, 1.74976
2022-11-25 16:02:41.405953, 1.73998
2022-11-25 16:02:41.406182, 1.73509
2022-11-25 16:02:41.406309, 1.71554
2022-11-25 16:02:41.406426, 1.70577
2022-11-25 16:02:41.439292, 1.70088
2022-11-25 16:02:41.439572, 1.69599
2022-11-25 16:02:41.439744, 1.69599
2022-11-25 16:02:41.439902, 1.69110
2022-11-25 16:02:41.472639, 1.69110
2022-11-25 16:02:41.472890, 1.69599
2022-11-25 16:02:41.473054, 1.69110
2022-11-25 16:02:41.505865, 1.69599
2022-11-25 16:02:41.506104, 1.72532
2022-11-25 16:02:41.506266, 1.69599
2022-11-25 16:02:41.506428, 1.69599
2022-11-25 16:02:41.539217, 1.68622
2022-11-25 16:02:41.539454, 1.69110
2022-11-25 16:02:41.539625, 1.69110
2022-11-25 16:02:41.572446, 1.68622
2022-11-25 16:02:41.572690, 1.68622
2022-11-25 16:02:41.572852, 1.68622
2022-11-25 16:02:41.573018, 1.68133
2022-11-25 16:02:41.605764, 1.68622
2022-11-25 16:02:41.605942, 1.68133
2022-11-25 16:02:41.606056, 1.68133
2022-11-25 16:02:41.639048, 1.68133
2022-11-25 16:02:41.639247, 1.69110
2022-11-25 16:02:41.639369, 1.69599
2022-11-25 16:02:41.639487, 1.68133
2022-11-25 16:02:41.672428, 1.68622
2022-11-25 16:02:41.672684, 1.67155
2022-11-25 16:02:41.672861, 1.67155
2022-11-25 16:02:41.705620, 1.68133
2022-11-25 16:02:41.705901, 1.67155
2022-11-25 16:02:41.706067, 1.67155
2022-11-25 16:02:41.706230, 1.67155
2022-11-25 16:02:41.738973, 1.67155
2022-11-25 16:02:41.739217, 1.66667
2022-11-25 16:02:41.739378, 1.67155
2022-11-25 16:02:41.739542, 1.66667
2022-11-25 16:02:41.772335, 1.70577
2022-11-25 16:02:41.772572, 1.69110
2022-11-25 16:02:41.772743, 1.67155
2022-11-25 16:02:41.805536, 1.67155
2022-11-25 16:02:41.805720, 1.66667
2022-11-25 16:02:41.805835, 1.67155
2022-11-25 16:02:41.805951, 1.66667
2022-11-25 16:02:41.838867, 1.66667
2022-11-25 16:02:41.839017, 1.66667
2022-11-25 16:02:41.839102, 1.66178
2022-11-25 16:02:41.872236, 1.66667
2022-11-25 16:02:41.872486, 1.66178
2022-11-25 16:02:41.872656, 1.66178
2022-11-25 16:02:41.872813, 1.65689
2022-11-25 16:02:41.905543, 1.65689
2022-11-25 16:02:41.905810, 1.66178
2022-11-25 16:02:41.905983, 1.66178
2022-11-25 16:02:41.938764, 1.70577
2022-11-25 16:02:41.939034, 1.72043
2022-11-25 16:02:41.939211, 1.73509
2022-11-25 16:02:41.939371, 1.75464
2022-11-25 16:02:41.972135, 1.75464
2022-11-25 16:02:41.972383, 1.76931
2022-11-25 16:02:41.972550, 1.78397
2022-11-25 16:02:42.005315, 1.79863
2022-11-25 16:02:42.005511, 1.81329
2022-11-25 16:02:42.005631, 1.81329
2022-11-25 16:02:42.005751, 1.82307
2022-11-25 16:02:42.038702, 1.81329
2022-11-25 16:02:42.038963, 1.82796
2022-11-25 16:02:42.039133, 1.79374
2022-11-25 16:02:42.039294, 1.80352
2022-11-25 16:02:42.072055, 1.77419
2022-11-25 16:02:42.072307, 1.79374
2022-11-25 16:02:42.072478, 1.76931
2022-11-25 16:02:42.105288, 1.80352
2022-11-25 16:02:42.105528, 1.76442
2022-11-25 16:02:42.105694, 1.80352
2022-11-25 16:02:42.105852, 1.76442
2022-11-25 16:02:42.138637, 1.77419
2022-11-25 16:02:42.138887, 1.77908
2022-11-25 16:02:42.139054, 1.76931
2022-11-25 16:02:42.171854, 1.77419
2022-11-25 16:02:42.172004, 1.79374
2022-11-25 16:02:42.172092, 1.76442
2022-11-25 16:02:42.172175, 1.79374
2022-11-25 16:02:42.205308, 1.75464
2022-11-25 16:02:42.205572, 1.75953
2022-11-25 16:02:42.205744, 1.78886
2022-11-25 16:02:42.238471, 1.75464
2022-11-25 16:02:42.238673, 1.73998
2022-11-25 16:02:42.238799, 1.74487
2022-11-25 16:02:42.238920, 1.73509
2022-11-25 16:02:42.271796, 1.73998
2022-11-25 16:02:42.271959, 1.73998
2022-11-25 16:02:42.272050, 1.74976
2022-11-25 16:02:42.305006, 1.77419
2022-11-25 16:02:42.305275, 1.77419
2022-11-25 16:02:42.305454, 1.74487
2022-11-25 16:02:42.305616, 1.73998
2022-11-25 16:02:42.338349, 1.73998
2022-11-25 16:02:42.338509, 1.73509
2022-11-25 16:02:42.338781, 1.73998
2022-11-25 16:02:42.338870, 1.72532
2022-11-25 16:02:42.371788, 1.72532
2022-11-25 16:02:42.372047, 1.72532
2022-11-25 16:02:42.372220, 1.72043
2022-11-25 16:02:42.405013, 1.72043
2022-11-25 16:02:42.405265, 1.71554
2022-11-25 16:02:42.405434, 1.71554
2022-11-25 16:02:42.405604, 1.71065
2022-11-25 16:02:42.438347, 1.71554
2022-11-25 16:02:42.438606, 1.71065
2022-11-25 16:02:42.438777, 1.70577
2022-11-25 16:02:42.471584, 1.70577
2022-11-25 16:02:42.471833, 1.70577
2022-11-25 16:02:42.472005, 1.70088
2022-11-25 16:02:42.472165, 1.70088
2022-11-25 16:02:42.504917, 1.70088
2022-11-25 16:02:42.505117, 1.70088
2022-11-25 16:02:42.505244, 1.69599
2022-11-25 16:02:42.538186, 1.69110
2022-11-25 16:02:42.538420, 1.69599
2022-11-25 16:02:42.538592, 1.69599
2022-11-25 16:02:42.538745, 1.69110
2022-11-25 16:02:42.571530, 1.73021
2022-11-25 16:02:42.571783, 1.70577
2022-11-25 16:02:42.571951, 1.70577
2022-11-25 16:02:42.604720, 1.70577
2022-11-25 16:02:42.605006, 1.71554
2022-11-25 16:02:42.605181, 1.69599
2022-11-25 16:02:42.605348, 1.69599
2022-11-25 16:02:42.638110, 1.70088
2022-11-25 16:02:42.638355, 1.69599
2022-11-25 16:02:42.638522, 1.69110
2022-11-25 16:02:42.638680, 1.69110
2022-11-25 16:02:42.671480, 1.68622
2022-11-25 16:02:42.671734, 1.68622
2022-11-25 16:02:42.671905, 1.68622
2022-11-25 16:02:42.704659, 1.68133
2022-11-25 16:02:42.704909, 1.68133
2022-11-25 16:02:42.705073, 1.68133
2022-11-25 16:02:42.705229, 1.68133
2022-11-25 16:02:42.738079, 1.68133
2022-11-25 16:02:42.738341, 1.68133
2022-11-25 16:02:42.738510, 1.67644
2022-11-25 16:02:42.771284, 1.67644
2022-11-25 16:02:42.771546, 1.67155
2022-11-25 16:02:42.771718, 1.67644
2022-11-25 16:02:42.771877, 1.67644
2022-11-25 16:02:42.804637, 1.67644
2022-11-25 16:02:42.804836, 1.67155
2022-11-25 16:02:42.804955, 1.67155
2022-11-25 16:02:42.837876, 1.66178
2022-11-25 16:02:42.838086, 1.66667
2022-11-25 16:02:42.838231, 1.67155
2022-11-25 16:02:42.838344, 1.66667
2022-11-25 16:02:42.871234, 1.66667
2022-11-25 16:02:42.871491, 1.67155
2022-11-25 16:02:42.871664, 1.67644
2022-11-25 16:02:42.904374, 1.66667
2022-11-25 16:02:42.904646, 1.66178
2022-11-25 16:02:42.904816, 1.69599
2022-11-25 16:02:42.904975, 1.68133
2022-11-25 16:02:42.937746, 1.70088
2022-11-25 16:02:42.937996, 1.66667
2022-11-25 16:02:42.938169, 1.66178
2022-11-25 16:02:42.938329, 1.66178
2022-11-25 16:02:42.971129, 1.66178
2022-11-25 16:02:42.971380, 1.68133
2022-11-25 16:02:42.971552, 1.67644
2022-11-25 16:02:43.004320, 1.69599
2022-11-25 16:02:43.004522, 1.71554
2022-11-25 16:02:43.004647, 1.73509
2022-11-25 16:02:43.004769, 1.75953
2022-11-25 16:02:43.037710, 1.78397
2022-11-25 16:02:43.037935, 1.80352
2022-11-25 16:02:43.038100, 1.80841
2022-11-25 16:02:43.070989, 1.81329
2022-11-25 16:02:43.071244, 1.81329
2022-11-25 16:02:43.071417, 1.80841
2022-11-25 16:02:43.071588, 1.82307
2022-11-25 16:02:43.104294, 1.79374
2022-11-25 16:02:43.104444, 1.80352
2022-11-25 16:02:43.104540, 1.77908
2022-11-25 16:02:43.137551, 1.78397
2022-11-25 16:02:43.137757, 1.76931
2022-11-25 16:02:43.137885, 1.80352
2022-11-25 16:02:43.138004, 1.75464
2022-11-25 16:02:43.170901, 1.79863
2022-11-25 16:02:43.171154, 1.75464
2022-11-25 16:02:43.171325, 1.78886
2022-11-25 16:02:43.204119, 1.76442
2022-11-25 16:02:43.204330, 1.79374
2022-11-25 16:02:43.204457, 1.76442
2022-11-25 16:02:43.204582, 1.76931
2022-11-25 16:02:43.237492, 1.75953
2022-11-25 16:02:43.237749, 1.76442
2022-11-25 16:02:43.237924, 1.75464
2022-11-25 16:02:43.238085, 1.74976
2022-11-25 16:02:43.270814, 1.74487
2022-11-25 16:02:43.271018, 1.73998
2022-11-25 16:02:43.271138, 1.74487
2022-11-25 16:02:43.304053, 1.74487
2022-11-25 16:02:43.304243, 1.73998
2022-11-25 16:02:43.304363, 1.73998
2022-11-25 16:02:43.304481, 1.74487
2022-11-25 16:02:43.337385, 1.74976
2022-11-25 16:02:43.337545, 1.73998
2022-11-25 16:02:43.337637, 1.74487
2022-11-25 16:02:43.370637, 1.73509
2022-11-25 16:02:43.370869, 1.73509
2022-11-25 16:02:43.371032, 1.73509
2022-11-25 16:02:43.371191, 1.73021
2022-11-25 16:02:43.404005, 1.74487
2022-11-25 16:02:43.404244, 1.76442
2022-11-25 16:02:43.404414, 1.72532
2022-11-25 16:02:43.437230, 1.74487
2022-11-25 16:02:43.437475, 1.72043
2022-11-25 16:02:43.437650, 1.71554
2022-11-25 16:02:43.437814, 1.71065
2022-11-25 16:02:43.470635, 1.71065
2022-11-25 16:02:43.470885, 1.70577
2022-11-25 16:02:43.471055, 1.70577
2022-11-25 16:02:43.503803, 1.70577
2022-11-25 16:02:43.504077, 1.70088
2022-11-25 16:02:43.504248, 1.70088
2022-11-25 16:02:43.504411, 1.70088
2022-11-25 16:02:43.537179, 1.70088
2022-11-25 16:02:43.537426, 1.69599
2022-11-25 16:02:43.537620, 1.70088
2022-11-25 16:02:43.537777, 1.72532
2022-11-25 16:02:43.570548, 1.71554
2022-11-25 16:02:43.570790, 1.72043
2022-11-25 16:02:43.570970, 1.71065
2022-11-25 16:02:43.603759, 1.70577
2022-11-25 16:02:43.603945, 1.69599
2022-11-25 16:02:43.604067, 1.69599
2022-11-25 16:02:43.604185, 1.69110
2022-11-25 16:02:43.637091, 1.69599
2022-11-25 16:02:43.637273, 1.69110
2022-11-25 16:02:43.637393, 1.68622
2022-11-25 16:02:43.670343, 1.69599
2022-11-25 16:02:43.670597, 1.68622
2022-11-25 16:02:43.670770, 1.68622
2022-11-25 16:02:43.670929, 1.68133
2022-11-25 16:02:43.703701, 1.69110
2022-11-25 16:02:43.703886, 1.67644
2022-11-25 16:02:43.704008, 1.68622
2022-11-25 16:02:43.736952, 1.69110
2022-11-25 16:02:43.737206, 1.68133
2022-11-25 16:02:43.737385, 1.68133
2022-11-25 16:02:43.737543, 1.71554
2022-11-25 16:02:43.770286, 1.71065
2022-11-25 16:02:43.770435, 1.70577
2022-11-25 16:02:43.770525, 1.70088
2022-11-25 16:02:43.803495, 1.67644
2022-11-25 16:02:43.803653, 1.68622
2022-11-25 16:02:43.803739, 1.69110
2022-11-25 16:02:43.803830, 1.67644
2022-11-25 16:02:43.836873, 1.68133
2022-11-25 16:02:43.837028, 1.67155
2022-11-25 16:02:43.837119, 1.66667
2022-11-25 16:02:43.837203, 1.67155
2022-11-25 16:02:43.870209, 1.66667
2022-11-25 16:02:43.870361, 1.67155
2022-11-25 16:02:43.870451, 1.66667
2022-11-25 16:02:43.903476, 1.67155
2022-11-25 16:02:43.903672, 1.66667
2022-11-25 16:02:43.903798, 1.66667
2022-11-25 16:02:43.903922, 1.66178
2022-11-25 16:02:43.936792, 1.66178
2022-11-25 16:02:43.936975, 1.67155
2022-11-25 16:02:43.937096, 1.69599
2022-11-25 16:02:43.970054, 1.66667
2022-11-25 16:02:43.970245, 1.66178
2022-11-25 16:02:43.970369, 1.66667
2022-11-25 16:02:43.970486, 1.67155
2022-11-25 16:02:44.003431, 1.69110
2022-11-25 16:02:44.003675, 1.70577
2022-11-25 16:02:44.003853, 1.73021
2022-11-25 16:02:44.036646, 1.74976
2022-11-25 16:02:44.036897, 1.77419
2022-11-25 16:02:44.037074, 1.79374
2022-11-25 16:02:44.037233, 1.79863
2022-11-25 16:02:44.070073, 1.80841
2022-11-25 16:02:44.070325, 1.80841
2022-11-25 16:02:44.070497, 1.82796
2022-11-25 16:02:44.103236, 1.80352
2022-11-25 16:02:44.103395, 1.82796
2022-11-25 16:02:44.103494, 1.77908
2022-11-25 16:02:44.103577, 1.76931
2022-11-25 16:02:44.136598, 1.77419
2022-11-25 16:02:44.136852, 1.75464
2022-11-25 16:02:44.137027, 1.77419
2022-11-25 16:02:44.137194, 1.74487
2022-11-25 16:02:44.169902, 1.78397
2022-11-25 16:02:44.170082, 1.74487
2022-11-25 16:02:44.170203, 1.73509
2022-11-25 16:02:44.203267, 1.74487
2022-11-25 16:02:44.203524, 1.74487
2022-11-25 16:02:44.203696, 1.74487
2022-11-25 16:02:44.203860, 1.77419
2022-11-25 16:02:44.236562, 1.76931
2022-11-25 16:02:44.236750, 1.75464
2022-11-25 16:02:44.236870, 1.73021
2022-11-25 16:02:44.269764, 1.73021
2022-11-25 16:02:44.269936, 1.73021
2022-11-25 16:02:44.270052, 1.73021
2022-11-25 16:02:44.270165, 1.73021
2022-11-25 16:02:44.303057, 1.76931
2022-11-25 16:02:44.303186, 1.75953
2022-11-25 16:02:44.303272, 1.74487
2022-11-25 16:02:44.336352, 1.74976
2022-11-25 16:02:44.336493, 1.73509
2022-11-25 16:02:44.336583, 1.73021
2022-11-25 16:02:44.336667, 1.72532
2022-11-25 16:02:44.369745, 1.72532
2022-11-25 16:02:44.369983, 1.72532
2022-11-25 16:02:44.370151, 1.72532
2022-11-25 16:02:44.402935, 1.72043
2022-11-25 16:02:44.403132, 1.71065
2022-11-25 16:02:44.403261, 1.72043
2022-11-25 16:02:44.403376, 1.73509
2022-11-25 16:02:44.436341, 1.74487
2022-11-25 16:02:44.436568, 1.73509
2022-11-25 16:02:44.436733, 1.71065
2022-11-25 16:02:44.436892, 1.70577
2022-11-25 16:02:44.469756, 1.70088
2022-11-25 16:02:44.470168, 1.69599
2022-11-25 16:02:44.470352, 1.70577
2022-11-25 16:02:44.502857, 1.69110
2022-11-25 16:02:44.503005, 1.69110
2022-11-25 16:02:44.503094, 1.69110
2022-11-25 16:02:44.503183, 1.69110
2022-11-25 16:02:44.536238, 1.69110
2022-11-25 16:02:44.536413, 1.69110
2022-11-25 16:02:44.536534, 1.68622
2022-11-25 16:02:44.569561, 1.68622
2022-11-25 16:02:44.569762, 1.69110
2022-11-25 16:02:44.569885, 1.71065
2022-11-25 16:02:44.570003, 1.69110
2022-11-25 16:02:44.602735, 1.69110
2022-11-25 16:02:44.602928, 1.68133
2022-11-25 16:02:44.603054, 1.67644
2022-11-25 16:02:44.636142, 1.67644
2022-11-25 16:02:44.636382, 1.67644
2022-11-25 16:02:44.636510, 1.67644
2022-11-25 16:02:44.636627, 1.67644
2022-11-25 16:02:44.669490, 1.67644
2022-11-25 16:02:44.669739, 1.67644
2022-11-25 16:02:44.669908, 1.67644
2022-11-25 16:02:44.702645, 1.67155
2022-11-25 16:02:44.702878, 1.67644
2022-11-25 16:02:44.703002, 1.67155
2022-11-25 16:02:44.703120, 1.67644
2022-11-25 16:02:44.735994, 1.67155
2022-11-25 16:02:44.736317, 1.66667
2022-11-25 16:02:44.736496, 1.67644
2022-11-25 16:02:44.736662, 1.67155
2022-11-25 16:02:44.769320, 1.70088
2022-11-25 16:02:44.769645, 1.69599
2022-11-25 16:02:44.769822, 1.66178
2022-11-25 16:02:44.802522, 1.66178
2022-11-25 16:02:44.802797, 1.65689
2022-11-25 16:02:44.802943, 1.65689
2022-11-25 16:02:44.803058, 1.65689
2022-11-25 16:02:44.835840, 1.65689
2022-11-25 16:02:44.836031, 1.65689
2022-11-25 16:02:44.836139, 1.65689
2022-11-25 16:02:44.869111, 1.66667
2022-11-25 16:02:44.869363, 1.65689
2022-11-25 16:02:44.869537, 1.65200
2022-11-25 16:02:44.869663, 1.65200
2022-11-25 16:02:44.902476, 1.65200
2022-11-25 16:02:44.902716, 1.68622
2022-11-25 16:02:44.903032, 1.65200
2022-11-25 16:02:44.935707, 1.65689
2022-11-25 16:02:44.935892, 1.66667
2022-11-25 16:02:44.936026, 1.68133
2022-11-25 16:02:44.936247, 1.69110
2022-11-25 16:02:44.969175, 1.71065
2022-11-25 16:02:44.969395, 1.73021
2022-11-25 16:02:44.969514, 1.75953
2022-11-25 16:02:45.002288, 1.77908
2022-11-25 16:02:45.002549, 1.82307
2022-11-25 16:02:45.002728, 1.79374
2022-11-25 16:02:45.002896, 1.82796
2022-11-25 16:02:45.035628, 1.79863
2022-11-25 16:02:45.035834, 1.82796
2022-11-25 16:02:45.035944, 1.78397
2022-11-25 16:02:45.036031, 1.77908
2022-11-25 16:02:45.069007, 1.77419
2022-11-25 16:02:45.069224, 1.76442
2022-11-25 16:02:45.069408, 1.76931
2022-11-25 16:02:45.102222, 1.75953
2022-11-25 16:02:45.102403, 1.75464
2022-11-25 16:02:45.102528, 1.75464
2022-11-25 16:02:45.102702, 1.74976
2022-11-25 16:02:45.135576, 1.74976
2022-11-25 16:02:45.135749, 1.77908
2022-11-25 16:02:45.135949, 1.74976
2022-11-25 16:02:45.168832, 1.75464
2022-11-25 16:02:45.169067, 1.74487
2022-11-25 16:02:45.169236, 1.74976
2022-11-25 16:02:45.169410, 1.74487
2022-11-25 16:02:45.202225, 1.75953
2022-11-25 16:02:45.202466, 1.73998
2022-11-25 16:02:45.202643, 1.73509
2022-11-25 16:02:45.235457, 1.73509
2022-11-25 16:02:45.235694, 1.73021
2022-11-25 16:02:45.235874, 1.74487
2022-11-25 16:02:45.236038, 1.73021
2022-11-25 16:02:45.268749, 1.72532
2022-11-25 16:02:45.268927, 1.72532
2022-11-25 16:02:45.269052, 1.73021
2022-11-25 16:02:45.302068, 1.72532
2022-11-25 16:02:45.302343, 1.73509
2022-11-25 16:02:45.302524, 1.73021
2022-11-25 16:02:45.302690, 1.75953
2022-11-25 16:02:45.335290, 1.73021
2022-11-25 16:02:45.335385, 1.72532
2022-11-25 16:02:45.335464, 1.73021
2022-11-25 16:02:45.335541, 1.72043
2022-11-25 16:02:45.368659, 1.71554
2022-11-25 16:02:45.368799, 1.71554
2022-11-25 16:02:45.368899, 1.71554
2022-11-25 16:02:45.401971, 1.71065
2022-11-25 16:02:45.402206, 1.70577
2022-11-25 16:02:45.402378, 1.74976
2022-11-25 16:02:45.402550, 1.72532
2022-11-25 16:02:45.435254, 1.71065
2022-11-25 16:02:45.435425, 1.72043
2022-11-25 16:02:45.435543, 1.70577
2022-11-25 16:02:45.468545, 1.69599
2022-11-25 16:02:45.468782, 1.69599
2022-11-25 16:02:45.468935, 1.69599
2022-11-25 16:02:45.469064, 1.69110
2022-11-25 16:02:45.501895, 1.69599
2022-11-25 16:02:45.502141, 1.69110
2022-11-25 16:02:45.502318, 1.68622
2022-11-25 16:02:45.535121, 1.68622
2022-11-25 16:02:45.535304, 1.69110
2022-11-25 16:02:45.535427, 1.72532
2022-11-25 16:02:45.535551, 1.69110
2022-11-25 16:02:45.568435, 1.70088
2022-11-25 16:02:45.568600, 1.69599
2022-11-25 16:02:45.568723, 1.70577
2022-11-25 16:02:45.601699, 1.69110
2022-11-25 16:02:45.601899, 1.68622
2022-11-25 16:02:45.602026, 1.69110
2022-11-25 16:02:45.602141, 1.68622
2022-11-25 16:02:45.635089, 1.69110
2022-11-25 16:02:45.635273, 1.68622
2022-11-25 16:02:45.635401, 1.68622
2022-11-25 16:02:45.635527, 1.67644
2022-11-25 16:02:45.668431, 1.68622
2022-11-25 16:02:45.668657, 1.68133
2022-11-25 16:02:45.668820, 1.67644
2022-11-25 16:02:45.701652, 1.67644
2022-11-25 16:02:45.701883, 1.67644
2022-11-25 16:02:45.702056, 1.67644
2022-11-25 16:02:45.702215, 1.67644
2022-11-25 16:02:45.734980, 1.67644
2022-11-25 16:02:45.735126, 1.67644
2022-11-25 16:02:45.735220, 1.66667
2022-11-25 16:02:45.768218, 1.67644
2022-11-25 16:02:45.768399, 1.67155
2022-11-25 16:02:45.768531, 1.67155
2022-11-25 16:02:45.768645, 1.66667
2022-11-25 16:02:45.801582, 1.67155
2022-11-25 16:02:45.801762, 1.70088
2022-11-25 16:02:45.801889, 1.69110
2022-11-25 16:02:45.834845, 1.67155
2022-11-25 16:02:45.834981, 1.67155
2022-11-25 16:02:45.835065, 1.67155
2022-11-25 16:02:45.835141, 1.66667
2022-11-25 16:02:45.868172, 1.66667
2022-11-25 16:02:45.868355, 1.66667
2022-11-25 16:02:45.868482, 1.66667
2022-11-25 16:02:45.901403, 1.65689
2022-11-25 16:02:45.901554, 1.67155
2022-11-25 16:02:45.901648, 1.66667
2022-11-25 16:02:45.901734, 1.67155
2022-11-25 16:02:45.934806, 1.67644
2022-11-25 16:02:45.935047, 1.68622
2022-11-25 16:02:45.935219, 1.72043
2022-11-25 16:02:45.935381, 1.73998
2022-11-25 16:02:45.968140, 1.75464
2022-11-25 16:02:45.968318, 1.76931
2022-11-25 16:02:45.968442, 1.79374
2022-11-25 16:02:46.001400, 1.80352
2022-11-25 16:02:46.001644, 1.84751
2022-11-25 16:02:46.001817, 1.81818
2022-11-25 16:02:46.001977, 1.81329
2022-11-25 16:02:46.034672, 1.80841
2022-11-25 16:02:46.034819, 1.80352
2022-11-25 16:02:46.034914, 1.79374
2022-11-25 16:02:46.067934, 1.78886
2022-11-25 16:02:46.068113, 1.77419
2022-11-25 16:02:46.068238, 1.76931
2022-11-25 16:02:46.068357, 1.76442
2022-11-25 16:02:46.101281, 1.75953
2022-11-25 16:02:46.101457, 1.75464
2022-11-25 16:02:46.101580, 1.75953
2022-11-25 16:02:46.134538, 1.75953
2022-11-25 16:02:46.134715, 1.75464
2022-11-25 16:02:46.134842, 1.79374
2022-11-25 16:02:46.134960, 1.75464
2022-11-25 16:02:46.167975, 1.79863
2022-11-25 16:02:46.168222, 1.75464
2022-11-25 16:02:46.168393, 1.76931
2022-11-25 16:02:46.201115, 1.75464
2022-11-25 16:02:46.201272, 1.75953
2022-11-25 16:02:46.201366, 1.73998
2022-11-25 16:02:46.201453, 1.73998
2022-11-25 16:02:46.234475, 1.74487
2022-11-25 16:02:46.234701, 1.73998
2022-11-25 16:02:46.234871, 1.74976
2022-11-25 16:02:46.235029, 1.74976
2022-11-25 16:02:46.267741, 1.73998
2022-11-25 16:02:46.267925, 1.73998
2022-11-25 16:02:46.268056, 1.73998
2022-11-25 16:02:46.301070, 1.73509
2022-11-25 16:02:46.301242, 1.73509
2022-11-25 16:02:46.301362, 1.73509
2022-11-25 16:02:46.301483, 1.75464
2022-11-25 16:02:46.334394, 1.76442
2022-11-25 16:02:46.334542, 1.75953
2022-11-25 16:02:46.334637, 1.73509
2022-11-25 16:02:46.367659, 1.73021
2022-11-25 16:02:46.367810, 1.72043
2022-11-25 16:02:46.367907, 1.72043
2022-11-25 16:02:46.367993, 1.71554
2022-11-25 16:02:46.400986, 1.71554
2022-11-25 16:02:46.401162, 1.71065
2022-11-25 16:02:46.401288, 1.71065
2022-11-25 16:02:46.434245, 1.71065
2022-11-25 16:02:46.434437, 1.71554
2022-11-25 16:02:46.434562, 1.70577
2022-11-25 16:02:46.434684, 1.73021
2022-11-25 16:02:46.467604, 1.73021
2022-11-25 16:02:46.467782, 1.71065
2022-11-25 16:02:46.467905, 1.70088
2022-11-25 16:02:46.500893, 1.69599
2022-11-25 16:02:46.501142, 1.69599
2022-11-25 16:02:46.501320, 1.69599
2022-11-25 16:02:46.501478, 1.69110
2022-11-25 16:02:46.534174, 1.69599
2022-11-25 16:02:46.534352, 1.69599
2022-11-25 16:02:46.534474, 1.69599
2022-11-25 16:02:46.534598, 1.69599
2022-11-25 16:02:46.567486, 1.73021
2022-11-25 16:02:46.567661, 1.70577
2022-11-25 16:02:46.567783, 1.70577
2022-11-25 16:02:46.600786, 1.69110
2022-11-25 16:02:46.601084, 1.69110
2022-11-25 16:02:46.601215, 1.69110
2022-11-25 16:02:46.601332, 1.69110
2022-11-25 16:02:46.634286, 1.69110
2022-11-25 16:02:46.634518, 1.68622
2022-11-25 16:02:46.634688, 1.68622
2022-11-25 16:02:46.667342, 1.68622
2022-11-25 16:02:46.667480, 1.68622
2022-11-25 16:02:46.667574, 1.68622
2022-11-25 16:02:46.667659, 1.68133
2022-11-25 16:02:46.700726, 1.70577
2022-11-25 16:02:46.700916, 1.69110
2022-11-25 16:02:46.701041, 1.68622
2022-11-25 16:02:46.734001, 1.68133
2022-11-25 16:02:46.734198, 1.68133
2022-11-25 16:02:46.734327, 1.68133
2022-11-25 16:02:46.734444, 1.67644
2022-11-25 16:02:46.767321, 1.67644
2022-11-25 16:02:46.767494, 1.67644
2022-11-25 16:02:46.767615, 1.68622
2022-11-25 16:02:46.800562, 1.69110
2022-11-25 16:02:46.800767, 1.70577
2022-11-25 16:02:46.800895, 1.73021
2022-11-25 16:02:46.801014, 1.73998
2022-11-25 16:02:46.833789, 1.77419
2022-11-25 16:02:46.833943, 1.81818
2022-11-25 16:02:46.834028, 1.80352
2022-11-25 16:02:46.834125, 1.83773
2022-11-25 16:02:46.867259, 1.81329
2022-11-25 16:02:46.867404, 1.81329
2022-11-25 16:02:46.867501, 1.81329
2022-11-25 16:02:46.900532, 1.80352
2022-11-25 16:02:46.900690, 1.81329
2022-11-25 16:02:46.900789, 1.79374
2022-11-25 16:02:46.900873, 1.82307
2022-11-25 16:02:46.933907, 1.78397
2022-11-25 16:02:46.934081, 1.80352
2022-11-25 16:02:46.934207, 1.77908
2022-11-25 16:02:46.967120, 1.78886
2022-11-25 16:02:46.967345, 1.77419
2022-11-25 16:02:46.967468, 1.77908
2022-11-25 16:02:46.967586, 1.77908
2022-11-25 16:02:47.000444, 1.78397
2022-11-25 16:02:47.000676, 1.78397
2022-11-25 16:02:47.000842, 1.78397
2022-11-25 16:02:47.033692, 1.78886
2022-11-25 16:02:47.033871, 1.78397
2022-11-25 16:02:47.033996, 1.80841
2022-11-25 16:02:47.034110, 1.76931
2022-11-25 16:02:47.067038, 1.76931
2022-11-25 16:02:47.067188, 1.75953
2022-11-25 16:02:47.067283, 1.75953
2022-11-25 16:02:47.100247, 1.74976
2022-11-25 16:02:47.100439, 1.78886
2022-11-25 16:02:47.100596, 1.76931
2022-11-25 16:02:47.100711, 1.75953
2022-11-25 16:02:47.133566, 1.75953
2022-11-25 16:02:47.133757, 1.75464
2022-11-25 16:02:47.133934, 1.75953
2022-11-25 16:02:47.134080, 1.75464
2022-11-25 16:02:47.167009, 1.75953
2022-11-25 16:02:47.167285, 1.75464
2022-11-25 16:02:47.167504, 1.75464
2022-11-25 16:02:47.200221, 1.75464
2022-11-25 16:02:47.200456, 1.74976
2022-11-25 16:02:47.200599, 1.74976
2022-11-25 16:02:47.200718, 1.74487
2022-11-25 16:02:47.233455, 1.73998
2022-11-25 16:02:47.233648, 1.73998
2022-11-25 16:02:47.233751, 1.73509
2022-11-25 16:02:47.266742, 1.73509
2022-11-25 16:02:47.266892, 1.74976
2022-11-25 16:02:47.266983, 1.76931
2022-11-25 16:02:47.267094, 1.76442
2022-11-25 16:02:47.300085, 1.74487
2022-11-25 16:02:47.300250, 1.73509
2022-11-25 16:02:47.300431, 1.73509
2022-11-25 16:02:47.333357, 1.72043
2022-11-25 16:02:47.333507, 1.71065
2022-11-25 16:02:47.333599, 1.72043
2022-11-25 16:02:47.333682, 1.71554
2022-11-25 16:02:47.366947, 1.72043
2022-11-25 16:02:47.367260, 1.71065
2022-11-25 16:02:47.367538, 1.71554
2022-11-25 16:02:47.399886, 1.71065
2022-11-25 16:02:47.400083, 1.71065
2022-11-25 16:02:47.400195, 1.71065
2022-11-25 16:02:47.400316, 1.70577
2022-11-25 16:02:47.433232, 1.71065
2022-11-25 16:02:47.433431, 1.71065
2022-11-25 16:02:47.433533, 1.71065
2022-11-25 16:02:47.433624, 1.70577
2022-11-25 16:02:47.466549, 1.70577
2022-11-25 16:02:47.466733, 1.70577
2022-11-25 16:02:47.466824, 1.73021
2022-11-25 16:02:47.499902, 1.73998
2022-11-25 16:02:47.500135, 1.72532
2022-11-25 16:02:47.500397, 1.72043
2022-11-25 16:02:47.500594, 1.70088
2022-11-25 16:02:47.533224, 1.70577
2022-11-25 16:02:47.533394, 1.69599
2022-11-25 16:02:47.533575, 1.69599
2022-11-25 16:02:47.566408, 1.68622
2022-11-25 16:02:47.566527, 1.70088
2022-11-25 16:02:47.566612, 1.69110
2022-11-25 16:02:47.566748, 1.69110
2022-11-25 16:02:47.599775, 1.69110
2022-11-25 16:02:47.600031, 1.69599
2022-11-25 16:02:47.600246, 1.69110
2022-11-25 16:02:47.632958, 1.69110
2022-11-25 16:02:47.633083, 1.69599
2022-11-25 16:02:47.633166, 1.72532
2022-11-25 16:02:47.633327, 1.71065
2022-11-25 16:02:47.666429, 1.70088
2022-11-25 16:02:47.666651, 1.69599
2022-11-25 16:02:47.666889, 1.70577
2022-11-25 16:02:47.699612, 1.72532
2022-11-25 16:02:47.699802, 1.73509
2022-11-25 16:02:47.699968, 1.71554
2022-11-25 16:02:47.700155, 1.72043
2022-11-25 16:02:47.732938, 1.72532
2022-11-25 16:02:47.733132, 1.73021
2022-11-25 16:02:47.733333, 1.73998
2022-11-25 16:02:47.733483, 1.74976
2022-11-25 16:02:47.766264, 1.76931
2022-11-25 16:02:47.766438, 1.79374
2022-11-25 16:02:47.766563, 1.81329
2022-11-25 16:02:47.799556, 1.82796
2022-11-25 16:02:47.799727, 1.82796
2022-11-25 16:02:47.799902, 1.88172
2022-11-25 16:02:47.800050, 1.84751
2022-11-25 16:02:47.832848, 1.84751
2022-11-25 16:02:47.832988, 1.84751
2022-11-25 16:02:47.833115, 1.81818
2022-11-25 16:02:47.866209, 1.83284
2022-11-25 16:02:47.866396, 1.81329
2022-11-25 16:02:47.866619, 1.80841
2022-11-25 16:02:47.866749, 1.80352
2022-11-25 16:02:47.899454, 1.82307
2022-11-25 16:02:47.899586, 1.80352
2022-11-25 16:02:47.899728, 1.80841
2022-11-25 16:02:47.932795, 1.80352
2022-11-25 16:02:47.932957, 1.84751
2022-11-25 16:02:47.933121, 1.80841
2022-11-25 16:02:47.933271, 1.80352
2022-11-25 16:02:47.966199, 1.82796
2022-11-25 16:02:47.966412, 1.80841
2022-11-25 16:02:47.966574, 1.82796
2022-11-25 16:02:47.999448, 1.80352
2022-11-25 16:02:47.999709, 1.82307
2022-11-25 16:02:47.999884, 1.80352
2022-11-25 16:02:48.000045, 1.80352
2022-11-25 16:02:48.032656, 1.79374
2022-11-25 16:02:48.032779, 1.78886
2022-11-25 16:02:48.032906, 1.79374
2022-11-25 16:02:48.033009, 1.78886
2022-11-25 16:02:48.066034, 1.82307
2022-11-25 16:02:48.066176, 1.80841
2022-11-25 16:02:48.066292, 1.79374
2022-11-25 16:02:48.099234, 1.78886
2022-11-25 16:02:48.099366, 1.78886
2022-11-25 16:02:48.099453, 1.78397
2022-11-25 16:02:48.099552, 1.78397
2022-11-25 16:02:48.132558, 1.78397
2022-11-25 16:02:48.132669, 1.78397
2022-11-25 16:02:48.132752, 1.77419
2022-11-25 16:02:48.165935, 1.77908
2022-11-25 16:02:48.166312, 1.79374
2022-11-25 16:02:48.166503, 1.78886
2022-11-25 16:02:48.166664, 1.77419
2022-11-25 16:02:48.199153, 1.77419
2022-11-25 16:02:48.199390, 1.76442
2022-11-25 16:02:48.199523, 1.76442
2022-11-25 16:02:48.232399, 1.76442
2022-11-25 16:02:48.232587, 1.76931
2022-11-25 16:02:48.232676, 1.75464
2022-11-25 16:02:48.232765, 1.75464
2022-11-25 16:02:48.265775, 1.75464
2022-11-25 16:02:48.266045, 1.75464
2022-11-25 16:02:48.266187, 1.75953
2022-11-25 16:02:48.299015, 1.74976
2022-11-25 16:02:48.299157, 1.75464
2022-11-25 16:02:48.299245, 1.78397
2022-11-25 16:02:48.299433, 1.74976
2022-11-25 16:02:48.332434, 1.74976
2022-11-25 16:02:48.332859, 1.74487
2022-11-25 16:02:48.333053, 1.77908
2022-11-25 16:02:48.333214, 1.75464
2022-11-25 16:02:48.365747, 1.77908
2022-11-25 16:02:48.365911, 1.74487
2022-11-25 16:02:48.366152, 1.74976
2022-11-25 16:02:48.399012, 1.74976
2022-11-25 16:02:48.399174, 1.73998
2022-11-25 16:02:48.399395, 1.73998
2022-11-25 16:02:48.399515, 1.73509
2022-11-25 16:02:48.432244, 1.73998
2022-11-25 16:02:48.432371, 1.73509
2022-11-25 16:02:48.432522, 1.73509
2022-11-25 16:02:48.465521, 1.73998
2022-11-25 16:02:48.465693, 1.77419
2022-11-25 16:02:48.465824, 1.75464
2022-11-25 16:02:48.465946, 1.75464
2022-11-25 16:02:48.498846, 1.74487
2022-11-25 16:02:48.499029, 1.73998
2022-11-25 16:02:48.499130, 1.73021
2022-11-25 16:02:48.532138, 1.72532
2022-11-25 16:02:48.532378, 1.72532
2022-11-25 16:02:48.532499, 1.72043
2022-11-25 16:02:48.532688, 1.72043
2022-11-25 16:02:48.565426, 1.72043
2022-11-25 16:02:48.565613, 1.72043
2022-11-25 16:02:48.565706, 1.72043
2022-11-25 16:02:48.598701, 1.71065
2022-11-25 16:02:48.598834, 1.71554
2022-11-25 16:02:48.598962, 1.71065
2022-11-25 16:02:48.599067, 1.71065
2022-11-25 16:02:48.632045, 1.71554
2022-11-25 16:02:48.632166, 1.71554
2022-11-25 16:02:48.632295, 1.71065
2022-11-25 16:02:48.632397, 1.70577
2022-11-25 16:02:48.665512, 1.70577
2022-11-25 16:02:48.665725, 1.70577
2022-11-25 16:02:48.666127, 1.70577
2022-11-25 16:02:48.698678, 1.70577
2022-11-25 16:02:48.698805, 1.72043
2022-11-25 16:02:48.698892, 1.73998
2022-11-25 16:02:48.698975, 1.75464
2022-11-25 16:02:48.732072, 1.77908
2022-11-25 16:02:48.732228, 1.79374
2022-11-25 16:02:48.732401, 1.81329
2022-11-25 16:02:48.765332, 1.82796
2022-11-25 16:02:48.765495, 1.83773
2022-11-25 16:02:48.765612, 1.83773
2022-11-25 16:02:48.765786, 1.83773
2022-11-25 16:02:48.798626, 1.83284
2022-11-25 16:02:48.798755, 1.82307
2022-11-25 16:02:48.798842, 1.81818
2022-11-25 16:02:48.831918, 1.80841
2022-11-25 16:02:48.832661, 1.81329
2022-11-25 16:02:48.833089, 1.79374
2022-11-25 16:02:48.833479, 1.82307
2022-11-25 16:02:48.865354, 1.79374
2022-11-25 16:02:48.865546, 1.82796
2022-11-25 16:02:48.865670, 1.79374
2022-11-25 16:02:48.898530, 1.80841
2022-11-25 16:02:48.898725, 1.79863
2022-11-25 16:02:48.898849, 1.80352
2022-11-25 16:02:48.899008, 1.80352
2022-11-25 16:02:48.931913, 1.79863
2022-11-25 16:02:48.932128, 1.82307
2022-11-25 16:02:48.932294, 1.79374
2022-11-25 16:02:48.932551, 1.82307
2022-11-25 16:02:48.965213, 1.78397
2022-11-25 16:02:48.965373, 1.77908
2022-11-25 16:02:48.965489, 1.77908
2022-11-25 16:02:48.998476, 1.77908
2022-11-25 16:02:48.998629, 1.77908
2022-11-25 16:02:48.998743, 1.77908
2022-11-25 16:02:48.998857, 1.78397
2022-11-25 16:02:49.031827, 1.80841
2022-11-25 16:02:49.031980, 1.78397
2022-11-25 16:02:49.032099, 1.77908
2022-11-25 16:02:49.065081, 1.77908
2022-11-25 16:02:49.065286, 1.77419
2022-11-25 16:02:49.065422, 1.76931
2022-11-25 16:02:49.065537, 1.77419
2022-11-25 16:02:49.098376, 1.78886
2022-11-25 16:02:49.098513, 1.77908
2022-11-25 16:02:49.098605, 1.77908
2022-11-25 16:02:49.131673, 1.77419
2022-11-25 16:02:49.131908, 1.76442
2022-11-25 16:02:49.132069, 1.76442
2022-11-25 16:02:49.132228, 1.76442
2022-11-25 16:02:49.164962, 1.75953
2022-11-25 16:02:49.165101, 1.75953
2022-11-25 16:02:49.165187, 1.75953
2022-11-25 16:02:49.198301, 1.75464
2022-11-25 16:02:49.198525, 1.75464
2022-11-25 16:02:49.198652, 1.75464
2022-11-25 16:02:49.198765, 1.74976
2022-11-25 16:02:49.231567, 1.75953
2022-11-25 16:02:49.231642, 1.74487
2022-11-25 16:02:49.231692, 1.78397
2022-11-25 16:02:49.231744, 1.76442
2022-11-25 16:02:49.264844, 1.74976
2022-11-25 16:02:49.264912, 1.75464
2022-11-25 16:02:49.264972, 1.74976
2022-11-25 16:02:49.298142, 1.73998
2022-11-25 16:02:49.298282, 1.73998
2022-11-25 16:02:49.298374, 1.73509
2022-11-25 16:02:49.298463, 1.73509
2022-11-25 16:02:49.331646, 1.73509
2022-11-25 16:02:49.331976, 1.73509
2022-11-25 16:02:49.332248, 1.73509
2022-11-25 16:02:49.364782, 1.73509
2022-11-25 16:02:49.364915, 1.73509
2022-11-25 16:02:49.364998, 1.73509
2022-11-25 16:02:49.365070, 1.73021
2022-11-25 16:02:49.398254, 1.73509
2022-11-25 16:02:49.398493, 1.72532
2022-11-25 16:02:49.398642, 1.72043
2022-11-25 16:02:49.431461, 1.72043
2022-11-25 16:02:49.431715, 1.75953
2022-11-25 16:02:49.431885, 1.73509
2022-11-25 16:02:49.432028, 1.71065
2022-11-25 16:02:49.464848, 1.71554
2022-11-25 16:02:49.465140, 1.71065
2022-11-25 16:02:49.465314, 1.71554
2022-11-25 16:02:49.498018, 1.71065
2022-11-25 16:02:49.498249, 1.71065
2022-11-25 16:02:49.498363, 1.70577
2022-11-25 16:02:49.498453, 1.70577
2022-11-25 16:02:49.531367, 1.70577
2022-11-25 16:02:49.531620, 1.70088
2022-11-25 16:02:49.531745, 1.70088
2022-11-25 16:02:49.531858, 1.70088
2022-11-25 16:02:49.564736, 1.70088
2022-11-25 16:02:49.564986, 1.73509
2022-11-25 16:02:49.565133, 1.69599
2022-11-25 16:02:49.597966, 1.72043
2022-11-25 16:02:49.598228, 1.72532
2022-11-25 16:02:49.598377, 1.69599
2022-11-25 16:02:49.598494, 1.70088
2022-11-25 16:02:49.631327, 1.71065
2022-11-25 16:02:49.631615, 1.71554
2022-11-25 16:02:49.631763, 1.70577
2022-11-25 16:02:49.664534, 1.71554
2022-11-25 16:02:49.664687, 1.73509
2022-11-25 16:02:49.664802, 1.75953
2022-11-25 16:02:49.664897, 1.77908
2022-11-25 16:02:49.697925, 1.79863
2022-11-25 16:02:49.698385, 1.81818
2022-11-25 16:02:49.698577, 1.82796
2022-11-25 16:02:49.731022, 1.84262
2022-11-25 16:02:49.731160, 1.84751
2022-11-25 16:02:49.731275, 1.86217
2022-11-25 16:02:49.731385, 1.83284
2022-11-25 16:02:49.764523, 1.82796
2022-11-25 16:02:49.764972, 1.83773
2022-11-25 16:02:49.765178, 1.81329
2022-11-25 16:02:49.797590, 1.83773
2022-11-25 16:02:49.797743, 1.80841
2022-11-25 16:02:49.797862, 1.83773
2022-11-25 16:02:49.797969, 1.80352
2022-11-25 16:02:49.831103, 1.80352
2022-11-25 16:02:49.831349, 1.80841
2022-11-25 16:02:49.831623, 1.80841
2022-11-25 16:02:49.831783, 1.80841
2022-11-25 16:02:49.864269, 1.81329
2022-11-25 16:02:49.864345, 1.82307
2022-11-25 16:02:49.864406, 1.81329
2022-11-25 16:02:49.897641, 1.80841
2022-11-25 16:02:49.897780, 1.80352
2022-11-25 16:02:49.897861, 1.80352
2022-11-25 16:02:49.897945, 1.78886
2022-11-25 16:02:49.931009, 1.78886
2022-11-25 16:02:49.931205, 1.78397
2022-11-25 16:02:49.931326, 1.78397
2022-11-25 16:02:49.964284, 1.77908
2022-11-25 16:02:49.964545, 1.78397
2022-11-25 16:02:49.964820, 1.78397
2022-11-25 16:02:49.965044, 1.77419
2022-11-25 16:02:49.997552, 1.81329
2022-11-25 16:02:49.997716, 1.81329
2022-11-25 16:02:49.997804, 1.79863
2022-11-25 16:02:50.030835, 1.79374
2022-11-25 16:02:50.031093, 1.78886
2022-11-25 16:02:50.031262, 1.78397
2022-11-25 16:02:50.031560, 1.77419
2022-11-25 16:02:50.064166, 1.77419
2022-11-25 16:02:50.064322, 1.77419
2022-11-25 16:02:50.064423, 1.76931
2022-11-25 16:02:50.097429, 1.76442
2022-11-25 16:02:50.097701, 1.76442
2022-11-25 16:02:50.097875, 1.75953
2022-11-25 16:02:50.098050, 1.76931
2022-11-25 16:02:50.130756, 1.75953
2022-11-25 16:02:50.130948, 1.74487
2022-11-25 16:02:50.131068, 1.75464
2022-11-25 16:02:50.131186, 1.74976
2022-11-25 16:02:50.164169, 1.74976
2022-11-25 16:02:50.164419, 1.74487
2022-11-25 16:02:50.164588, 1.74487
2022-11-25 16:02:50.197377, 1.77908
2022-11-25 16:02:50.197546, 1.75464
2022-11-25 16:02:50.197642, 1.73998
2022-11-25 16:02:50.197731, 1.73998
2022-11-25 16:02:50.230785, 1.73509
2022-11-25 16:02:50.231033, 1.73998
2022-11-25 16:02:50.231203, 1.73509
2022-11-25 16:02:50.263974, 1.72532
2022-11-25 16:02:50.264168, 1.73509
2022-11-25 16:02:50.264289, 1.73509
2022-11-25 16:02:50.264412, 1.73021
2022-11-25 16:02:50.297338, 1.73509
2022-11-25 16:02:50.297603, 1.72532
2022-11-25 16:02:50.297775, 1.73021
2022-11-25 16:02:50.330542, 1.72532
2022-11-25 16:02:50.330739, 1.72532
2022-11-25 16:02:50.330861, 1.72532
2022-11-25 16:02:50.330977, 1.71554
2022-11-25 16:02:50.363955, 1.72532
2022-11-25 16:02:50.364196, 1.71554
2022-11-25 16:02:50.364360, 1.71554
2022-11-25 16:02:50.397137, 1.72043
2022-11-25 16:02:50.397403, 1.71554
2022-11-25 16:02:50.397573, 1.74487
2022-11-25 16:02:50.397739, 1.72532
2022-11-25 16:02:50.430493, 1.72043
2022-11-25 16:02:50.430733, 1.71554
2022-11-25 16:02:50.430896, 1.71065
2022-11-25 16:02:50.431054, 1.70577
2022-11-25 16:02:50.463830, 1.71065
2022-11-25 16:02:50.464059, 1.70577
2022-11-25 16:02:50.464225, 1.70577
2022-11-25 16:02:50.497053, 1.70577
2022-11-25 16:02:50.497234, 1.70577
2022-11-25 16:02:50.497348, 1.70577
2022-11-25 16:02:50.497462, 1.69599
2022-11-25 16:02:50.530465, 1.70088
2022-11-25 16:02:50.530717, 1.69599
2022-11-25 16:02:50.530884, 1.70088
2022-11-25 16:02:50.563670, 1.69599
2022-11-25 16:02:50.563923, 1.69599
2022-11-25 16:02:50.564091, 1.69599
2022-11-25 16:02:50.564257, 1.68622
2022-11-25 16:02:50.597035, 1.69599
2022-11-25 16:02:50.597268, 1.69110
2022-11-25 16:02:50.597431, 1.69599
2022-11-25 16:02:50.630241, 1.69599
2022-11-25 16:02:50.630496, 1.70088
2022-11-25 16:02:50.630668, 1.72043
2022-11-25 16:02:50.630832, 1.76442
2022-11-25 16:02:50.663631, 1.77419
2022-11-25 16:02:50.663873, 1.77908
2022-11-25 16:02:50.664041, 1.79863
2022-11-25 16:02:50.696832, 1.81818
2022-11-25 16:02:50.697106, 1.82796
2022-11-25 16:02:50.697280, 1.84262
2022-11-25 16:02:50.697446, 1.83284
2022-11-25 16:02:50.730212, 1.84751
2022-11-25 16:02:50.730461, 1.82796
2022-11-25 16:02:50.730631, 1.85239
2022-11-25 16:02:50.730793, 1.80841
2022-11-25 16:02:50.763581, 1.84262
2022-11-25 16:02:50.763830, 1.79863
2022-11-25 16:02:50.763998, 1.79374
2022-11-25 16:02:50.796808, 1.78886
2022-11-25 16:02:50.797058, 1.79374
2022-11-25 16:02:50.797227, 1.79374
2022-11-25 16:02:50.797383, 1.78397
2022-11-25 16:02:50.830167, 1.79374
2022-11-25 16:02:50.830403, 1.78886
2022-11-25 16:02:50.830572, 1.79863
2022-11-25 16:02:50.863397, 1.78886
2022-11-25 16:02:50.863652, 1.79374
2022-11-25 16:02:50.863821, 1.78886
2022-11-25 16:02:50.863986, 1.77908
2022-11-25 16:02:50.896718, 1.79374
2022-11-25 16:02:50.896903, 1.77419
2022-11-25 16:02:50.897018, 1.77419
2022-11-25 16:02:50.929995, 1.80352
2022-11-25 16:02:50.930255, 1.77908
2022-11-25 16:02:50.930428, 1.77419
2022-11-25 16:02:50.930586, 1.76931
2022-11-25 16:02:50.963335, 1.76931
2022-11-25 16:02:50.963526, 1.76442
2022-11-25 16:02:50.963649, 1.76931
2022-11-25 16:02:50.996531, 1.76931
2022-11-25 16:02:50.996798, 1.76931
2022-11-25 16:02:50.996971, 1.76442
2022-11-25 16:02:50.997136, 1.76442
2022-11-25 16:02:51.029938, 1.76442
2022-11-25 16:02:51.030206, 1.80352
2022-11-25 16:02:51.030377, 1.77908
2022-11-25 16:02:51.030535, 1.77419
2022-11-25 16:02:51.063263, 1.75953
2022-11-25 16:02:51.063519, 1.75464
2022-11-25 16:02:51.063701, 1.74976
2022-11-25 16:02:51.096507, 1.74487
2022-11-25 16:02:51.096752, 1.73998
2022-11-25 16:02:51.096921, 1.73509
2022-11-25 16:02:51.097089, 1.73509
2022-11-25 16:02:51.129868, 1.73509
2022-11-25 16:02:51.130118, 1.73021
2022-11-25 16:02:51.130283, 1.73021
2022-11-25 16:02:51.163170, 1.73021
2022-11-25 16:02:51.163431, 1.72532
2022-11-25 16:02:51.163604, 1.72532
2022-11-25 16:02:51.163769, 1.73021
2022-11-25 16:02:51.196459, 1.74487
2022-11-25 16:02:51.196707, 1.73998
2022-11-25 16:02:51.196871, 1.73021
2022-11-25 16:02:51.229701, 1.72532
2022-11-25 16:02:51.229963, 1.73509
2022-11-25 16:02:51.230137, 1.71554
2022-11-25 16:02:51.230297, 1.71065
2022-11-25 16:02:51.263036, 1.71065
2022-11-25 16:02:51.263285, 1.70577
2022-11-25 16:02:51.263446, 1.71065
2022-11-25 16:02:51.296222, 1.70577
2022-11-25 16:02:51.296492, 1.70577
2022-11-25 16:02:51.296665, 1.70088
2022-11-25 16:02:51.296823, 1.70088
2022-11-25 16:02:51.329651, 1.70088
2022-11-25 16:02:51.329847, 1.70088
2022-11-25 16:02:51.329971, 1.70088
2022-11-25 16:02:51.330084, 1.69599
2022-11-25 16:02:51.362954, 1.70088
2022-11-25 16:02:51.363150, 1.69110
2022-11-25 16:02:51.363276, 1.69110
2022-11-25 16:02:51.396173, 1.69599
2022-11-25 16:02:51.396422, 1.69110
2022-11-25 16:02:51.396595, 1.69110
2022-11-25 16:02:51.396754, 1.69110
2022-11-25 16:02:51.429617, 1.69599
2022-11-25 16:02:51.429872, 1.68622
2022-11-25 16:02:51.430060, 1.68622
2022-11-25 16:02:51.462789, 1.68622
2022-11-25 16:02:51.462982, 1.68622
2022-11-25 16:02:51.463103, 1.68133
2022-11-25 16:02:51.463225, 1.69110
2022-11-25 16:02:51.496223, 1.68133
2022-11-25 16:02:51.496473, 1.68133
2022-11-25 16:02:51.496640, 1.68133
2022-11-25 16:02:51.529390, 1.67644
2022-11-25 16:02:51.529637, 1.68133
2022-11-25 16:02:51.529805, 1.68133
2022-11-25 16:02:51.529963, 1.68133
2022-11-25 16:02:51.562759, 1.69599
2022-11-25 16:02:51.563014, 1.71065
2022-11-25 16:02:51.563194, 1.72043
2022-11-25 16:02:51.595969, 1.74487
2022-11-25 16:02:51.596238, 1.76442
2022-11-25 16:02:51.596419, 1.78397
2022-11-25 16:02:51.596594, 1.80841
2022-11-25 16:02:51.629345, 1.80841
2022-11-25 16:02:51.629586, 1.82307
2022-11-25 16:02:51.629752, 1.81329
2022-11-25 16:02:51.629905, 1.80841
2022-11-25 16:02:51.662699, 1.80841
2022-11-25 16:02:51.662934, 1.79863
2022-11-25 16:02:51.663105, 1.79374
2022-11-25 16:02:51.695896, 1.82307
2022-11-25 16:02:51.696142, 1.78397
2022-11-25 16:02:51.696306, 1.81329
2022-11-25 16:02:51.696470, 1.78397
2022-11-25 16:02:51.729301, 1.77908
2022-11-25 16:02:51.729543, 1.76931
2022-11-25 16:02:51.729708, 1.77419
2022-11-25 16:02:51.762534, 1.77419
2022-11-25 16:02:51.762796, 1.77908
2022-11-25 16:02:51.762962, 1.77908
2022-11-25 16:02:51.763118, 1.77908
2022-11-25 16:02:51.795875, 1.77419
2022-11-25 16:02:51.796134, 1.77419
2022-11-25 16:02:51.796303, 1.77419
2022-11-25 16:02:51.829142, 1.76442
2022-11-25 16:02:51.829388, 1.75953
2022-11-25 16:02:51.829555, 1.76931
2022-11-25 16:02:51.829718, 1.75953
2022-11-25 16:02:51.862420, 1.74976
2022-11-25 16:02:51.862615, 1.74976
2022-11-25 16:02:51.862732, 1.75464
2022-11-25 16:02:51.895674, 1.74976
2022-11-25 16:02:51.895932, 1.74976
2022-11-25 16:02:51.896099, 1.78886
2022-11-25 16:02:51.896256, 1.74976
2022-11-25 16:02:51.929035, 1.74976
2022-11-25 16:02:51.929294, 1.74487
2022-11-25 16:02:51.929464, 1.74976
2022-11-25 16:02:51.929635, 1.74487
2022-11-25 16:02:51.962434, 1.74976
2022-11-25 16:02:51.962687, 1.73998
2022-11-25 16:02:51.962857, 1.73998
2022-11-25 16:02:51.995645, 1.77419
2022-11-25 16:02:51.995893, 1.73509
2022-11-25 16:02:51.996057, 1.76931
2022-11-25 16:02:51.996222, 1.74487
2022-11-25 16:02:52.028992, 1.73998
2022-11-25 16:02:52.029235, 1.72532
2022-11-25 16:02:52.029406, 1.72043
2022-11-25 16:02:52.062236, 1.72043
2022-11-25 16:02:52.062473, 1.72043
2022-11-25 16:02:52.062641, 1.71554
2022-11-25 16:02:52.062798, 1.71554
2022-11-25 16:02:52.095586, 1.71554
2022-11-25 16:02:52.095809, 1.71554
2022-11-25 16:02:52.095973, 1.71065
2022-11-25 16:02:52.128793, 1.70577
2022-11-25 16:02:52.129037, 1.70577
2022-11-25 16:02:52.129209, 1.70577
2022-11-25 16:02:52.129370, 1.70577
2022-11-25 16:02:52.162202, 1.70088
2022-11-25 16:02:52.162436, 1.69599
2022-11-25 16:02:52.162607, 1.70088
2022-11-25 16:02:52.195350, 1.70088
2022-11-25 16:02:52.195599, 1.69599
2022-11-25 16:02:52.195769, 1.69599
2022-11-25 16:02:52.195925, 1.69599
2022-11-25 16:02:52.228766, 1.69599
2022-11-25 16:02:52.229011, 1.69599
2022-11-25 16:02:52.229171, 1.69599
2022-11-25 16:02:52.229333, 1.69110
2022-11-25 16:02:52.262095, 1.69110
2022-11-25 16:02:52.262336, 1.69110
2022-11-25 16:02:52.262503, 1.69110
2022-11-25 16:02:52.295299, 1.68622
2022-11-25 16:02:52.295526, 1.68622
2022-11-25 16:02:52.295690, 1.68622
2022-11-25 16:02:52.295849, 1.68133
2022-11-25 16:02:52.328679, 1.68622
2022-11-25 16:02:52.328915, 1.68133
2022-11-25 16:02:52.329078, 1.68133
2022-11-25 16:02:52.361894, 1.68133
2022-11-25 16:02:52.362037, 1.68133
2022-11-25 16:02:52.362123, 1.70577
2022-11-25 16:02:52.362213, 1.71554
2022-11-25 16:02:52.395252, 1.69110
2022-11-25 16:02:52.395512, 1.69110
2022-11-25 16:02:52.395681, 1.71065
2022-11-25 16:02:52.428507, 1.69599
2022-11-25 16:02:52.428756, 1.68622
2022-11-25 16:02:52.428923, 1.68133
2022-11-25 16:02:52.429089, 1.67155
2022-11-25 16:02:52.461857, 1.67155
2022-11-25 16:02:52.462091, 1.67644
2022-11-25 16:02:52.462251, 1.67155
2022-11-25 16:02:52.495040, 1.66178
2022-11-25 16:02:52.495327, 1.66667
2022-11-25 16:02:52.495505, 1.66178
2022-11-25 16:02:52.495664, 1.66667
2022-11-25 16:02:52.528453, 1.66667
2022-11-25 16:02:52.528701, 1.66178
2022-11-25 16:02:52.528874, 1.66178
2022-11-25 16:02:52.529037, 1.65689
2022-11-25 16:02:52.561805, 1.66178
2022-11-25 16:02:52.562058, 1.66178
2022-11-25 16:02:52.562225, 1.65689
2022-11-25 16:02:52.595071, 1.66178
2022-11-25 16:02:52.595323, 1.66178
2022-11-25 16:02:52.595490, 1.67155
2022-11-25 16:02:52.595650, 1.68622
2022-11-25 16:02:52.628417, 1.70577
2022-11-25 16:02:52.628681, 1.73021
2022-11-25 16:02:52.628848, 1.74976
2022-11-25 16:02:52.661623, 1.76931
2022-11-25 16:02:52.661863, 1.78886
2022-11-25 16:02:52.662038, 1.79863
2022-11-25 16:02:52.662196, 1.80841
2022-11-25 16:02:52.694973, 1.82307
2022-11-25 16:02:52.695223, 1.80841
2022-11-25 16:02:52.695396, 1.80352
2022-11-25 16:02:52.728239, 1.79863
2022-11-25 16:02:52.728486, 1.78886
2022-11-25 16:02:52.728659, 1.78886
2022-11-25 16:02:52.728819, 1.77419
2022-11-25 16:02:52.761583, 1.76931
2022-11-25 16:02:52.761776, 1.75953
2022-11-25 16:02:52.761898, 1.76442
2022-11-25 16:02:52.794812, 1.75953
2022-11-25 16:02:52.795094, 1.75953
2022-11-25 16:02:52.795272, 1.76442
2022-11-25 16:02:52.795438, 1.76442
2022-11-25 16:02:52.828195, 1.75953
2022-11-25 16:02:52.828454, 1.75464
2022-11-25 16:02:52.828625, 1.75953
2022-11-25 16:02:52.828794, 1.76442
2022-11-25 16:02:52.861495, 1.75953
2022-11-25 16:02:52.861646, 1.75464
2022-11-25 16:02:52.861725, 1.75464
2022-11-25 16:02:52.894778, 1.75464
2022-11-25 16:02:52.895021, 1.73998
2022-11-25 16:02:52.895193, 1.74487
2022-11-25 16:02:52.895349, 1.73998
2022-11-25 16:02:52.928099, 1.73998
2022-11-25 16:02:52.928338, 1.74487
2022-11-25 16:02:52.928498, 1.77419
2022-11-25 16:02:52.961352, 1.74487
2022-11-25 16:02:52.961602, 1.73998
2022-11-25 16:02:52.961769, 1.73509
2022-11-25 16:02:52.962154, 1.73509
2022-11-25 16:02:52.994555, 1.73998
2022-11-25 16:02:52.994716, 1.73509
2022-11-25 16:02:52.994808, 1.73509
2022-11-25 16:02:53.027880, 1.73021
2022-11-25 16:02:53.028086, 1.73021
2022-11-25 16:02:53.028210, 1.76442
2022-11-25 16:02:53.028345, 1.73998
2022-11-25 16:02:53.061256, 1.72532
2022-11-25 16:02:53.061445, 1.72043
2022-11-25 16:02:53.061569, 1.70577
2022-11-25 16:02:53.094494, 1.70577
2022-11-25 16:02:53.094781, 1.70577
2022-11-25 16:02:53.094962, 1.70088
2022-11-25 16:02:53.095128, 1.70088
2022-11-25 16:02:53.127871, 1.69599
2022-11-25 16:02:53.128123, 1.69599
2022-11-25 16:02:53.128292, 1.69110
2022-11-25 16:02:53.128459, 1.69599
2022-11-25 16:02:53.161205, 1.69110
2022-11-25 16:02:53.161400, 1.71554
2022-11-25 16:02:53.161521, 1.72043
2022-11-25 16:02:53.194459, 1.68133
2022-11-25 16:02:53.194711, 1.68622
2022-11-25 16:02:53.194879, 1.67644
2022-11-25 16:02:53.195038, 1.67644
2022-11-25 16:02:53.227763, 1.67644
2022-11-25 16:02:53.228006, 1.67644
2022-11-25 16:02:53.228176, 1.67644
2022-11-25 16:02:53.261034, 1.67155
2022-11-25 16:02:53.261286, 1.67644
2022-11-25 16:02:53.261461, 1.67644
2022-11-25 16:02:53.261622, 1.67644
2022-11-25 16:02:53.294427, 1.68622
2022-11-25 16:02:53.294683, 1.67155
2022-11-25 16:02:53.294852, 1.66667
2022-11-25 16:02:53.327627, 1.67155
2022-11-25 16:02:53.327875, 1.67155
2022-11-25 16:02:53.328053, 1.66667
2022-11-25 16:02:53.328210, 1.66178
2022-11-25 16:02:53.360963, 1.66667
2022-11-25 16:02:53.361159, 1.66667
2022-11-25 16:02:53.361277, 1.66667
2022-11-25 16:02:53.394195, 1.66667
2022-11-25 16:02:53.394416, 1.68133
2022-11-25 16:02:53.394538, 1.66178
2022-11-25 16:02:53.394655, 1.67155
2022-11-25 16:02:53.427596, 1.68133
2022-11-25 16:02:53.427847, 1.66178
2022-11-25 16:02:53.428022, 1.65689
2022-11-25 16:02:53.428186, 1.66178
2022-11-25 16:02:53.460928, 1.65200
2022-11-25 16:02:53.461239, 1.64712
2022-11-25 16:02:53.461438, 1.64712
2022-11-25 16:02:53.494110, 1.64712
2022-11-25 16:02:53.494367, 1.64712
2022-11-25 16:02:53.494535, 1.64712
2022-11-25 16:02:53.494697, 1.64712
2022-11-25 16:02:53.527528, 1.64712
2022-11-25 16:02:53.527779, 1.64712
2022-11-25 16:02:53.527954, 1.65200
2022-11-25 16:02:53.560751, 1.66178
2022-11-25 16:02:53.560994, 1.68133
2022-11-25 16:02:53.561171, 1.69110
2022-11-25 16:02:53.561338, 1.71065
2022-11-25 16:02:53.594131, 1.73509
2022-11-25 16:02:53.594395, 1.75464
2022-11-25 16:02:53.594569, 1.77419
2022-11-25 16:02:53.627341, 1.77908
2022-11-25 16:02:53.627608, 1.79374
2022-11-25 16:02:53.627781, 1.78886
2022-11-25 16:02:53.627949, 1.82796
2022-11-25 16:02:53.660719, 1.78397
2022-11-25 16:02:53.660973, 1.77419
2022-11-25 16:02:53.661142, 1.79374
2022-11-25 16:02:53.693883, 1.76442
2022-11-25 16:02:53.694150, 1.76442
2022-11-25 16:02:53.694321, 1.74487
2022-11-25 16:02:53.694479, 1.75464
2022-11-25 16:02:53.727306, 1.74487
2022-11-25 16:02:53.727562, 1.76442
2022-11-25 16:02:53.727730, 1.73509
2022-11-25 16:02:53.727891, 1.75953
2022-11-25 16:02:53.760650, 1.73509
2022-11-25 16:02:53.760902, 1.77419
2022-11-25 16:02:53.761074, 1.73509
2022-11-25 16:02:53.793872, 1.76931
2022-11-25 16:02:53.794132, 1.73021
2022-11-25 16:02:53.794300, 1.73509
2022-11-25 16:02:53.794487, 1.74487
2022-11-25 16:02:53.827250, 1.73021
2022-11-25 16:02:53.827510, 1.72532
2022-11-25 16:02:53.827678, 1.72532
2022-11-25 16:02:53.860454, 1.72043
2022-11-25 16:02:53.860603, 1.72532
2022-11-25 16:02:53.860683, 1.72532
2022-11-25 16:02:53.860759, 1.72532
2022-11-25 16:02:53.893797, 1.76442
2022-11-25 16:02:53.894114, 1.73509
2022-11-25 16:02:53.894310, 1.73509
2022-11-25 16:02:53.927127, 1.72043
2022-11-25 16:02:53.927327, 1.72043
2022-11-25 16:02:53.927452, 1.71554
2022-11-25 16:02:53.927570, 1.71554
2022-11-25 16:02:53.960390, 1.71554
2022-11-25 16:02:53.960625, 1.71554
2022-11-25 16:02:53.960785, 1.73509
2022-11-25 16:02:53.993632, 1.74976
2022-11-25 16:02:53.993907, 1.72043
2022-11-25 16:02:53.994077, 1.71554
2022-11-25 16:02:53.994242, 1.70577
2022-11-25 16:02:54.027005, 1.70577
2022-11-25 16:02:54.027201, 1.70088
2022-11-25 16:02:54.027324, 1.70088
2022-11-25 16:02:54.027445, 1.68622
2022-11-25 16:02:54.060366, 1.69110
2022-11-25 16:02:54.060622, 1.68622
2022-11-25 16:02:54.060792, 1.69110
2022-11-25 16:02:54.093580, 1.68622
2022-11-25 16:02:54.093842, 1.68622
2022-11-25 16:02:54.094081, 1.68622
2022-11-25 16:02:54.094280, 1.68133
2022-11-25 16:02:54.126954, 1.68133
2022-11-25 16:02:54.127189, 1.71065
2022-11-25 16:02:54.127355, 1.69110
2022-11-25 16:02:54.160181, 1.67644
2022-11-25 16:02:54.160452, 1.67644
2022-11-25 16:02:54.160624, 1.67644
2022-11-25 16:02:54.160792, 1.68133
2022-11-25 16:02:54.193518, 1.68133
2022-11-25 16:02:54.193756, 1.71065
2022-11-25 16:02:54.193928, 1.68622
2022-11-25 16:02:54.226755, 1.67644
2022-11-25 16:02:54.227012, 1.67155
2022-11-25 16:02:54.227184, 1.67155
2022-11-25 16:02:54.227348, 1.67155
2022-11-25 16:02:54.260206, 1.67155
2022-11-25 16:02:54.260468, 1.67155
2022-11-25 16:02:54.260640, 1.67155
2022-11-25 16:02:54.293345, 1.66667
2022-11-25 16:02:54.293628, 1.67155
2022-11-25 16:02:54.293799, 1.66178
2022-11-25 16:02:54.293958, 1.66667
2022-11-25 16:02:54.326703, 1.68622
2022-11-25 16:02:54.326903, 1.68622
2022-11-25 16:02:54.327027, 1.66178
2022-11-25 16:02:54.327141, 1.66178
2022-11-25 16:02:54.360078, 1.66178
2022-11-25 16:02:54.360341, 1.66178
2022-11-25 16:02:54.360506, 1.66178
2022-11-25 16:02:54.393281, 1.65689
2022-11-25 16:02:54.393533, 1.65689
2022-11-25 16:02:54.393708, 1.65689
2022-11-25 16:02:54.393870, 1.66178
2022-11-25 16:02:54.426643, 1.65200
2022-11-25 16:02:54.426880, 1.63734
2022-11-25 16:02:54.427043, 1.65200
2022-11-25 16:02:54.459897, 1.64712
2022-11-25 16:02:54.460140, 1.65200
2022-11-25 16:02:54.460311, 1.64712
2022-11-25 16:02:54.460470, 1.65689
2022-11-25 16:02:54.493234, 1.66667
2022-11-25 16:02:54.493491, 1.67155
2022-11-25 16:02:54.493667, 1.68622
2022-11-25 16:02:54.526462, 1.71554
2022-11-25 16:02:54.526712, 1.75464
2022-11-25 16:02:54.526885, 1.77908
2022-11-25 16:02:54.527039, 1.77419
2022-11-25 16:02:54.559828, 1.78397
2022-11-25 16:02:54.560064, 1.79374
2022-11-25 16:02:54.560232, 1.79863
2022-11-25 16:02:54.593025, 1.78886
2022-11-25 16:02:54.593308, 1.82307
2022-11-25 16:02:54.593479, 1.77419
2022-11-25 16:02:54.593644, 1.77419
2022-11-25 16:02:54.626383, 1.76931
2022-11-25 16:02:54.626548, 1.75953
2022-11-25 16:02:54.626637, 1.79374
2022-11-25 16:02:54.626722, 1.74487
2022-11-25 16:02:54.659786, 1.74976
2022-11-25 16:02:54.660032, 1.74487
2022-11-25 16:02:54.660200, 1.74487
2022-11-25 16:02:54.692986, 1.74487
2022-11-25 16:02:54.693236, 1.74487
2022-11-25 16:02:54.693409, 1.74487
2022-11-25 16:02:54.693569, 1.74487
2022-11-25 16:02:54.726362, 1.74487
2022-11-25 16:02:54.726614, 1.74487
2022-11-25 16:02:54.726781, 1.73998
2022-11-25 16:02:54.759593, 1.77419
2022-11-25 16:02:54.759787, 1.73509
2022-11-25 16:02:54.759906, 1.73509
2022-11-25 16:02:54.760022, 1.72532
2022-11-25 16:02:54.792942, 1.73021
2022-11-25 16:02:54.793190, 1.73021
2022-11-25 16:02:54.793366, 1.73509
2022-11-25 16:02:54.826165, 1.75953
2022-11-25 16:02:54.826419, 1.74487
2022-11-25 16:02:54.826592, 1.73021
2022-11-25 16:02:54.826753, 1.73021
2022-11-25 16:02:54.859512, 1.73021
2022-11-25 16:02:54.859674, 1.73021
2022-11-25 16:02:54.859765, 1.73021
2022-11-25 16:02:54.892749, 1.73021
2022-11-25 16:02:54.893031, 1.73021
2022-11-25 16:02:54.893210, 1.72532
2022-11-25 16:02:54.893373, 1.72043
2022-11-25 16:02:54.926126, 1.74976
2022-11-25 16:02:54.926329, 1.74976
2022-11-25 16:02:54.926456, 1.73998
2022-11-25 16:02:54.926575, 1.73021
2022-11-25 16:02:54.959500, 1.71554
2022-11-25 16:02:54.959749, 1.70577
2022-11-25 16:02:54.959921, 1.70577
2022-11-25 16:02:54.992666, 1.70088
2022-11-25 16:02:54.992814, 1.70088
2022-11-25 16:02:54.992901, 1.70088
2022-11-25 16:02:54.992988, 1.69599
2022-11-25 16:02:55.026082, 1.70577
2022-11-25 16:02:55.026339, 1.69599
2022-11-25 16:02:55.026512, 1.69599
2022-11-25 16:02:55.059296, 1.69599
2022-11-25 16:02:55.059539, 1.72532
2022-11-25 16:02:55.059709, 1.72532
2022-11-25 16:02:55.059879, 1.70088
2022-11-25 16:02:55.092642, 1.69110
2022-11-25 16:02:55.092870, 1.69110
2022-11-25 16:02:55.093245, 1.69599
2022-11-25 16:02:55.125864, 1.69110
2022-11-25 16:02:55.126073, 1.69110
2022-11-25 16:02:55.126213, 1.68622
2022-11-25 16:02:55.126331, 1.69110
2022-11-25 16:02:55.159266, 1.69110
2022-11-25 16:02:55.159531, 1.69110
2022-11-25 16:02:55.159705, 1.68622
2022-11-25 16:02:55.192469, 1.67644
2022-11-25 16:02:55.192760, 1.67644
2022-11-25 16:02:55.192940, 1.67644
2022-11-25 16:02:55.193107, 1.67644
2022-11-25 16:02:55.225829, 1.67644
2022-11-25 16:02:55.226073, 1.71065
2022-11-25 16:02:55.226242, 1.71065
2022-11-25 16:02:55.226410, 1.69599
2022-11-25 16:02:55.259222, 1.68622
2022-11-25 16:02:55.259478, 1.68133
2022-11-25 16:02:55.259643, 1.68133
2022-11-25 16:02:55.292427, 1.68133
2022-11-25 16:02:55.292690, 1.67644
2022-11-25 16:02:55.292863, 1.67155
2022-11-25 16:02:55.293023, 1.67155
2022-11-25 16:02:55.325797, 1.66667
2022-11-25 16:02:55.326059, 1.66667
2022-11-25 16:02:55.326229, 1.66667
2022-11-25 16:02:55.358992, 1.66178
2022-11-25 16:02:55.359162, 1.66667
2022-11-25 16:02:55.359253, 1.66178
2022-11-25 16:02:55.359342, 1.66667
2022-11-25 16:02:55.392355, 1.65689
2022-11-25 16:02:55.392600, 1.66178
2022-11-25 16:02:55.392770, 1.66667
2022-11-25 16:02:55.425569, 1.66667
2022-11-25 16:02:55.425827, 1.67644
2022-11-25 16:02:55.425999, 1.68622
2022-11-25 16:02:55.426169, 1.70577
2022-11-25 16:02:55.458948, 1.73021
2022-11-25 16:02:55.459201, 1.75464
2022-11-25 16:02:55.459375, 1.77419
2022-11-25 16:02:55.492143, 1.78886
2022-11-25 16:02:55.492389, 1.80352
2022-11-25 16:02:55.492558, 1.80352
2022-11-25 16:02:55.492716, 1.80841
2022-11-25 16:02:55.525567, 1.80352
2022-11-25 16:02:55.525814, 1.79863
2022-11-25 16:02:55.525977, 1.78397
2022-11-25 16:02:55.526138, 1.78397
2022-11-25 16:02:55.558918, 1.77908
2022-11-25 16:02:55.559163, 1.76442
2022-11-25 16:02:55.559331, 1.76931
2022-11-25 16:02:55.592131, 1.75464
2022-11-25 16:02:55.592377, 1.75464
2022-11-25 16:02:55.592540, 1.74976
2022-11-25 16:02:55.592696, 1.77419
2022-11-25 16:02:55.625490, 1.74487
2022-11-25 16:02:55.625738, 1.75464
2022-11-25 16:02:55.625903, 1.74487
2022-11-25 16:02:55.658704, 1.76442
2022-11-25 16:02:55.658952, 1.74487
2022-11-25 16:02:55.659122, 1.73998
2022-11-25 16:02:55.659281, 1.73998
2022-11-25 16:02:55.692073, 1.75464
2022-11-25 16:02:55.692316, 1.75464
2022-11-25 16:02:55.692482, 1.73998
2022-11-25 16:02:55.725321, 1.73509
2022-11-25 16:02:55.725590, 1.73998
2022-11-25 16:02:55.725773, 1.73998
2022-11-25 16:02:55.725932, 1.73998
2022-11-25 16:02:55.758671, 1.73509
2022-11-25 16:02:55.758917, 1.73509
2022-11-25 16:02:55.759087, 1.73509
2022-11-25 16:02:55.791866, 1.73509
2022-11-25 16:02:55.792149, 1.73509
2022-11-25 16:02:55.792320, 1.73509
2022-11-25 16:02:55.792477, 1.73509
2022-11-25 16:02:55.825198, 1.73021
2022-11-25 16:02:55.825384, 1.73021
2022-11-25 16:02:55.825498, 1.73509
2022-11-25 16:02:55.825608, 1.72043
2022-11-25 16:02:55.858409, 1.75953
2022-11-25 16:02:55.858550, 1.71554
2022-11-25 16:02:55.858636, 1.72043
2022-11-25 16:02:55.891828, 1.72532
2022-11-25 16:02:55.892098, 1.74976
2022-11-25 16:02:55.892270, 1.72532
2022-11-25 16:02:55.892430, 1.71554
2022-11-25 16:02:55.925272, 1.70577
2022-11-25 16:02:55.925572, 1.70088
2022-11-25 16:02:55.925746, 1.70088
2022-11-25 16:02:55.958484, 1.69599
2022-11-25 16:02:55.958780, 1.69599
2022-11-25 16:02:55.958956, 1.68622
2022-11-25 16:02:55.959117, 1.69110
2022-11-25 16:02:55.991864, 1.68622
2022-11-25 16:02:55.992171, 1.69110
2022-11-25 16:02:55.992351, 1.69110
2022-11-25 16:02:56.025064, 1.69110
2022-11-25 16:02:56.025372, 1.69110
2022-11-25 16:02:56.025545, 1.68622
2022-11-25 16:02:56.025703, 1.69110
2022-11-25 16:02:56.058452, 1.69110
2022-11-25 16:02:56.058755, 1.68622
2022-11-25 16:02:56.058931, 1.68133
2022-11-25 16:02:56.091649, 1.68133
2022-11-25 16:02:56.091951, 1.68622
2022-11-25 16:02:56.092130, 1.67644
2022-11-25 16:02:56.092294, 1.68622
2022-11-25 16:02:56.125051, 1.67644
2022-11-25 16:02:56.125350, 1.68133
2022-11-25 16:02:56.125531, 1.67644
2022-11-25 16:02:56.125696, 1.68133
2022-11-25 16:02:56.158382, 1.67644
2022-11-25 16:02:56.158689, 1.67155
2022-11-25 16:02:56.158866, 1.67644
2022-11-25 16:02:56.191581, 1.71065
2022-11-25 16:02:56.191816, 1.69599
2022-11-25 16:02:56.191939, 1.69110
2022-11-25 16:02:56.192054, 1.70577
2022-11-25 16:02:56.224957, 1.70088
2022-11-25 16:02:56.225259, 1.69599
2022-11-25 16:02:56.225432, 1.70088
2022-11-25 16:02:56.258205, 1.69599
2022-11-25 16:02:56.258506, 1.70577
2022-11-25 16:02:56.258674, 1.71065
2022-11-25 16:02:56.258839, 1.73021
2022-11-25 16:02:56.291588, 1.75464
2022-11-25 16:02:56.291900, 1.76931
2022-11-25 16:02:56.292107, 1.78397
2022-11-25 16:02:56.324779, 1.79374
2022-11-25 16:02:56.325068, 1.80352
2022-11-25 16:02:56.325236, 1.79374
2022-11-25 16:02:56.325393, 1.81818
2022-11-25 16:02:56.358072, 1.79374
2022-11-25 16:02:56.358280, 1.78886
2022-11-25 16:02:56.358381, 1.79374
2022-11-25 16:02:56.391336, 1.77419
2022-11-25 16:02:56.391659, 1.76442
2022-11-25 16:02:56.391828, 1.75953
2022-11-25 16:02:56.391985, 1.75464
2022-11-25 16:02:56.424725, 1.75464
2022-11-25 16:02:56.425017, 1.75464
2022-11-25 16:02:56.425204, 1.75464
2022-11-25 16:02:56.425365, 1.75953
2022-11-25 16:02:56.458105, 1.77419
2022-11-25 16:02:56.458402, 1.73509
2022-11-25 16:02:56.458594, 1.76931
2022-11-25 16:02:56.491331, 1.74976
2022-11-25 16:02:56.491631, 1.78397
2022-11-25 16:02:56.491803, 1.74487
2022-11-25 16:02:56.491966, 1.74976
2022-11-25 16:02:56.524672, 1.73998
2022-11-25 16:02:56.524976, 1.73998
2022-11-25 16:02:56.525152, 1.73998
2022-11-25 16:02:56.557898, 1.73998
2022-11-25 16:02:56.558203, 1.73509
2022-11-25 16:02:56.558374, 1.73998
2022-11-25 16:02:56.558537, 1.73998
2022-11-25 16:02:56.591269, 1.73998
2022-11-25 16:02:56.591578, 1.73509
2022-11-25 16:02:56.591752, 1.73998
2022-11-25 16:02:56.624500, 1.73509
2022-11-25 16:02:56.624809, 1.73509
2022-11-25 16:02:56.624992, 1.73021
2022-11-25 16:02:56.625157, 1.73509
2022-11-25 16:02:56.657868, 1.73021
2022-11-25 16:02:56.658165, 1.73021
2022-11-25 16:02:56.658349, 1.72532
2022-11-25 16:02:56.691043, 1.74976
2022-11-25 16:02:56.691307, 1.72532
2022-11-25 16:02:56.691437, 1.72043
2022-11-25 16:02:56.691561, 1.71554
2022-11-25 16:02:56.724450, 1.71065
2022-11-25 16:02:56.724741, 1.71065
2022-11-25 16:02:56.724909, 1.71554
2022-11-25 16:02:56.725074, 1.71065
2022-11-25 16:02:56.757806, 1.70088
2022-11-25 16:02:56.758105, 1.69599
2022-11-25 16:02:56.758275, 1.70577
2022-11-25 16:02:56.790988, 1.70088
2022-11-25 16:02:56.791196, 1.70577
2022-11-25 16:02:56.791292, 1.71065
2022-11-25 16:02:56.791375, 1.69599
2022-11-25 16:02:56.824376, 1.69599
2022-11-25 16:02:56.824681, 1.69599
2022-11-25 16:02:56.824852, 1.69599
2022-11-25 16:02:56.857621, 1.69110
2022-11-25 16:02:56.857835, 1.73021
2022-11-25 16:02:56.857930, 1.71065
2022-11-25 16:02:56.858014, 1.70088
2022-11-25 16:02:56.890955, 1.69110
2022-11-25 16:02:56.891208, 1.70577
2022-11-25 16:02:56.891334, 1.72532
2022-11-25 16:02:56.924183, 1.72532
2022-11-25 16:02:56.924495, 1.70088
2022-11-25 16:02:56.924671, 1.69110
2022-11-25 16:02:56.924840, 1.68622
2022-11-25 16:02:56.957534, 1.68133
2022-11-25 16:02:56.957812, 1.68133
2022-11-25 16:02:56.958049, 1.68622
2022-11-25 16:02:56.990773, 1.67644
2022-11-25 16:02:56.991103, 1.68622
2022-11-25 16:02:56.991275, 1.67644
2022-11-25 16:02:56.991436, 1.68133
2022-11-25 16:02:57.024178, 1.67644
2022-11-25 16:02:57.024493, 1.67644
2022-11-25 16:02:57.024669, 1.70577
2022-11-25 16:02:57.024841, 1.67644
2022-11-25 16:02:57.057474, 1.68133
2022-11-25 16:02:57.057763, 1.68622
2022-11-25 16:02:57.057923, 1.67644
2022-11-25 16:02:57.090711, 1.68133
2022-11-25 16:02:57.090960, 1.67644
2022-11-25 16:02:57.091084, 1.70577
2022-11-25 16:02:57.091204, 1.71065
2022-11-25 16:02:57.124122, 1.70577
2022-11-25 16:02:57.124422, 1.72532
2022-11-25 16:02:57.124600, 1.74487
2022-11-25 16:02:57.157332, 1.75953
2022-11-25 16:02:57.157637, 1.78397
2022-11-25 16:02:57.157811, 1.81329
2022-11-25 16:02:57.157975, 1.80841
2022-11-25 16:02:57.190687, 1.84751
2022-11-25 16:02:57.190976, 1.81329
2022-11-25 16:02:57.191144, 1.81329
2022-11-25 16:02:57.223885, 1.80841
2022-11-25 16:02:57.224192, 1.79863
2022-11-25 16:02:57.224491, 1.79863
2022-11-25 16:02:57.224659, 1.78886
2022-11-25 16:02:57.257284, 1.77908
2022-11-25 16:02:57.257584, 1.78397
2022-11-25 16:02:57.257763, 1.77419
2022-11-25 16:02:57.290476, 1.77419
2022-11-25 16:02:57.290808, 1.81329
2022-11-25 16:02:57.290994, 1.77908
2022-11-25 16:02:57.291153, 1.81818
2022-11-25 16:02:57.323856, 1.77908
2022-11-25 16:02:57.324160, 1.80841
2022-11-25 16:02:57.324331, 1.78397
2022-11-25 16:02:57.324496, 1.77908
2022-11-25 16:02:57.357202, 1.77908
2022-11-25 16:02:57.357398, 1.78397
2022-11-25 16:02:57.357486, 1.77419
2022-11-25 16:02:57.390464, 1.77419
2022-11-25 16:02:57.390764, 1.76442
2022-11-25 16:02:57.390934, 1.76442
2022-11-25 16:02:57.391101, 1.75953
2022-11-25 16:02:57.423801, 1.75953
2022-11-25 16:02:57.424108, 1.75953
2022-11-25 16:02:57.424284, 1.75953
2022-11-25 16:02:57.457012, 1.75464
2022-11-25 16:02:57.457216, 1.76442
2022-11-25 16:02:57.457313, 1.78886
2022-11-25 16:02:57.457405, 1.77419
2022-11-25 16:02:57.490369, 1.76442
2022-11-25 16:02:57.490671, 1.75953
2022-11-25 16:02:57.490846, 1.75464
2022-11-25 16:02:57.523581, 1.75953
2022-11-25 16:02:57.523875, 1.75464
2022-11-25 16:02:57.524053, 1.74487
2022-11-25 16:02:57.524210, 1.74976
2022-11-25 16:02:57.556986, 1.75464
2022-11-25 16:02:57.557305, 1.73998
2022-11-25 16:02:57.557479, 1.74487
2022-11-25 16:02:57.590140, 1.73509
2022-11-25 16:02:57.590402, 1.73509
2022-11-25 16:02:57.590524, 1.73021
2022-11-25 16:02:57.590643, 1.73021
2022-11-25 16:02:57.623555, 1.73021
2022-11-25 16:02:57.623846, 1.76442
2022-11-25 16:02:57.624015, 1.73998
2022-11-25 16:02:57.624174, 1.73021
2022-11-25 16:02:57.656923, 1.72532
2022-11-25 16:02:57.657225, 1.72532
2022-11-25 16:02:57.657391, 1.72532
2022-11-25 16:02:57.690184, 1.71065
2022-11-25 16:02:57.690479, 1.72043
2022-11-25 16:02:57.690654, 1.72043
2022-11-25 16:02:57.690821, 1.71554
2022-11-25 16:02:57.723474, 1.70577
2022-11-25 16:02:57.723720, 1.71065
2022-11-25 16:02:57.723843, 1.71554
2022-11-25 16:02:57.756702, 1.71554
2022-11-25 16:02:57.756988, 1.71554
2022-11-25 16:02:57.757154, 1.70577
2022-11-25 16:02:57.757316, 1.71065
2022-11-25 16:02:57.790052, 1.71065
2022-11-25 16:02:57.790338, 1.71065
2022-11-25 16:02:57.790508, 1.70577
2022-11-25 16:02:57.823291, 1.70577
2022-11-25 16:02:57.823573, 1.70577
2022-11-25 16:02:57.823795, 1.70088
2022-11-25 16:02:57.823961, 1.70088
2022-11-25 16:02:57.856608, 1.70088
2022-11-25 16:02:57.856808, 1.73509
2022-11-25 16:02:57.856921, 1.73509
2022-11-25 16:02:57.889859, 1.69599
2022-11-25 16:02:57.890179, 1.71554
2022-11-25 16:02:57.890365, 1.73021
2022-11-25 16:02:57.890609, 1.70577
2022-11-25 16:02:57.923186, 1.70088
2022-11-25 16:02:57.923477, 1.69599
2022-11-25 16:02:57.923660, 1.69599
2022-11-25 16:02:57.923822, 1.69599
2022-11-25 16:02:57.956613, 1.69110
2022-11-25 16:02:57.956911, 1.68622
2022-11-25 16:02:57.957090, 1.68622
2022-11-25 16:02:57.989852, 1.68133
2022-11-25 16:02:57.990151, 1.69110
2022-11-25 16:02:57.990333, 1.68622
2022-11-25 16:02:57.990493, 1.68622
2022-11-25 16:02:58.023165, 1.69599
2022-11-25 16:02:58.023390, 1.68622
2022-11-25 16:02:58.023518, 1.68133
2022-11-25 16:02:58.056435, 1.68133
2022-11-25 16:02:58.056724, 1.68133
2022-11-25 16:02:58.056892, 1.69110
2022-11-25 16:02:58.057055, 1.70577
2022-11-25 16:02:58.089808, 1.72532
2022-11-25 16:02:58.090093, 1.74487
2022-11-25 16:02:58.090265, 1.76931
2022-11-25 16:02:58.123035, 1.78397
2022-11-25 16:02:58.123327, 1.83284
2022-11-25 16:02:58.123500, 1.81329
2022-11-25 16:02:58.123670, 1.83284
2022-11-25 16:02:58.156393, 1.83284
2022-11-25 16:02:58.156698, 1.82307
2022-11-25 16:02:58.156870, 1.83284
2022-11-25 16:02:58.189593, 1.80841
2022-11-25 16:02:58.189922, 1.81329
2022-11-25 16:02:58.190099, 1.79374
2022-11-25 16:02:58.190259, 1.79374
2022-11-25 16:02:58.222961, 1.78397
2022-11-25 16:02:58.223265, 1.78397
2022-11-25 16:02:58.223436, 1.78397
2022-11-25 16:02:58.223602, 1.78397
2022-11-25 16:02:58.256337, 1.79374
2022-11-25 16:02:58.256655, 1.78886
2022-11-25 16:02:58.256837, 1.79374
2022-11-25 16:02:58.289516, 1.78886
2022-11-25 16:02:58.289706, 1.78886
2022-11-25 16:02:58.289806, 1.78886
2022-11-25 16:02:58.289891, 1.78886
2022-11-25 16:02:58.322923, 1.77908
2022-11-25 16:02:58.323215, 1.77908
2022-11-25 16:02:58.323382, 1.77908
2022-11-25 16:02:58.356137, 1.76931
2022-11-25 16:02:58.356328, 1.80352
2022-11-25 16:02:58.356431, 1.80841
2022-11-25 16:02:58.356516, 1.78886
2022-11-25 16:02:58.389510, 1.77908
2022-11-25 16:02:58.389816, 1.76931
2022-11-25 16:02:58.389987, 1.76931
2022-11-25 16:02:58.422724, 1.76931
2022-11-25 16:02:58.423023, 1.76931
2022-11-25 16:02:58.423195, 1.76931
2022-11-25 16:02:58.423366, 1.76931
2022-11-25 16:02:58.456097, 1.78886
2022-11-25 16:02:58.456386, 1.77419
2022-11-25 16:02:58.456558, 1.78397
2022-11-25 16:02:58.489289, 1.76931
2022-11-25 16:02:58.489624, 1.75953
2022-11-25 16:02:58.489800, 1.75953
2022-11-25 16:02:58.489959, 1.75464
2022-11-25 16:02:58.522676, 1.75464
2022-11-25 16:02:58.522976, 1.74976
2022-11-25 16:02:58.523150, 1.74487
2022-11-25 16:02:58.523315, 1.74487
2022-11-25 16:02:58.556020, 1.73998
2022-11-25 16:02:58.556311, 1.74487
2022-11-25 16:02:58.556484, 1.73998
2022-11-25 16:02:58.589221, 1.73509
2022-11-25 16:02:58.589521, 1.74487
2022-11-25 16:02:58.589696, 1.76931
2022-11-25 16:02:58.589858, 1.75953
2022-11-25 16:02:58.622636, 1.73998
2022-11-25 16:02:58.622957, 1.73021
2022-11-25 16:02:58.623130, 1.73021
2022-11-25 16:02:58.655832, 1.73021
2022-11-25 16:02:58.656140, 1.72532
2022-11-25 16:02:58.656309, 1.72532
2022-11-25 16:02:58.656558, 1.73021
2022-11-25 16:02:58.689235, 1.72043
2022-11-25 16:02:58.689530, 1.72043
2022-11-25 16:02:58.689703, 1.71554
2022-11-25 16:02:58.722427, 1.71554
2022-11-25 16:02:58.722682, 1.72043
2022-11-25 16:02:58.722812, 1.71554
2022-11-25 16:02:58.722932, 1.71554
2022-11-25 16:02:58.755774, 1.71065
2022-11-25 16:02:58.756025, 1.71065
2022-11-25 16:02:58.756158, 1.71065
2022-11-25 16:02:58.788985, 1.73021
2022-11-25 16:02:58.789241, 1.71065
2022-11-25 16:02:58.789363, 1.74487
2022-11-25 16:02:58.789477, 1.72532
2022-11-25 16:02:58.822328, 1.71065
2022-11-25 16:02:58.822515, 1.70577
2022-11-25 16:02:58.822606, 1.71065
2022-11-25 16:02:58.822700, 1.71065
2022-11-25 16:02:58.855567, 1.72043
2022-11-25 16:02:58.855752, 1.70088
2022-11-25 16:02:58.855850, 1.72532
2022-11-25 16:02:58.889012, 1.72532
2022-11-25 16:02:58.889319, 1.72532
2022-11-25 16:02:58.889502, 1.69110
2022-11-25 16:02:58.889669, 1.69110
2022-11-25 16:02:58.922291, 1.69110
2022-11-25 16:02:58.922529, 1.69599
2022-11-25 16:02:58.922649, 1.70088
2022-11-25 16:02:58.955544, 1.71065
2022-11-25 16:02:58.955783, 1.75953
2022-11-25 16:02:58.955906, 1.77419
2022-11-25 16:02:58.956043, 1.77419
2022-11-25 16:02:58.988862, 1.78886
2022-11-25 16:02:58.989071, 1.81329
2022-11-25 16:02:58.989163, 1.81329
2022-11-25 16:02:59.022118, 1.85728
2022-11-25 16:02:59.022426, 1.82307
2022-11-25 16:02:59.022601, 1.81818
2022-11-25 16:02:59.022764, 1.81818
2022-11-25 16:02:59.055497, 1.80841
2022-11-25 16:02:59.055804, 1.80841
2022-11-25 16:02:59.055976, 1.79863
2022-11-25 16:02:59.088690, 1.79374
2022-11-25 16:02:59.089017, 1.79374
2022-11-25 16:02:59.089187, 1.80352
2022-11-25 16:02:59.089349, 1.78886
2022-11-25 16:02:59.122076, 1.78397
2022-11-25 16:02:59.122383, 1.79374
2022-11-25 16:02:59.122557, 1.79374
2022-11-25 16:02:59.122723, 1.79374
2022-11-25 16:02:59.155462, 1.78886
2022-11-25 16:02:59.155759, 1.78886
2022-11-25 16:02:59.155929, 1.78886
2022-11-25 16:02:59.188663, 1.78886
2022-11-25 16:02:59.188950, 1.78397
2022-11-25 16:02:59.189117, 1.77908
2022-11-25 16:02:59.189276, 1.77419
2022-11-25 16:02:59.222041, 1.77419
2022-11-25 16:02:59.222354, 1.76931
2022-11-25 16:02:59.222530, 1.76931
2022-11-25 16:02:59.255298, 1.76931
2022-11-25 16:02:59.255612, 1.76931
2022-11-25 16:02:59.255784, 1.76931
2022-11-25 16:02:59.255952, 1.77419
2022-11-25 16:02:59.288575, 1.77419
2022-11-25 16:02:59.288798, 1.77419
2022-11-25 16:02:59.288918, 1.76931
2022-11-25 16:02:59.321848, 1.77419
2022-11-25 16:02:59.322155, 1.77419
2022-11-25 16:02:59.322331, 1.76442
2022-11-25 16:02:59.322489, 1.76442
2022-11-25 16:02:59.355056, 1.75953
2022-11-25 16:02:59.355387, 1.75953
2022-11-25 16:02:59.355504, 1.75464
2022-11-25 16:02:59.388441, 1.75953
2022-11-25 16:02:59.388761, 1.77908
2022-11-25 16:02:59.388937, 1.74976
2022-11-25 16:02:59.389092, 1.77419
2022-11-25 16:02:59.421760, 1.73998
2022-11-25 16:02:59.422017, 1.73998
2022-11-25 16:02:59.422148, 1.73998
2022-11-25 16:02:59.422274, 1.73509
2022-11-25 16:02:59.455176, 1.73021
2022-11-25 16:02:59.455464, 1.72043
2022-11-25 16:02:59.455636, 1.73021
2022-11-25 16:02:59.488391, 1.73021
2022-11-25 16:02:59.488682, 1.73021
2022-11-25 16:02:59.488852, 1.72532
2022-11-25 16:02:59.489016, 1.72532
2022-11-25 16:02:59.521689, 1.72532
2022-11-25 16:02:59.521884, 1.72043
2022-11-25 16:02:59.521973, 1.72043
2022-11-25 16:02:59.554978, 1.71554
2022-11-25 16:02:59.555267, 1.72043
2022-11-25 16:02:59.555437, 1.71554
2022-11-25 16:02:59.555598, 1.71554
2022-11-25 16:02:59.588253, 1.71065
2022-11-25 16:02:59.588441, 1.71065
2022-11-25 16:02:59.588528, 1.71065
2022-11-25 16:02:59.621587, 1.70577
2022-11-25 16:02:59.621892, 1.71065
2022-11-25 16:02:59.622064, 1.70577
2022-11-25 16:02:59.622222, 1.70577
2022-11-25 16:02:59.654886, 1.70088
2022-11-25 16:02:59.655134, 1.70577
2022-11-25 16:02:59.655261, 1.70088
2022-11-25 16:02:59.688114, 1.70088
2022-11-25 16:02:59.688436, 1.69599
2022-11-25 16:02:59.688615, 1.69599
2022-11-25 16:02:59.688771, 1.70088
2022-11-25 16:02:59.721502, 1.69599
2022-11-25 16:02:59.721771, 1.69599
2022-11-25 16:02:59.721951, 1.69599
2022-11-25 16:02:59.722111, 1.69599
2022-11-25 16:02:59.754898, 1.69110
2022-11-25 16:02:59.755205, 1.69110
2022-11-25 16:02:59.755380, 1.69110
2022-11-25 16:02:59.788163, 1.68622
2022-11-25 16:02:59.788402, 1.72532
2022-11-25 16:02:59.788527, 1.71554
2022-11-25 16:02:59.788649, 1.71554
2022-11-25 16:02:59.821485, 1.71554
2022-11-25 16:02:59.821795, 1.69110
2022-11-25 16:02:59.821968, 1.69110
2022-11-25 16:02:59.854638, 1.70577
2022-11-25 16:02:59.854930, 1.71554
2022-11-25 16:02:59.855119, 1.73509
2022-11-25 16:02:59.855226, 1.75953
2022-11-25 16:02:59.888076, 1.77908
2022-11-25 16:02:59.888380, 1.82307
2022-11-25 16:02:59.888552, 1.81329
2022-11-25 16:02:59.921300, 1.85239
2022-11-25 16:02:59.921621, 1.82796
2022-11-25 16:02:59.921798, 1.85728
2022-11-25 16:02:59.921960, 1.82307
2022-11-25 16:02:59.954579, 1.84751
2022-11-25 16:02:59.954877, 1.80841
2022-11-25 16:02:59.955056, 1.80352
2022-11-25 16:02:59.987829, 1.80352
2022-11-25 16:02:59.988153, 1.79863
2022-11-25 16:02:59.988333, 1.80352
2022-11-25 16:02:59.988495, 1.79863
2022-11-25 16:03:00.021150, 1.80841
2022-11-25 16:03:00.021449, 1.80352
2022-11-25 16:03:00.021760, 1.82307
2022-11-25 16:03:00.021936, 1.80841
2022-11-25 16:03:00.054505, 1.84751
2022-11-25 16:03:00.054744, 1.80841
2022-11-25 16:03:00.054873, 1.84262
2022-11-25 16:03:00.087759, 1.80352
2022-11-25 16:03:00.087990, 1.80352
2022-11-25 16:03:00.088113, 1.79863
2022-11-25 16:03:00.088227, 1.79374
2022-11-25 16:03:00.121132, 1.78886
2022-11-25 16:03:00.121378, 1.78886
2022-11-25 16:03:00.121505, 1.78886
2022-11-25 16:03:00.154385, 1.78397
2022-11-25 16:03:00.154627, 1.78886
2022-11-25 16:03:00.154752, 1.78886
2022-11-25 16:03:00.154872, 1.78886
2022-11-25 16:03:00.187692, 1.78397
2022-11-25 16:03:00.187895, 1.78397
2022-11-25 16:03:00.187988, 1.81329
2022-11-25 16:03:00.220906, 1.81329
2022-11-25 16:03:00.221224, 1.78397
2022-11-25 16:03:00.221398, 1.77908
2022-11-25 16:03:00.221559, 1.77908
2022-11-25 16:03:00.254339, 1.77419
2022-11-25 16:03:00.254644, 1.77419
2022-11-25 16:03:00.254815, 1.77419
2022-11-25 16:03:00.287468, 1.76931
2022-11-25 16:03:00.287731, 1.76442
2022-11-25 16:03:00.287864, 1.76442
2022-11-25 16:03:00.287978, 1.79863
2022-11-25 16:03:00.320833, 1.78886
2022-11-25 16:03:00.321042, 1.79374
2022-11-25 16:03:00.321134, 1.75464
2022-11-25 16:03:00.321219, 1.79374
2022-11-25 16:03:00.354110, 1.78886
2022-11-25 16:03:00.354352, 1.77419
2022-11-25 16:03:00.354485, 1.75953
2022-11-25 16:03:00.387463, 1.74976
2022-11-25 16:03:00.387751, 1.74976
2022-11-25 16:03:00.387922, 1.74487
2022-11-25 16:03:00.388082, 1.74487
2022-11-25 16:03:00.420788, 1.73998
2022-11-25 16:03:00.421023, 1.73998
2022-11-25 16:03:00.421144, 1.74487
2022-11-25 16:03:00.454115, 1.73509
2022-11-25 16:03:00.454429, 1.73509
2022-11-25 16:03:00.454599, 1.73509
2022-11-25 16:03:00.454756, 1.73509
2022-11-25 16:03:00.487355, 1.73021
2022-11-25 16:03:00.487565, 1.73509
2022-11-25 16:03:00.487683, 1.72532
2022-11-25 16:03:00.520578, 1.73021
2022-11-25 16:03:00.520776, 1.73021
2022-11-25 16:03:00.520872, 1.72532
2022-11-25 16:03:00.520961, 1.72532
2022-11-25 16:03:00.553943, 1.72532
2022-11-25 16:03:00.554176, 1.72532
2022-11-25 16:03:00.554303, 1.75953
2022-11-25 16:03:00.587107, 1.73509
2022-11-25 16:03:00.587370, 1.71554
2022-11-25 16:03:00.587538, 1.71554
2022-11-25 16:03:00.587697, 1.71554
2022-11-25 16:03:00.620533, 1.71554
2022-11-25 16:03:00.620799, 1.71065
2022-11-25 16:03:00.620973, 1.71065
2022-11-25 16:03:00.621140, 1.74487
2022-11-25 16:03:00.653890, 1.73998
2022-11-25 16:03:00.654129, 1.73021
2022-11-25 16:03:00.654261, 1.70088
2022-11-25 16:03:00.687140, 1.70088
2022-11-25 16:03:00.687356, 1.70577
2022-11-25 16:03:00.687482, 1.70088
2022-11-25 16:03:00.687594, 1.70088
2022-11-25 16:03:00.720518, 1.70088
2022-11-25 16:03:00.720790, 1.69599
2022-11-25 16:03:00.720963, 1.69110
2022-11-25 16:03:00.753723, 1.68622
2022-11-25 16:03:00.753982, 1.69110
2022-11-25 16:03:00.754151, 1.69110
2022-11-25 16:03:00.754310, 1.69110
2022-11-25 16:03:00.787094, 1.68622
2022-11-25 16:03:00.787305, 1.68622
2022-11-25 16:03:00.787427, 1.67644
2022-11-25 16:03:00.820329, 1.72532
2022-11-25 16:03:00.820534, 1.68622
2022-11-25 16:03:00.820630, 1.69599
2022-11-25 16:03:00.820718, 1.71554
2022-11-25 16:03:00.853674, 1.73021
2022-11-25 16:03:00.854033, 1.74976
2022-11-25 16:03:00.854468, 1.77419
2022-11-25 16:03:00.886888, 1.79374
2022-11-25 16:03:00.887095, 1.81329
2022-11-25 16:03:00.887191, 1.82307
2022-11-25 16:03:00.887280, 1.82796
2022-11-25 16:03:00.920235, 1.85728
2022-11-25 16:03:00.920457, 1.82796
2022-11-25 16:03:00.920584, 1.81818
2022-11-25 16:03:00.920706, 1.80841
2022-11-25 16:03:00.953594, 1.80841
2022-11-25 16:03:00.953819, 1.80841
2022-11-25 16:03:00.953946, 1.79863
2022-11-25 16:03:00.986845, 1.80352
2022-11-25 16:03:00.987117, 1.79863
2022-11-25 16:03:00.987289, 1.83284
2022-11-25 16:03:00.987448, 1.80352
2022-11-25 16:03:01.020162, 1.79863
2022-11-25 16:03:01.020377, 1.81818
2022-11-25 16:03:01.020499, 1.80841
2022-11-25 16:03:01.053417, 1.81818
2022-11-25 16:03:01.053647, 1.81329
2022-11-25 16:03:01.053769, 1.81329
2022-11-25 16:03:01.053887, 1.80352
2022-11-25 16:03:01.086749, 1.79863
2022-11-25 16:03:01.086972, 1.79863
2022-11-25 16:03:01.087092, 1.78886
2022-11-25 16:03:01.120023, 1.78886
2022-11-25 16:03:01.120215, 1.78886
2022-11-25 16:03:01.120312, 1.77908
2022-11-25 16:03:01.120401, 1.78886
2022-11-25 16:03:01.153358, 1.78397
2022-11-25 16:03:01.153580, 1.82796
2022-11-25 16:03:01.153709, 1.79374
2022-11-25 16:03:01.186591, 1.78886
2022-11-25 16:03:01.186800, 1.78886
2022-11-25 16:03:01.186891, 1.78886
2022-11-25 16:03:01.186975, 1.78886
2022-11-25 16:03:01.219957, 1.77908
2022-11-25 16:03:01.220122, 1.78397
2022-11-25 16:03:01.220255, 1.81329
2022-11-25 16:03:01.220368, 1.78886
2022-11-25 16:03:01.253305, 1.78397
2022-11-25 16:03:01.253588, 1.77908
2022-11-25 16:03:01.253757, 1.76931
2022-11-25 16:03:01.286547, 1.76442
2022-11-25 16:03:01.286763, 1.76442
2022-11-25 16:03:01.286887, 1.75953
2022-11-25 16:03:01.287006, 1.75953
2022-11-25 16:03:01.319864, 1.75464
2022-11-25 16:03:01.320053, 1.79374
2022-11-25 16:03:01.320150, 1.76931
2022-11-25 16:03:01.353125, 1.74976
2022-11-25 16:03:01.353356, 1.74976
2022-11-25 16:03:01.353478, 1.74487
2022-11-25 16:03:01.353595, 1.74487
2022-11-25 16:03:01.386413, 1.73998
2022-11-25 16:03:01.386551, 1.73998
2022-11-25 16:03:01.386617, 1.73998
2022-11-25 16:03:01.419714, 1.73998
2022-11-25 16:03:01.419893, 1.73998
2022-11-25 16:03:01.419987, 1.73021
2022-11-25 16:03:01.420073, 1.74487
2022-11-25 16:03:01.453123, 1.73021
2022-11-25 16:03:01.453387, 1.73021
2022-11-25 16:03:01.453554, 1.73021
2022-11-25 16:03:01.486288, 1.73021
2022-11-25 16:03:01.486627, 1.73021
2022-11-25 16:03:01.486757, 1.72043
2022-11-25 16:03:01.486876, 1.72532
2022-11-25 16:03:01.519648, 1.71554
2022-11-25 16:03:01.519874, 1.71554
2022-11-25 16:03:01.520001, 1.71554
2022-11-25 16:03:01.520114, 1.71554
2022-11-25 16:03:01.552998, 1.71065
2022-11-25 16:03:01.553217, 1.71065
2022-11-25 16:03:01.553341, 1.71065
2022-11-25 16:03:01.586264, 1.70577
2022-11-25 16:03:01.586472, 1.70577
2022-11-25 16:03:01.586599, 1.70577
2022-11-25 16:03:01.586716, 1.70088
2022-11-25 16:03:01.619601, 1.70088
2022-11-25 16:03:01.619808, 1.70088
2022-11-25 16:03:01.619929, 1.71554
2022-11-25 16:03:01.652902, 1.71065
2022-11-25 16:03:01.653185, 1.70577
2022-11-25 16:03:01.653359, 1.70088
2022-11-25 16:03:01.653524, 1.70088
2022-11-25 16:03:01.686148, 1.69599
2022-11-25 16:03:01.686322, 1.70088
2022-11-25 16:03:01.686417, 1.72043
2022-11-25 16:03:01.719479, 1.73021
2022-11-25 16:03:01.719771, 1.69110
2022-11-25 16:03:01.719949, 1.69110
2022-11-25 16:03:01.720113, 1.70088
2022-11-25 16:03:01.752786, 1.71065
2022-11-25 16:03:01.753072, 1.73021
2022-11-25 16:03:01.753262, 1.74487
2022-11-25 16:03:01.786046, 1.76931
2022-11-25 16:03:01.786252, 1.80352
2022-11-25 16:03:01.786348, 1.80352
2022-11-25 16:03:01.786436, 1.81329
2022-11-25 16:03:01.819387, 1.81818
2022-11-25 16:03:01.819600, 1.81818
2022-11-25 16:03:01.819730, 1.82307
2022-11-25 16:03:01.819846, 1.81329
2022-11-25 16:03:01.852715, 1.79863
2022-11-25 16:03:01.852936, 1.79374
2022-11-25 16:03:01.853056, 1.79374
2022-11-25 16:03:01.885978, 1.78886
2022-11-25 16:03:01.886168, 1.78886
2022-11-25 16:03:01.886262, 1.78886
2022-11-25 16:03:01.886351, 1.78886
2022-11-25 16:03:01.919316, 1.79374
2022-11-25 16:03:01.919528, 1.78397
2022-11-25 16:03:01.919656, 1.79374
2022-11-25 16:03:01.952494, 1.79374
2022-11-25 16:03:01.952805, 1.79863
2022-11-25 16:03:01.952937, 1.79374
2022-11-25 16:03:01.953056, 1.79374
2022-11-25 16:03:01.985902, 1.78886
2022-11-25 16:03:01.986128, 1.78397
2022-11-25 16:03:01.986254, 1.77419
2022-11-25 16:03:02.019078, 1.76931
2022-11-25 16:03:02.019397, 1.76931
2022-11-25 16:03:02.019582, 1.76442
2022-11-25 16:03:02.019749, 1.79374
2022-11-25 16:03:02.052430, 1.78397
2022-11-25 16:03:02.052699, 1.78886
2022-11-25 16:03:02.052824, 1.77419
2022-11-25 16:03:02.085736, 1.76931
2022-11-25 16:03:02.085923, 1.76442
2022-11-25 16:03:02.086018, 1.76442
2022-11-25 16:03:02.086106, 1.76442
2022-11-25 16:03:02.118996, 1.75953
2022-11-25 16:03:02.119298, 1.75953
2022-11-25 16:03:02.119450, 1.75464
2022-11-25 16:03:02.119574, 1.75464
2022-11-25 16:03:02.152352, 1.75464
2022-11-25 16:03:02.152550, 1.74976
2022-11-25 16:03:02.152776, 1.74487
2022-11-25 16:03:02.185574, 1.74487
2022-11-25 16:03:02.185797, 1.73998
2022-11-25 16:03:02.185905, 1.73509
2022-11-25 16:03:02.185997, 1.75953
2022-11-25 16:03:02.219005, 1.73998
2022-11-25 16:03:02.219214, 1.73509
2022-11-25 16:03:02.219338, 1.73509
2022-11-25 16:03:02.252287, 1.73509
2022-11-25 16:03:02.252519, 1.74976
2022-11-25 16:03:02.252649, 1.72532
2022-11-25 16:03:02.252761, 1.73021
2022-11-25 16:03:02.285542, 1.72043
2022-11-25 16:03:02.285836, 1.72043
2022-11-25 16:03:02.285993, 1.72043
2022-11-25 16:03:02.318828, 1.72532
2022-11-25 16:03:02.319068, 1.72043
2022-11-25 16:03:02.319193, 1.71554
2022-11-25 16:03:02.319314, 1.71554
2022-11-25 16:03:02.352140, 1.71065
2022-11-25 16:03:02.352418, 1.71065
2022-11-25 16:03:02.352595, 1.70577
2022-11-25 16:03:02.385320, 1.70577
2022-11-25 16:03:02.385408, 1.70577
2022-11-25 16:03:02.385463, 1.71065
2022-11-25 16:03:02.385515, 1.70088
2022-11-25 16:03:02.418549, 1.70577
2022-11-25 16:03:02.418619, 1.73021
2022-11-25 16:03:02.418682, 1.72043
2022-11-25 16:03:02.418744, 1.71554
2022-11-25 16:03:02.451962, 1.73509
2022-11-25 16:03:02.452082, 1.69599
2022-11-25 16:03:02.452159, 1.71554
2022-11-25 16:03:02.485266, 1.72532
2022-11-25 16:03:02.485404, 1.71065
2022-11-25 16:03:02.485513, 1.72043
2022-11-25 16:03:02.485599, 1.72532
2022-11-25 16:03:02.518632, 1.69110
2022-11-25 16:03:02.518813, 1.72043
2022-11-25 16:03:02.518936, 1.71554
2022-11-25 16:03:02.551897, 1.70577
2022-11-25 16:03:02.552086, 1.70088
2022-11-25 16:03:02.552211, 1.69599
2022-11-25 16:03:02.552323, 1.69599
2022-11-25 16:03:02.585209, 1.70088
2022-11-25 16:03:02.585401, 1.71065
2022-11-25 16:03:02.585536, 1.69599
2022-11-25 16:03:02.618485, 1.67644
2022-11-25 16:03:02.618734, 1.71065
2022-11-25 16:03:02.618914, 1.70577
2022-11-25 16:03:02.619084, 1.69599
2022-11-25 16:03:02.651853, 1.69110
2022-11-25 16:03:02.652099, 1.67155
2022-11-25 16:03:02.652274, 1.70088
2022-11-25 16:03:02.685059, 1.69599
2022-11-25 16:03:02.685267, 1.68133
2022-11-25 16:03:02.685394, 1.67644
2022-11-25 16:03:02.685517, 1.67155
2022-11-25 16:03:02.718370, 1.68133
2022-11-25 16:03:02.718543, 1.69110
2022-11-25 16:03:02.718668, 1.71065
2022-11-25 16:03:02.718786, 1.73021
2022-11-25 16:03:02.751709, 1.74976
2022-11-25 16:03:02.751857, 1.75953
2022-11-25 16:03:02.751954, 1.80841
2022-11-25 16:03:02.784998, 1.79374
2022-11-25 16:03:02.785185, 1.79863
2022-11-25 16:03:02.785317, 1.79374
2022-11-25 16:03:02.785440, 1.79863
2022-11-25 16:03:02.818331, 1.79374
2022-11-25 16:03:02.818513, 1.78886
2022-11-25 16:03:02.818640, 1.76931
2022-11-25 16:03:02.851580, 1.77908
2022-11-25 16:03:02.851770, 1.77419
2022-11-25 16:03:02.851898, 1.77419
2022-11-25 16:03:02.852015, 1.77419
2022-11-25 16:03:02.884982, 1.77419
2022-11-25 16:03:02.885105, 1.77908
2022-11-25 16:03:02.885178, 1.77908
2022-11-25 16:03:02.918160, 1.78886
2022-11-25 16:03:02.918307, 1.78397
2022-11-25 16:03:02.918401, 1.79374
2022-11-25 16:03:02.918491, 1.78886
2022-11-25 16:03:02.951510, 1.78886
2022-11-25 16:03:02.951653, 1.78397
2022-11-25 16:03:02.951747, 1.77908
2022-11-25 16:03:02.984775, 1.76931
2022-11-25 16:03:02.984940, 1.76442
2022-11-25 16:03:02.985039, 1.76442
2022-11-25 16:03:02.985132, 1.77908
2022-11-25 16:03:03.018174, 1.75464
2022-11-25 16:03:03.018418, 1.79374
2022-11-25 16:03:03.018591, 1.77908
2022-11-25 16:03:03.018758, 1.79374
2022-11-25 16:03:03.051470, 1.77419
2022-11-25 16:03:03.051652, 1.75953
2022-11-25 16:03:03.051773, 1.75464
2022-11-25 16:03:03.084708, 1.75464
2022-11-25 16:03:03.084877, 1.74976
2022-11-25 16:03:03.085003, 1.74976
2022-11-25 16:03:03.085121, 1.74976
2022-11-25 16:03:03.118047, 1.74976
2022-11-25 16:03:03.118271, 1.74976
2022-11-25 16:03:03.118433, 1.78397
2022-11-25 16:03:03.151307, 1.77419
2022-11-25 16:03:03.151475, 1.77908
2022-11-25 16:03:03.151597, 1.74487
2022-11-25 16:03:03.151710, 1.74976
2022-11-25 16:03:03.184614, 1.73509
2022-11-25 16:03:03.184754, 1.73509
2022-11-25 16:03:03.184845, 1.72043
2022-11-25 16:03:03.217925, 1.72043
2022-11-25 16:03:03.218098, 1.72043
2022-11-25 16:03:03.218221, 1.72043
2022-11-25 16:03:03.218338, 1.72043
2022-11-25 16:03:03.251202, 1.71554
2022-11-25 16:03:03.251331, 1.71554
2022-11-25 16:03:03.251420, 1.71065
2022-11-25 16:03:03.284474, 1.71554
2022-11-25 16:03:03.284663, 1.71065
2022-11-25 16:03:03.284788, 1.71065
2022-11-25 16:03:03.284905, 1.71065
2022-11-25 16:03:03.317786, 1.71065
2022-11-25 16:03:03.317954, 1.71065
2022-11-25 16:03:03.318073, 1.70577
2022-11-25 16:03:03.318185, 1.70577
2022-11-25 16:03:03.351229, 1.70577
2022-11-25 16:03:03.351465, 1.70577
2022-11-25 16:03:03.351640, 1.70577
2022-11-25 16:03:03.384367, 1.70088
2022-11-25 16:03:03.384485, 1.70088
2022-11-25 16:03:03.384558, 1.69599
2022-11-25 16:03:03.384624, 1.70088
2022-11-25 16:03:03.417720, 1.69599
2022-11-25 16:03:03.417851, 1.69599
2022-11-25 16:03:03.417942, 1.69110
2022-11-25 16:03:03.450976, 1.68622
2022-11-25 16:03:03.451157, 1.70088
2022-11-25 16:03:03.451284, 1.69599
2022-11-25 16:03:03.451406, 1.72532
2022-11-25 16:03:03.484314, 1.72043
2022-11-25 16:03:03.484453, 1.71554
2022-11-25 16:03:03.484546, 1.72043
2022-11-25 16:03:03.517574, 1.70577
2022-11-25 16:03:03.517746, 1.69599
2022-11-25 16:03:03.517866, 1.68622
2022-11-25 16:03:03.517982, 1.68133
2022-11-25 16:03:03.551041, 1.68133
2022-11-25 16:03:03.551285, 1.68133
2022-11-25 16:03:03.551463, 1.68133
2022-11-25 16:03:03.584175, 1.68622
2022-11-25 16:03:03.584363, 1.67644
2022-11-25 16:03:03.584489, 1.67644
2022-11-25 16:03:03.584609, 1.67644
2022-11-25 16:03:03.617511, 1.67644
2022-11-25 16:03:03.617687, 1.68622
2022-11-25 16:03:03.617812, 1.68622
2022-11-25 16:03:03.617925, 1.70088
2022-11-25 16:03:03.650878, 1.69110
2022-11-25 16:03:03.651060, 1.67644
2022-11-25 16:03:03.651192, 1.67155
2022-11-25 16:03:03.684107, 1.66667
2022-11-25 16:03:03.684283, 1.69599
2022-11-25 16:03:03.684412, 1.69599
2022-11-25 16:03:03.684534, 1.66178
2022-11-25 16:03:03.717497, 1.65689
2022-11-25 16:03:03.717671, 1.65689
2022-11-25 16:03:03.717795, 1.65200
2022-11-25 16:03:03.750823, 1.68622
2022-11-25 16:03:03.751059, 1.66667
2022-11-25 16:03:03.751236, 1.68622
2022-11-25 16:03:03.751396, 1.65689
2022-11-25 16:03:03.784223, 1.67644
2022-11-25 16:03:03.784465, 1.67644
2022-11-25 16:03:03.784635, 1.70088
2022-11-25 16:03:03.817439, 1.68622
2022-11-25 16:03:03.817686, 1.70577
2022-11-25 16:03:03.817862, 1.72043
2022-11-25 16:03:03.818025, 1.74487
2022-11-25 16:03:03.850813, 1.75953
2022-11-25 16:03:03.851048, 1.77908
2022-11-25 16:03:03.851217, 1.81329
2022-11-25 16:03:03.883912, 1.78886
2022-11-25 16:03:03.884042, 1.80352
2022-11-25 16:03:03.884117, 1.78397
2022-11-25 16:03:03.884189, 1.78886
2022-11-25 16:03:03.917211, 1.77419
2022-11-25 16:03:03.917363, 1.76442
2022-11-25 16:03:03.917459, 1.75953
2022-11-25 16:03:03.917544, 1.75953
2022-11-25 16:03:03.950670, 1.75464
2022-11-25 16:03:03.950910, 1.76931
2022-11-25 16:03:03.951087, 1.75464
2022-11-25 16:03:03.983816, 1.74976
2022-11-25 16:03:03.983994, 1.75464
2022-11-25 16:03:03.984116, 1.75953
2022-11-25 16:03:03.984232, 1.76442
2022-11-25 16:03:04.017168, 1.78397
2022-11-25 16:03:04.017341, 1.76442
2022-11-25 16:03:04.017461, 1.76931
2022-11-25 16:03:04.050446, 1.75953
2022-11-25 16:03:04.050634, 1.77908
2022-11-25 16:03:04.050760, 1.74976
2022-11-25 16:03:04.050878, 1.77908
2022-11-25 16:03:04.083808, 1.74487
2022-11-25 16:03:04.083999, 1.74976
2022-11-25 16:03:04.084131, 1.73998
2022-11-25 16:03:04.117050, 1.77908
2022-11-25 16:03:04.117223, 1.73998
2022-11-25 16:03:04.117348, 1.75953
2022-11-25 16:03:04.117465, 1.74487
2022-11-25 16:03:04.150432, 1.73998
2022-11-25 16:03:04.150633, 1.74487
2022-11-25 16:03:04.150762, 1.73509
2022-11-25 16:03:04.183654, 1.74487
2022-11-25 16:03:04.183899, 1.73509
2022-11-25 16:03:04.184050, 1.73509
2022-11-25 16:03:04.184168, 1.73021
2022-11-25 16:03:04.217063, 1.73021
2022-11-25 16:03:04.217308, 1.76931
2022-11-25 16:03:04.217485, 1.76442
2022-11-25 16:03:04.217644, 1.75464
2022-11-25 16:03:04.250360, 1.74487
2022-11-25 16:03:04.250532, 1.72043
2022-11-25 16:03:04.250652, 1.71065
2022-11-25 16:03:04.283494, 1.71065
2022-11-25 16:03:04.283650, 1.71065
2022-11-25 16:03:04.283765, 1.71065
2022-11-25 16:03:04.283853, 1.71065
2022-11-25 16:03:04.316876, 1.70577
2022-11-25 16:03:04.317089, 1.70577
2022-11-25 16:03:04.317216, 1.70577
2022-11-25 16:03:04.350156, 1.70577
2022-11-25 16:03:04.350351, 1.70088
2022-11-25 16:03:04.350479, 1.70088
2022-11-25 16:03:04.350603, 1.69599
2022-11-25 16:03:04.383435, 1.69110
2022-11-25 16:03:04.383556, 1.69599
2022-11-25 16:03:04.383626, 1.69110
2022-11-25 16:03:04.416727, 1.69599
2022-11-25 16:03:04.416883, 1.69110
2022-11-25 16:03:04.417006, 1.68622
2022-11-25 16:03:04.417122, 1.69110
2022-11-25 16:03:04.450056, 1.68622
2022-11-25 16:03:04.450233, 1.69110
2022-11-25 16:03:04.450385, 1.68622
2022-11-25 16:03:04.483330, 1.68622
2022-11-25 16:03:04.483506, 1.71065
2022-11-25 16:03:04.483606, 1.72043
2022-11-25 16:03:04.483691, 1.68133
2022-11-25 16:03:04.516662, 1.71554
2022-11-25 16:03:04.516843, 1.71554
2022-11-25 16:03:04.516972, 1.69599
2022-11-25 16:03:04.517097, 1.71554
2022-11-25 16:03:04.550036, 1.67644
2022-11-25 16:03:04.550271, 1.67644
2022-11-25 16:03:04.550397, 1.70577
2022-11-25 16:03:04.583202, 1.71065
2022-11-25 16:03:04.583381, 1.68622
2022-11-25 16:03:04.583493, 1.70577
2022-11-25 16:03:04.583607, 1.67155
2022-11-25 16:03:04.616553, 1.70577
2022-11-25 16:03:04.616764, 1.68133
2022-11-25 16:03:04.616891, 1.67644
2022-11-25 16:03:04.649717, 1.68133
2022-11-25 16:03:04.649913, 1.67155
2022-11-25 16:03:04.650076, 1.67155
2022-11-25 16:03:04.650202, 1.66178
2022-11-25 16:03:04.683160, 1.66178
2022-11-25 16:03:04.683411, 1.66178
2022-11-25 16:03:04.683557, 1.66667
2022-11-25 16:03:04.716376, 1.66667
2022-11-25 16:03:04.716548, 1.66667
2022-11-25 16:03:04.716744, 1.66667
2022-11-25 16:03:04.716886, 1.69110
2022-11-25 16:03:04.749734, 1.66178
2022-11-25 16:03:04.749903, 1.69599
2022-11-25 16:03:04.750038, 1.71554
2022-11-25 16:03:04.782930, 1.72043
2022-11-25 16:03:04.783078, 1.73021
2022-11-25 16:03:04.783223, 1.73509
2022-11-25 16:03:04.783327, 1.74976
2022-11-25 16:03:04.816239, 1.76442
2022-11-25 16:03:04.816403, 1.78886
2022-11-25 16:03:04.816538, 1.77908
2022-11-25 16:03:04.816632, 1.81818
2022-11-25 16:03:04.849755, 1.77419
2022-11-25 16:03:04.850425, 1.80841
2022-11-25 16:03:04.850564, 1.76442
2022-11-25 16:03:04.882912, 1.76931
2022-11-25 16:03:04.883138, 1.75464
2022-11-25 16:03:04.883236, 1.77908
2022-11-25 16:03:04.883309, 1.74487
2022-11-25 16:03:04.916161, 1.73998
2022-11-25 16:03:04.916288, 1.73998
2022-11-25 16:03:04.916398, 1.73998
2022-11-25 16:03:04.949457, 1.74487
2022-11-25 16:03:04.949656, 1.74487
2022-11-25 16:03:04.949796, 1.74487
2022-11-25 16:03:04.949889, 1.74976
2022-11-25 16:03:04.982842, 1.74976
2022-11-25 16:03:04.983013, 1.74976
2022-11-25 16:03:04.983229, 1.74976
2022-11-25 16:03:05.016146, 1.73998
2022-11-25 16:03:05.016371, 1.73021
2022-11-25 16:03:05.016543, 1.74487
2022-11-25 16:03:05.016773, 1.73021
2022-11-25 16:03:05.049423, 1.72532
