2022-11-25 16:02:33.846647
2022-11-25 16:02:33.846854
2022-11-25 16:02:33.846976
2022-11-25 16:02:33.847090
2022-11-25 16:02:33.879980
2022-11-25 16:02:33.880227
2022-11-25 16:02:33.880409
2022-11-25 16:02:33.913249
2022-11-25 16:02:33.913524
2022-11-25 16:02:33.913704
2022-11-25 16:02:33.913866
2022-11-25 16:02:33.946574
2022-11-25 16:02:33.946828
2022-11-25 16:02:33.946994
2022-11-25 16:02:33.947155
2022-11-25 16:02:33.979960
2022-11-25 16:02:33.980217
2022-11-25 16:02:33.980394
2022-11-25 16:02:34.013154
2022-11-25 16:02:34.013409
2022-11-25 16:02:34.013571
2022-11-25 16:02:34.013740
2022-11-25 16:02:34.046556
2022-11-25 16:02:34.046812
2022-11-25 16:02:34.046986
2022-11-25 16:02:34.079805
2022-11-25 16:02:34.080059
2022-11-25 16:02:34.080235
2022-11-25 16:02:34.080395
2022-11-25 16:02:34.113110
2022-11-25 16:02:34.113342
2022-11-25 16:02:34.113511
2022-11-25 16:02:34.146337
2022-11-25 16:02:34.146574
2022-11-25 16:02:34.146744
2022-11-25 16:02:34.146900
2022-11-25 16:02:34.179716
2022-11-25 16:02:34.179978
2022-11-25 16:02:34.180149
2022-11-25 16:02:34.212911
2022-11-25 16:02:34.213178
2022-11-25 16:02:34.213348
2022-11-25 16:02:34.213505
2022-11-25 16:02:34.246334
2022-11-25 16:02:34.246596
2022-11-25 16:02:34.246766
2022-11-25 16:02:34.246927
2022-11-25 16:02:34.279687
2022-11-25 16:02:34.279928
2022-11-25 16:02:34.280094
2022-11-25 16:02:34.312813
2022-11-25 16:02:34.312879
2022-11-25 16:02:34.312930
2022-11-25 16:02:34.312981
2022-11-25 16:02:34.346038
2022-11-25 16:02:34.346107
2022-11-25 16:02:34.346171
2022-11-25 16:02:34.379370
2022-11-25 16:02:34.379517
2022-11-25 16:02:34.379610
2022-11-25 16:02:34.379695
2022-11-25 16:02:34.412822
2022-11-25 16:02:34.413067
2022-11-25 16:02:34.413241
2022-11-25 16:02:34.446052
2022-11-25 16:02:34.446335
2022-11-25 16:02:34.446502
2022-11-25 16:02:34.446666
2022-11-25 16:02:34.479393
2022-11-25 16:02:34.479641
2022-11-25 16:02:34.479807
2022-11-25 16:02:34.512626
2022-11-25 16:02:34.512880
2022-11-25 16:02:34.513047
2022-11-25 16:02:34.513203
2022-11-25 16:02:34.546010
2022-11-25 16:02:34.546263
2022-11-25 16:02:34.546438
2022-11-25 16:02:34.546594
2022-11-25 16:02:34.579349
2022-11-25 16:02:34.579586
2022-11-25 16:02:34.579748
2022-11-25 16:02:34.612589
2022-11-25 16:02:34.612839
2022-11-25 16:02:34.613019
2022-11-25 16:02:34.613184
2022-11-25 16:02:34.645944
2022-11-25 16:02:34.646187
2022-11-25 16:02:34.646358
2022-11-25 16:02:34.679193
2022-11-25 16:02:34.679443
2022-11-25 16:02:34.679603
2022-11-25 16:02:34.679790
2022-11-25 16:02:34.712456
2022-11-25 16:02:34.712691
2022-11-25 16:02:34.712853
2022-11-25 16:02:34.745761
2022-11-25 16:02:34.745982
2022-11-25 16:02:34.746143
2022-11-25 16:02:34.746297
2022-11-25 16:02:34.779129
2022-11-25 16:02:34.779377
2022-11-25 16:02:34.779545
2022-11-25 16:02:34.812202
2022-11-25 16:02:34.812367
2022-11-25 16:02:34.812462
2022-11-25 16:02:34.812551
2022-11-25 16:02:34.845728
2022-11-25 16:02:34.845977
2022-11-25 16:02:34.846151
2022-11-25 16:02:34.846309
2022-11-25 16:02:34.879087
2022-11-25 16:02:34.879340
2022-11-25 16:02:34.879510
2022-11-25 16:02:34.912263
2022-11-25 16:02:34.912490
2022-11-25 16:02:34.912646
2022-11-25 16:02:34.912802
2022-11-25 16:02:34.945620
2022-11-25 16:02:34.945853
2022-11-25 16:02:34.946020
2022-11-25 16:02:34.978905
2022-11-25 16:02:34.979148
2022-11-25 16:02:34.979310
2022-11-25 16:02:34.979468
2022-11-25 16:02:35.012159
2022-11-25 16:02:35.012348
2022-11-25 16:02:35.012465
2022-11-25 16:02:35.045469
2022-11-25 16:02:35.045720
2022-11-25 16:02:35.045892
2022-11-25 16:02:35.046044
2022-11-25 16:02:35.078821
2022-11-25 16:02:35.079063
2022-11-25 16:02:35.079225
2022-11-25 16:02:35.112024
2022-11-25 16:02:35.112289
2022-11-25 16:02:35.112465
2022-11-25 16:02:35.112625
2022-11-25 16:02:35.145423
2022-11-25 16:02:35.145758
2022-11-25 16:02:35.145964
2022-11-25 16:02:35.146132
2022-11-25 16:02:35.178796
2022-11-25 16:02:35.179044
2022-11-25 16:02:35.179210
2022-11-25 16:02:35.211995
2022-11-25 16:02:35.212153
2022-11-25 16:02:35.212243
2022-11-25 16:02:35.212328
2022-11-25 16:02:35.245379
2022-11-25 16:02:35.245617
2022-11-25 16:02:35.245783
2022-11-25 16:02:35.278594
2022-11-25 16:02:35.278826
2022-11-25 16:02:35.278987
2022-11-25 16:02:35.279145
2022-11-25 16:02:35.311672
2022-11-25 16:02:35.311751
2022-11-25 16:02:35.311813
2022-11-25 16:02:35.345096
2022-11-25 16:02:35.345239
2022-11-25 16:02:35.345330
2022-11-25 16:02:35.345412
2022-11-25 16:02:35.378550
2022-11-25 16:02:35.378787
2022-11-25 16:02:35.378959
2022-11-25 16:02:35.411744
2022-11-25 16:02:35.412002
2022-11-25 16:02:35.412169
2022-11-25 16:02:35.412330
2022-11-25 16:02:35.445130
2022-11-25 16:02:35.445367
2022-11-25 16:02:35.445538
2022-11-25 16:02:35.445705
2022-11-25 16:02:35.478459
2022-11-25 16:02:35.478699
2022-11-25 16:02:35.478867
2022-11-25 16:02:35.511721
2022-11-25 16:02:35.511973
2022-11-25 16:02:35.512142
2022-11-25 16:02:35.512300
2022-11-25 16:02:35.545065
2022-11-25 16:02:35.545314
2022-11-25 16:02:35.545480
2022-11-25 16:02:35.578297
2022-11-25 16:02:35.578552
2022-11-25 16:02:35.578726
2022-11-25 16:02:35.578881
2022-11-25 16:02:35.611665
2022-11-25 16:02:35.611914
2022-11-25 16:02:35.612086
2022-11-25 16:02:35.644891
2022-11-25 16:02:35.645150
2022-11-25 16:02:35.645320
2022-11-25 16:02:35.645486
2022-11-25 16:02:35.678308
2022-11-25 16:02:35.678562
2022-11-25 16:02:35.678733
2022-11-25 16:02:35.711431
2022-11-25 16:02:35.711686
2022-11-25 16:02:35.711853
2022-11-25 16:02:35.712021
2022-11-25 16:02:35.744824
2022-11-25 16:02:35.745065
2022-11-25 16:02:35.745234
2022-11-25 16:02:35.745393
2022-11-25 16:02:35.778204
2022-11-25 16:02:35.778457
2022-11-25 16:02:35.778629
2022-11-25 16:02:35.811279
2022-11-25 16:02:35.811431
2022-11-25 16:02:35.811520
2022-11-25 16:02:35.811652
2022-11-25 16:02:35.844785
2022-11-25 16:02:35.845058
2022-11-25 16:02:35.845235
2022-11-25 16:02:35.878021
2022-11-25 16:02:35.878274
2022-11-25 16:02:35.878441
2022-11-25 16:02:35.878604
2022-11-25 16:02:35.911345
2022-11-25 16:02:35.911589
2022-11-25 16:02:35.911755
2022-11-25 16:02:35.944596
2022-11-25 16:02:35.944849
2022-11-25 16:02:35.945019
2022-11-25 16:02:35.945180
2022-11-25 16:02:35.977970
2022-11-25 16:02:35.978220
2022-11-25 16:02:35.978383
2022-11-25 16:02:36.011196
2022-11-25 16:02:36.011448
2022-11-25 16:02:36.011616
2022-11-25 16:02:36.011774
2022-11-25 16:02:36.044525
2022-11-25 16:02:36.044763
2022-11-25 16:02:36.044921
2022-11-25 16:02:36.045079
2022-11-25 16:02:36.077913
2022-11-25 16:02:36.078156
2022-11-25 16:02:36.078319
2022-11-25 16:02:36.111138
2022-11-25 16:02:36.111392
2022-11-25 16:02:36.111569
2022-11-25 16:02:36.111730
2022-11-25 16:02:36.144455
2022-11-25 16:02:36.144688
2022-11-25 16:02:36.144849
2022-11-25 16:02:36.177721
2022-11-25 16:02:36.177973
2022-11-25 16:02:36.178142
2022-11-25 16:02:36.178303
2022-11-25 16:02:36.211067
2022-11-25 16:02:36.211309
2022-11-25 16:02:36.211476
2022-11-25 16:02:36.244302
2022-11-25 16:02:36.244543
2022-11-25 16:02:36.244704
2022-11-25 16:02:36.244858
2022-11-25 16:02:36.277629
2022-11-25 16:02:36.277882
2022-11-25 16:02:36.278061
2022-11-25 16:02:36.310787
2022-11-25 16:02:36.310970
2022-11-25 16:02:36.311066
2022-11-25 16:02:36.311154
2022-11-25 16:02:36.344297
2022-11-25 16:02:36.344561
2022-11-25 16:02:36.344734
2022-11-25 16:02:36.344896
2022-11-25 16:02:36.377631
2022-11-25 16:02:36.377884
2022-11-25 16:02:36.378054
2022-11-25 16:02:36.410818
2022-11-25 16:02:36.411062
2022-11-25 16:02:36.411229
2022-11-25 16:02:36.411386
2022-11-25 16:02:36.444164
2022-11-25 16:02:36.444354
2022-11-25 16:02:36.444480
2022-11-25 16:02:36.477412
2022-11-25 16:02:36.477654
2022-11-25 16:02:36.477823
2022-11-25 16:02:36.477986
2022-11-25 16:02:36.510785
2022-11-25 16:02:36.511037
2022-11-25 16:02:36.511206
2022-11-25 16:02:36.544013
2022-11-25 16:02:36.544271
2022-11-25 16:02:36.544440
2022-11-25 16:02:36.544604
2022-11-25 16:02:36.577378
2022-11-25 16:02:36.577622
2022-11-25 16:02:36.577785
2022-11-25 16:02:36.610592
2022-11-25 16:02:36.610876
2022-11-25 16:02:36.611046
2022-11-25 16:02:36.611205
2022-11-25 16:02:36.643957
2022-11-25 16:02:36.644196
2022-11-25 16:02:36.644367
2022-11-25 16:02:36.644536
2022-11-25 16:02:36.677284
2022-11-25 16:02:36.677480
2022-11-25 16:02:36.677609
2022-11-25 16:02:36.710509
2022-11-25 16:02:36.710746
2022-11-25 16:02:36.710911
2022-11-25 16:02:36.711068
2022-11-25 16:02:36.743902
2022-11-25 16:02:36.744151
2022-11-25 16:02:36.744320
2022-11-25 16:02:36.777118
2022-11-25 16:02:36.777342
2022-11-25 16:02:36.777503
2022-11-25 16:02:36.777678
2022-11-25 16:02:36.810472
2022-11-25 16:02:36.810725
2022-11-25 16:02:36.810895
2022-11-25 16:02:36.843792
2022-11-25 16:02:36.844059
2022-11-25 16:02:36.844229
2022-11-25 16:02:36.844396
2022-11-25 16:02:36.877113
2022-11-25 16:02:36.877369
2022-11-25 16:02:36.877537
2022-11-25 16:02:36.910308
2022-11-25 16:02:36.910575
2022-11-25 16:02:36.910749
2022-11-25 16:02:36.910907
2022-11-25 16:02:36.943622
2022-11-25 16:02:36.943778
2022-11-25 16:02:36.943867
2022-11-25 16:02:36.943957
2022-11-25 16:02:36.977044
2022-11-25 16:02:36.977288
2022-11-25 16:02:36.977449
2022-11-25 16:02:37.010275
2022-11-25 16:02:37.010520
2022-11-25 16:02:37.010692
2022-11-25 16:02:37.010855
2022-11-25 16:02:37.043607
2022-11-25 16:02:37.043850
2022-11-25 16:02:37.044026
2022-11-25 16:02:37.076812
2022-11-25 16:02:37.077001
2022-11-25 16:02:37.077117
2022-11-25 16:02:37.077230
2022-11-25 16:02:37.110185
2022-11-25 16:02:37.110434
2022-11-25 16:02:37.110614
2022-11-25 16:02:37.143405
2022-11-25 16:02:37.143666
2022-11-25 16:02:37.143842
2022-11-25 16:02:37.144001
2022-11-25 16:02:37.176748
2022-11-25 16:02:37.176906
2022-11-25 16:02:37.176997
2022-11-25 16:02:37.209981
2022-11-25 16:02:37.210255
2022-11-25 16:02:37.210425
2022-11-25 16:02:37.210603
2022-11-25 16:02:37.243394
2022-11-25 16:02:37.243648
2022-11-25 16:02:37.243818
2022-11-25 16:02:37.243982
2022-11-25 16:02:37.276725
2022-11-25 16:02:37.276972
2022-11-25 16:02:37.277137
2022-11-25 16:02:37.309900
2022-11-25 16:02:37.310235
2022-11-25 16:02:37.310437
2022-11-25 16:02:37.310645
2022-11-25 16:02:37.343195
2022-11-25 16:02:37.343296
2022-11-25 16:02:37.343378
2022-11-25 16:02:37.376499
2022-11-25 16:02:37.376646
2022-11-25 16:02:37.376739
2022-11-25 16:02:37.376823
2022-11-25 16:02:37.409898
2022-11-25 16:02:37.410134
2022-11-25 16:02:37.410302
2022-11-25 16:02:37.443128
2022-11-25 16:02:37.443392
2022-11-25 16:02:37.443568
2022-11-25 16:02:37.443728
2022-11-25 16:02:37.476501
2022-11-25 16:02:37.476750
2022-11-25 16:02:37.476922
2022-11-25 16:02:37.509666
2022-11-25 16:02:37.509935
2022-11-25 16:02:37.510113
2022-11-25 16:02:37.510275
2022-11-25 16:02:37.543104
2022-11-25 16:02:37.543363
2022-11-25 16:02:37.543532
2022-11-25 16:02:37.543695
2022-11-25 16:02:37.576402
2022-11-25 16:02:37.576597
2022-11-25 16:02:37.576719
2022-11-25 16:02:37.609630
2022-11-25 16:02:37.609813
2022-11-25 16:02:37.609931
2022-11-25 16:02:37.610051
2022-11-25 16:02:37.643025
2022-11-25 16:02:37.643274
2022-11-25 16:02:37.643444
2022-11-25 16:02:37.676257
2022-11-25 16:02:37.676453
2022-11-25 16:02:37.676579
2022-11-25 16:02:37.676688
2022-11-25 16:02:37.709576
2022-11-25 16:02:37.709910
2022-11-25 16:02:37.710117
2022-11-25 16:02:37.742827
2022-11-25 16:02:37.743071
2022-11-25 16:02:37.743232
2022-11-25 16:02:37.743397
2022-11-25 16:02:37.776211
2022-11-25 16:02:37.776466
2022-11-25 16:02:37.776640
2022-11-25 16:02:37.809397
2022-11-25 16:02:37.809657
2022-11-25 16:02:37.809830
2022-11-25 16:02:37.810063
2022-11-25 16:02:37.842752
2022-11-25 16:02:37.842914
2022-11-25 16:02:37.843006
2022-11-25 16:02:37.843091
2022-11-25 16:02:37.876133
2022-11-25 16:02:37.876371
2022-11-25 16:02:37.876535
2022-11-25 16:02:37.909337
2022-11-25 16:02:37.909573
2022-11-25 16:02:37.909742
2022-11-25 16:02:37.909910
2022-11-25 16:02:37.942739
2022-11-25 16:02:37.942986
2022-11-25 16:02:37.943160
2022-11-25 16:02:37.975945
2022-11-25 16:02:37.976176
2022-11-25 16:02:37.976335
2022-11-25 16:02:37.976496
2022-11-25 16:02:38.009294
2022-11-25 16:02:38.009525
2022-11-25 16:02:38.009693
2022-11-25 16:02:38.042544
2022-11-25 16:02:38.042806
2022-11-25 16:02:38.042982
2022-11-25 16:02:38.043148
2022-11-25 16:02:38.075887
2022-11-25 16:02:38.076080
2022-11-25 16:02:38.076201
2022-11-25 16:02:38.109117
2022-11-25 16:02:38.109393
2022-11-25 16:02:38.109562
2022-11-25 16:02:38.109727
2022-11-25 16:02:38.142422
2022-11-25 16:02:38.142664
2022-11-25 16:02:38.142829
2022-11-25 16:02:38.142987
2022-11-25 16:02:38.175834
2022-11-25 16:02:38.176029
2022-11-25 16:02:38.176152
2022-11-25 16:02:38.209071
2022-11-25 16:02:38.209317
2022-11-25 16:02:38.209486
2022-11-25 16:02:38.209643
2022-11-25 16:02:38.242433
2022-11-25 16:02:38.242674
2022-11-25 16:02:38.242838
2022-11-25 16:02:38.275658
2022-11-25 16:02:38.275833
2022-11-25 16:02:38.275947
2022-11-25 16:02:38.276059
2022-11-25 16:02:38.309033
2022-11-25 16:02:38.309267
2022-11-25 16:02:38.309424
2022-11-25 16:02:38.342164
2022-11-25 16:02:38.342286
2022-11-25 16:02:38.342363
2022-11-25 16:02:38.342435
2022-11-25 16:02:38.375572
2022-11-25 16:02:38.375763
2022-11-25 16:02:38.375889
2022-11-25 16:02:38.408810
2022-11-25 16:02:38.409065
2022-11-25 16:02:38.409236
2022-11-25 16:02:38.409390
2022-11-25 16:02:38.442261
2022-11-25 16:02:38.442509
2022-11-25 16:02:38.442686
2022-11-25 16:02:38.442849
2022-11-25 16:02:38.475568
2022-11-25 16:02:38.475815
2022-11-25 16:02:38.475986
2022-11-25 16:02:38.508777
2022-11-25 16:02:38.509024
2022-11-25 16:02:38.509187
2022-11-25 16:02:38.509361
2022-11-25 16:02:38.542154
2022-11-25 16:02:38.542385
2022-11-25 16:02:38.542559
2022-11-25 16:02:38.575384
2022-11-25 16:02:38.575619
2022-11-25 16:02:38.575791
2022-11-25 16:02:38.575949
2022-11-25 16:02:38.608705
2022-11-25 16:02:38.608946
2022-11-25 16:02:38.609105
2022-11-25 16:02:38.641984
2022-11-25 16:02:38.642247
2022-11-25 16:02:38.642421
2022-11-25 16:02:38.642583
2022-11-25 16:02:38.675324
2022-11-25 16:02:38.675558
2022-11-25 16:02:38.675721
2022-11-25 16:02:38.708538
2022-11-25 16:02:38.708821
2022-11-25 16:02:38.709000
2022-11-25 16:02:38.709165
2022-11-25 16:02:38.741880
2022-11-25 16:02:38.742132
2022-11-25 16:02:38.742300
2022-11-25 16:02:38.742457
2022-11-25 16:02:38.775332
2022-11-25 16:02:38.775571
2022-11-25 16:02:38.775732
2022-11-25 16:02:38.808502
2022-11-25 16:02:38.808735
2022-11-25 16:02:38.808902
2022-11-25 16:02:38.809161
2022-11-25 16:02:38.841808
2022-11-25 16:02:38.841970
2022-11-25 16:02:38.842060
2022-11-25 16:02:38.875127
2022-11-25 16:02:38.875385
2022-11-25 16:02:38.875558
2022-11-25 16:02:38.875716
2022-11-25 16:02:38.908443
2022-11-25 16:02:38.908699
2022-11-25 16:02:38.908870
2022-11-25 16:02:38.941667
2022-11-25 16:02:38.941866
2022-11-25 16:02:38.941987
2022-11-25 16:02:38.942104
2022-11-25 16:02:38.975059
2022-11-25 16:02:38.975316
2022-11-25 16:02:38.975487
2022-11-25 16:02:39.008217
2022-11-25 16:02:39.008419
2022-11-25 16:02:39.008539
2022-11-25 16:02:39.008655
2022-11-25 16:02:39.041605
2022-11-25 16:02:39.041854
2022-11-25 16:02:39.042023
2022-11-25 16:02:39.042184
2022-11-25 16:02:39.074985
2022-11-25 16:02:39.075245
2022-11-25 16:02:39.075423
2022-11-25 16:02:39.108231
2022-11-25 16:02:39.108410
2022-11-25 16:02:39.108533
2022-11-25 16:02:39.108650
2022-11-25 16:02:39.141522
2022-11-25 16:02:39.141781
2022-11-25 16:02:39.141955
2022-11-25 16:02:39.174804
2022-11-25 16:02:39.175066
2022-11-25 16:02:39.175242
2022-11-25 16:02:39.175404
2022-11-25 16:02:39.208151
2022-11-25 16:02:39.208398
2022-11-25 16:02:39.208575
2022-11-25 16:02:39.241357
2022-11-25 16:02:39.241618
2022-11-25 16:02:39.241788
2022-11-25 16:02:39.241954
2022-11-25 16:02:39.274699
2022-11-25 16:02:39.274858
2022-11-25 16:02:39.274946
2022-11-25 16:02:39.307952
2022-11-25 16:02:39.308228
2022-11-25 16:02:39.308411
2022-11-25 16:02:39.308573
2022-11-25 16:02:39.341302
2022-11-25 16:02:39.341505
2022-11-25 16:02:39.341626
2022-11-25 16:02:39.341743
2022-11-25 16:02:39.374692
2022-11-25 16:02:39.374937
2022-11-25 16:02:39.375125
2022-11-25 16:02:39.407915
2022-11-25 16:02:39.408159
2022-11-25 16:02:39.408323
2022-11-25 16:02:39.408479
2022-11-25 16:02:39.441320
2022-11-25 16:02:39.441577
2022-11-25 16:02:39.441749
2022-11-25 16:02:39.474483
2022-11-25 16:02:39.474739
2022-11-25 16:02:39.474912
2022-11-25 16:02:39.475067
2022-11-25 16:02:39.507860
2022-11-25 16:02:39.508113
2022-11-25 16:02:39.508283
2022-11-25 16:02:39.541065
2022-11-25 16:02:39.541316
2022-11-25 16:02:39.541487
2022-11-25 16:02:39.541641
2022-11-25 16:02:39.574402
2022-11-25 16:02:39.574587
2022-11-25 16:02:39.574701
2022-11-25 16:02:39.607658
2022-11-25 16:02:39.607933
2022-11-25 16:02:39.608103
2022-11-25 16:02:39.608266
2022-11-25 16:02:39.641038
2022-11-25 16:02:39.641291
2022-11-25 16:02:39.641470
2022-11-25 16:02:39.641634
2022-11-25 16:02:39.674388
2022-11-25 16:02:39.674638
2022-11-25 16:02:39.674831
2022-11-25 16:02:39.707643
2022-11-25 16:02:39.707903
2022-11-25 16:02:39.708071
2022-11-25 16:02:39.708229
2022-11-25 16:02:39.740970
2022-11-25 16:02:39.741202
2022-11-25 16:02:39.741366
2022-11-25 16:02:39.774231
2022-11-25 16:02:39.774479
2022-11-25 16:02:39.774647
2022-11-25 16:02:39.774812
2022-11-25 16:02:39.807582
2022-11-25 16:02:39.807839
2022-11-25 16:02:39.808008
2022-11-25 16:02:39.840783
2022-11-25 16:02:39.840987
2022-11-25 16:02:39.841114
2022-11-25 16:02:39.841230
2022-11-25 16:02:39.874167
2022-11-25 16:02:39.874433
2022-11-25 16:02:39.874604
2022-11-25 16:02:39.907369
2022-11-25 16:02:39.907611
2022-11-25 16:02:39.907775
2022-11-25 16:02:39.907937
2022-11-25 16:02:39.940730
2022-11-25 16:02:39.940884
2022-11-25 16:02:39.940979
2022-11-25 16:02:39.941065
2022-11-25 16:02:39.974086
2022-11-25 16:02:39.974314
2022-11-25 16:02:39.974478
2022-11-25 16:02:40.007394
2022-11-25 16:02:40.007673
2022-11-25 16:02:40.007865
2022-11-25 16:02:40.008030
2022-11-25 16:02:40.040569
2022-11-25 16:02:40.040727
2022-11-25 16:02:40.040857
2022-11-25 16:02:40.073905
2022-11-25 16:02:40.074166
2022-11-25 16:02:40.074344
2022-11-25 16:02:40.074503
2022-11-25 16:02:40.107297
2022-11-25 16:02:40.107548
2022-11-25 16:02:40.107722
2022-11-25 16:02:40.140487
2022-11-25 16:02:40.140741
2022-11-25 16:02:40.140911
2022-11-25 16:02:40.141076
2022-11-25 16:02:40.173800
2022-11-25 16:02:40.173965
2022-11-25 16:02:40.174058
2022-11-25 16:02:40.207093
2022-11-25 16:02:40.207368
2022-11-25 16:02:40.207539
2022-11-25 16:02:40.207932
2022-11-25 16:02:40.240386
2022-11-25 16:02:40.240538
2022-11-25 16:02:40.240630
2022-11-25 16:02:40.240716
2022-11-25 16:02:40.273743
2022-11-25 16:02:40.273931
2022-11-25 16:02:40.274046
2022-11-25 16:02:40.307025
2022-11-25 16:02:40.307266
2022-11-25 16:02:40.307429
2022-11-25 16:02:40.307591
2022-11-25 16:02:40.340275
2022-11-25 16:02:40.340434
2022-11-25 16:02:40.340525
2022-11-25 16:02:40.373605
2022-11-25 16:02:40.373855
2022-11-25 16:02:40.374022
2022-11-25 16:02:40.374184
2022-11-25 16:02:40.407007
2022-11-25 16:02:40.407264
2022-11-25 16:02:40.407433
2022-11-25 16:02:40.440200
2022-11-25 16:02:40.440451
2022-11-25 16:02:40.440621
2022-11-25 16:02:40.440787
2022-11-25 16:02:40.473533
2022-11-25 16:02:40.473725
2022-11-25 16:02:40.473847
2022-11-25 16:02:40.506777
2022-11-25 16:02:40.507043
2022-11-25 16:02:40.507216
2022-11-25 16:02:40.507375
2022-11-25 16:02:40.540143
2022-11-25 16:02:40.540402
2022-11-25 16:02:40.540576
2022-11-25 16:02:40.540731
2022-11-25 16:02:40.573551
2022-11-25 16:02:40.573801
2022-11-25 16:02:40.573973
2022-11-25 16:02:40.606743
2022-11-25 16:02:40.606980
2022-11-25 16:02:40.607149
2022-11-25 16:02:40.607306
2022-11-25 16:02:40.640101
2022-11-25 16:02:40.640338
2022-11-25 16:02:40.640499
2022-11-25 16:02:40.673357
2022-11-25 16:02:40.673612
2022-11-25 16:02:40.673781
2022-11-25 16:02:40.673944
2022-11-25 16:02:40.706746
2022-11-25 16:02:40.707001
2022-11-25 16:02:40.707170
2022-11-25 16:02:40.739934
2022-11-25 16:02:40.740200
2022-11-25 16:02:40.740374
2022-11-25 16:02:40.740534
2022-11-25 16:02:40.773280
2022-11-25 16:02:40.773477
2022-11-25 16:02:40.773600
2022-11-25 16:02:40.806486
2022-11-25 16:02:40.806696
2022-11-25 16:02:40.806818
2022-11-25 16:02:40.806975
2022-11-25 16:02:40.839884
2022-11-25 16:02:40.840143
2022-11-25 16:02:40.840323
2022-11-25 16:02:40.840520
2022-11-25 16:02:40.873240
2022-11-25 16:02:40.873504
2022-11-25 16:02:40.873682
2022-11-25 16:02:40.906416
2022-11-25 16:02:40.906584
2022-11-25 16:02:40.906676
2022-11-25 16:02:40.906759
2022-11-25 16:02:40.939817
2022-11-25 16:02:40.940067
2022-11-25 16:02:40.940230
2022-11-25 16:02:40.973060
2022-11-25 16:02:40.973318
2022-11-25 16:02:40.973490
2022-11-25 16:02:40.973652
2022-11-25 16:02:41.006406
2022-11-25 16:02:41.006657
2022-11-25 16:02:41.006826
2022-11-25 16:02:41.039604
2022-11-25 16:02:41.039856
2022-11-25 16:02:41.040020
2022-11-25 16:02:41.040179
2022-11-25 16:02:41.072993
2022-11-25 16:02:41.073250
2022-11-25 16:02:41.073427
2022-11-25 16:02:41.106199
2022-11-25 16:02:41.106461
2022-11-25 16:02:41.106639
2022-11-25 16:02:41.106800
2022-11-25 16:02:41.139578
2022-11-25 16:02:41.139832
2022-11-25 16:02:41.140003
2022-11-25 16:02:41.140187
2022-11-25 16:02:41.172963
2022-11-25 16:02:41.173228
2022-11-25 16:02:41.173396
2022-11-25 16:02:41.206164
2022-11-25 16:02:41.206369
2022-11-25 16:02:41.206489
2022-11-25 16:02:41.206601
2022-11-25 16:02:41.239495
2022-11-25 16:02:41.239819
2022-11-25 16:02:41.240027
2022-11-25 16:02:41.272746
2022-11-25 16:02:41.273004
2022-11-25 16:02:41.273166
2022-11-25 16:02:41.273325
2022-11-25 16:02:41.306120
2022-11-25 16:02:41.306383
2022-11-25 16:02:41.306558
2022-11-25 16:02:41.339294
2022-11-25 16:02:41.339546
2022-11-25 16:02:41.339716
2022-11-25 16:02:41.339875
2022-11-25 16:02:41.372679
2022-11-25 16:02:41.372945
2022-11-25 16:02:41.373126
2022-11-25 16:02:41.405953
2022-11-25 16:02:41.406182
2022-11-25 16:02:41.406309
2022-11-25 16:02:41.406426
2022-11-25 16:02:41.439292
2022-11-25 16:02:41.439572
2022-11-25 16:02:41.439744
2022-11-25 16:02:41.439902
2022-11-25 16:02:41.472639
2022-11-25 16:02:41.472890
2022-11-25 16:02:41.473054
2022-11-25 16:02:41.505865
2022-11-25 16:02:41.506104
2022-11-25 16:02:41.506266
2022-11-25 16:02:41.506428
2022-11-25 16:02:41.539217
2022-11-25 16:02:41.539454
2022-11-25 16:02:41.539625
2022-11-25 16:02:41.572446
2022-11-25 16:02:41.572690
2022-11-25 16:02:41.572852
2022-11-25 16:02:41.573018
2022-11-25 16:02:41.605764
2022-11-25 16:02:41.605942
2022-11-25 16:02:41.606056
2022-11-25 16:02:41.639048
2022-11-25 16:02:41.639247
2022-11-25 16:02:41.639369
2022-11-25 16:02:41.639487
2022-11-25 16:02:41.672428
2022-11-25 16:02:41.672684
2022-11-25 16:02:41.672861
2022-11-25 16:02:41.705620
2022-11-25 16:02:41.705901
2022-11-25 16:02:41.706067
2022-11-25 16:02:41.706230
2022-11-25 16:02:41.738973
2022-11-25 16:02:41.739217
2022-11-25 16:02:41.739378
2022-11-25 16:02:41.739542
2022-11-25 16:02:41.772335
2022-11-25 16:02:41.772572
2022-11-25 16:02:41.772743
2022-11-25 16:02:41.805536
2022-11-25 16:02:41.805720
2022-11-25 16:02:41.805835
2022-11-25 16:02:41.805951
2022-11-25 16:02:41.838867
2022-11-25 16:02:41.839017
2022-11-25 16:02:41.839102
2022-11-25 16:02:41.872236
2022-11-25 16:02:41.872486
2022-11-25 16:02:41.872656
2022-11-25 16:02:41.872813
2022-11-25 16:02:41.905543
2022-11-25 16:02:41.905810
2022-11-25 16:02:41.905983
2022-11-25 16:02:41.938764
2022-11-25 16:02:41.939034
2022-11-25 16:02:41.939211
2022-11-25 16:02:41.939371
2022-11-25 16:02:41.972135
2022-11-25 16:02:41.972383
2022-11-25 16:02:41.972550
2022-11-25 16:02:42.005315
2022-11-25 16:02:42.005511
2022-11-25 16:02:42.005631
2022-11-25 16:02:42.005751
2022-11-25 16:02:42.038702
2022-11-25 16:02:42.038963
2022-11-25 16:02:42.039133
2022-11-25 16:02:42.039294
2022-11-25 16:02:42.072055
2022-11-25 16:02:42.072307
2022-11-25 16:02:42.072478
2022-11-25 16:02:42.105288
2022-11-25 16:02:42.105528
2022-11-25 16:02:42.105694
2022-11-25 16:02:42.105852
2022-11-25 16:02:42.138637
2022-11-25 16:02:42.138887
2022-11-25 16:02:42.139054
2022-11-25 16:02:42.171854
2022-11-25 16:02:42.172004
2022-11-25 16:02:42.172092
2022-11-25 16:02:42.172175
2022-11-25 16:02:42.205308
2022-11-25 16:02:42.205572
2022-11-25 16:02:42.205744
2022-11-25 16:02:42.238471
2022-11-25 16:02:42.238673
2022-11-25 16:02:42.238799
2022-11-25 16:02:42.238920
2022-11-25 16:02:42.271796
2022-11-25 16:02:42.271959
2022-11-25 16:02:42.272050
2022-11-25 16:02:42.305006
2022-11-25 16:02:42.305275
2022-11-25 16:02:42.305454
2022-11-25 16:02:42.305616
2022-11-25 16:02:42.338349
2022-11-25 16:02:42.338509
2022-11-25 16:02:42.338781
2022-11-25 16:02:42.338870
2022-11-25 16:02:42.371788
2022-11-25 16:02:42.372047
2022-11-25 16:02:42.372220
2022-11-25 16:02:42.405013
2022-11-25 16:02:42.405265
2022-11-25 16:02:42.405434
2022-11-25 16:02:42.405604
2022-11-25 16:02:42.438347
2022-11-25 16:02:42.438606
2022-11-25 16:02:42.438777
2022-11-25 16:02:42.471584
2022-11-25 16:02:42.471833
2022-11-25 16:02:42.472005
2022-11-25 16:02:42.472165
2022-11-25 16:02:42.504917
2022-11-25 16:02:42.505117
2022-11-25 16:02:42.505244
2022-11-25 16:02:42.538186
2022-11-25 16:02:42.538420
2022-11-25 16:02:42.538592
2022-11-25 16:02:42.538745
2022-11-25 16:02:42.571530
2022-11-25 16:02:42.571783
2022-11-25 16:02:42.571951
2022-11-25 16:02:42.604720
2022-11-25 16:02:42.605006
2022-11-25 16:02:42.605181
2022-11-25 16:02:42.605348
2022-11-25 16:02:42.638110
2022-11-25 16:02:42.638355
2022-11-25 16:02:42.638522
2022-11-25 16:02:42.638680
2022-11-25 16:02:42.671480
2022-11-25 16:02:42.671734
2022-11-25 16:02:42.671905
2022-11-25 16:02:42.704659
2022-11-25 16:02:42.704909
2022-11-25 16:02:42.705073
2022-11-25 16:02:42.705229
2022-11-25 16:02:42.738079
2022-11-25 16:02:42.738341
2022-11-25 16:02:42.738510
2022-11-25 16:02:42.771284
2022-11-25 16:02:42.771546
2022-11-25 16:02:42.771718
2022-11-25 16:02:42.771877
2022-11-25 16:02:42.804637
2022-11-25 16:02:42.804836
2022-11-25 16:02:42.804955
2022-11-25 16:02:42.837876
2022-11-25 16:02:42.838086
2022-11-25 16:02:42.838231
2022-11-25 16:02:42.838344
2022-11-25 16:02:42.871234
2022-11-25 16:02:42.871491
2022-11-25 16:02:42.871664
2022-11-25 16:02:42.904374
2022-11-25 16:02:42.904646
2022-11-25 16:02:42.904816
2022-11-25 16:02:42.904975
2022-11-25 16:02:42.937746
2022-11-25 16:02:42.937996
2022-11-25 16:02:42.938169
2022-11-25 16:02:42.938329
2022-11-25 16:02:42.971129
2022-11-25 16:02:42.971380
2022-11-25 16:02:42.971552
2022-11-25 16:02:43.004320
2022-11-25 16:02:43.004522
2022-11-25 16:02:43.004647
2022-11-25 16:02:43.004769
2022-11-25 16:02:43.037710
2022-11-25 16:02:43.037935
2022-11-25 16:02:43.038100
2022-11-25 16:02:43.070989
2022-11-25 16:02:43.071244
2022-11-25 16:02:43.071417
2022-11-25 16:02:43.071588
2022-11-25 16:02:43.104294
2022-11-25 16:02:43.104444
2022-11-25 16:02:43.104540
2022-11-25 16:02:43.137551
2022-11-25 16:02:43.137757
2022-11-25 16:02:43.137885
2022-11-25 16:02:43.138004
2022-11-25 16:02:43.170901
2022-11-25 16:02:43.171154
2022-11-25 16:02:43.171325
2022-11-25 16:02:43.204119
2022-11-25 16:02:43.204330
2022-11-25 16:02:43.204457
2022-11-25 16:02:43.204582
2022-11-25 16:02:43.237492
2022-11-25 16:02:43.237749
2022-11-25 16:02:43.237924
2022-11-25 16:02:43.238085
2022-11-25 16:02:43.270814
2022-11-25 16:02:43.271018
2022-11-25 16:02:43.271138
2022-11-25 16:02:43.304053
2022-11-25 16:02:43.304243
2022-11-25 16:02:43.304363
2022-11-25 16:02:43.304481
2022-11-25 16:02:43.337385
2022-11-25 16:02:43.337545
2022-11-25 16:02:43.337637
2022-11-25 16:02:43.370637
2022-11-25 16:02:43.370869
2022-11-25 16:02:43.371032
2022-11-25 16:02:43.371191
2022-11-25 16:02:43.404005
2022-11-25 16:02:43.404244
2022-11-25 16:02:43.404414
2022-11-25 16:02:43.437230
2022-11-25 16:02:43.437475
2022-11-25 16:02:43.437650
2022-11-25 16:02:43.437814
2022-11-25 16:02:43.470635
2022-11-25 16:02:43.470885
2022-11-25 16:02:43.471055
2022-11-25 16:02:43.503803
2022-11-25 16:02:43.504077
2022-11-25 16:02:43.504248
2022-11-25 16:02:43.504411
2022-11-25 16:02:43.537179
2022-11-25 16:02:43.537426
2022-11-25 16:02:43.537620
2022-11-25 16:02:43.537777
2022-11-25 16:02:43.570548
2022-11-25 16:02:43.570790
2022-11-25 16:02:43.570970
2022-11-25 16:02:43.603759
2022-11-25 16:02:43.603945
2022-11-25 16:02:43.604067
2022-11-25 16:02:43.604185
2022-11-25 16:02:43.637091
2022-11-25 16:02:43.637273
2022-11-25 16:02:43.637393
2022-11-25 16:02:43.670343
2022-11-25 16:02:43.670597
2022-11-25 16:02:43.670770
2022-11-25 16:02:43.670929
2022-11-25 16:02:43.703701
2022-11-25 16:02:43.703886
2022-11-25 16:02:43.704008
2022-11-25 16:02:43.736952
2022-11-25 16:02:43.737206
2022-11-25 16:02:43.737385
2022-11-25 16:02:43.737543
2022-11-25 16:02:43.770286
2022-11-25 16:02:43.770435
2022-11-25 16:02:43.770525
2022-11-25 16:02:43.803495
2022-11-25 16:02:43.803653
2022-11-25 16:02:43.803739
2022-11-25 16:02:43.803830
2022-11-25 16:02:43.836873
2022-11-25 16:02:43.837028
2022-11-25 16:02:43.837119
2022-11-25 16:02:43.837203
2022-11-25 16:02:43.870209
2022-11-25 16:02:43.870361
2022-11-25 16:02:43.870451
2022-11-25 16:02:43.903476
2022-11-25 16:02:43.903672
2022-11-25 16:02:43.903798
2022-11-25 16:02:43.903922
2022-11-25 16:02:43.936792
2022-11-25 16:02:43.936975
2022-11-25 16:02:43.937096
2022-11-25 16:02:43.970054
2022-11-25 16:02:43.970245
2022-11-25 16:02:43.970369
2022-11-25 16:02:43.970486
2022-11-25 16:02:44.003431
2022-11-25 16:02:44.003675
2022-11-25 16:02:44.003853
2022-11-25 16:02:44.036646
2022-11-25 16:02:44.036897
2022-11-25 16:02:44.037074
2022-11-25 16:02:44.037233
2022-11-25 16:02:44.070073
2022-11-25 16:02:44.070325
2022-11-25 16:02:44.070497
2022-11-25 16:02:44.103236
2022-11-25 16:02:44.103395
2022-11-25 16:02:44.103494
2022-11-25 16:02:44.103577
2022-11-25 16:02:44.136598
2022-11-25 16:02:44.136852
2022-11-25 16:02:44.137027
2022-11-25 16:02:44.137194
2022-11-25 16:02:44.169902
2022-11-25 16:02:44.170082
2022-11-25 16:02:44.170203
2022-11-25 16:02:44.203267
2022-11-25 16:02:44.203524
2022-11-25 16:02:44.203696
2022-11-25 16:02:44.203860
2022-11-25 16:02:44.236562
2022-11-25 16:02:44.236750
2022-11-25 16:02:44.236870
2022-11-25 16:02:44.269764
2022-11-25 16:02:44.269936
2022-11-25 16:02:44.270052
2022-11-25 16:02:44.270165
2022-11-25 16:02:44.303057
2022-11-25 16:02:44.303186
2022-11-25 16:02:44.303272
2022-11-25 16:02:44.336352
2022-11-25 16:02:44.336493
2022-11-25 16:02:44.336583
2022-11-25 16:02:44.336667
2022-11-25 16:02:44.369745
2022-11-25 16:02:44.369983
2022-11-25 16:02:44.370151
2022-11-25 16:02:44.402935
2022-11-25 16:02:44.403132
2022-11-25 16:02:44.403261
2022-11-25 16:02:44.403376
2022-11-25 16:02:44.436341
2022-11-25 16:02:44.436568
2022-11-25 16:02:44.436733
2022-11-25 16:02:44.436892
2022-11-25 16:02:44.469756
2022-11-25 16:02:44.470168
2022-11-25 16:02:44.470352
2022-11-25 16:02:44.502857
2022-11-25 16:02:44.503005
2022-11-25 16:02:44.503094
2022-11-25 16:02:44.503183
2022-11-25 16:02:44.536238
2022-11-25 16:02:44.536413
2022-11-25 16:02:44.536534
2022-11-25 16:02:44.569561
2022-11-25 16:02:44.569762
2022-11-25 16:02:44.569885
2022-11-25 16:02:44.570003
2022-11-25 16:02:44.602735
2022-11-25 16:02:44.602928
2022-11-25 16:02:44.603054
2022-11-25 16:02:44.636142
2022-11-25 16:02:44.636382
2022-11-25 16:02:44.636510
2022-11-25 16:02:44.636627
2022-11-25 16:02:44.669490
2022-11-25 16:02:44.669739
2022-11-25 16:02:44.669908
2022-11-25 16:02:44.702645
2022-11-25 16:02:44.702878
2022-11-25 16:02:44.703002
2022-11-25 16:02:44.703120
2022-11-25 16:02:44.735994
2022-11-25 16:02:44.736317
2022-11-25 16:02:44.736496
2022-11-25 16:02:44.736662
2022-11-25 16:02:44.769320
2022-11-25 16:02:44.769645
2022-11-25 16:02:44.769822
2022-11-25 16:02:44.802522
2022-11-25 16:02:44.802797
2022-11-25 16:02:44.802943
2022-11-25 16:02:44.803058
2022-11-25 16:02:44.835840
2022-11-25 16:02:44.836031
2022-11-25 16:02:44.836139
2022-11-25 16:02:44.869111
2022-11-25 16:02:44.869363
2022-11-25 16:02:44.869537
2022-11-25 16:02:44.869663
2022-11-25 16:02:44.902476
2022-11-25 16:02:44.902716
2022-11-25 16:02:44.903032
2022-11-25 16:02:44.935707
2022-11-25 16:02:44.935892
2022-11-25 16:02:44.936026
2022-11-25 16:02:44.936247
2022-11-25 16:02:44.969175
2022-11-25 16:02:44.969395
2022-11-25 16:02:44.969514
2022-11-25 16:02:45.002288
2022-11-25 16:02:45.002549
2022-11-25 16:02:45.002728
2022-11-25 16:02:45.002896
2022-11-25 16:02:45.035628
2022-11-25 16:02:45.035834
2022-11-25 16:02:45.035944
2022-11-25 16:02:45.036031
2022-11-25 16:02:45.069007
2022-11-25 16:02:45.069224
2022-11-25 16:02:45.069408
2022-11-25 16:02:45.102222
2022-11-25 16:02:45.102403
2022-11-25 16:02:45.102528
2022-11-25 16:02:45.102702
2022-11-25 16:02:45.135576
2022-11-25 16:02:45.135749
2022-11-25 16:02:45.135949
2022-11-25 16:02:45.168832
2022-11-25 16:02:45.169067
2022-11-25 16:02:45.169236
2022-11-25 16:02:45.169410
2022-11-25 16:02:45.202225
2022-11-25 16:02:45.202466
2022-11-25 16:02:45.202643
2022-11-25 16:02:45.235457
2022-11-25 16:02:45.235694
2022-11-25 16:02:45.235874
2022-11-25 16:02:45.236038
2022-11-25 16:02:45.268749
2022-11-25 16:02:45.268927
2022-11-25 16:02:45.269052
2022-11-25 16:02:45.302068
2022-11-25 16:02:45.302343
2022-11-25 16:02:45.302524
2022-11-25 16:02:45.302690
2022-11-25 16:02:45.335290
2022-11-25 16:02:45.335385
2022-11-25 16:02:45.335464
2022-11-25 16:02:45.335541
2022-11-25 16:02:45.368659
2022-11-25 16:02:45.368799
2022-11-25 16:02:45.368899
2022-11-25 16:02:45.401971
2022-11-25 16:02:45.402206
2022-11-25 16:02:45.402378
2022-11-25 16:02:45.402550
2022-11-25 16:02:45.435254
2022-11-25 16:02:45.435425
2022-11-25 16:02:45.435543
2022-11-25 16:02:45.468545
2022-11-25 16:02:45.468782
2022-11-25 16:02:45.468935
2022-11-25 16:02:45.469064
2022-11-25 16:02:45.501895
2022-11-25 16:02:45.502141
2022-11-25 16:02:45.502318
2022-11-25 16:02:45.535121
2022-11-25 16:02:45.535304
2022-11-25 16:02:45.535427
2022-11-25 16:02:45.535551
2022-11-25 16:02:45.568435
2022-11-25 16:02:45.568600
2022-11-25 16:02:45.568723
2022-11-25 16:02:45.601699
2022-11-25 16:02:45.601899
2022-11-25 16:02:45.602026
2022-11-25 16:02:45.602141
2022-11-25 16:02:45.635089
2022-11-25 16:02:45.635273
2022-11-25 16:02:45.635401
2022-11-25 16:02:45.635527
2022-11-25 16:02:45.668431
2022-11-25 16:02:45.668657
2022-11-25 16:02:45.668820
2022-11-25 16:02:45.701652
2022-11-25 16:02:45.701883
2022-11-25 16:02:45.702056
2022-11-25 16:02:45.702215
2022-11-25 16:02:45.734980
2022-11-25 16:02:45.735126
2022-11-25 16:02:45.735220
2022-11-25 16:02:45.768218
2022-11-25 16:02:45.768399
2022-11-25 16:02:45.768531
2022-11-25 16:02:45.768645
2022-11-25 16:02:45.801582
2022-11-25 16:02:45.801762
2022-11-25 16:02:45.801889
2022-11-25 16:02:45.834845
2022-11-25 16:02:45.834981
2022-11-25 16:02:45.835065
2022-11-25 16:02:45.835141
2022-11-25 16:02:45.868172
2022-11-25 16:02:45.868355
2022-11-25 16:02:45.868482
2022-11-25 16:02:45.901403
2022-11-25 16:02:45.901554
2022-11-25 16:02:45.901648
2022-11-25 16:02:45.901734
2022-11-25 16:02:45.934806
2022-11-25 16:02:45.935047
2022-11-25 16:02:45.935219
2022-11-25 16:02:45.935381
2022-11-25 16:02:45.968140
2022-11-25 16:02:45.968318
2022-11-25 16:02:45.968442
2022-11-25 16:02:46.001400
2022-11-25 16:02:46.001644
2022-11-25 16:02:46.001817
2022-11-25 16:02:46.001977
2022-11-25 16:02:46.034672
2022-11-25 16:02:46.034819
2022-11-25 16:02:46.034914
2022-11-25 16:02:46.067934
2022-11-25 16:02:46.068113
2022-11-25 16:02:46.068238
2022-11-25 16:02:46.068357
2022-11-25 16:02:46.101281
2022-11-25 16:02:46.101457
2022-11-25 16:02:46.101580
2022-11-25 16:02:46.134538
2022-11-25 16:02:46.134715
2022-11-25 16:02:46.134842
2022-11-25 16:02:46.134960
2022-11-25 16:02:46.167975
2022-11-25 16:02:46.168222
2022-11-25 16:02:46.168393
2022-11-25 16:02:46.201115
2022-11-25 16:02:46.201272
2022-11-25 16:02:46.201366
2022-11-25 16:02:46.201453
2022-11-25 16:02:46.234475
2022-11-25 16:02:46.234701
2022-11-25 16:02:46.234871
2022-11-25 16:02:46.235029
2022-11-25 16:02:46.267741
2022-11-25 16:02:46.267925
2022-11-25 16:02:46.268056
2022-11-25 16:02:46.301070
2022-11-25 16:02:46.301242
2022-11-25 16:02:46.301362
2022-11-25 16:02:46.301483
2022-11-25 16:02:46.334394
2022-11-25 16:02:46.334542
2022-11-25 16:02:46.334637
2022-11-25 16:02:46.367659
2022-11-25 16:02:46.367810
2022-11-25 16:02:46.367907
2022-11-25 16:02:46.367993
2022-11-25 16:02:46.400986
2022-11-25 16:02:46.401162
2022-11-25 16:02:46.401288
2022-11-25 16:02:46.434245
2022-11-25 16:02:46.434437
2022-11-25 16:02:46.434562
2022-11-25 16:02:46.434684
2022-11-25 16:02:46.467604
2022-11-25 16:02:46.467782
2022-11-25 16:02:46.467905
2022-11-25 16:02:46.500893
2022-11-25 16:02:46.501142
2022-11-25 16:02:46.501320
2022-11-25 16:02:46.501478
2022-11-25 16:02:46.534174
2022-11-25 16:02:46.534352
2022-11-25 16:02:46.534474
2022-11-25 16:02:46.534598
2022-11-25 16:02:46.567486
2022-11-25 16:02:46.567661
2022-11-25 16:02:46.567783
2022-11-25 16:02:46.600786
2022-11-25 16:02:46.601084
2022-11-25 16:02:46.601215
2022-11-25 16:02:46.601332
2022-11-25 16:02:46.634286
2022-11-25 16:02:46.634518
2022-11-25 16:02:46.634688
2022-11-25 16:02:46.667342
2022-11-25 16:02:46.667480
2022-11-25 16:02:46.667574
2022-11-25 16:02:46.667659
2022-11-25 16:02:46.700726
2022-11-25 16:02:46.700916
2022-11-25 16:02:46.701041
2022-11-25 16:02:46.734001
2022-11-25 16:02:46.734198
2022-11-25 16:02:46.734327
2022-11-25 16:02:46.734444
2022-11-25 16:02:46.767321
2022-11-25 16:02:46.767494
2022-11-25 16:02:46.767615
2022-11-25 16:02:46.800562
2022-11-25 16:02:46.800767
2022-11-25 16:02:46.800895
2022-11-25 16:02:46.801014
2022-11-25 16:02:46.833789
2022-11-25 16:02:46.833943
2022-11-25 16:02:46.834028
2022-11-25 16:02:46.834125
2022-11-25 16:02:46.867259
2022-11-25 16:02:46.867404
2022-11-25 16:02:46.867501
2022-11-25 16:02:46.900532
2022-11-25 16:02:46.900690
2022-11-25 16:02:46.900789
2022-11-25 16:02:46.900873
2022-11-25 16:02:46.933907
2022-11-25 16:02:46.934081
2022-11-25 16:02:46.934207
2022-11-25 16:02:46.967120
2022-11-25 16:02:46.967345
2022-11-25 16:02:46.967468
2022-11-25 16:02:46.967586
2022-11-25 16:02:47.000444
2022-11-25 16:02:47.000676
2022-11-25 16:02:47.000842
2022-11-25 16:02:47.033692
2022-11-25 16:02:47.033871
2022-11-25 16:02:47.033996
2022-11-25 16:02:47.034110
2022-11-25 16:02:47.067038
2022-11-25 16:02:47.067188
2022-11-25 16:02:47.067283
2022-11-25 16:02:47.100247
2022-11-25 16:02:47.100439
2022-11-25 16:02:47.100596
2022-11-25 16:02:47.100711
2022-11-25 16:02:47.133566
2022-11-25 16:02:47.133757
2022-11-25 16:02:47.133934
2022-11-25 16:02:47.134080
2022-11-25 16:02:47.167009
2022-11-25 16:02:47.167285
2022-11-25 16:02:47.167504
2022-11-25 16:02:47.200221
2022-11-25 16:02:47.200456
2022-11-25 16:02:47.200599
2022-11-25 16:02:47.200718
2022-11-25 16:02:47.233455
2022-11-25 16:02:47.233648
2022-11-25 16:02:47.233751
2022-11-25 16:02:47.266742
2022-11-25 16:02:47.266892
2022-11-25 16:02:47.266983
2022-11-25 16:02:47.267094
2022-11-25 16:02:47.300085
2022-11-25 16:02:47.300250
2022-11-25 16:02:47.300431
2022-11-25 16:02:47.333357
2022-11-25 16:02:47.333507
2022-11-25 16:02:47.333599
2022-11-25 16:02:47.333682
2022-11-25 16:02:47.366947
2022-11-25 16:02:47.367260
2022-11-25 16:02:47.367538
2022-11-25 16:02:47.399886
2022-11-25 16:02:47.400083
2022-11-25 16:02:47.400195
2022-11-25 16:02:47.400316
2022-11-25 16:02:47.433232
2022-11-25 16:02:47.433431
2022-11-25 16:02:47.433533
2022-11-25 16:02:47.433624
2022-11-25 16:02:47.466549
2022-11-25 16:02:47.466733
2022-11-25 16:02:47.466824
2022-11-25 16:02:47.499902
2022-11-25 16:02:47.500135
2022-11-25 16:02:47.500397
2022-11-25 16:02:47.500594
2022-11-25 16:02:47.533224
2022-11-25 16:02:47.533394
2022-11-25 16:02:47.533575
2022-11-25 16:02:47.566408
2022-11-25 16:02:47.566527
2022-11-25 16:02:47.566612
2022-11-25 16:02:47.566748
2022-11-25 16:02:47.599775
2022-11-25 16:02:47.600031
2022-11-25 16:02:47.600246
2022-11-25 16:02:47.632958
2022-11-25 16:02:47.633083
2022-11-25 16:02:47.633166
2022-11-25 16:02:47.633327
2022-11-25 16:02:47.666429
2022-11-25 16:02:47.666651
2022-11-25 16:02:47.666889
2022-11-25 16:02:47.699612
2022-11-25 16:02:47.699802
2022-11-25 16:02:47.699968
2022-11-25 16:02:47.700155
2022-11-25 16:02:47.732938
2022-11-25 16:02:47.733132
2022-11-25 16:02:47.733333
2022-11-25 16:02:47.733483
2022-11-25 16:02:47.766264
2022-11-25 16:02:47.766438
2022-11-25 16:02:47.766563
2022-11-25 16:02:47.799556
2022-11-25 16:02:47.799727
2022-11-25 16:02:47.799902
2022-11-25 16:02:47.800050
2022-11-25 16:02:47.832848
2022-11-25 16:02:47.832988
2022-11-25 16:02:47.833115
2022-11-25 16:02:47.866209
2022-11-25 16:02:47.866396
2022-11-25 16:02:47.866619
2022-11-25 16:02:47.866749
2022-11-25 16:02:47.899454
2022-11-25 16:02:47.899586
2022-11-25 16:02:47.899728
2022-11-25 16:02:47.932795
2022-11-25 16:02:47.932957
2022-11-25 16:02:47.933121
2022-11-25 16:02:47.933271
2022-11-25 16:02:47.966199
2022-11-25 16:02:47.966412
2022-11-25 16:02:47.966574
2022-11-25 16:02:47.999448
2022-11-25 16:02:47.999709
2022-11-25 16:02:47.999884
2022-11-25 16:02:48.000045
2022-11-25 16:02:48.032656
2022-11-25 16:02:48.032779
2022-11-25 16:02:48.032906
2022-11-25 16:02:48.033009
2022-11-25 16:02:48.066034
2022-11-25 16:02:48.066176
2022-11-25 16:02:48.066292
2022-11-25 16:02:48.099234
2022-11-25 16:02:48.099366
2022-11-25 16:02:48.099453
2022-11-25 16:02:48.099552
2022-11-25 16:02:48.132558
2022-11-25 16:02:48.132669
2022-11-25 16:02:48.132752
2022-11-25 16:02:48.165935
2022-11-25 16:02:48.166312
2022-11-25 16:02:48.166503
2022-11-25 16:02:48.166664
2022-11-25 16:02:48.199153
2022-11-25 16:02:48.199390
2022-11-25 16:02:48.199523
2022-11-25 16:02:48.232399
2022-11-25 16:02:48.232587
2022-11-25 16:02:48.232676
2022-11-25 16:02:48.232765
2022-11-25 16:02:48.265775
2022-11-25 16:02:48.266045
2022-11-25 16:02:48.266187
2022-11-25 16:02:48.299015
2022-11-25 16:02:48.299157
2022-11-25 16:02:48.299245
2022-11-25 16:02:48.299433
2022-11-25 16:02:48.332434
2022-11-25 16:02:48.332859
2022-11-25 16:02:48.333053
2022-11-25 16:02:48.333214
2022-11-25 16:02:48.365747
2022-11-25 16:02:48.365911
2022-11-25 16:02:48.366152
2022-11-25 16:02:48.399012
2022-11-25 16:02:48.399174
2022-11-25 16:02:48.399395
2022-11-25 16:02:48.399515
2022-11-25 16:02:48.432244
2022-11-25 16:02:48.432371
2022-11-25 16:02:48.432522
2022-11-25 16:02:48.465521
2022-11-25 16:02:48.465693
2022-11-25 16:02:48.465824
2022-11-25 16:02:48.465946
2022-11-25 16:02:48.498846
2022-11-25 16:02:48.499029
2022-11-25 16:02:48.499130
2022-11-25 16:02:48.532138
2022-11-25 16:02:48.532378
2022-11-25 16:02:48.532499
2022-11-25 16:02:48.532688
2022-11-25 16:02:48.565426
2022-11-25 16:02:48.565613
2022-11-25 16:02:48.565706
2022-11-25 16:02:48.598701
2022-11-25 16:02:48.598834
2022-11-25 16:02:48.598962
2022-11-25 16:02:48.599067
2022-11-25 16:02:48.632045
2022-11-25 16:02:48.632166
2022-11-25 16:02:48.632295
2022-11-25 16:02:48.632397
2022-11-25 16:02:48.665512
2022-11-25 16:02:48.665725
2022-11-25 16:02:48.666127
2022-11-25 16:02:48.698678
2022-11-25 16:02:48.698805
2022-11-25 16:02:48.698892
2022-11-25 16:02:48.698975
2022-11-25 16:02:48.732072
2022-11-25 16:02:48.732228
2022-11-25 16:02:48.732401
2022-11-25 16:02:48.765332
2022-11-25 16:02:48.765495
2022-11-25 16:02:48.765612
2022-11-25 16:02:48.765786
2022-11-25 16:02:48.798626
2022-11-25 16:02:48.798755
2022-11-25 16:02:48.798842
2022-11-25 16:02:48.831918
2022-11-25 16:02:48.832661
2022-11-25 16:02:48.833089
2022-11-25 16:02:48.833479
2022-11-25 16:02:48.865354
2022-11-25 16:02:48.865546
2022-11-25 16:02:48.865670
2022-11-25 16:02:48.898530
2022-11-25 16:02:48.898725
2022-11-25 16:02:48.898849
2022-11-25 16:02:48.899008
2022-11-25 16:02:48.931913
2022-11-25 16:02:48.932128
2022-11-25 16:02:48.932294
2022-11-25 16:02:48.932551
2022-11-25 16:02:48.965213
2022-11-25 16:02:48.965373
2022-11-25 16:02:48.965489
2022-11-25 16:02:48.998476
2022-11-25 16:02:48.998629
2022-11-25 16:02:48.998743
2022-11-25 16:02:48.998857
2022-11-25 16:02:49.031827
2022-11-25 16:02:49.031980
2022-11-25 16:02:49.032099
2022-11-25 16:02:49.065081
2022-11-25 16:02:49.065286
2022-11-25 16:02:49.065422
2022-11-25 16:02:49.065537
2022-11-25 16:02:49.098376
2022-11-25 16:02:49.098513
2022-11-25 16:02:49.098605
2022-11-25 16:02:49.131673
2022-11-25 16:02:49.131908
2022-11-25 16:02:49.132069
2022-11-25 16:02:49.132228
2022-11-25 16:02:49.164962
2022-11-25 16:02:49.165101
2022-11-25 16:02:49.165187
2022-11-25 16:02:49.198301
2022-11-25 16:02:49.198525
2022-11-25 16:02:49.198652
2022-11-25 16:02:49.198765
2022-11-25 16:02:49.231567
2022-11-25 16:02:49.231642
2022-11-25 16:02:49.231692
2022-11-25 16:02:49.231744
2022-11-25 16:02:49.264844
2022-11-25 16:02:49.264912
2022-11-25 16:02:49.264972
2022-11-25 16:02:49.298142
2022-11-25 16:02:49.298282
2022-11-25 16:02:49.298374
2022-11-25 16:02:49.298463
2022-11-25 16:02:49.331646
2022-11-25 16:02:49.331976
2022-11-25 16:02:49.332248
2022-11-25 16:02:49.364782
2022-11-25 16:02:49.364915
2022-11-25 16:02:49.364998
2022-11-25 16:02:49.365070
2022-11-25 16:02:49.398254
2022-11-25 16:02:49.398493
2022-11-25 16:02:49.398642
2022-11-25 16:02:49.431461
2022-11-25 16:02:49.431715
2022-11-25 16:02:49.431885
2022-11-25 16:02:49.432028
2022-11-25 16:02:49.464848
2022-11-25 16:02:49.465140
2022-11-25 16:02:49.465314
2022-11-25 16:02:49.498018
2022-11-25 16:02:49.498249
2022-11-25 16:02:49.498363
2022-11-25 16:02:49.498453
2022-11-25 16:02:49.531367
2022-11-25 16:02:49.531620
2022-11-25 16:02:49.531745
2022-11-25 16:02:49.531858
2022-11-25 16:02:49.564736
2022-11-25 16:02:49.564986
2022-11-25 16:02:49.565133
2022-11-25 16:02:49.597966
2022-11-25 16:02:49.598228
2022-11-25 16:02:49.598377
2022-11-25 16:02:49.598494
2022-11-25 16:02:49.631327
2022-11-25 16:02:49.631615
2022-11-25 16:02:49.631763
2022-11-25 16:02:49.664534
2022-11-25 16:02:49.664687
2022-11-25 16:02:49.664802
2022-11-25 16:02:49.664897
2022-11-25 16:02:49.697925
2022-11-25 16:02:49.698385
2022-11-25 16:02:49.698577
2022-11-25 16:02:49.731022
2022-11-25 16:02:49.731160
2022-11-25 16:02:49.731275
2022-11-25 16:02:49.731385
2022-11-25 16:02:49.764523
2022-11-25 16:02:49.764972
2022-11-25 16:02:49.765178
2022-11-25 16:02:49.797590
2022-11-25 16:02:49.797743
2022-11-25 16:02:49.797862
2022-11-25 16:02:49.797969
2022-11-25 16:02:49.831103
2022-11-25 16:02:49.831349
2022-11-25 16:02:49.831623
2022-11-25 16:02:49.831783
2022-11-25 16:02:49.864269
2022-11-25 16:02:49.864345
2022-11-25 16:02:49.864406
2022-11-25 16:02:49.897641
2022-11-25 16:02:49.897780
2022-11-25 16:02:49.897861
2022-11-25 16:02:49.897945
2022-11-25 16:02:49.931009
2022-11-25 16:02:49.931205
2022-11-25 16:02:49.931326
2022-11-25 16:02:49.964284
2022-11-25 16:02:49.964545
2022-11-25 16:02:49.964820
2022-11-25 16:02:49.965044
2022-11-25 16:02:49.997552
2022-11-25 16:02:49.997716
2022-11-25 16:02:49.997804
2022-11-25 16:02:50.030835
2022-11-25 16:02:50.031093
2022-11-25 16:02:50.031262
2022-11-25 16:02:50.031560
2022-11-25 16:02:50.064166
2022-11-25 16:02:50.064322
2022-11-25 16:02:50.064423
2022-11-25 16:02:50.097429
2022-11-25 16:02:50.097701
2022-11-25 16:02:50.097875
2022-11-25 16:02:50.098050
2022-11-25 16:02:50.130756
2022-11-25 16:02:50.130948
2022-11-25 16:02:50.131068
2022-11-25 16:02:50.131186
2022-11-25 16:02:50.164169
2022-11-25 16:02:50.164419
2022-11-25 16:02:50.164588
2022-11-25 16:02:50.197377
2022-11-25 16:02:50.197546
2022-11-25 16:02:50.197642
2022-11-25 16:02:50.197731
2022-11-25 16:02:50.230785
2022-11-25 16:02:50.231033
2022-11-25 16:02:50.231203
2022-11-25 16:02:50.263974
2022-11-25 16:02:50.264168
2022-11-25 16:02:50.264289
2022-11-25 16:02:50.264412
2022-11-25 16:02:50.297338
2022-11-25 16:02:50.297603
2022-11-25 16:02:50.297775
2022-11-25 16:02:50.330542
2022-11-25 16:02:50.330739
2022-11-25 16:02:50.330861
2022-11-25 16:02:50.330977
2022-11-25 16:02:50.363955
2022-11-25 16:02:50.364196
2022-11-25 16:02:50.364360
2022-11-25 16:02:50.397137
2022-11-25 16:02:50.397403
2022-11-25 16:02:50.397573
2022-11-25 16:02:50.397739
2022-11-25 16:02:50.430493
2022-11-25 16:02:50.430733
2022-11-25 16:02:50.430896
2022-11-25 16:02:50.431054
2022-11-25 16:02:50.463830
2022-11-25 16:02:50.464059
2022-11-25 16:02:50.464225
2022-11-25 16:02:50.497053
2022-11-25 16:02:50.497234
2022-11-25 16:02:50.497348
2022-11-25 16:02:50.497462
2022-11-25 16:02:50.530465
2022-11-25 16:02:50.530717
2022-11-25 16:02:50.530884
2022-11-25 16:02:50.563670
2022-11-25 16:02:50.563923
2022-11-25 16:02:50.564091
2022-11-25 16:02:50.564257
2022-11-25 16:02:50.597035
2022-11-25 16:02:50.597268
2022-11-25 16:02:50.597431
2022-11-25 16:02:50.630241
2022-11-25 16:02:50.630496
2022-11-25 16:02:50.630668
2022-11-25 16:02:50.630832
2022-11-25 16:02:50.663631
2022-11-25 16:02:50.663873
2022-11-25 16:02:50.664041
2022-11-25 16:02:50.696832
2022-11-25 16:02:50.697106
2022-11-25 16:02:50.697280
2022-11-25 16:02:50.697446
2022-11-25 16:02:50.730212
2022-11-25 16:02:50.730461
2022-11-25 16:02:50.730631
2022-11-25 16:02:50.730793
2022-11-25 16:02:50.763581
2022-11-25 16:02:50.763830
2022-11-25 16:02:50.763998
2022-11-25 16:02:50.796808
2022-11-25 16:02:50.797058
2022-11-25 16:02:50.797227
2022-11-25 16:02:50.797383
2022-11-25 16:02:50.830167
2022-11-25 16:02:50.830403
2022-11-25 16:02:50.830572
2022-11-25 16:02:50.863397
2022-11-25 16:02:50.863652
2022-11-25 16:02:50.863821
2022-11-25 16:02:50.863986
2022-11-25 16:02:50.896718
2022-11-25 16:02:50.896903
2022-11-25 16:02:50.897018
2022-11-25 16:02:50.929995
2022-11-25 16:02:50.930255
2022-11-25 16:02:50.930428
2022-11-25 16:02:50.930586
2022-11-25 16:02:50.963335
2022-11-25 16:02:50.963526
2022-11-25 16:02:50.963649
2022-11-25 16:02:50.996531
2022-11-25 16:02:50.996798
2022-11-25 16:02:50.996971
2022-11-25 16:02:50.997136
2022-11-25 16:02:51.029938
2022-11-25 16:02:51.030206
2022-11-25 16:02:51.030377
2022-11-25 16:02:51.030535
2022-11-25 16:02:51.063263
2022-11-25 16:02:51.063519
2022-11-25 16:02:51.063701
2022-11-25 16:02:51.096507
2022-11-25 16:02:51.096752
2022-11-25 16:02:51.096921
2022-11-25 16:02:51.097089
2022-11-25 16:02:51.129868
2022-11-25 16:02:51.130118
2022-11-25 16:02:51.130283
2022-11-25 16:02:51.163170
2022-11-25 16:02:51.163431
2022-11-25 16:02:51.163604
2022-11-25 16:02:51.163769
2022-11-25 16:02:51.196459
2022-11-25 16:02:51.196707
2022-11-25 16:02:51.196871
2022-11-25 16:02:51.229701
2022-11-25 16:02:51.229963
2022-11-25 16:02:51.230137
2022-11-25 16:02:51.230297
2022-11-25 16:02:51.263036
2022-11-25 16:02:51.263285
2022-11-25 16:02:51.263446
2022-11-25 16:02:51.296222
2022-11-25 16:02:51.296492
2022-11-25 16:02:51.296665
2022-11-25 16:02:51.296823
2022-11-25 16:02:51.329651
2022-11-25 16:02:51.329847
2022-11-25 16:02:51.329971
2022-11-25 16:02:51.330084
2022-11-25 16:02:51.362954
2022-11-25 16:02:51.363150
2022-11-25 16:02:51.363276
2022-11-25 16:02:51.396173
2022-11-25 16:02:51.396422
2022-11-25 16:02:51.396595
2022-11-25 16:02:51.396754
2022-11-25 16:02:51.429617
2022-11-25 16:02:51.429872
2022-11-25 16:02:51.430060
2022-11-25 16:02:51.462789
2022-11-25 16:02:51.462982
2022-11-25 16:02:51.463103
2022-11-25 16:02:51.463225
2022-11-25 16:02:51.496223
2022-11-25 16:02:51.496473
2022-11-25 16:02:51.496640
2022-11-25 16:02:51.529390
2022-11-25 16:02:51.529637
2022-11-25 16:02:51.529805
2022-11-25 16:02:51.529963
2022-11-25 16:02:51.562759
2022-11-25 16:02:51.563014
2022-11-25 16:02:51.563194
2022-11-25 16:02:51.595969
2022-11-25 16:02:51.596238
2022-11-25 16:02:51.596419
2022-11-25 16:02:51.596594
2022-11-25 16:02:51.629345
2022-11-25 16:02:51.629586
2022-11-25 16:02:51.629752
2022-11-25 16:02:51.629905
2022-11-25 16:02:51.662699
2022-11-25 16:02:51.662934
2022-11-25 16:02:51.663105
2022-11-25 16:02:51.695896
2022-11-25 16:02:51.696142
2022-11-25 16:02:51.696306
2022-11-25 16:02:51.696470
2022-11-25 16:02:51.729301
2022-11-25 16:02:51.729543
2022-11-25 16:02:51.729708
2022-11-25 16:02:51.762534
2022-11-25 16:02:51.762796
2022-11-25 16:02:51.762962
2022-11-25 16:02:51.763118
2022-11-25 16:02:51.795875
2022-11-25 16:02:51.796134
2022-11-25 16:02:51.796303
2022-11-25 16:02:51.829142
2022-11-25 16:02:51.829388
2022-11-25 16:02:51.829555
2022-11-25 16:02:51.829718
2022-11-25 16:02:51.862420
2022-11-25 16:02:51.862615
2022-11-25 16:02:51.862732
2022-11-25 16:02:51.895674
2022-11-25 16:02:51.895932
2022-11-25 16:02:51.896099
2022-11-25 16:02:51.896256
2022-11-25 16:02:51.929035
2022-11-25 16:02:51.929294
2022-11-25 16:02:51.929464
2022-11-25 16:02:51.929635
2022-11-25 16:02:51.962434
2022-11-25 16:02:51.962687
2022-11-25 16:02:51.962857
2022-11-25 16:02:51.995645
2022-11-25 16:02:51.995893
2022-11-25 16:02:51.996057
2022-11-25 16:02:51.996222
2022-11-25 16:02:52.028992
2022-11-25 16:02:52.029235
2022-11-25 16:02:52.029406
2022-11-25 16:02:52.062236
2022-11-25 16:02:52.062473
2022-11-25 16:02:52.062641
2022-11-25 16:02:52.062798
2022-11-25 16:02:52.095586
2022-11-25 16:02:52.095809
2022-11-25 16:02:52.095973
2022-11-25 16:02:52.128793
2022-11-25 16:02:52.129037
2022-11-25 16:02:52.129209
2022-11-25 16:02:52.129370
2022-11-25 16:02:52.162202
2022-11-25 16:02:52.162436
2022-11-25 16:02:52.162607
2022-11-25 16:02:52.195350
2022-11-25 16:02:52.195599
2022-11-25 16:02:52.195769
2022-11-25 16:02:52.195925
2022-11-25 16:02:52.228766
2022-11-25 16:02:52.229011
2022-11-25 16:02:52.229171
2022-11-25 16:02:52.229333
2022-11-25 16:02:52.262095
2022-11-25 16:02:52.262336
2022-11-25 16:02:52.262503
2022-11-25 16:02:52.295299
2022-11-25 16:02:52.295526
2022-11-25 16:02:52.295690
2022-11-25 16:02:52.295849
2022-11-25 16:02:52.328679
2022-11-25 16:02:52.328915
2022-11-25 16:02:52.329078
2022-11-25 16:02:52.361894
2022-11-25 16:02:52.362037
2022-11-25 16:02:52.362123
2022-11-25 16:02:52.362213
2022-11-25 16:02:52.395252
2022-11-25 16:02:52.395512
2022-11-25 16:02:52.395681
2022-11-25 16:02:52.428507
2022-11-25 16:02:52.428756
2022-11-25 16:02:52.428923
2022-11-25 16:02:52.429089
2022-11-25 16:02:52.461857
2022-11-25 16:02:52.462091
2022-11-25 16:02:52.462251
2022-11-25 16:02:52.495040
2022-11-25 16:02:52.495327
2022-11-25 16:02:52.495505
2022-11-25 16:02:52.495664
2022-11-25 16:02:52.528453
2022-11-25 16:02:52.528701
2022-11-25 16:02:52.528874
2022-11-25 16:02:52.529037
2022-11-25 16:02:52.561805
2022-11-25 16:02:52.562058
2022-11-25 16:02:52.562225
2022-11-25 16:02:52.595071
2022-11-25 16:02:52.595323
2022-11-25 16:02:52.595490
2022-11-25 16:02:52.595650
2022-11-25 16:02:52.628417
2022-11-25 16:02:52.628681
2022-11-25 16:02:52.628848
2022-11-25 16:02:52.661623
2022-11-25 16:02:52.661863
2022-11-25 16:02:52.662038
2022-11-25 16:02:52.662196
2022-11-25 16:02:52.694973
2022-11-25 16:02:52.695223
2022-11-25 16:02:52.695396
2022-11-25 16:02:52.728239
2022-11-25 16:02:52.728486
2022-11-25 16:02:52.728659
2022-11-25 16:02:52.728819
2022-11-25 16:02:52.761583
2022-11-25 16:02:52.761776
2022-11-25 16:02:52.761898
2022-11-25 16:02:52.794812
2022-11-25 16:02:52.795094
2022-11-25 16:02:52.795272
2022-11-25 16:02:52.795438
2022-11-25 16:02:52.828195
2022-11-25 16:02:52.828454
2022-11-25 16:02:52.828625
2022-11-25 16:02:52.828794
2022-11-25 16:02:52.861495
2022-11-25 16:02:52.861646
2022-11-25 16:02:52.861725
2022-11-25 16:02:52.894778
2022-11-25 16:02:52.895021
2022-11-25 16:02:52.895193
2022-11-25 16:02:52.895349
2022-11-25 16:02:52.928099
2022-11-25 16:02:52.928338
2022-11-25 16:02:52.928498
2022-11-25 16:02:52.961352
2022-11-25 16:02:52.961602
2022-11-25 16:02:52.961769
2022-11-25 16:02:52.962154
2022-11-25 16:02:52.994555
2022-11-25 16:02:52.994716
2022-11-25 16:02:52.994808
2022-11-25 16:02:53.027880
2022-11-25 16:02:53.028086
2022-11-25 16:02:53.028210
2022-11-25 16:02:53.028345
2022-11-25 16:02:53.061256
2022-11-25 16:02:53.061445
2022-11-25 16:02:53.061569
2022-11-25 16:02:53.094494
2022-11-25 16:02:53.094781
2022-11-25 16:02:53.094962
2022-11-25 16:02:53.095128
2022-11-25 16:02:53.127871
2022-11-25 16:02:53.128123
2022-11-25 16:02:53.128292
2022-11-25 16:02:53.128459
2022-11-25 16:02:53.161205
2022-11-25 16:02:53.161400
2022-11-25 16:02:53.161521
2022-11-25 16:02:53.194459
2022-11-25 16:02:53.194711
2022-11-25 16:02:53.194879
2022-11-25 16:02:53.195038
2022-11-25 16:02:53.227763
2022-11-25 16:02:53.228006
2022-11-25 16:02:53.228176
2022-11-25 16:02:53.261034
2022-11-25 16:02:53.261286
2022-11-25 16:02:53.261461
2022-11-25 16:02:53.261622
2022-11-25 16:02:53.294427
2022-11-25 16:02:53.294683
2022-11-25 16:02:53.294852
2022-11-25 16:02:53.327627
2022-11-25 16:02:53.327875
2022-11-25 16:02:53.328053
2022-11-25 16:02:53.328210
2022-11-25 16:02:53.360963
2022-11-25 16:02:53.361159
2022-11-25 16:02:53.361277
2022-11-25 16:02:53.394195
2022-11-25 16:02:53.394416
2022-11-25 16:02:53.394538
2022-11-25 16:02:53.394655
2022-11-25 16:02:53.427596
2022-11-25 16:02:53.427847
2022-11-25 16:02:53.428022
2022-11-25 16:02:53.428186
2022-11-25 16:02:53.460928
2022-11-25 16:02:53.461239
2022-11-25 16:02:53.461438
2022-11-25 16:02:53.494110
2022-11-25 16:02:53.494367
2022-11-25 16:02:53.494535
2022-11-25 16:02:53.494697
2022-11-25 16:02:53.527528
2022-11-25 16:02:53.527779
2022-11-25 16:02:53.527954
2022-11-25 16:02:53.560751
2022-11-25 16:02:53.560994
2022-11-25 16:02:53.561171
2022-11-25 16:02:53.561338
2022-11-25 16:02:53.594131
2022-11-25 16:02:53.594395
2022-11-25 16:02:53.594569
2022-11-25 16:02:53.627341
2022-11-25 16:02:53.627608
2022-11-25 16:02:53.627781
2022-11-25 16:02:53.627949
2022-11-25 16:02:53.660719
2022-11-25 16:02:53.660973
2022-11-25 16:02:53.661142
2022-11-25 16:02:53.693883
2022-11-25 16:02:53.694150
2022-11-25 16:02:53.694321
2022-11-25 16:02:53.694479
2022-11-25 16:02:53.727306
2022-11-25 16:02:53.727562
2022-11-25 16:02:53.727730
2022-11-25 16:02:53.727891
2022-11-25 16:02:53.760650
2022-11-25 16:02:53.760902
2022-11-25 16:02:53.761074
2022-11-25 16:02:53.793872
2022-11-25 16:02:53.794132
2022-11-25 16:02:53.794300
2022-11-25 16:02:53.794487
2022-11-25 16:02:53.827250
2022-11-25 16:02:53.827510
2022-11-25 16:02:53.827678
2022-11-25 16:02:53.860454
2022-11-25 16:02:53.860603
2022-11-25 16:02:53.860683
2022-11-25 16:02:53.860759
2022-11-25 16:02:53.893797
2022-11-25 16:02:53.894114
2022-11-25 16:02:53.894310
2022-11-25 16:02:53.927127
2022-11-25 16:02:53.927327
2022-11-25 16:02:53.927452
2022-11-25 16:02:53.927570
2022-11-25 16:02:53.960390
2022-11-25 16:02:53.960625
2022-11-25 16:02:53.960785
2022-11-25 16:02:53.993632
2022-11-25 16:02:53.993907
2022-11-25 16:02:53.994077
2022-11-25 16:02:53.994242
2022-11-25 16:02:54.027005
2022-11-25 16:02:54.027201
2022-11-25 16:02:54.027324
2022-11-25 16:02:54.027445
2022-11-25 16:02:54.060366
2022-11-25 16:02:54.060622
2022-11-25 16:02:54.060792
2022-11-25 16:02:54.093580
2022-11-25 16:02:54.093842
2022-11-25 16:02:54.094081
2022-11-25 16:02:54.094280
2022-11-25 16:02:54.126954
2022-11-25 16:02:54.127189
2022-11-25 16:02:54.127355
2022-11-25 16:02:54.160181
2022-11-25 16:02:54.160452
2022-11-25 16:02:54.160624
2022-11-25 16:02:54.160792
2022-11-25 16:02:54.193518
2022-11-25 16:02:54.193756
2022-11-25 16:02:54.193928
2022-11-25 16:02:54.226755
2022-11-25 16:02:54.227012
2022-11-25 16:02:54.227184
2022-11-25 16:02:54.227348
2022-11-25 16:02:54.260206
2022-11-25 16:02:54.260468
2022-11-25 16:02:54.260640
2022-11-25 16:02:54.293345
2022-11-25 16:02:54.293628
2022-11-25 16:02:54.293799
2022-11-25 16:02:54.293958
2022-11-25 16:02:54.326703
2022-11-25 16:02:54.326903
2022-11-25 16:02:54.327027
2022-11-25 16:02:54.327141
2022-11-25 16:02:54.360078
2022-11-25 16:02:54.360341
2022-11-25 16:02:54.360506
2022-11-25 16:02:54.393281
2022-11-25 16:02:54.393533
2022-11-25 16:02:54.393708
2022-11-25 16:02:54.393870
2022-11-25 16:02:54.426643
2022-11-25 16:02:54.426880
2022-11-25 16:02:54.427043
2022-11-25 16:02:54.459897
2022-11-25 16:02:54.460140
2022-11-25 16:02:54.460311
2022-11-25 16:02:54.460470
2022-11-25 16:02:54.493234
2022-11-25 16:02:54.493491
2022-11-25 16:02:54.493667
2022-11-25 16:02:54.526462
2022-11-25 16:02:54.526712
2022-11-25 16:02:54.526885
2022-11-25 16:02:54.527039
2022-11-25 16:02:54.559828
2022-11-25 16:02:54.560064
2022-11-25 16:02:54.560232
2022-11-25 16:02:54.593025
2022-11-25 16:02:54.593308
2022-11-25 16:02:54.593479
2022-11-25 16:02:54.593644
2022-11-25 16:02:54.626383
2022-11-25 16:02:54.626548
2022-11-25 16:02:54.626637
2022-11-25 16:02:54.626722
2022-11-25 16:02:54.659786
2022-11-25 16:02:54.660032
2022-11-25 16:02:54.660200
2022-11-25 16:02:54.692986
2022-11-25 16:02:54.693236
2022-11-25 16:02:54.693409
2022-11-25 16:02:54.693569
2022-11-25 16:02:54.726362
2022-11-25 16:02:54.726614
2022-11-25 16:02:54.726781
2022-11-25 16:02:54.759593
2022-11-25 16:02:54.759787
2022-11-25 16:02:54.759906
2022-11-25 16:02:54.760022
2022-11-25 16:02:54.792942
2022-11-25 16:02:54.793190
2022-11-25 16:02:54.793366
2022-11-25 16:02:54.826165
2022-11-25 16:02:54.826419
2022-11-25 16:02:54.826592
2022-11-25 16:02:54.826753
2022-11-25 16:02:54.859512
2022-11-25 16:02:54.859674
2022-11-25 16:02:54.859765
2022-11-25 16:02:54.892749
2022-11-25 16:02:54.893031
2022-11-25 16:02:54.893210
2022-11-25 16:02:54.893373
2022-11-25 16:02:54.926126
2022-11-25 16:02:54.926329
2022-11-25 16:02:54.926456
2022-11-25 16:02:54.926575
2022-11-25 16:02:54.959500
2022-11-25 16:02:54.959749
2022-11-25 16:02:54.959921
2022-11-25 16:02:54.992666
2022-11-25 16:02:54.992814
2022-11-25 16:02:54.992901
2022-11-25 16:02:54.992988
2022-11-25 16:02:55.026082
2022-11-25 16:02:55.026339
2022-11-25 16:02:55.026512
2022-11-25 16:02:55.059296
2022-11-25 16:02:55.059539
2022-11-25 16:02:55.059709
2022-11-25 16:02:55.059879
2022-11-25 16:02:55.092642
2022-11-25 16:02:55.092870
2022-11-25 16:02:55.093245
2022-11-25 16:02:55.125864
2022-11-25 16:02:55.126073
2022-11-25 16:02:55.126213
2022-11-25 16:02:55.126331
2022-11-25 16:02:55.159266
2022-11-25 16:02:55.159531
2022-11-25 16:02:55.159705
2022-11-25 16:02:55.192469
2022-11-25 16:02:55.192760
2022-11-25 16:02:55.192940
2022-11-25 16:02:55.193107
2022-11-25 16:02:55.225829
2022-11-25 16:02:55.226073
2022-11-25 16:02:55.226242
2022-11-25 16:02:55.226410
2022-11-25 16:02:55.259222
2022-11-25 16:02:55.259478
2022-11-25 16:02:55.259643
2022-11-25 16:02:55.292427
2022-11-25 16:02:55.292690
2022-11-25 16:02:55.292863
2022-11-25 16:02:55.293023
2022-11-25 16:02:55.325797
2022-11-25 16:02:55.326059
2022-11-25 16:02:55.326229
2022-11-25 16:02:55.358992
2022-11-25 16:02:55.359162
2022-11-25 16:02:55.359253
2022-11-25 16:02:55.359342
2022-11-25 16:02:55.392355
2022-11-25 16:02:55.392600
2022-11-25 16:02:55.392770
2022-11-25 16:02:55.425569
2022-11-25 16:02:55.425827
2022-11-25 16:02:55.425999
2022-11-25 16:02:55.426169
2022-11-25 16:02:55.458948
2022-11-25 16:02:55.459201
2022-11-25 16:02:55.459375
2022-11-25 16:02:55.492143
2022-11-25 16:02:55.492389
2022-11-25 16:02:55.492558
2022-11-25 16:02:55.492716
2022-11-25 16:02:55.525567
2022-11-25 16:02:55.525814
2022-11-25 16:02:55.525977
2022-11-25 16:02:55.526138
2022-11-25 16:02:55.558918
2022-11-25 16:02:55.559163
2022-11-25 16:02:55.559331
2022-11-25 16:02:55.592131
2022-11-25 16:02:55.592377
2022-11-25 16:02:55.592540
2022-11-25 16:02:55.592696
2022-11-25 16:02:55.625490
2022-11-25 16:02:55.625738
2022-11-25 16:02:55.625903
2022-11-25 16:02:55.658704
2022-11-25 16:02:55.658952
2022-11-25 16:02:55.659122
2022-11-25 16:02:55.659281
2022-11-25 16:02:55.692073
2022-11-25 16:02:55.692316
2022-11-25 16:02:55.692482
2022-11-25 16:02:55.725321
2022-11-25 16:02:55.725590
2022-11-25 16:02:55.725773
2022-11-25 16:02:55.725932
2022-11-25 16:02:55.758671
2022-11-25 16:02:55.758917
2022-11-25 16:02:55.759087
2022-11-25 16:02:55.791866
2022-11-25 16:02:55.792149
2022-11-25 16:02:55.792320
2022-11-25 16:02:55.792477
2022-11-25 16:02:55.825198
2022-11-25 16:02:55.825384
2022-11-25 16:02:55.825498
2022-11-25 16:02:55.825608
2022-11-25 16:02:55.858409
2022-11-25 16:02:55.858550
2022-11-25 16:02:55.858636
2022-11-25 16:02:55.891828
2022-11-25 16:02:55.892098
2022-11-25 16:02:55.892270
2022-11-25 16:02:55.892430
2022-11-25 16:02:55.925272
2022-11-25 16:02:55.925572
2022-11-25 16:02:55.925746
2022-11-25 16:02:55.958484
2022-11-25 16:02:55.958780
2022-11-25 16:02:55.958956
2022-11-25 16:02:55.959117
2022-11-25 16:02:55.991864
2022-11-25 16:02:55.992171
2022-11-25 16:02:55.992351
2022-11-25 16:02:56.025064
2022-11-25 16:02:56.025372
2022-11-25 16:02:56.025545
2022-11-25 16:02:56.025703
2022-11-25 16:02:56.058452
2022-11-25 16:02:56.058755
2022-11-25 16:02:56.058931
2022-11-25 16:02:56.091649
2022-11-25 16:02:56.091951
2022-11-25 16:02:56.092130
2022-11-25 16:02:56.092294
2022-11-25 16:02:56.125051
2022-11-25 16:02:56.125350
2022-11-25 16:02:56.125531
2022-11-25 16:02:56.125696
2022-11-25 16:02:56.158382
2022-11-25 16:02:56.158689
2022-11-25 16:02:56.158866
2022-11-25 16:02:56.191581
2022-11-25 16:02:56.191816
2022-11-25 16:02:56.191939
2022-11-25 16:02:56.192054
2022-11-25 16:02:56.224957
2022-11-25 16:02:56.225259
2022-11-25 16:02:56.225432
2022-11-25 16:02:56.258205
2022-11-25 16:02:56.258506
2022-11-25 16:02:56.258674
2022-11-25 16:02:56.258839
2022-11-25 16:02:56.291588
2022-11-25 16:02:56.291900
2022-11-25 16:02:56.292107
2022-11-25 16:02:56.324779
2022-11-25 16:02:56.325068
2022-11-25 16:02:56.325236
2022-11-25 16:02:56.325393
2022-11-25 16:02:56.358072
2022-11-25 16:02:56.358280
2022-11-25 16:02:56.358381
2022-11-25 16:02:56.391336
2022-11-25 16:02:56.391659
2022-11-25 16:02:56.391828
2022-11-25 16:02:56.391985
2022-11-25 16:02:56.424725
2022-11-25 16:02:56.425017
2022-11-25 16:02:56.425204
2022-11-25 16:02:56.425365
2022-11-25 16:02:56.458105
2022-11-25 16:02:56.458402
2022-11-25 16:02:56.458594
2022-11-25 16:02:56.491331
2022-11-25 16:02:56.491631
2022-11-25 16:02:56.491803
2022-11-25 16:02:56.491966
2022-11-25 16:02:56.524672
2022-11-25 16:02:56.524976
2022-11-25 16:02:56.525152
2022-11-25 16:02:56.557898
2022-11-25 16:02:56.558203
2022-11-25 16:02:56.558374
2022-11-25 16:02:56.558537
2022-11-25 16:02:56.591269
2022-11-25 16:02:56.591578
2022-11-25 16:02:56.591752
2022-11-25 16:02:56.624500
2022-11-25 16:02:56.624809
2022-11-25 16:02:56.624992
2022-11-25 16:02:56.625157
2022-11-25 16:02:56.657868
2022-11-25 16:02:56.658165
2022-11-25 16:02:56.658349
2022-11-25 16:02:56.691043
2022-11-25 16:02:56.691307
2022-11-25 16:02:56.691437
2022-11-25 16:02:56.691561
2022-11-25 16:02:56.724450
2022-11-25 16:02:56.724741
2022-11-25 16:02:56.724909
2022-11-25 16:02:56.725074
2022-11-25 16:02:56.757806
2022-11-25 16:02:56.758105
2022-11-25 16:02:56.758275
2022-11-25 16:02:56.790988
2022-11-25 16:02:56.791196
2022-11-25 16:02:56.791292
2022-11-25 16:02:56.791375
2022-11-25 16:02:56.824376
2022-11-25 16:02:56.824681
2022-11-25 16:02:56.824852
2022-11-25 16:02:56.857621
2022-11-25 16:02:56.857835
2022-11-25 16:02:56.857930
2022-11-25 16:02:56.858014
2022-11-25 16:02:56.890955
2022-11-25 16:02:56.891208
2022-11-25 16:02:56.891334
2022-11-25 16:02:56.924183
2022-11-25 16:02:56.924495
2022-11-25 16:02:56.924671
2022-11-25 16:02:56.924840
2022-11-25 16:02:56.957534
2022-11-25 16:02:56.957812
2022-11-25 16:02:56.958049
2022-11-25 16:02:56.990773
2022-11-25 16:02:56.991103
2022-11-25 16:02:56.991275
2022-11-25 16:02:56.991436
2022-11-25 16:02:57.024178
2022-11-25 16:02:57.024493
2022-11-25 16:02:57.024669
2022-11-25 16:02:57.024841
2022-11-25 16:02:57.057474
2022-11-25 16:02:57.057763
2022-11-25 16:02:57.057923
2022-11-25 16:02:57.090711
2022-11-25 16:02:57.090960
2022-11-25 16:02:57.091084
2022-11-25 16:02:57.091204
2022-11-25 16:02:57.124122
2022-11-25 16:02:57.124422
2022-11-25 16:02:57.124600
2022-11-25 16:02:57.157332
2022-11-25 16:02:57.157637
2022-11-25 16:02:57.157811
2022-11-25 16:02:57.157975
2022-11-25 16:02:57.190687
2022-11-25 16:02:57.190976
2022-11-25 16:02:57.191144
2022-11-25 16:02:57.223885
2022-11-25 16:02:57.224192
2022-11-25 16:02:57.224491
2022-11-25 16:02:57.224659
2022-11-25 16:02:57.257284
2022-11-25 16:02:57.257584
2022-11-25 16:02:57.257763
2022-11-25 16:02:57.290476
2022-11-25 16:02:57.290808
2022-11-25 16:02:57.290994
2022-11-25 16:02:57.291153
2022-11-25 16:02:57.323856
2022-11-25 16:02:57.324160
2022-11-25 16:02:57.324331
2022-11-25 16:02:57.324496
2022-11-25 16:02:57.357202
2022-11-25 16:02:57.357398
2022-11-25 16:02:57.357486
2022-11-25 16:02:57.390464
2022-11-25 16:02:57.390764
2022-11-25 16:02:57.390934
2022-11-25 16:02:57.391101
2022-11-25 16:02:57.423801
2022-11-25 16:02:57.424108
2022-11-25 16:02:57.424284
2022-11-25 16:02:57.457012
2022-11-25 16:02:57.457216
2022-11-25 16:02:57.457313
2022-11-25 16:02:57.457405
2022-11-25 16:02:57.490369
2022-11-25 16:02:57.490671
2022-11-25 16:02:57.490846
2022-11-25 16:02:57.523581
2022-11-25 16:02:57.523875
2022-11-25 16:02:57.524053
2022-11-25 16:02:57.524210
2022-11-25 16:02:57.556986
2022-11-25 16:02:57.557305
2022-11-25 16:02:57.557479
2022-11-25 16:02:57.590140
2022-11-25 16:02:57.590402
2022-11-25 16:02:57.590524
2022-11-25 16:02:57.590643
2022-11-25 16:02:57.623555
2022-11-25 16:02:57.623846
2022-11-25 16:02:57.624015
2022-11-25 16:02:57.624174
2022-11-25 16:02:57.656923
2022-11-25 16:02:57.657225
2022-11-25 16:02:57.657391
2022-11-25 16:02:57.690184
2022-11-25 16:02:57.690479
2022-11-25 16:02:57.690654
2022-11-25 16:02:57.690821
2022-11-25 16:02:57.723474
2022-11-25 16:02:57.723720
2022-11-25 16:02:57.723843
2022-11-25 16:02:57.756702
2022-11-25 16:02:57.756988
2022-11-25 16:02:57.757154
2022-11-25 16:02:57.757316
2022-11-25 16:02:57.790052
2022-11-25 16:02:57.790338
2022-11-25 16:02:57.790508
2022-11-25 16:02:57.823291
2022-11-25 16:02:57.823573
2022-11-25 16:02:57.823795
2022-11-25 16:02:57.823961
2022-11-25 16:02:57.856608
2022-11-25 16:02:57.856808
2022-11-25 16:02:57.856921
2022-11-25 16:02:57.889859
2022-11-25 16:02:57.890179
2022-11-25 16:02:57.890365
2022-11-25 16:02:57.890609
2022-11-25 16:02:57.923186
2022-11-25 16:02:57.923477
2022-11-25 16:02:57.923660
2022-11-25 16:02:57.923822
2022-11-25 16:02:57.956613
2022-11-25 16:02:57.956911
2022-11-25 16:02:57.957090
2022-11-25 16:02:57.989852
2022-11-25 16:02:57.990151
2022-11-25 16:02:57.990333
2022-11-25 16:02:57.990493
2022-11-25 16:02:58.023165
2022-11-25 16:02:58.023390
2022-11-25 16:02:58.023518
2022-11-25 16:02:58.056435
2022-11-25 16:02:58.056724
2022-11-25 16:02:58.056892
2022-11-25 16:02:58.057055
2022-11-25 16:02:58.089808
2022-11-25 16:02:58.090093
2022-11-25 16:02:58.090265
2022-11-25 16:02:58.123035
2022-11-25 16:02:58.123327
2022-11-25 16:02:58.123500
2022-11-25 16:02:58.123670
2022-11-25 16:02:58.156393
2022-11-25 16:02:58.156698
2022-11-25 16:02:58.156870
2022-11-25 16:02:58.189593
2022-11-25 16:02:58.189922
2022-11-25 16:02:58.190099
2022-11-25 16:02:58.190259
2022-11-25 16:02:58.222961
2022-11-25 16:02:58.223265
2022-11-25 16:02:58.223436
2022-11-25 16:02:58.223602
2022-11-25 16:02:58.256337
2022-11-25 16:02:58.256655
2022-11-25 16:02:58.256837
2022-11-25 16:02:58.289516
2022-11-25 16:02:58.289706
2022-11-25 16:02:58.289806
2022-11-25 16:02:58.289891
2022-11-25 16:02:58.322923
2022-11-25 16:02:58.323215
2022-11-25 16:02:58.323382
2022-11-25 16:02:58.356137
2022-11-25 16:02:58.356328
2022-11-25 16:02:58.356431
2022-11-25 16:02:58.356516
2022-11-25 16:02:58.389510
2022-11-25 16:02:58.389816
2022-11-25 16:02:58.389987
2022-11-25 16:02:58.422724
2022-11-25 16:02:58.423023
2022-11-25 16:02:58.423195
2022-11-25 16:02:58.423366
2022-11-25 16:02:58.456097
2022-11-25 16:02:58.456386
2022-11-25 16:02:58.456558
2022-11-25 16:02:58.489289
2022-11-25 16:02:58.489624
2022-11-25 16:02:58.489800
2022-11-25 16:02:58.489959
2022-11-25 16:02:58.522676
2022-11-25 16:02:58.522976
2022-11-25 16:02:58.523150
2022-11-25 16:02:58.523315
2022-11-25 16:02:58.556020
2022-11-25 16:02:58.556311
2022-11-25 16:02:58.556484
2022-11-25 16:02:58.589221
2022-11-25 16:02:58.589521
2022-11-25 16:02:58.589696
2022-11-25 16:02:58.589858
2022-11-25 16:02:58.622636
2022-11-25 16:02:58.622957
2022-11-25 16:02:58.623130
2022-11-25 16:02:58.655832
2022-11-25 16:02:58.656140
2022-11-25 16:02:58.656309
2022-11-25 16:02:58.656558
2022-11-25 16:02:58.689235
2022-11-25 16:02:58.689530
2022-11-25 16:02:58.689703
2022-11-25 16:02:58.722427
2022-11-25 16:02:58.722682
2022-11-25 16:02:58.722812
2022-11-25 16:02:58.722932
2022-11-25 16:02:58.755774
2022-11-25 16:02:58.756025
2022-11-25 16:02:58.756158
2022-11-25 16:02:58.788985
2022-11-25 16:02:58.789241
2022-11-25 16:02:58.789363
2022-11-25 16:02:58.789477
2022-11-25 16:02:58.822328
2022-11-25 16:02:58.822515
2022-11-25 16:02:58.822606
2022-11-25 16:02:58.822700
2022-11-25 16:02:58.855567
2022-11-25 16:02:58.855752
2022-11-25 16:02:58.855850
2022-11-25 16:02:58.889012
2022-11-25 16:02:58.889319
2022-11-25 16:02:58.889502
2022-11-25 16:02:58.889669
2022-11-25 16:02:58.922291
2022-11-25 16:02:58.922529
2022-11-25 16:02:58.922649
2022-11-25 16:02:58.955544
2022-11-25 16:02:58.955783
2022-11-25 16:02:58.955906
2022-11-25 16:02:58.956043
2022-11-25 16:02:58.988862
2022-11-25 16:02:58.989071
2022-11-25 16:02:58.989163
2022-11-25 16:02:59.022118
2022-11-25 16:02:59.022426
2022-11-25 16:02:59.022601
2022-11-25 16:02:59.022764
2022-11-25 16:02:59.055497
2022-11-25 16:02:59.055804
2022-11-25 16:02:59.055976
2022-11-25 16:02:59.088690
2022-11-25 16:02:59.089017
2022-11-25 16:02:59.089187
2022-11-25 16:02:59.089349
2022-11-25 16:02:59.122076
2022-11-25 16:02:59.122383
2022-11-25 16:02:59.122557
2022-11-25 16:02:59.122723
2022-11-25 16:02:59.155462
2022-11-25 16:02:59.155759
2022-11-25 16:02:59.155929
2022-11-25 16:02:59.188663
2022-11-25 16:02:59.188950
2022-11-25 16:02:59.189117
2022-11-25 16:02:59.189276
2022-11-25 16:02:59.222041
2022-11-25 16:02:59.222354
2022-11-25 16:02:59.222530
2022-11-25 16:02:59.255298
2022-11-25 16:02:59.255612
2022-11-25 16:02:59.255784
2022-11-25 16:02:59.255952
2022-11-25 16:02:59.288575
2022-11-25 16:02:59.288798
2022-11-25 16:02:59.288918
2022-11-25 16:02:59.321848
2022-11-25 16:02:59.322155
2022-11-25 16:02:59.322331
2022-11-25 16:02:59.322489
2022-11-25 16:02:59.355056
2022-11-25 16:02:59.355387
2022-11-25 16:02:59.355504
2022-11-25 16:02:59.388441
2022-11-25 16:02:59.388761
2022-11-25 16:02:59.388937
2022-11-25 16:02:59.389092
2022-11-25 16:02:59.421760
2022-11-25 16:02:59.422017
2022-11-25 16:02:59.422148
2022-11-25 16:02:59.422274
2022-11-25 16:02:59.455176
2022-11-25 16:02:59.455464
2022-11-25 16:02:59.455636
2022-11-25 16:02:59.488391
2022-11-25 16:02:59.488682
2022-11-25 16:02:59.488852
2022-11-25 16:02:59.489016
2022-11-25 16:02:59.521689
2022-11-25 16:02:59.521884
2022-11-25 16:02:59.521973
2022-11-25 16:02:59.554978
2022-11-25 16:02:59.555267
2022-11-25 16:02:59.555437
2022-11-25 16:02:59.555598
2022-11-25 16:02:59.588253
2022-11-25 16:02:59.588441
2022-11-25 16:02:59.588528
2022-11-25 16:02:59.621587
2022-11-25 16:02:59.621892
2022-11-25 16:02:59.622064
2022-11-25 16:02:59.622222
2022-11-25 16:02:59.654886
2022-11-25 16:02:59.655134
2022-11-25 16:02:59.655261
2022-11-25 16:02:59.688114
2022-11-25 16:02:59.688436
2022-11-25 16:02:59.688615
2022-11-25 16:02:59.688771
2022-11-25 16:02:59.721502
2022-11-25 16:02:59.721771
2022-11-25 16:02:59.721951
2022-11-25 16:02:59.722111
2022-11-25 16:02:59.754898
2022-11-25 16:02:59.755205
2022-11-25 16:02:59.755380
2022-11-25 16:02:59.788163
2022-11-25 16:02:59.788402
2022-11-25 16:02:59.788527
2022-11-25 16:02:59.788649
2022-11-25 16:02:59.821485
2022-11-25 16:02:59.821795
2022-11-25 16:02:59.821968
2022-11-25 16:02:59.854638
2022-11-25 16:02:59.854930
2022-11-25 16:02:59.855119
2022-11-25 16:02:59.855226
2022-11-25 16:02:59.888076
2022-11-25 16:02:59.888380
2022-11-25 16:02:59.888552
2022-11-25 16:02:59.921300
2022-11-25 16:02:59.921621
2022-11-25 16:02:59.921798
2022-11-25 16:02:59.921960
2022-11-25 16:02:59.954579
2022-11-25 16:02:59.954877
2022-11-25 16:02:59.955056
2022-11-25 16:02:59.987829
2022-11-25 16:02:59.988153
2022-11-25 16:02:59.988333
2022-11-25 16:02:59.988495
2022-11-25 16:03:00.021150
2022-11-25 16:03:00.021449
2022-11-25 16:03:00.021760
2022-11-25 16:03:00.021936
2022-11-25 16:03:00.054505
2022-11-25 16:03:00.054744
2022-11-25 16:03:00.054873
2022-11-25 16:03:00.087759
2022-11-25 16:03:00.087990
2022-11-25 16:03:00.088113
2022-11-25 16:03:00.088227
2022-11-25 16:03:00.121132
2022-11-25 16:03:00.121378
2022-11-25 16:03:00.121505
2022-11-25 16:03:00.154385
2022-11-25 16:03:00.154627
2022-11-25 16:03:00.154752
2022-11-25 16:03:00.154872
2022-11-25 16:03:00.187692
2022-11-25 16:03:00.187895
2022-11-25 16:03:00.187988
2022-11-25 16:03:00.220906
2022-11-25 16:03:00.221224
2022-11-25 16:03:00.221398
2022-11-25 16:03:00.221559
2022-11-25 16:03:00.254339
2022-11-25 16:03:00.254644
2022-11-25 16:03:00.254815
2022-11-25 16:03:00.287468
2022-11-25 16:03:00.287731
2022-11-25 16:03:00.287864
2022-11-25 16:03:00.287978
2022-11-25 16:03:00.320833
2022-11-25 16:03:00.321042
2022-11-25 16:03:00.321134
2022-11-25 16:03:00.321219
2022-11-25 16:03:00.354110
2022-11-25 16:03:00.354352
2022-11-25 16:03:00.354485
2022-11-25 16:03:00.387463
2022-11-25 16:03:00.387751
2022-11-25 16:03:00.387922
2022-11-25 16:03:00.388082
2022-11-25 16:03:00.420788
2022-11-25 16:03:00.421023
2022-11-25 16:03:00.421144
2022-11-25 16:03:00.454115
2022-11-25 16:03:00.454429
2022-11-25 16:03:00.454599
2022-11-25 16:03:00.454756
2022-11-25 16:03:00.487355
2022-11-25 16:03:00.487565
2022-11-25 16:03:00.487683
2022-11-25 16:03:00.520578
2022-11-25 16:03:00.520776
2022-11-25 16:03:00.520872
2022-11-25 16:03:00.520961
2022-11-25 16:03:00.553943
2022-11-25 16:03:00.554176
2022-11-25 16:03:00.554303
2022-11-25 16:03:00.587107
2022-11-25 16:03:00.587370
2022-11-25 16:03:00.587538
2022-11-25 16:03:00.587697
2022-11-25 16:03:00.620533
2022-11-25 16:03:00.620799
2022-11-25 16:03:00.620973
2022-11-25 16:03:00.621140
2022-11-25 16:03:00.653890
2022-11-25 16:03:00.654129
2022-11-25 16:03:00.654261
2022-11-25 16:03:00.687140
2022-11-25 16:03:00.687356
2022-11-25 16:03:00.687482
2022-11-25 16:03:00.687594
2022-11-25 16:03:00.720518
2022-11-25 16:03:00.720790
2022-11-25 16:03:00.720963
2022-11-25 16:03:00.753723
2022-11-25 16:03:00.753982
2022-11-25 16:03:00.754151
2022-11-25 16:03:00.754310
2022-11-25 16:03:00.787094
2022-11-25 16:03:00.787305
2022-11-25 16:03:00.787427
2022-11-25 16:03:00.820329
2022-11-25 16:03:00.820534
2022-11-25 16:03:00.820630
2022-11-25 16:03:00.820718
2022-11-25 16:03:00.853674
2022-11-25 16:03:00.854033
2022-11-25 16:03:00.854468
2022-11-25 16:03:00.886888
2022-11-25 16:03:00.887095
2022-11-25 16:03:00.887191
2022-11-25 16:03:00.887280
2022-11-25 16:03:00.920235
2022-11-25 16:03:00.920457
2022-11-25 16:03:00.920584
2022-11-25 16:03:00.920706
2022-11-25 16:03:00.953594
2022-11-25 16:03:00.953819
2022-11-25 16:03:00.953946
2022-11-25 16:03:00.986845
2022-11-25 16:03:00.987117
2022-11-25 16:03:00.987289
2022-11-25 16:03:00.987448
2022-11-25 16:03:01.020162
2022-11-25 16:03:01.020377
2022-11-25 16:03:01.020499
2022-11-25 16:03:01.053417
2022-11-25 16:03:01.053647
2022-11-25 16:03:01.053769
2022-11-25 16:03:01.053887
2022-11-25 16:03:01.086749
2022-11-25 16:03:01.086972
2022-11-25 16:03:01.087092
2022-11-25 16:03:01.120023
2022-11-25 16:03:01.120215
2022-11-25 16:03:01.120312
2022-11-25 16:03:01.120401
2022-11-25 16:03:01.153358
2022-11-25 16:03:01.153580
2022-11-25 16:03:01.153709
2022-11-25 16:03:01.186591
2022-11-25 16:03:01.186800
2022-11-25 16:03:01.186891
2022-11-25 16:03:01.186975
2022-11-25 16:03:01.219957
2022-11-25 16:03:01.220122
2022-11-25 16:03:01.220255
2022-11-25 16:03:01.220368
2022-11-25 16:03:01.253305
2022-11-25 16:03:01.253588
2022-11-25 16:03:01.253757
2022-11-25 16:03:01.286547
2022-11-25 16:03:01.286763
2022-11-25 16:03:01.286887
2022-11-25 16:03:01.287006
2022-11-25 16:03:01.319864
2022-11-25 16:03:01.320053
2022-11-25 16:03:01.320150
2022-11-25 16:03:01.353125
2022-11-25 16:03:01.353356
2022-11-25 16:03:01.353478
2022-11-25 16:03:01.353595
2022-11-25 16:03:01.386413
2022-11-25 16:03:01.386551
2022-11-25 16:03:01.386617
2022-11-25 16:03:01.419714
2022-11-25 16:03:01.419893
2022-11-25 16:03:01.419987
2022-11-25 16:03:01.420073
2022-11-25 16:03:01.453123
2022-11-25 16:03:01.453387
2022-11-25 16:03:01.453554
2022-11-25 16:03:01.486288
2022-11-25 16:03:01.486627
2022-11-25 16:03:01.486757
2022-11-25 16:03:01.486876
2022-11-25 16:03:01.519648
2022-11-25 16:03:01.519874
2022-11-25 16:03:01.520001
2022-11-25 16:03:01.520114
2022-11-25 16:03:01.552998
2022-11-25 16:03:01.553217
2022-11-25 16:03:01.553341
2022-11-25 16:03:01.586264
2022-11-25 16:03:01.586472
2022-11-25 16:03:01.586599
2022-11-25 16:03:01.586716
2022-11-25 16:03:01.619601
2022-11-25 16:03:01.619808
2022-11-25 16:03:01.619929
2022-11-25 16:03:01.652902
2022-11-25 16:03:01.653185
2022-11-25 16:03:01.653359
2022-11-25 16:03:01.653524
2022-11-25 16:03:01.686148
2022-11-25 16:03:01.686322
2022-11-25 16:03:01.686417
2022-11-25 16:03:01.719479
2022-11-25 16:03:01.719771
2022-11-25 16:03:01.719949
2022-11-25 16:03:01.720113
2022-11-25 16:03:01.752786
2022-11-25 16:03:01.753072
2022-11-25 16:03:01.753262
2022-11-25 16:03:01.786046
2022-11-25 16:03:01.786252
2022-11-25 16:03:01.786348
2022-11-25 16:03:01.786436
2022-11-25 16:03:01.819387
2022-11-25 16:03:01.819600
2022-11-25 16:03:01.819730
2022-11-25 16:03:01.819846
2022-11-25 16:03:01.852715
2022-11-25 16:03:01.852936
2022-11-25 16:03:01.853056
2022-11-25 16:03:01.885978
2022-11-25 16:03:01.886168
2022-11-25 16:03:01.886262
2022-11-25 16:03:01.886351
2022-11-25 16:03:01.919316
2022-11-25 16:03:01.919528
2022-11-25 16:03:01.919656
2022-11-25 16:03:01.952494
2022-11-25 16:03:01.952805
2022-11-25 16:03:01.952937
2022-11-25 16:03:01.953056
2022-11-25 16:03:01.985902
2022-11-25 16:03:01.986128
2022-11-25 16:03:01.986254
2022-11-25 16:03:02.019078
2022-11-25 16:03:02.019397
2022-11-25 16:03:02.019582
2022-11-25 16:03:02.019749
2022-11-25 16:03:02.052430
2022-11-25 16:03:02.052699
2022-11-25 16:03:02.052824
2022-11-25 16:03:02.085736
2022-11-25 16:03:02.085923
2022-11-25 16:03:02.086018
2022-11-25 16:03:02.086106
2022-11-25 16:03:02.118996
2022-11-25 16:03:02.119298
2022-11-25 16:03:02.119450
2022-11-25 16:03:02.119574
2022-11-25 16:03:02.152352
2022-11-25 16:03:02.152550
2022-11-25 16:03:02.152776
2022-11-25 16:03:02.185574
2022-11-25 16:03:02.185797
2022-11-25 16:03:02.185905
2022-11-25 16:03:02.185997
2022-11-25 16:03:02.219005
2022-11-25 16:03:02.219214
2022-11-25 16:03:02.219338
2022-11-25 16:03:02.252287
2022-11-25 16:03:02.252519
2022-11-25 16:03:02.252649
2022-11-25 16:03:02.252761
2022-11-25 16:03:02.285542
2022-11-25 16:03:02.285836
2022-11-25 16:03:02.285993
2022-11-25 16:03:02.318828
2022-11-25 16:03:02.319068
2022-11-25 16:03:02.319193
2022-11-25 16:03:02.319314
2022-11-25 16:03:02.352140
2022-11-25 16:03:02.352418
2022-11-25 16:03:02.352595
2022-11-25 16:03:02.385320
2022-11-25 16:03:02.385408
2022-11-25 16:03:02.385463
2022-11-25 16:03:02.385515
2022-11-25 16:03:02.418549
2022-11-25 16:03:02.418619
2022-11-25 16:03:02.418682
2022-11-25 16:03:02.418744
2022-11-25 16:03:02.451962
2022-11-25 16:03:02.452082
2022-11-25 16:03:02.452159
2022-11-25 16:03:02.485266
2022-11-25 16:03:02.485404
2022-11-25 16:03:02.485513
2022-11-25 16:03:02.485599
2022-11-25 16:03:02.518632
2022-11-25 16:03:02.518813
2022-11-25 16:03:02.518936
2022-11-25 16:03:02.551897
2022-11-25 16:03:02.552086
2022-11-25 16:03:02.552211
2022-11-25 16:03:02.552323
2022-11-25 16:03:02.585209
2022-11-25 16:03:02.585401
2022-11-25 16:03:02.585536
2022-11-25 16:03:02.618485
2022-11-25 16:03:02.618734
2022-11-25 16:03:02.618914
2022-11-25 16:03:02.619084
2022-11-25 16:03:02.651853
2022-11-25 16:03:02.652099
2022-11-25 16:03:02.652274
2022-11-25 16:03:02.685059
2022-11-25 16:03:02.685267
2022-11-25 16:03:02.685394
2022-11-25 16:03:02.685517
2022-11-25 16:03:02.718370
2022-11-25 16:03:02.718543
2022-11-25 16:03:02.718668
2022-11-25 16:03:02.718786
2022-11-25 16:03:02.751709
2022-11-25 16:03:02.751857
2022-11-25 16:03:02.751954
2022-11-25 16:03:02.784998
2022-11-25 16:03:02.785185
2022-11-25 16:03:02.785317
2022-11-25 16:03:02.785440
2022-11-25 16:03:02.818331
2022-11-25 16:03:02.818513
2022-11-25 16:03:02.818640
2022-11-25 16:03:02.851580
2022-11-25 16:03:02.851770
2022-11-25 16:03:02.851898
2022-11-25 16:03:02.852015
2022-11-25 16:03:02.884982
2022-11-25 16:03:02.885105
2022-11-25 16:03:02.885178
2022-11-25 16:03:02.918160
2022-11-25 16:03:02.918307
2022-11-25 16:03:02.918401
2022-11-25 16:03:02.918491
2022-11-25 16:03:02.951510
2022-11-25 16:03:02.951653
2022-11-25 16:03:02.951747
2022-11-25 16:03:02.984775
2022-11-25 16:03:02.984940
2022-11-25 16:03:02.985039
2022-11-25 16:03:02.985132
2022-11-25 16:03:03.018174
2022-11-25 16:03:03.018418
2022-11-25 16:03:03.018591
2022-11-25 16:03:03.018758
2022-11-25 16:03:03.051470
2022-11-25 16:03:03.051652
2022-11-25 16:03:03.051773
2022-11-25 16:03:03.084708
2022-11-25 16:03:03.084877
2022-11-25 16:03:03.085003
2022-11-25 16:03:03.085121
2022-11-25 16:03:03.118047
2022-11-25 16:03:03.118271
2022-11-25 16:03:03.118433
2022-11-25 16:03:03.151307
2022-11-25 16:03:03.151475
2022-11-25 16:03:03.151597
2022-11-25 16:03:03.151710
2022-11-25 16:03:03.184614
2022-11-25 16:03:03.184754
2022-11-25 16:03:03.184845
2022-11-25 16:03:03.217925
2022-11-25 16:03:03.218098
2022-11-25 16:03:03.218221
2022-11-25 16:03:03.218338
2022-11-25 16:03:03.251202
2022-11-25 16:03:03.251331
2022-11-25 16:03:03.251420
2022-11-25 16:03:03.284474
2022-11-25 16:03:03.284663
2022-11-25 16:03:03.284788
2022-11-25 16:03:03.284905
2022-11-25 16:03:03.317786
2022-11-25 16:03:03.317954
2022-11-25 16:03:03.318073
2022-11-25 16:03:03.318185
2022-11-25 16:03:03.351229
2022-11-25 16:03:03.351465
2022-11-25 16:03:03.351640
2022-11-25 16:03:03.384367
2022-11-25 16:03:03.384485
2022-11-25 16:03:03.384558
2022-11-25 16:03:03.384624
2022-11-25 16:03:03.417720
2022-11-25 16:03:03.417851
2022-11-25 16:03:03.417942
2022-11-25 16:03:03.450976
2022-11-25 16:03:03.451157
2022-11-25 16:03:03.451284
2022-11-25 16:03:03.451406
2022-11-25 16:03:03.484314
2022-11-25 16:03:03.484453
2022-11-25 16:03:03.484546
2022-11-25 16:03:03.517574
2022-11-25 16:03:03.517746
2022-11-25 16:03:03.517866
2022-11-25 16:03:03.517982
2022-11-25 16:03:03.551041
2022-11-25 16:03:03.551285
2022-11-25 16:03:03.551463
2022-11-25 16:03:03.584175
2022-11-25 16:03:03.584363
2022-11-25 16:03:03.584489
2022-11-25 16:03:03.584609
2022-11-25 16:03:03.617511
2022-11-25 16:03:03.617687
2022-11-25 16:03:03.617812
2022-11-25 16:03:03.617925
2022-11-25 16:03:03.650878
2022-11-25 16:03:03.651060
2022-11-25 16:03:03.651192
2022-11-25 16:03:03.684107
2022-11-25 16:03:03.684283
2022-11-25 16:03:03.684412
2022-11-25 16:03:03.684534
2022-11-25 16:03:03.717497
2022-11-25 16:03:03.717671
2022-11-25 16:03:03.717795
2022-11-25 16:03:03.750823
2022-11-25 16:03:03.751059
2022-11-25 16:03:03.751236
2022-11-25 16:03:03.751396
2022-11-25 16:03:03.784223
2022-11-25 16:03:03.784465
2022-11-25 16:03:03.784635
2022-11-25 16:03:03.817439
2022-11-25 16:03:03.817686
2022-11-25 16:03:03.817862
2022-11-25 16:03:03.818025
2022-11-25 16:03:03.850813
2022-11-25 16:03:03.851048
2022-11-25 16:03:03.851217
2022-11-25 16:03:03.883912
2022-11-25 16:03:03.884042
2022-11-25 16:03:03.884117
2022-11-25 16:03:03.884189
2022-11-25 16:03:03.917211
2022-11-25 16:03:03.917363
2022-11-25 16:03:03.917459
2022-11-25 16:03:03.917544
2022-11-25 16:03:03.950670
2022-11-25 16:03:03.950910
2022-11-25 16:03:03.951087
2022-11-25 16:03:03.983816
2022-11-25 16:03:03.983994
2022-11-25 16:03:03.984116
2022-11-25 16:03:03.984232
2022-11-25 16:03:04.017168
2022-11-25 16:03:04.017341
2022-11-25 16:03:04.017461
2022-11-25 16:03:04.050446
2022-11-25 16:03:04.050634
2022-11-25 16:03:04.050760
2022-11-25 16:03:04.050878
2022-11-25 16:03:04.083808
2022-11-25 16:03:04.083999
2022-11-25 16:03:04.084131
2022-11-25 16:03:04.117050
2022-11-25 16:03:04.117223
2022-11-25 16:03:04.117348
2022-11-25 16:03:04.117465
2022-11-25 16:03:04.150432
2022-11-25 16:03:04.150633
2022-11-25 16:03:04.150762
2022-11-25 16:03:04.183654
2022-11-25 16:03:04.183899
2022-11-25 16:03:04.184050
2022-11-25 16:03:04.184168
2022-11-25 16:03:04.217063
2022-11-25 16:03:04.217308
2022-11-25 16:03:04.217485
2022-11-25 16:03:04.217644
2022-11-25 16:03:04.250360
2022-11-25 16:03:04.250532
2022-11-25 16:03:04.250652
2022-11-25 16:03:04.283494
2022-11-25 16:03:04.283650
2022-11-25 16:03:04.283765
2022-11-25 16:03:04.283853
2022-11-25 16:03:04.316876
2022-11-25 16:03:04.317089
2022-11-25 16:03:04.317216
2022-11-25 16:03:04.350156
2022-11-25 16:03:04.350351
2022-11-25 16:03:04.350479
2022-11-25 16:03:04.350603
2022-11-25 16:03:04.383435
2022-11-25 16:03:04.383556
2022-11-25 16:03:04.383626
2022-11-25 16:03:04.416727
2022-11-25 16:03:04.416883
2022-11-25 16:03:04.417006
2022-11-25 16:03:04.417122
2022-11-25 16:03:04.450056
2022-11-25 16:03:04.450233
2022-11-25 16:03:04.450385
2022-11-25 16:03:04.483330
2022-11-25 16:03:04.483506
2022-11-25 16:03:04.483606
2022-11-25 16:03:04.483691
2022-11-25 16:03:04.516662
2022-11-25 16:03:04.516843
2022-11-25 16:03:04.516972
2022-11-25 16:03:04.517097
2022-11-25 16:03:04.550036
2022-11-25 16:03:04.550271
2022-11-25 16:03:04.550397
2022-11-25 16:03:04.583202
2022-11-25 16:03:04.583381
2022-11-25 16:03:04.583493
2022-11-25 16:03:04.583607
2022-11-25 16:03:04.616553
2022-11-25 16:03:04.616764
2022-11-25 16:03:04.616891
2022-11-25 16:03:04.649717
2022-11-25 16:03:04.649913
2022-11-25 16:03:04.650076
2022-11-25 16:03:04.650202
2022-11-25 16:03:04.683160
2022-11-25 16:03:04.683411
2022-11-25 16:03:04.683557
2022-11-25 16:03:04.716376
2022-11-25 16:03:04.716548
2022-11-25 16:03:04.716744
2022-11-25 16:03:04.716886
2022-11-25 16:03:04.749734
2022-11-25 16:03:04.749903
2022-11-25 16:03:04.750038
2022-11-25 16:03:04.782930
2022-11-25 16:03:04.783078
2022-11-25 16:03:04.783223
2022-11-25 16:03:04.783327
2022-11-25 16:03:04.816239
2022-11-25 16:03:04.816403
2022-11-25 16:03:04.816538
2022-11-25 16:03:04.816632
2022-11-25 16:03:04.849755
2022-11-25 16:03:04.850425
2022-11-25 16:03:04.850564
2022-11-25 16:03:04.882912
2022-11-25 16:03:04.883138
2022-11-25 16:03:04.883236
2022-11-25 16:03:04.883309
2022-11-25 16:03:04.916161
2022-11-25 16:03:04.916288
2022-11-25 16:03:04.916398
2022-11-25 16:03:04.949457
2022-11-25 16:03:04.949656
2022-11-25 16:03:04.949796
2022-11-25 16:03:04.949889
2022-11-25 16:03:04.982842
2022-11-25 16:03:04.983013
2022-11-25 16:03:04.983229
2022-11-25 16:03:05.016146
2022-11-25 16:03:05.016371
2022-11-25 16:03:05.016543
2022-11-25 16:03:05.016773
2022-11-25 16:03:05.049423
2022-11-25 16:03:05.049593
2022-11-25 16:03:05.049725
2022-11-25 16:03:05.082609
2022-11-25 16:03:05.082790
2022-11-25 16:03:05.082894
2022-11-25 16:03:05.083019
2022-11-25 16:03:05.116044
2022-11-25 16:03:05.116205
2022-11-25 16:03:05.116354
2022-11-25 16:03:05.116508
2022-11-25 16:03:05.149441
2022-11-25 16:03:05.149610
2022-11-25 16:03:05.149726
2022-11-25 16:03:05.182781
2022-11-25 16:03:05.183058
2022-11-25 16:03:05.183306
2022-11-25 16:03:05.183488
2022-11-25 16:03:05.216052
2022-11-25 16:03:05.216220
2022-11-25 16:03:05.216428
2022-11-25 16:03:05.249196
2022-11-25 16:03:05.249462
2022-11-25 16:03:05.249586
2022-11-25 16:03:05.249726
2022-11-25 16:03:05.282551
2022-11-25 16:03:05.282685
2022-11-25 16:03:05.282812
2022-11-25 16:03:05.315770
2022-11-25 16:03:05.315966
2022-11-25 16:03:05.316082
2022-11-25 16:03:05.316191
2022-11-25 16:03:05.349144
2022-11-25 16:03:05.349277
2022-11-25 16:03:05.349425
2022-11-25 16:03:05.382341
2022-11-25 16:03:05.382588
2022-11-25 16:03:05.382693
2022-11-25 16:03:05.382779
2022-11-25 16:03:05.415788
2022-11-25 16:03:05.415962
2022-11-25 16:03:05.416079
2022-11-25 16:03:05.416236
2022-11-25 16:03:05.449072
2022-11-25 16:03:05.449327
2022-11-25 16:03:05.449457
2022-11-25 16:03:05.482255
2022-11-25 16:03:05.482425
2022-11-25 16:03:05.482512
2022-11-25 16:03:05.482592
2022-11-25 16:03:05.515630
2022-11-25 16:03:05.515905
2022-11-25 16:03:05.516039
2022-11-25 16:03:05.548833
2022-11-25 16:03:05.548949
2022-11-25 16:03:05.549106
2022-11-25 16:03:05.549200
2022-11-25 16:03:05.582175
2022-11-25 16:03:05.582397
2022-11-25 16:03:05.582496
2022-11-25 16:03:05.615434
2022-11-25 16:03:05.615593
2022-11-25 16:03:05.615771
2022-11-25 16:03:05.615869
2022-11-25 16:03:05.648726
2022-11-25 16:03:05.648840
2022-11-25 16:03:05.648924
2022-11-25 16:03:05.682146
2022-11-25 16:03:05.682514
2022-11-25 16:03:05.682774
2022-11-25 16:03:05.682933
2022-11-25 16:03:05.715399
2022-11-25 16:03:05.715603
2022-11-25 16:03:05.715804
2022-11-25 16:03:05.716060
2022-11-25 16:03:05.748665
2022-11-25 16:03:05.748842
2022-11-25 16:03:05.748944
2022-11-25 16:03:05.781957
2022-11-25 16:03:05.782145
2022-11-25 16:03:05.782253
2022-11-25 16:03:05.782433
2022-11-25 16:03:05.815439
2022-11-25 16:03:05.815730
2022-11-25 16:03:05.815992
2022-11-25 16:03:05.848603
2022-11-25 16:03:05.848739
2022-11-25 16:03:05.848957
2022-11-25 16:03:05.849209
2022-11-25 16:03:05.882008
2022-11-25 16:03:05.882159
2022-11-25 16:03:05.882339
2022-11-25 16:03:05.915216
2022-11-25 16:03:05.915376
2022-11-25 16:03:05.915537
2022-11-25 16:03:05.915678
2022-11-25 16:03:05.948589
2022-11-25 16:03:05.948754
2022-11-25 16:03:05.948959
2022-11-25 16:03:05.981815
2022-11-25 16:03:05.981946
2022-11-25 16:03:05.982070
2022-11-25 16:03:05.982172
2022-11-25 16:03:06.015235
2022-11-25 16:03:06.015399
2022-11-25 16:03:06.015556
2022-11-25 16:03:06.015790
2022-11-25 16:03:06.048550
2022-11-25 16:03:06.048712
2022-11-25 16:03:06.048893
2022-11-25 16:03:06.081773
2022-11-25 16:03:06.081906
2022-11-25 16:03:06.081996
2022-11-25 16:03:06.082119
2022-11-25 16:03:06.115128
2022-11-25 16:03:06.115288
2022-11-25 16:03:06.115406
2022-11-25 16:03:06.148395
2022-11-25 16:03:06.148529
2022-11-25 16:03:06.148618
2022-11-25 16:03:06.148700
2022-11-25 16:03:06.181798
2022-11-25 16:03:06.181967
2022-11-25 16:03:06.182124
2022-11-25 16:03:06.215014
2022-11-25 16:03:06.215188
2022-11-25 16:03:06.215313
2022-11-25 16:03:06.215466
2022-11-25 16:03:06.248363
2022-11-25 16:03:06.248530
2022-11-25 16:03:06.248649
2022-11-25 16:03:06.281617
2022-11-25 16:03:06.281762
2022-11-25 16:03:06.281849
2022-11-25 16:03:06.281931
2022-11-25 16:03:06.314983
2022-11-25 16:03:06.315108
2022-11-25 16:03:06.315196
2022-11-25 16:03:06.315281
2022-11-25 16:03:06.348274
2022-11-25 16:03:06.348431
2022-11-25 16:03:06.348542
2022-11-25 16:03:06.381527
2022-11-25 16:03:06.381696
2022-11-25 16:03:06.381797
2022-11-25 16:03:06.381885
2022-11-25 16:03:06.414868
2022-11-25 16:03:06.415086
2022-11-25 16:03:06.415220
2022-11-25 16:03:06.448101
2022-11-25 16:03:06.448236
2022-11-25 16:03:06.448357
2022-11-25 16:03:06.448459
2022-11-25 16:03:06.481564
2022-11-25 16:03:06.481739
2022-11-25 16:03:06.481835
2022-11-25 16:03:06.514716
2022-11-25 16:03:06.514827
2022-11-25 16:03:06.514908
2022-11-25 16:03:06.514986
2022-11-25 16:03:06.548139
2022-11-25 16:03:06.548318
2022-11-25 16:03:06.548436
2022-11-25 16:03:06.581412
2022-11-25 16:03:06.581641
2022-11-25 16:03:06.581766
2022-11-25 16:03:06.581882
2022-11-25 16:03:06.614736
2022-11-25 16:03:06.614895
2022-11-25 16:03:06.615024
2022-11-25 16:03:06.615130
2022-11-25 16:03:06.648144
2022-11-25 16:03:06.648346
2022-11-25 16:03:06.648467
2022-11-25 16:03:06.681320
2022-11-25 16:03:06.681522
2022-11-25 16:03:06.681648
2022-11-25 16:03:06.681759
2022-11-25 16:03:06.714631
2022-11-25 16:03:06.714806
2022-11-25 16:03:06.714898
2022-11-25 16:03:06.747839
2022-11-25 16:03:06.748210
2022-11-25 16:03:06.748414
2022-11-25 16:03:06.748586
2022-11-25 16:03:06.781158
2022-11-25 16:03:06.781364
2022-11-25 16:03:06.781528
2022-11-25 16:03:06.814566
2022-11-25 16:03:06.814954
2022-11-25 16:03:06.815147
2022-11-25 16:03:06.815309
2022-11-25 16:03:06.847698
2022-11-25 16:03:06.847914
2022-11-25 16:03:06.848255
2022-11-25 16:03:06.881097
2022-11-25 16:03:06.881371
2022-11-25 16:03:06.881487
2022-11-25 16:03:06.881575
2022-11-25 16:03:06.914414
2022-11-25 16:03:06.914692
2022-11-25 16:03:06.914822
2022-11-25 16:03:06.914951
2022-11-25 16:03:06.947770
2022-11-25 16:03:06.948120
2022-11-25 16:03:06.948274
2022-11-25 16:03:06.981071
2022-11-25 16:03:06.981232
2022-11-25 16:03:06.981405
2022-11-25 16:03:06.981497
2022-11-25 16:03:07.014401
2022-11-25 16:03:07.014813
2022-11-25 16:03:07.015000
2022-11-25 16:03:07.047466
2022-11-25 16:03:07.047608
2022-11-25 16:03:07.047726
2022-11-25 16:03:07.047834
2022-11-25 16:03:07.080996
2022-11-25 16:03:07.081242
2022-11-25 16:03:07.081538
2022-11-25 16:03:07.114053
2022-11-25 16:03:07.114193
2022-11-25 16:03:07.114312
2022-11-25 16:03:07.114419
2022-11-25 16:03:07.147560
2022-11-25 16:03:07.147820
2022-11-25 16:03:07.148201
2022-11-25 16:03:07.180773
2022-11-25 16:03:07.181055
2022-11-25 16:03:07.181318
2022-11-25 16:03:07.181598
2022-11-25 16:03:07.214176
2022-11-25 16:03:07.214440
2022-11-25 16:03:07.214642
2022-11-25 16:03:07.214876
2022-11-25 16:03:07.247498
2022-11-25 16:03:07.247693
2022-11-25 16:03:07.247875
2022-11-25 16:03:07.280757
2022-11-25 16:03:07.281020
2022-11-25 16:03:07.281257
2022-11-25 16:03:07.281568
2022-11-25 16:03:07.314087
2022-11-25 16:03:07.314253
2022-11-25 16:03:07.314347
2022-11-25 16:03:07.347232
2022-11-25 16:03:07.347402
2022-11-25 16:03:07.347486
2022-11-25 16:03:07.347566
2022-11-25 16:03:07.380653
2022-11-25 16:03:07.380857
2022-11-25 16:03:07.380986
2022-11-25 16:03:07.413904
2022-11-25 16:03:07.414159
2022-11-25 16:03:07.414332
2022-11-25 16:03:07.414500
2022-11-25 16:03:07.447234
2022-11-25 16:03:07.447388
2022-11-25 16:03:07.447486
2022-11-25 16:03:07.480477
2022-11-25 16:03:07.480759
2022-11-25 16:03:07.480937
2022-11-25 16:03:07.481115
2022-11-25 16:03:07.513818
2022-11-25 16:03:07.513976
2022-11-25 16:03:07.514065
2022-11-25 16:03:07.514149
2022-11-25 16:03:07.547209
2022-11-25 16:03:07.547461
2022-11-25 16:03:07.547632
2022-11-25 16:03:07.580447
2022-11-25 16:03:07.580696
2022-11-25 16:03:07.580863
2022-11-25 16:03:07.581023
2022-11-25 16:03:07.613784
2022-11-25 16:03:07.614023
2022-11-25 16:03:07.614193
2022-11-25 16:03:07.647046
2022-11-25 16:03:07.647293
2022-11-25 16:03:07.647461
2022-11-25 16:03:07.647620
2022-11-25 16:03:07.680386
2022-11-25 16:03:07.680639
2022-11-25 16:03:07.680808
2022-11-25 16:03:07.713615
2022-11-25 16:03:07.713862
2022-11-25 16:03:07.714039
2022-11-25 16:03:07.714208
2022-11-25 16:03:07.746987
2022-11-25 16:03:07.747225
2022-11-25 16:03:07.747390
2022-11-25 16:03:07.780202
2022-11-25 16:03:07.780481
2022-11-25 16:03:07.780663
2022-11-25 16:03:07.780823
2022-11-25 16:03:07.813578
2022-11-25 16:03:07.813841
2022-11-25 16:03:07.814006
2022-11-25 16:03:07.814171
2022-11-25 16:03:07.846912
2022-11-25 16:03:07.847158
2022-11-25 16:03:07.847474
2022-11-25 16:03:07.880171
2022-11-25 16:03:07.880335
2022-11-25 16:03:07.880426
2022-11-25 16:03:07.880512
2022-11-25 16:03:07.913514
2022-11-25 16:03:07.913747
2022-11-25 16:03:07.913909
2022-11-25 16:03:07.946696
2022-11-25 16:03:07.946955
2022-11-25 16:03:07.947125
2022-11-25 16:03:07.947282
2022-11-25 16:03:07.980103
2022-11-25 16:03:07.980361
2022-11-25 16:03:07.980531
2022-11-25 16:03:08.013316
2022-11-25 16:03:08.013584
2022-11-25 16:03:08.013759
2022-11-25 16:03:08.013921
2022-11-25 16:03:08.046675
2022-11-25 16:03:08.046828
2022-11-25 16:03:08.046917
2022-11-25 16:03:08.079896
2022-11-25 16:03:08.080180
2022-11-25 16:03:08.080356
2022-11-25 16:03:08.080517
2022-11-25 16:03:08.113266
2022-11-25 16:03:08.113495
2022-11-25 16:03:08.113661
2022-11-25 16:03:08.113825
2022-11-25 16:03:08.146613
2022-11-25 16:03:08.146851
2022-11-25 16:03:08.147021
2022-11-25 16:03:08.179883
2022-11-25 16:03:08.180121
2022-11-25 16:03:08.180287
2022-11-25 16:03:08.180450
2022-11-25 16:03:08.213224
2022-11-25 16:03:08.213477
2022-11-25 16:03:08.213657
2022-11-25 16:03:08.246465
2022-11-25 16:03:08.246711
2022-11-25 16:03:08.246878
2022-11-25 16:03:08.247047
2022-11-25 16:03:08.279741
2022-11-25 16:03:08.279925
2022-11-25 16:03:08.280044
2022-11-25 16:03:08.313056
2022-11-25 16:03:08.313309
2022-11-25 16:03:08.313478
2022-11-25 16:03:08.313638
2022-11-25 16:03:08.346426
2022-11-25 16:03:08.346683
2022-11-25 16:03:08.346859
2022-11-25 16:03:08.379643
2022-11-25 16:03:08.379832
2022-11-25 16:03:08.379927
2022-11-25 16:03:08.380011
2022-11-25 16:03:08.412996
2022-11-25 16:03:08.413249
2022-11-25 16:03:08.413425
2022-11-25 16:03:08.413589
2022-11-25 16:03:08.446334
2022-11-25 16:03:08.446576
2022-11-25 16:03:08.446746
2022-11-25 16:03:08.479566
2022-11-25 16:03:08.479811
2022-11-25 16:03:08.479982
2022-11-25 16:03:08.480136
2022-11-25 16:03:08.512928
2022-11-25 16:03:08.513156
2022-11-25 16:03:08.513321
2022-11-25 16:03:08.546158
2022-11-25 16:03:08.546431
2022-11-25 16:03:08.546610
2022-11-25 16:03:08.546773
2022-11-25 16:03:08.579536
2022-11-25 16:03:08.579768
2022-11-25 16:03:08.579937
2022-11-25 16:03:08.612746
2022-11-25 16:03:08.612992
2022-11-25 16:03:08.613160
2022-11-25 16:03:08.613319
2022-11-25 16:03:08.646104
2022-11-25 16:03:08.646358
2022-11-25 16:03:08.646526
2022-11-25 16:03:08.679289
2022-11-25 16:03:08.679502
2022-11-25 16:03:08.679634
2022-11-25 16:03:08.679748
2022-11-25 16:03:08.712669
2022-11-25 16:03:08.712910
2022-11-25 16:03:08.713073
2022-11-25 16:03:08.713238
2022-11-25 16:03:08.746047
2022-11-25 16:03:08.746301
2022-11-25 16:03:08.746469
2022-11-25 16:03:08.779288
2022-11-25 16:03:08.779538
2022-11-25 16:03:08.779708
2022-11-25 16:03:08.779864
2022-11-25 16:03:08.812655
2022-11-25 16:03:08.812912
2022-11-25 16:03:08.813087
2022-11-25 16:03:08.845871
2022-11-25 16:03:08.846123
2022-11-25 16:03:08.846294
2022-11-25 16:03:08.846460
2022-11-25 16:03:08.879113
2022-11-25 16:03:08.879190
2022-11-25 16:03:08.879251
2022-11-25 16:03:08.912393
2022-11-25 16:03:08.912539
2022-11-25 16:03:08.912630
2022-11-25 16:03:08.912717
2022-11-25 16:03:08.945815
2022-11-25 16:03:08.946048
2022-11-25 16:03:08.946210
2022-11-25 16:03:08.979009
2022-11-25 16:03:08.979288
2022-11-25 16:03:08.979465
2022-11-25 16:03:08.979626
2022-11-25 16:03:09.012390
2022-11-25 16:03:09.012647
2022-11-25 16:03:09.012823
2022-11-25 16:03:09.012982
2022-11-25 16:03:09.045758
2022-11-25 16:03:09.046019
2022-11-25 16:03:09.046191
2022-11-25 16:03:09.079012
2022-11-25 16:03:09.079255
2022-11-25 16:03:09.079423
2022-11-25 16:03:09.079582
2022-11-25 16:03:09.112343
2022-11-25 16:03:09.112600
2022-11-25 16:03:09.112771
2022-11-25 16:03:09.145568
2022-11-25 16:03:09.145813
2022-11-25 16:03:09.145989
2022-11-25 16:03:09.146158
2022-11-25 16:03:09.178783
2022-11-25 16:03:09.178946
2022-11-25 16:03:09.179039
2022-11-25 16:03:09.212019
2022-11-25 16:03:09.212165
2022-11-25 16:03:09.212238
2022-11-25 16:03:09.212299
2022-11-25 16:03:09.245550
2022-11-25 16:03:09.245809
2022-11-25 16:03:09.245980
2022-11-25 16:03:09.278724
2022-11-25 16:03:09.279008
2022-11-25 16:03:09.279184
2022-11-25 16:03:09.279348
2022-11-25 16:03:09.312137
2022-11-25 16:03:09.312391
2022-11-25 16:03:09.312560
2022-11-25 16:03:09.312721
2022-11-25 16:03:09.345482
2022-11-25 16:03:09.345737
2022-11-25 16:03:09.345904
2022-11-25 16:03:09.378684
2022-11-25 16:03:09.378848
2022-11-25 16:03:09.378941
2022-11-25 16:03:09.379031
2022-11-25 16:03:09.412115
2022-11-25 16:03:09.412365
2022-11-25 16:03:09.412535
2022-11-25 16:03:09.445275
2022-11-25 16:03:09.445511
2022-11-25 16:03:09.445670
2022-11-25 16:03:09.445830
2022-11-25 16:03:09.478654
2022-11-25 16:03:09.478908
2022-11-25 16:03:09.479076
2022-11-25 16:03:09.511876
2022-11-25 16:03:09.512115
2022-11-25 16:03:09.512288
2022-11-25 16:03:09.512453
2022-11-25 16:03:09.545220
2022-11-25 16:03:09.545477
2022-11-25 16:03:09.545644
2022-11-25 16:03:09.578444
2022-11-25 16:03:09.578711
2022-11-25 16:03:09.578891
2022-11-25 16:03:09.579051
2022-11-25 16:03:09.611782
2022-11-25 16:03:09.612034
2022-11-25 16:03:09.612210
2022-11-25 16:03:09.612374
2022-11-25 16:03:09.645186
2022-11-25 16:03:09.645418
2022-11-25 16:03:09.645583
2022-11-25 16:03:09.678425
2022-11-25 16:03:09.678681
2022-11-25 16:03:09.678845
2022-11-25 16:03:09.679007
2022-11-25 16:03:09.711743
2022-11-25 16:03:09.711971
2022-11-25 16:03:09.712137
2022-11-25 16:03:09.745043
2022-11-25 16:03:09.745294
2022-11-25 16:03:09.745469
2022-11-25 16:03:09.745627
2022-11-25 16:03:09.778355
2022-11-25 16:03:09.778610
2022-11-25 16:03:09.778790
2022-11-25 16:03:09.811596
2022-11-25 16:03:09.811835
2022-11-25 16:03:09.812000
2022-11-25 16:03:09.812157
2022-11-25 16:03:09.844957
2022-11-25 16:03:09.845211
2022-11-25 16:03:09.845381
2022-11-25 16:03:09.878088
2022-11-25 16:03:09.878292
2022-11-25 16:03:09.878427
2022-11-25 16:03:09.878541
2022-11-25 16:03:09.911526
2022-11-25 16:03:09.911781
2022-11-25 16:03:09.911957
2022-11-25 16:03:09.912121
2022-11-25 16:03:09.944836
2022-11-25 16:03:09.944994
2022-11-25 16:03:09.945084
2022-11-25 16:03:09.978091
2022-11-25 16:03:09.978342
2022-11-25 16:03:09.978672
2022-11-25 16:03:09.978838
2022-11-25 16:03:10.011455
2022-11-25 16:03:10.011684
2022-11-25 16:03:10.011864
2022-11-25 16:03:10.044712
2022-11-25 16:03:10.044958
2022-11-25 16:03:10.045134
2022-11-25 16:03:10.045292
2022-11-25 16:03:10.078085
2022-11-25 16:03:10.078332
2022-11-25 16:03:10.078512
2022-11-25 16:03:10.111253
2022-11-25 16:03:10.111417
2022-11-25 16:03:10.111508
2022-11-25 16:03:10.111601
2022-11-25 16:03:10.144681
2022-11-25 16:03:10.144923
2022-11-25 16:03:10.145093
2022-11-25 16:03:10.177825
2022-11-25 16:03:10.178108
2022-11-25 16:03:10.178284
2022-11-25 16:03:10.178475
2022-11-25 16:03:10.211223
2022-11-25 16:03:10.211469
2022-11-25 16:03:10.211632
2022-11-25 16:03:10.211794
2022-11-25 16:03:10.244599
2022-11-25 16:03:10.244848
2022-11-25 16:03:10.245015
2022-11-25 16:03:10.277818
2022-11-25 16:03:10.278068
2022-11-25 16:03:10.278234
2022-11-25 16:03:10.278393
2022-11-25 16:03:10.311223
2022-11-25 16:03:10.311482
2022-11-25 16:03:10.311653
2022-11-25 16:03:10.344397
2022-11-25 16:03:10.344595
2022-11-25 16:03:10.344716
2022-11-25 16:03:10.344834
2022-11-25 16:03:10.377743
2022-11-25 16:03:10.377993
2022-11-25 16:03:10.378100
2022-11-25 16:03:10.411018
2022-11-25 16:03:10.411278
2022-11-25 16:03:10.411449
2022-11-25 16:03:10.411610
2022-11-25 16:03:10.444340
2022-11-25 16:03:10.444600
2022-11-25 16:03:10.444772
2022-11-25 16:03:10.477560
2022-11-25 16:03:10.477814
2022-11-25 16:03:10.477983
2022-11-25 16:03:10.478143
2022-11-25 16:03:10.510978
2022-11-25 16:03:10.511227
2022-11-25 16:03:10.511396
2022-11-25 16:03:10.511555
2022-11-25 16:03:10.544330
2022-11-25 16:03:10.544584
2022-11-25 16:03:10.544751
2022-11-25 16:03:10.577533
2022-11-25 16:03:10.577797
2022-11-25 16:03:10.577971
2022-11-25 16:03:10.578137
2022-11-25 16:03:10.610810
2022-11-25 16:03:10.610979
2022-11-25 16:03:10.611074
2022-11-25 16:03:10.644117
2022-11-25 16:03:10.644372
2022-11-25 16:03:10.644541
2022-11-25 16:03:10.644700
2022-11-25 16:03:10.677458
2022-11-25 16:03:10.677650
2022-11-25 16:03:10.677771
2022-11-25 16:03:10.710695
2022-11-25 16:03:10.710943
2022-11-25 16:03:10.711106
2022-11-25 16:03:10.711270
2022-11-25 16:03:10.744064
2022-11-25 16:03:10.744306
2022-11-25 16:03:10.744479
2022-11-25 16:03:10.777290
2022-11-25 16:03:10.777569
2022-11-25 16:03:10.777744
2022-11-25 16:03:10.777901
2022-11-25 16:03:10.810614
2022-11-25 16:03:10.810866
2022-11-25 16:03:10.811036
2022-11-25 16:03:10.811197
2022-11-25 16:03:10.844036
2022-11-25 16:03:10.844289
2022-11-25 16:03:10.844454
2022-11-25 16:03:10.877031
2022-11-25 16:03:10.877127
2022-11-25 16:03:10.877194
2022-11-25 16:03:10.877256
2022-11-25 16:03:10.910443
2022-11-25 16:03:10.910592
2022-11-25 16:03:10.910684
2022-11-25 16:03:10.943784
2022-11-25 16:03:10.943971
2022-11-25 16:03:10.944089
2022-11-25 16:03:10.944201
2022-11-25 16:03:10.977195
2022-11-25 16:03:10.977447
2022-11-25 16:03:10.977621
2022-11-25 16:03:11.010395
2022-11-25 16:03:11.010636
2022-11-25 16:03:11.010799
2022-11-25 16:03:11.010954
2022-11-25 16:03:11.043792
2022-11-25 16:03:11.044048
2022-11-25 16:03:11.044220
2022-11-25 16:03:11.076978
2022-11-25 16:03:11.077258
2022-11-25 16:03:11.077439
2022-11-25 16:03:11.077604
2022-11-25 16:03:11.110354
2022-11-25 16:03:11.110578
2022-11-25 16:03:11.110741
2022-11-25 16:03:11.110899
2022-11-25 16:03:11.143698
2022-11-25 16:03:11.143947
2022-11-25 16:03:11.144121
2022-11-25 16:03:11.176926
2022-11-25 16:03:11.177188
2022-11-25 16:03:11.177368
2022-11-25 16:03:11.177532
2022-11-25 16:03:11.210292
2022-11-25 16:03:11.210540
2022-11-25 16:03:11.210711
2022-11-25 16:03:11.243544
2022-11-25 16:03:11.243799
2022-11-25 16:03:11.243982
2022-11-25 16:03:11.244142
2022-11-25 16:03:11.276801
2022-11-25 16:03:11.277053
2022-11-25 16:03:11.277222
2022-11-25 16:03:11.310122
2022-11-25 16:03:11.310378
2022-11-25 16:03:11.310548
2022-11-25 16:03:11.310715
2022-11-25 16:03:11.343461
2022-11-25 16:03:11.343702
2022-11-25 16:03:11.343869
2022-11-25 16:03:11.376672
2022-11-25 16:03:11.376965
2022-11-25 16:03:11.377151
2022-11-25 16:03:11.377313
2022-11-25 16:03:11.409934
2022-11-25 16:03:11.410046
2022-11-25 16:03:11.410114
2022-11-25 16:03:11.410178
2022-11-25 16:03:11.443327
2022-11-25 16:03:11.443471
2022-11-25 16:03:11.443561
2022-11-25 16:03:11.476640
2022-11-25 16:03:11.476893
2022-11-25 16:03:11.477067
2022-11-25 16:03:11.477229
2022-11-25 16:03:11.509958
2022-11-25 16:03:11.510214
2022-11-25 16:03:11.510389
2022-11-25 16:03:11.543237
2022-11-25 16:03:11.543498
2022-11-25 16:03:11.543662
2022-11-25 16:03:11.543822
2022-11-25 16:03:11.576589
2022-11-25 16:03:11.576829
2022-11-25 16:03:11.576994
2022-11-25 16:03:11.609825
2022-11-25 16:03:11.610078
2022-11-25 16:03:11.610246
2022-11-25 16:03:11.610406
2022-11-25 16:03:11.643189
2022-11-25 16:03:11.643442
2022-11-25 16:03:11.643617
2022-11-25 16:03:11.676375
2022-11-25 16:03:11.676636
2022-11-25 16:03:11.676807
2022-11-25 16:03:11.676964
2022-11-25 16:03:11.709757
2022-11-25 16:03:11.709990
2022-11-25 16:03:11.710153
2022-11-25 16:03:11.710319
2022-11-25 16:03:11.743131
2022-11-25 16:03:11.743369
2022-11-25 16:03:11.743536
2022-11-25 16:03:11.776378
2022-11-25 16:03:11.776622
2022-11-25 16:03:11.776784
2022-11-25 16:03:11.776942
2022-11-25 16:03:11.809737
2022-11-25 16:03:11.809984
2022-11-25 16:03:11.810150
2022-11-25 16:03:11.843005
2022-11-25 16:03:11.843240
2022-11-25 16:03:11.843401
2022-11-25 16:03:11.843586
2022-11-25 16:03:11.876202
2022-11-25 16:03:11.876388
2022-11-25 16:03:11.876512
2022-11-25 16:03:11.909511
2022-11-25 16:03:11.909684
2022-11-25 16:03:11.909779
2022-11-25 16:03:11.909870
2022-11-25 16:03:11.942866
2022-11-25 16:03:11.943116
2022-11-25 16:03:11.943285
2022-11-25 16:03:11.976094
2022-11-25 16:03:11.976363
2022-11-25 16:03:11.976526
2022-11-25 16:03:11.976683
2022-11-25 16:03:12.009441
2022-11-25 16:03:12.009641
2022-11-25 16:03:12.009769
2022-11-25 16:03:12.009891
2022-11-25 16:03:12.042841
2022-11-25 16:03:12.043096
2022-11-25 16:03:12.043267
2022-11-25 16:03:12.076087
2022-11-25 16:03:12.076347
2022-11-25 16:03:12.076516
2022-11-25 16:03:12.076679
2022-11-25 16:03:12.109394
2022-11-25 16:03:12.109742
2022-11-25 16:03:12.109860
2022-11-25 16:03:12.142621
2022-11-25 16:03:12.142773
2022-11-25 16:03:12.142860
2022-11-25 16:03:12.142951
2022-11-25 16:03:12.176001
2022-11-25 16:03:12.176258
2022-11-25 16:03:12.176422
2022-11-25 16:03:12.209233
2022-11-25 16:03:12.209472
2022-11-25 16:03:12.209633
2022-11-25 16:03:12.209792
2022-11-25 16:03:12.242581
2022-11-25 16:03:12.242820
2022-11-25 16:03:12.242992
2022-11-25 16:03:12.275743
2022-11-25 16:03:12.276010
2022-11-25 16:03:12.276177
2022-11-25 16:03:12.276334
2022-11-25 16:03:12.309208
2022-11-25 16:03:12.309450
2022-11-25 16:03:12.309615
2022-11-25 16:03:12.309786
2022-11-25 16:03:12.342530
2022-11-25 16:03:12.342766
2022-11-25 16:03:12.342922
2022-11-25 16:03:12.375703
2022-11-25 16:03:12.375953
2022-11-25 16:03:12.376121
2022-11-25 16:03:12.376278
2022-11-25 16:03:12.408971
2022-11-25 16:03:12.409085
2022-11-25 16:03:12.409158
2022-11-25 16:03:12.442334
2022-11-25 16:03:12.442519
2022-11-25 16:03:12.442639
2022-11-25 16:03:12.442751
2022-11-25 16:03:12.475711
2022-11-25 16:03:12.475948
2022-11-25 16:03:12.476107
2022-11-25 16:03:12.508984
2022-11-25 16:03:12.509209
2022-11-25 16:03:12.509366
2022-11-25 16:03:12.509524
2022-11-25 16:03:12.542362
2022-11-25 16:03:12.542622
2022-11-25 16:03:12.542793
2022-11-25 16:03:12.575521
2022-11-25 16:03:12.575795
2022-11-25 16:03:12.575963
2022-11-25 16:03:12.576117
2022-11-25 16:03:12.608880
2022-11-25 16:03:12.609124
2022-11-25 16:03:12.609287
2022-11-25 16:03:12.609452
2022-11-25 16:03:12.642213
2022-11-25 16:03:12.642450
2022-11-25 16:03:12.642615
2022-11-25 16:03:12.675466
2022-11-25 16:03:12.675703
2022-11-25 16:03:12.675864
2022-11-25 16:03:12.676024
2022-11-25 16:03:12.708819
2022-11-25 16:03:12.709061
2022-11-25 16:03:12.709238
2022-11-25 16:03:12.742042
2022-11-25 16:03:12.742276
2022-11-25 16:03:12.742442
2022-11-25 16:03:12.742594
2022-11-25 16:03:12.775417
2022-11-25 16:03:12.775661
2022-11-25 16:03:12.775824
2022-11-25 16:03:12.808645
2022-11-25 16:03:12.808872
2022-11-25 16:03:12.809031
2022-11-25 16:03:12.809190
2022-11-25 16:03:12.842082
2022-11-25 16:03:12.842336
2022-11-25 16:03:12.842506
2022-11-25 16:03:12.875239
2022-11-25 16:03:12.875421
2022-11-25 16:03:12.875514
2022-11-25 16:03:12.875610
2022-11-25 16:03:12.908606
2022-11-25 16:03:12.908805
2022-11-25 16:03:12.908928
2022-11-25 16:03:12.909048
2022-11-25 16:03:12.941962
2022-11-25 16:03:12.942209
2022-11-25 16:03:12.942385
2022-11-25 16:03:12.975188
2022-11-25 16:03:12.975452
2022-11-25 16:03:12.975625
2022-11-25 16:03:12.975786
2022-11-25 16:03:13.008484
2022-11-25 16:03:13.008681
2022-11-25 16:03:13.008802
2022-11-25 16:03:13.041755
2022-11-25 16:03:13.042000
2022-11-25 16:03:13.042161
2022-11-25 16:03:13.042312
2022-11-25 16:03:13.075158
2022-11-25 16:03:13.075400
2022-11-25 16:03:13.075569
2022-11-25 16:03:13.108373
2022-11-25 16:03:13.108641
2022-11-25 16:03:13.108819
2022-11-25 16:03:13.108981
2022-11-25 16:03:13.141710
2022-11-25 16:03:13.141941
2022-11-25 16:03:13.142106
2022-11-25 16:03:13.174818
2022-11-25 16:03:13.174969
2022-11-25 16:03:13.175039
2022-11-25 16:03:13.175111
2022-11-25 16:03:13.208172
2022-11-25 16:03:13.208319
2022-11-25 16:03:13.208385
2022-11-25 16:03:13.208450
2022-11-25 16:03:13.241705
2022-11-25 16:03:13.241978
2022-11-25 16:03:13.242148
2022-11-25 16:03:13.274905
2022-11-25 16:03:13.275173
2022-11-25 16:03:13.275351
2022-11-25 16:03:13.275512
2022-11-25 16:03:13.308259
2022-11-25 16:03:13.308525
2022-11-25 16:03:13.308712
2022-11-25 16:03:13.341482
2022-11-25 16:03:13.341740
2022-11-25 16:03:13.341908
2022-11-25 16:03:13.342062
2022-11-25 16:03:13.374710
2022-11-25 16:03:13.374916
2022-11-25 16:03:13.375040
2022-11-25 16:03:13.408106
2022-11-25 16:03:13.408305
2022-11-25 16:03:13.408425
2022-11-25 16:03:13.408546
2022-11-25 16:03:13.441434
2022-11-25 16:03:13.441676
2022-11-25 16:03:13.441918
2022-11-25 16:03:13.474628
2022-11-25 16:03:13.474883
2022-11-25 16:03:13.475049
2022-11-25 16:03:13.475212
2022-11-25 16:03:13.507992
2022-11-25 16:03:13.508144
2022-11-25 16:03:13.508231
2022-11-25 16:03:13.508320
2022-11-25 16:03:13.541387
2022-11-25 16:03:13.541655
2022-11-25 16:03:13.541830
2022-11-25 16:03:13.574585
2022-11-25 16:03:13.574795
2022-11-25 16:03:13.574921
2022-11-25 16:03:13.575039
2022-11-25 16:03:13.607938
2022-11-25 16:03:13.608183
2022-11-25 16:03:13.608350
2022-11-25 16:03:13.641215
2022-11-25 16:03:13.641463
2022-11-25 16:03:13.641633
2022-11-25 16:03:13.641792
2022-11-25 16:03:13.674527
2022-11-25 16:03:13.674727
2022-11-25 16:03:13.674856
2022-11-25 16:03:13.707754
2022-11-25 16:03:13.708016
2022-11-25 16:03:13.708193
2022-11-25 16:03:13.708352
2022-11-25 16:03:13.741133
2022-11-25 16:03:13.741390
2022-11-25 16:03:13.741565
2022-11-25 16:03:13.774309
2022-11-25 16:03:13.774565
2022-11-25 16:03:13.774732
2022-11-25 16:03:13.774904
2022-11-25 16:03:13.807753
2022-11-25 16:03:13.808010
2022-11-25 16:03:13.808178
2022-11-25 16:03:13.808344
2022-11-25 16:03:13.841096
2022-11-25 16:03:13.841350
2022-11-25 16:03:13.841524
2022-11-25 16:03:13.874345
2022-11-25 16:03:13.874599
2022-11-25 16:03:13.874771
2022-11-25 16:03:13.875048
2022-11-25 16:03:13.907680
2022-11-25 16:03:13.907925
2022-11-25 16:03:13.908097
2022-11-25 16:03:13.940906
2022-11-25 16:03:13.941163
2022-11-25 16:03:13.941336
2022-11-25 16:03:13.941494
2022-11-25 16:03:13.974229
2022-11-25 16:03:13.974417
2022-11-25 16:03:13.974546
2022-11-25 16:03:14.007499
2022-11-25 16:03:14.007772
2022-11-25 16:03:14.007942
2022-11-25 16:03:14.008102
2022-11-25 16:03:14.040834
2022-11-25 16:03:14.041085
2022-11-25 16:03:14.041253
2022-11-25 16:03:14.074056
2022-11-25 16:03:14.074328
2022-11-25 16:03:14.074508
2022-11-25 16:03:14.074670
2022-11-25 16:03:14.107437
2022-11-25 16:03:14.107681
2022-11-25 16:03:14.107849
2022-11-25 16:03:14.108023
2022-11-25 16:03:14.140768
2022-11-25 16:03:14.140962
2022-11-25 16:03:14.141084
2022-11-25 16:03:14.173977
2022-11-25 16:03:14.174232
2022-11-25 16:03:14.174402
2022-11-25 16:03:14.174569
2022-11-25 16:03:14.207408
2022-11-25 16:03:14.207684
2022-11-25 16:03:14.207859
2022-11-25 16:03:14.240600
2022-11-25 16:03:14.240878
2022-11-25 16:03:14.240976
2022-11-25 16:03:14.241067
2022-11-25 16:03:14.273954
2022-11-25 16:03:14.274210
2022-11-25 16:03:14.274412
2022-11-25 16:03:14.307218
2022-11-25 16:03:14.307495
2022-11-25 16:03:14.307667
2022-11-25 16:03:14.307826
2022-11-25 16:03:14.340551
2022-11-25 16:03:14.340807
2022-11-25 16:03:14.340979
2022-11-25 16:03:14.373773
2022-11-25 16:03:14.374050
2022-11-25 16:03:14.374256
2022-11-25 16:03:14.374423
2022-11-25 16:03:14.407151
2022-11-25 16:03:14.407355
2022-11-25 16:03:14.407481
2022-11-25 16:03:14.407595
2022-11-25 16:03:14.440479
2022-11-25 16:03:14.440716
2022-11-25 16:03:14.440876
2022-11-25 16:03:14.473738
2022-11-25 16:03:14.473997
2022-11-25 16:03:14.474163
2022-11-25 16:03:14.474324
2022-11-25 16:03:14.507043
2022-11-25 16:03:14.507229
2022-11-25 16:03:14.507348
2022-11-25 16:03:14.540327
2022-11-25 16:03:14.540592
2022-11-25 16:03:14.540768
2022-11-25 16:03:14.540923
2022-11-25 16:03:14.573631
2022-11-25 16:03:14.573828
2022-11-25 16:03:14.573948
2022-11-25 16:03:14.606909
2022-11-25 16:03:14.607110
2022-11-25 16:03:14.607240
2022-11-25 16:03:14.607355
2022-11-25 16:03:14.640303
2022-11-25 16:03:14.640552
2022-11-25 16:03:14.640716
2022-11-25 16:03:14.673483
2022-11-25 16:03:14.673706
2022-11-25 16:03:14.673830
2022-11-25 16:03:14.673946
2022-11-25 16:03:14.706851
2022-11-25 16:03:14.707100
2022-11-25 16:03:14.707270
2022-11-25 16:03:14.707431
2022-11-25 16:03:14.740192
2022-11-25 16:03:14.740447
2022-11-25 16:03:14.740618
2022-11-25 16:03:14.773445
2022-11-25 16:03:14.773699
2022-11-25 16:03:14.773868
2022-11-25 16:03:14.774034
2022-11-25 16:03:14.806779
2022-11-25 16:03:14.806973
2022-11-25 16:03:14.807093
2022-11-25 16:03:14.840020
2022-11-25 16:03:14.840292
2022-11-25 16:03:14.840474
2022-11-25 16:03:14.840640
2022-11-25 16:03:14.873117
2022-11-25 16:03:14.873228
2022-11-25 16:03:14.873296
2022-11-25 16:03:14.906540
2022-11-25 16:03:14.906788
2022-11-25 16:03:14.906963
2022-11-25 16:03:14.907125
2022-11-25 16:03:14.939999
2022-11-25 16:03:14.940262
2022-11-25 16:03:14.940443
2022-11-25 16:03:14.973150
2022-11-25 16:03:14.973423
2022-11-25 16:03:14.973602
2022-11-25 16:03:14.973761
2022-11-25 16:03:15.006661
2022-11-25 16:03:15.006976
2022-11-25 16:03:15.007147
2022-11-25 16:03:15.007317
2022-11-25 16:03:15.040051
2022-11-25 16:03:15.040400
2022-11-25 16:03:15.040575
2022-11-25 16:03:15.073311
2022-11-25 16:03:15.073657
2022-11-25 16:03:15.073834
2022-11-25 16:03:15.074002
2022-11-25 16:03:15.106583
2022-11-25 16:03:15.106852
2022-11-25 16:03:15.106977
2022-11-25 16:03:15.139889
2022-11-25 16:03:15.140234
2022-11-25 16:03:15.140402
2022-11-25 16:03:15.140573
2022-11-25 16:03:15.173166
2022-11-25 16:03:15.173444
2022-11-25 16:03:15.173566
2022-11-25 16:03:15.206462
2022-11-25 16:03:15.206818
2022-11-25 16:03:15.206992
2022-11-25 16:03:15.207154
2022-11-25 16:03:15.239834
2022-11-25 16:03:15.240171
2022-11-25 16:03:15.240357
2022-11-25 16:03:15.273030
2022-11-25 16:03:15.273305
2022-11-25 16:03:15.273403
2022-11-25 16:03:15.273492
2022-11-25 16:03:15.306384
2022-11-25 16:03:15.306758
2022-11-25 16:03:15.306987
2022-11-25 16:03:15.307165
2022-11-25 16:03:15.339709
2022-11-25 16:03:15.339998
2022-11-25 16:03:15.340123
2022-11-25 16:03:15.372925
2022-11-25 16:03:15.373181
2022-11-25 16:03:15.373276
2022-11-25 16:03:15.373358
2022-11-25 16:03:15.406331
2022-11-25 16:03:15.406587
2022-11-25 16:03:15.406679
2022-11-25 16:03:15.439536
2022-11-25 16:03:15.439844
2022-11-25 16:03:15.440015
