2022-11-29 20:56:57.692462, 0.69404
2022-11-29 20:56:57.700793, 0.81134
2022-11-29 20:56:57.708917, 0.89932
2022-11-29 20:56:57.721178, 0.95308
2022-11-29 20:56:57.729387, 1.00684
2022-11-29 20:56:57.737613, 1.08993
2022-11-29 20:56:57.749818, 1.10948
2022-11-29 20:56:57.758102, 1.16813
2022-11-29 20:56:57.766398, 1.19746
2022-11-29 20:56:57.774517, 1.23656
2022-11-29 20:56:57.786749, 1.25122
2022-11-29 20:56:57.794988, 1.25611
2022-11-29 20:56:57.803162, 1.27566
2022-11-29 20:56:57.815383, 1.27566
2022-11-29 20:56:57.823625, 1.30987
2022-11-29 20:56:57.831962, 1.35386
2022-11-29 20:56:57.840102, 1.40762
2022-11-29 20:56:57.852217, 1.49071
2022-11-29 20:56:57.860496, 1.52004
2022-11-29 20:56:57.868732, 1.55425
2022-11-29 20:56:57.881017, 1.57869
2022-11-29 20:56:57.889188, 1.58847
2022-11-29 20:56:57.897372, 1.58358
2022-11-29 20:56:57.905585, 1.56403
2022-11-29 20:56:57.917771, 1.54448
2022-11-29 20:56:57.925947, 1.50049
2022-11-29 20:56:57.934205, 1.47116
2022-11-29 20:56:57.946568, 1.45161
2022-11-29 20:56:57.954714, 1.42229
2022-11-29 20:56:57.962917, 1.41251
2022-11-29 20:56:57.971075, 1.38807
2022-11-29 20:56:57.983373, 1.36364
2022-11-29 20:56:57.991625, 1.34897
2022-11-29 20:56:57.999677, 1.32454
2022-11-29 20:56:58.012149, 1.31476
2022-11-29 20:56:58.020162, 1.32942
2022-11-29 20:56:58.028522, 1.30499
2022-11-29 20:56:58.036701, 1.28543
2022-11-29 20:56:58.048919, 1.26100
2022-11-29 20:56:58.057025, 1.22678
2022-11-29 20:56:58.065287, 1.19257
2022-11-29 20:56:58.077583, 1.17302
2022-11-29 20:56:58.085847, 1.15836
2022-11-29 20:56:58.093978, 1.16813
2022-11-29 20:56:58.102239, 1.16813
2022-11-29 20:56:58.114464, 1.18280
2022-11-29 20:56:58.122541, 1.17791
2022-11-29 20:56:58.130849, 1.15836
2022-11-29 20:56:58.143062, 1.15836
2022-11-29 20:56:58.151362, 1.09482
2022-11-29 20:56:58.159403, 1.06549
2022-11-29 20:56:58.167699, 1.04594
2022-11-29 20:56:58.180074, 1.04106
2022-11-29 20:56:58.188154, 1.04594
2022-11-29 20:56:58.196455, 1.06061
2022-11-29 20:56:58.208652, 1.08504
2022-11-29 20:56:58.216792, 1.08016
2022-11-29 20:56:58.225132, 1.08016
2022-11-29 20:56:58.233307, 1.08016
2022-11-29 20:56:58.245454, 1.08016
2022-11-29 20:56:58.253609, 1.08016
2022-11-29 20:56:58.261964, 1.08016
2022-11-29 20:56:58.270140, 1.08993
2022-11-29 20:56:58.282393, 1.07038
2022-11-29 20:56:58.290594, 1.06549
2022-11-29 20:56:58.298823, 1.06061
2022-11-29 20:56:58.311008, 1.07527
2022-11-29 20:56:58.319288, 1.09482
2022-11-29 20:56:58.327484, 1.11926
2022-11-29 20:56:58.335697, 1.14369
2022-11-29 20:56:58.348025, 1.16325
2022-11-29 20:56:58.356216, 1.19257
2022-11-29 20:56:58.364369, 1.16813
2022-11-29 20:56:58.376515, 1.14858
2022-11-29 20:56:58.384732, 1.11926
2022-11-29 20:56:58.392942, 1.08993
2022-11-29 20:56:58.401115, 1.07527
2022-11-29 20:56:58.413462, 1.03128
2022-11-29 20:56:58.421694, 1.02151
2022-11-29 20:56:58.429907, 1.01173
2022-11-29 20:56:58.442039, 1.00684
2022-11-29 20:56:58.450326, 1.00196
2022-11-29 20:56:58.458413, 1.00196
2022-11-29 20:56:58.466744, 1.02639
2022-11-29 20:56:58.478988, 1.00196
2022-11-29 20:56:58.487121, 1.00196
2022-11-29 20:56:58.495389, 1.00196
2022-11-29 20:56:58.507678, 0.99707
2022-11-29 20:56:58.515831, 1.00684
2022-11-29 20:56:58.524022, 1.02151
2022-11-29 20:56:58.532174, 1.05572
2022-11-29 20:56:58.544508, 1.04594
2022-11-29 20:56:58.552645, 1.05572
2022-11-29 20:56:58.560951, 1.06549
2022-11-29 20:56:58.573160, 1.06061
2022-11-29 20:56:58.581369, 1.06061
2022-11-29 20:56:58.589574, 1.06061
2022-11-29 20:56:58.597866, 1.05083
2022-11-29 20:56:58.609976, 1.03617
2022-11-29 20:56:58.618319, 1.02151
2022-11-29 20:56:58.626445, 1.00684
2022-11-29 20:56:58.638764, 0.99218
2022-11-29 20:56:58.647066, 0.97752
2022-11-29 20:56:58.655094, 0.98729
2022-11-29 20:56:58.663413, 1.00684
2022-11-29 20:56:58.675484, 1.02639
2022-11-29 20:56:58.683716, 1.05572
2022-11-29 20:56:58.691998, 1.08504
2022-11-29 20:56:58.704242, 1.10948
2022-11-29 20:56:58.712513, 1.15347
2022-11-29 20:56:58.720661, 1.14858
2022-11-29 20:56:58.728856, 1.17302
2022-11-29 20:56:58.741115, 1.17791
2022-11-29 20:56:58.749334, 1.19257
2022-11-29 20:56:58.757594, 1.21212
2022-11-29 20:56:58.769785, 1.22190
2022-11-29 20:56:58.777943, 1.24145
2022-11-29 20:56:58.786187, 1.24633
2022-11-29 20:56:58.794413, 1.26100
2022-11-29 20:56:58.806591, 1.25122
2022-11-29 20:56:58.814892, 1.25122
2022-11-29 20:56:58.823054, 1.22678
2022-11-29 20:56:58.835305, 1.22190
2022-11-29 20:56:58.843536, 1.17791
2022-11-29 20:56:58.851687, 1.15836
2022-11-29 20:56:58.859855, 1.14369
2022-11-29 20:56:58.872109, 1.13881
2022-11-29 20:56:58.880458, 1.13881
2022-11-29 20:56:58.888611, 1.14858
2022-11-29 20:56:58.900842, 1.15836
2022-11-29 20:56:58.909042, 1.17791
2022-11-29 20:56:58.917262, 1.20235
2022-11-29 20:56:58.925364, 1.22678
2022-11-29 20:56:58.937717, 1.24145
2022-11-29 20:56:58.946074, 1.24633
2022-11-29 20:56:58.954187, 1.24145
2022-11-29 20:56:58.966401, 1.21701
2022-11-29 20:56:58.974584, 1.18768
2022-11-29 20:56:58.982848, 1.15347
2022-11-29 20:56:58.990900, 1.12414
2022-11-29 20:56:59.003316, 1.10948
2022-11-29 20:56:59.011583, 1.09971
2022-11-29 20:56:59.019727, 1.10948
2022-11-29 20:56:59.031964, 1.12903
2022-11-29 20:56:59.040091, 1.14369
2022-11-29 20:56:59.048391, 1.16325
2022-11-29 20:56:59.056543, 1.18280
2022-11-29 20:56:59.068778, 1.20723
2022-11-29 20:56:59.076933, 1.25122
2022-11-29 20:56:59.085195, 1.28543
2022-11-29 20:56:59.093337, 1.33431
2022-11-29 20:56:59.105674, 1.34897
2022-11-29 20:56:59.114146, 1.37341
2022-11-29 20:56:59.122051, 1.38807
2022-11-29 20:56:59.134322, 1.39296
2022-11-29 20:56:59.142465, 1.40274
2022-11-29 20:56:59.150940, 1.37341
2022-11-29 20:56:59.158956, 1.36364
2022-11-29 20:56:59.171185, 1.35386
2022-11-29 20:56:59.179424, 1.34897
2022-11-29 20:56:59.187622, 1.34897
2022-11-29 20:56:59.199835, 1.34409
2022-11-29 20:56:59.208175, 1.33431
2022-11-29 20:56:59.216377, 1.29032
2022-11-29 20:56:59.224470, 1.25611
2022-11-29 20:56:59.236750, 1.22678
2022-11-29 20:56:59.245125, 1.21212
2022-11-29 20:56:59.253161, 1.21701
2022-11-29 20:56:59.265359, 1.23167
2022-11-29 20:56:59.274803, 1.26100
2022-11-29 20:56:59.281769, 1.30987
2022-11-29 20:56:59.290030, 1.30499
2022-11-29 20:56:59.302168, 1.31476
2022-11-29 20:56:59.310416, 1.32454
2022-11-29 20:56:59.318702, 1.32942
2022-11-29 20:56:59.330905, 1.33431
2022-11-29 20:56:59.339211, 1.34897
2022-11-29 20:56:59.347346, 1.36364
2022-11-29 20:56:59.355547, 1.38319
2022-11-29 20:56:59.367798, 1.36364
2022-11-29 20:56:59.375945, 1.36364
2022-11-29 20:56:59.384239, 1.35875
2022-11-29 20:56:59.396536, 1.36364
2022-11-29 20:56:59.404603, 1.37341
2022-11-29 20:56:59.412960, 1.38807
2022-11-29 20:56:59.421122, 1.39296
2022-11-29 20:56:59.433336, 1.38319
2022-11-29 20:56:59.441585, 1.36852
2022-11-29 20:56:59.449813, 1.34897
2022-11-29 20:56:59.461983, 1.33431
2022-11-29 20:56:59.470227, 1.31965
2022-11-29 20:56:59.478496, 1.31965
2022-11-29 20:56:59.486700, 1.32454
2022-11-29 20:56:59.498913, 1.33920
2022-11-29 20:56:59.507057, 1.35875
2022-11-29 20:56:59.515354, 1.37830
2022-11-29 20:56:59.527517, 1.37830
2022-11-29 20:56:59.535665, 1.39296
2022-11-29 20:56:59.543965, 1.41251
2022-11-29 20:56:59.552227, 1.42717
2022-11-29 20:56:59.564462, 1.44184
2022-11-29 20:56:59.572644, 1.45161
2022-11-29 20:56:59.580882, 1.45650
2022-11-29 20:56:59.594085, 1.46628
2022-11-29 20:56:59.601321, 1.46628
2022-11-29 20:56:59.609517, 1.47605
2022-11-29 20:56:59.617714, 1.49560
2022-11-29 20:56:59.630031, 1.54448
2022-11-29 20:56:59.638177, 1.60802
2022-11-29 20:56:59.646452, 1.65689
2022-11-29 20:56:59.658621, 1.68622
2022-11-29 20:56:59.666854, 1.72043
2022-11-29 20:56:59.675049, 1.73509
2022-11-29 20:56:59.683428, 1.72043
2022-11-29 20:56:59.695478, 1.70088
2022-11-29 20:56:59.703656, 1.66667
2022-11-29 20:56:59.711953, 1.62757
2022-11-29 20:56:59.724117, 1.58847
2022-11-29 20:56:59.732410, 1.54936
2022-11-29 20:56:59.740574, 1.50538
2022-11-29 20:56:59.748784, 1.46628
2022-11-29 20:56:59.761025, 1.43695
2022-11-29 20:56:59.769243, 1.40274
2022-11-29 20:56:59.777471, 1.36852
2022-11-29 20:56:59.789657, 1.34409
2022-11-29 20:56:59.797900, 1.33431
2022-11-29 20:56:59.806146, 1.28543
2022-11-29 20:56:59.814317, 1.26100
2022-11-29 20:56:59.826581, 1.24145
2022-11-29 20:56:59.834758, 1.22190
2022-11-29 20:56:59.843000, 1.21212
2022-11-29 20:56:59.855194, 1.20235
2022-11-29 20:56:59.863506, 1.20723
2022-11-29 20:56:59.871566, 1.22190
2022-11-29 20:56:59.879902, 1.24145
2022-11-29 20:56:59.892073, 1.27077
2022-11-29 20:56:59.900278, 1.30010
2022-11-29 20:56:59.908423, 1.32454
2022-11-29 20:56:59.920685, 1.33431
2022-11-29 20:56:59.928952, 1.32942
2022-11-29 20:56:59.937143, 1.30987
2022-11-29 20:56:59.945365, 1.28543
2022-11-29 20:56:59.957654, 1.25122
2022-11-29 20:56:59.965934, 1.22190
2022-11-29 20:56:59.974027, 1.19746
2022-11-29 20:56:59.982395, 1.18768
2022-11-29 20:56:59.994584, 1.16813
2022-11-29 20:57:00.002841, 1.16813
2022-11-29 20:57:00.010856, 1.18280
2022-11-29 20:57:00.023159, 1.20235
2022-11-29 20:57:00.031346, 1.21701
2022-11-29 20:57:00.039560, 1.22190
2022-11-29 20:57:00.047822, 1.21701
2022-11-29 20:57:00.060060, 1.21212
2022-11-29 20:57:00.068215, 1.21212
2022-11-29 20:57:00.076485, 1.22190
2022-11-29 20:57:00.088724, 1.23167
2022-11-29 20:57:00.096930, 1.26100
2022-11-29 20:57:00.105198, 1.29032
2022-11-29 20:57:00.113621, 1.32454
2022-11-29 20:57:00.125645, 1.32942
2022-11-29 20:57:00.134176, 1.32454
2022-11-29 20:57:00.141966, 1.33431
2022-11-29 20:57:00.154145, 1.33431
2022-11-29 20:57:00.162433, 1.33920
2022-11-29 20:57:00.170631, 1.34897
2022-11-29 20:57:00.178885, 1.35875
2022-11-29 20:57:00.191088, 1.37341
2022-11-29 20:57:00.199337, 1.38319
2022-11-29 20:57:00.207555, 1.39785
2022-11-29 20:57:00.219675, 1.40762
2022-11-29 20:57:00.228043, 1.42717
2022-11-29 20:57:00.236244, 1.40762
2022-11-29 20:57:00.244499, 1.40274
2022-11-29 20:57:00.256657, 1.40274
2022-11-29 20:57:00.264926, 1.40274
2022-11-29 20:57:00.273049, 1.41251
2022-11-29 20:57:00.285243, 1.41740
2022-11-29 20:57:00.293531, 1.43206
2022-11-29 20:57:00.301753, 1.43695
2022-11-29 20:57:00.310411, 1.43695
2022-11-29 20:57:00.322090, 1.43206
2022-11-29 20:57:00.330377, 1.42717
2022-11-29 20:57:00.338575, 1.42717
2022-11-29 20:57:00.350813, 1.41740
2022-11-29 20:57:00.358932, 1.42229
2022-11-29 20:57:00.367279, 1.42717
2022-11-29 20:57:00.375336, 1.43695
2022-11-29 20:57:00.387729, 1.44673
2022-11-29 20:57:00.395932, 1.45650
2022-11-29 20:57:00.404036, 1.45650
2022-11-29 20:57:00.416381, 1.46139
2022-11-29 20:57:00.424549, 1.45650
2022-11-29 20:57:00.432813, 1.45650
2022-11-29 20:57:00.441003, 1.45650
2022-11-29 20:57:00.453274, 1.47116
2022-11-29 20:57:00.461445, 1.45650
2022-11-29 20:57:00.469696, 1.45650
2022-11-29 20:57:00.481968, 1.46139
2022-11-29 20:57:00.490082, 1.46139
2022-11-29 20:57:00.498268, 1.45650
2022-11-29 20:57:00.506512, 1.45161
2022-11-29 20:57:00.518713, 1.44184
2022-11-29 20:57:00.527007, 1.43206
2022-11-29 20:57:00.535181, 1.42717
2022-11-29 20:57:00.547449, 1.42229
2022-11-29 20:57:00.555580, 1.42717
2022-11-29 20:57:00.563826, 1.43206
2022-11-29 20:57:00.572042, 1.43695
2022-11-29 20:57:00.584241, 1.44673
2022-11-29 20:57:00.592416, 1.45650
2022-11-29 20:57:00.600639, 1.46139
2022-11-29 20:57:00.613022, 1.46628
2022-11-29 20:57:00.621107, 1.47605
2022-11-29 20:57:00.629316, 1.48583
2022-11-29 20:57:00.637707, 1.48094
2022-11-29 20:57:00.649797, 1.47116
2022-11-29 20:57:00.658004, 1.47116
2022-11-29 20:57:00.666331, 1.48094
2022-11-29 20:57:00.678476, 1.50049
2022-11-29 20:57:00.686729, 1.51515
2022-11-29 20:57:00.694987, 1.53470
2022-11-29 20:57:00.703185, 1.55914
2022-11-29 20:57:00.715375, 1.58358
2022-11-29 20:57:00.723565, 1.60802
2022-11-29 20:57:00.731817, 1.61779
2022-11-29 20:57:00.744109, 1.63245
2022-11-29 20:57:00.752241, 1.63734
2022-11-29 20:57:00.760357, 1.62757
2022-11-29 20:57:00.768645, 1.62268
2022-11-29 20:57:00.780957, 1.64223
2022-11-29 20:57:00.789117, 1.60802
2022-11-29 20:57:00.797325, 1.60313
2022-11-29 20:57:00.805516, 1.62757
2022-11-29 20:57:00.817809, 1.58847
2022-11-29 20:57:00.826056, 1.57869
2022-11-29 20:57:00.834154, 1.58847
2022-11-29 20:57:00.846500, 1.56403
2022-11-29 20:57:00.854793, 1.55914
2022-11-29 20:57:00.862834, 1.57869
2022-11-29 20:57:00.871103, 1.56403
2022-11-29 20:57:00.883351, 1.55914
2022-11-29 20:57:00.891590, 1.55914
2022-11-29 20:57:00.899698, 1.53959
2022-11-29 20:57:00.911961, 1.52981
2022-11-29 20:57:00.920212, 1.52004
2022-11-29 20:57:00.928392, 1.54448
2022-11-29 20:57:00.936626, 1.54448
2022-11-29 20:57:00.948899, 1.54448
2022-11-29 20:57:00.957093, 1.56891
2022-11-29 20:57:00.965354, 1.58358
2022-11-29 20:57:00.977525, 1.59824
2022-11-29 20:57:00.985725, 1.60313
2022-11-29 20:57:00.993903, 1.58847
2022-11-29 20:57:01.002130, 1.57380
2022-11-29 20:57:01.014379, 1.55914
2022-11-29 20:57:01.022569, 1.53470
2022-11-29 20:57:01.030847, 1.51515
2022-11-29 20:57:01.043003, 1.50538
2022-11-29 20:57:01.051226, 1.49560
2022-11-29 20:57:01.059475, 1.49560
2022-11-29 20:57:01.067811, 1.48583
2022-11-29 20:57:01.079970, 1.48583
2022-11-29 20:57:01.088105, 1.47605
2022-11-29 20:57:01.096411, 1.46628
2022-11-29 20:57:01.108551, 1.45650
2022-11-29 20:57:01.116743, 1.44184
2022-11-29 20:57:01.125015, 1.43206
2022-11-29 20:57:01.133126, 1.42229
2022-11-29 20:57:01.145567, 1.42229
2022-11-29 20:57:01.153657, 1.42229
2022-11-29 20:57:01.161835, 1.43206
2022-11-29 20:57:01.174046, 1.45161
2022-11-29 20:57:01.182290, 1.46628
2022-11-29 20:57:01.190545, 1.45161
2022-11-29 20:57:01.198884, 1.46139
2022-11-29 20:57:01.211087, 1.45161
2022-11-29 20:57:01.219223, 1.47116
2022-11-29 20:57:01.227500, 1.44673
2022-11-29 20:57:01.239619, 1.44184
2022-11-29 20:57:01.247870, 1.43206
2022-11-29 20:57:01.256086, 1.42229
2022-11-29 20:57:01.264355, 1.40274
2022-11-29 20:57:01.276460, 1.37830
2022-11-29 20:57:01.284807, 1.34409
2022-11-29 20:57:01.293265, 1.30987
2022-11-29 20:57:01.305198, 1.28055
2022-11-29 20:57:01.313469, 1.26100
2022-11-29 20:57:01.321638, 1.25122
2022-11-29 20:57:01.329843, 1.26100
2022-11-29 20:57:01.341983, 1.26100
2022-11-29 20:57:01.350284, 1.28055
2022-11-29 20:57:01.358458, 1.29521
2022-11-29 20:57:01.370791, 1.31965
2022-11-29 20:57:01.379023, 1.34897
2022-11-29 20:57:01.387176, 1.37341
2022-11-29 20:57:01.395444, 1.40274
2022-11-29 20:57:01.407594, 1.43206
2022-11-29 20:57:01.415855, 1.46628
2022-11-29 20:57:01.423979, 1.51026
2022-11-29 20:57:01.436215, 1.53959
2022-11-29 20:57:01.444512, 1.57380
2022-11-29 20:57:01.452727, 1.59824
2022-11-29 20:57:01.460894, 1.61779
2022-11-29 20:57:01.473061, 1.63245
2022-11-29 20:57:01.481363, 1.62268
2022-11-29 20:57:01.489533, 1.62757
2022-11-29 20:57:01.501821, 1.62757
2022-11-29 20:57:01.509982, 1.63734
2022-11-29 20:57:01.518281, 1.63245
2022-11-29 20:57:01.526339, 1.64712
2022-11-29 20:57:01.538677, 1.60802
2022-11-29 20:57:01.546818, 1.58358
2022-11-29 20:57:01.555152, 1.55914
2022-11-29 20:57:01.567401, 1.52004
2022-11-29 20:57:01.575443, 1.49071
2022-11-29 20:57:01.583768, 1.46628
2022-11-29 20:57:01.591902, 1.44673
2022-11-29 20:57:01.604136, 1.43695
2022-11-29 20:57:01.612433, 1.43206
2022-11-29 20:57:01.620631, 1.44673
2022-11-29 20:57:01.628899, 1.43695
2022-11-29 20:57:01.641109, 1.44184
2022-11-29 20:57:01.649357, 1.44184
2022-11-29 20:57:01.657488, 1.45161
2022-11-29 20:57:01.669670, 1.45650
2022-11-29 20:57:01.677983, 1.46628
2022-11-29 20:57:01.686090, 1.46628
2022-11-29 20:57:01.694357, 1.47605
2022-11-29 20:57:01.706650, 1.49560
2022-11-29 20:57:01.714866, 1.47605
2022-11-29 20:57:01.722987, 1.49071
2022-11-29 20:57:01.735223, 1.50538
2022-11-29 20:57:01.743516, 1.52004
2022-11-29 20:57:01.751589, 1.52981
2022-11-29 20:57:01.759920, 1.53959
2022-11-29 20:57:01.772146, 1.54448
2022-11-29 20:57:01.780389, 1.54936
2022-11-29 20:57:01.788469, 1.56403
2022-11-29 20:57:01.800754, 1.57869
2022-11-29 20:57:01.808929, 1.59824
2022-11-29 20:57:01.817211, 1.59824
2022-11-29 20:57:01.825354, 1.62268
2022-11-29 20:57:01.837638, 1.58358
2022-11-29 20:57:01.845967, 1.56891
2022-11-29 20:57:01.854006, 1.54936
2022-11-29 20:57:01.866281, 1.52493
2022-11-29 20:57:01.874574, 1.50538
2022-11-29 20:57:01.882689, 1.49071
2022-11-29 20:57:01.891094, 1.48094
2022-11-29 20:57:01.903192, 1.46628
2022-11-29 20:57:01.911402, 1.46139
2022-11-29 20:57:01.919528, 1.45161
2022-11-29 20:57:01.931877, 1.44673
2022-11-29 20:57:01.940095, 1.44673
2022-11-29 20:57:01.948352, 1.44673
2022-11-29 20:57:01.956515, 1.46139
2022-11-29 20:57:01.968795, 1.48094
2022-11-29 20:57:01.976966, 1.52004
2022-11-29 20:57:01.985252, 1.52004
2022-11-29 20:57:01.997379, 1.54936
2022-11-29 20:57:02.005621, 1.56403
2022-11-29 20:57:02.013850, 1.56891
2022-11-29 20:57:02.022041, 1.57380
2022-11-29 20:57:02.034276, 1.56403
2022-11-29 20:57:02.042368, 1.55914
2022-11-29 20:57:02.050777, 1.55425
2022-11-29 20:57:02.062938, 1.55914
2022-11-29 20:57:02.071177, 1.55914
2022-11-29 20:57:02.079419, 1.56403
2022-11-29 20:57:02.087599, 1.57380
2022-11-29 20:57:02.099817, 1.56891
2022-11-29 20:57:02.108043, 1.56403
2022-11-29 20:57:02.116172, 1.56891
2022-11-29 20:57:02.128444, 1.53959
2022-11-29 20:57:02.136666, 1.52981
2022-11-29 20:57:02.145007, 1.52981
2022-11-29 20:57:02.153146, 1.53470
2022-11-29 20:57:02.165340, 1.55425
2022-11-29 20:57:02.173547, 1.54448
2022-11-29 20:57:02.181743, 1.54448
2022-11-29 20:57:02.194039, 1.54936
2022-11-29 20:57:02.202247, 1.53959
2022-11-29 20:57:02.210490, 1.55914
2022-11-29 20:57:02.218648, 1.52493
2022-11-29 20:57:02.230901, 1.51515
2022-11-29 20:57:02.239115, 1.51026
2022-11-29 20:57:02.247290, 1.50049
2022-11-29 20:57:02.259483, 1.50049
2022-11-29 20:57:02.267772, 1.49560
2022-11-29 20:57:02.275897, 1.49560
2022-11-29 20:57:02.284220, 1.48583
2022-11-29 20:57:02.296512, 1.48094
2022-11-29 20:57:02.304633, 1.45650
2022-11-29 20:57:02.312871, 1.44184
2022-11-29 20:57:02.324989, 1.42229
2022-11-29 20:57:02.333213, 1.43206
2022-11-29 20:57:02.341529, 1.40762
2022-11-29 20:57:02.349760, 1.41740
2022-11-29 20:57:02.362021, 1.44184
2022-11-29 20:57:02.370228, 1.46628
2022-11-29 20:57:02.378397, 1.49560
2022-11-29 20:57:02.390626, 1.52493
2022-11-29 20:57:02.398841, 1.53959
2022-11-29 20:57:02.407015, 1.54936
2022-11-29 20:57:02.415288, 1.53959
2022-11-29 20:57:02.427453, 1.52493
2022-11-29 20:57:02.435727, 1.49560
2022-11-29 20:57:02.443959, 1.46628
2022-11-29 20:57:02.456172, 1.42717
2022-11-29 20:57:02.464417, 1.38807
2022-11-29 20:57:02.472592, 1.36852
2022-11-29 20:57:02.480804, 1.35875
2022-11-29 20:57:02.492952, 1.36364
2022-11-29 20:57:02.501271, 1.33920
2022-11-29 20:57:02.509366, 1.34897
2022-11-29 20:57:02.517596, 1.36852
2022-11-29 20:57:02.530004, 1.36852
2022-11-29 20:57:02.538126, 1.38319
2022-11-29 20:57:02.546316, 1.39296
2022-11-29 20:57:02.558513, 1.41251
2022-11-29 20:57:02.566730, 1.42717
2022-11-29 20:57:02.574962, 1.44673
2022-11-29 20:57:02.583177, 1.46139
2022-11-29 20:57:02.595532, 1.48094
2022-11-29 20:57:02.603627, 1.49071
2022-11-29 20:57:02.611805, 1.49560
2022-11-29 20:57:02.624161, 1.50049
2022-11-29 20:57:02.632244, 1.51026
2022-11-29 20:57:02.640527, 1.52004
2022-11-29 20:57:02.648776, 1.52981
2022-11-29 20:57:02.660884, 1.54936
2022-11-29 20:57:02.669160, 1.56891
2022-11-29 20:57:02.677470, 1.62757
2022-11-29 20:57:02.689626, 1.64223
2022-11-29 20:57:02.697792, 1.67644
2022-11-29 20:57:02.706045, 1.72043
2022-11-29 20:57:02.714259, 1.75464
2022-11-29 20:57:02.726517, 1.78886
2022-11-29 20:57:02.734717, 1.80352
2022-11-29 20:57:02.742896, 1.81818
2022-11-29 20:57:02.755197, 1.82796
2022-11-29 20:57:02.763417, 1.82796
2022-11-29 20:57:02.771633, 1.83284
2022-11-29 20:57:02.779866, 1.85728
2022-11-29 20:57:02.792018, 1.83773
2022-11-29 20:57:02.800174, 1.82796
2022-11-29 20:57:02.808430, 1.83773
2022-11-29 20:57:02.820763, 1.80352
2022-11-29 20:57:02.828942, 1.80841
2022-11-29 20:57:02.837163, 1.80841
2022-11-29 20:57:02.845580, 1.79863
2022-11-29 20:57:02.857556, 1.79374
2022-11-29 20:57:02.865778, 1.78886
2022-11-29 20:57:02.873972, 1.77908
2022-11-29 20:57:02.886255, 1.75464
2022-11-29 20:57:02.894464, 1.74487
2022-11-29 20:57:02.902668, 1.73021
2022-11-29 20:57:02.910769, 1.72532
2022-11-29 20:57:02.923078, 1.72043
2022-11-29 20:57:02.931386, 1.71554
2022-11-29 20:57:02.939440, 1.71065
2022-11-29 20:57:02.951802, 1.69110
2022-11-29 20:57:02.959931, 1.67644
2022-11-29 20:57:02.968266, 1.65200
2022-11-29 20:57:02.976284, 1.61290
2022-11-29 20:57:02.988614, 1.57869
2022-11-29 20:57:02.996814, 1.56403
2022-11-29 20:57:03.004964, 1.52493
2022-11-29 20:57:03.017399, 1.51515
2022-11-29 20:57:03.025502, 1.46139
2022-11-29 20:57:03.033691, 1.43206
2022-11-29 20:57:03.041906, 1.39785
2022-11-29 20:57:03.054147, 1.34897
2022-11-29 20:57:03.062394, 1.30499
2022-11-29 20:57:03.070593, 1.25122
2022-11-29 20:57:03.082924, 1.20235
2022-11-29 20:57:03.091030, 1.16325
2022-11-29 20:57:03.099271, 1.13392
2022-11-29 20:57:03.107466, 1.13392
2022-11-29 20:57:03.119705, 1.10948
2022-11-29 20:57:03.127903, 1.10948
2022-11-29 20:57:03.136168, 1.09971
2022-11-29 20:57:03.148339, 1.09482
2022-11-29 20:57:03.156569, 1.08504
2022-11-29 20:57:03.164837, 1.05083
2022-11-29 20:57:03.173011, 1.01662
2022-11-29 20:57:03.185228, 0.97752
2022-11-29 20:57:03.193433, 0.94330
2022-11-29 20:57:03.201621, 0.91887
2022-11-29 20:57:03.213923, 0.90909
2022-11-29 20:57:03.222197, 0.91887
2022-11-29 20:57:03.230349, 0.94330
2022-11-29 20:57:03.238564, 0.98240
2022-11-29 20:57:03.250793, 1.03617
2022-11-29 20:57:03.258988, 1.08993
2022-11-29 20:57:03.267102, 1.14369
2022-11-29 20:57:03.279496, 1.21701
2022-11-29 20:57:03.287729, 1.24633
2022-11-29 20:57:03.295888, 1.29032
2022-11-29 20:57:03.304091, 1.31476
2022-11-29 20:57:03.316257, 1.33431
2022-11-29 20:57:03.324429, 1.34897
2022-11-29 20:57:03.332634, 1.35875
2022-11-29 20:57:03.340960, 1.37830
2022-11-29 20:57:03.353270, 1.37830
2022-11-29 20:57:03.361407, 1.38807
2022-11-29 20:57:03.369666, 1.39785
2022-11-29 20:57:03.381838, 1.40762
2022-11-29 20:57:03.390039, 1.42717
2022-11-29 20:57:03.398303, 1.43695
2022-11-29 20:57:03.406490, 1.46628
2022-11-29 20:57:03.418778, 1.48094
2022-11-29 20:57:03.426928, 1.50049
2022-11-29 20:57:03.435193, 1.50538
2022-11-29 20:57:03.447399, 1.51026
2022-11-29 20:57:03.455608, 1.53470
2022-11-29 20:57:03.463846, 1.52981
2022-11-29 20:57:03.472009, 1.54936
2022-11-29 20:57:03.484250, 1.56891
2022-11-29 20:57:03.492379, 1.60802
2022-11-29 20:57:03.500603, 1.61290
2022-11-29 20:57:03.512935, 1.62268
2022-11-29 20:57:03.521122, 1.61779
2022-11-29 20:57:03.529293, 1.60802
2022-11-29 20:57:03.537450, 1.61290
2022-11-29 20:57:03.549735, 1.55914
2022-11-29 20:57:03.557984, 1.54448
2022-11-29 20:57:03.566170, 1.53470
2022-11-29 20:57:03.578468, 1.53470
2022-11-29 20:57:03.586674, 1.53959
2022-11-29 20:57:03.594927, 1.53470
2022-11-29 20:57:03.603130, 1.52493
2022-11-29 20:57:03.615334, 1.51026
2022-11-29 20:57:03.623556, 1.50049
2022-11-29 20:57:03.631745, 1.48583
2022-11-29 20:57:03.644005, 1.48094
2022-11-29 20:57:03.652125, 1.47605
2022-11-29 20:57:03.660381, 1.48583
2022-11-29 20:57:03.668588, 1.52004
2022-11-29 20:57:03.680926, 1.50049
2022-11-29 20:57:03.688966, 1.53470
2022-11-29 20:57:03.697320, 1.51026
2022-11-29 20:57:03.709460, 1.52493
2022-11-29 20:57:03.717670, 1.52493
2022-11-29 20:57:03.725948, 1.54936
2022-11-29 20:57:03.734088, 1.56891
2022-11-29 20:57:03.746435, 1.60802
2022-11-29 20:57:03.754626, 1.62757
2022-11-29 20:57:03.762852, 1.67644
2022-11-29 20:57:03.775008, 1.68133
2022-11-29 20:57:03.783223, 1.70577
2022-11-29 20:57:03.791413, 1.73509
2022-11-29 20:57:03.799602, 1.75464
2022-11-29 20:57:03.811939, 1.79374
2022-11-29 20:57:03.820123, 1.77908
2022-11-29 20:57:03.828418, 1.75464
2022-11-29 20:57:03.840583, 1.71065
2022-11-29 20:57:03.848839, 1.63734
2022-11-29 20:57:03.856994, 1.54936
2022-11-29 20:57:03.865153, 1.46139
2022-11-29 20:57:03.877455, 1.38807
2022-11-29 20:57:03.885725, 1.33431
2022-11-29 20:57:03.893834, 1.30987
2022-11-29 20:57:03.906090, 1.29521
2022-11-29 20:57:03.914368, 1.28543
2022-11-29 20:57:03.922531, 1.28055
2022-11-29 20:57:03.930702, 1.27566
2022-11-29 20:57:03.942913, 1.27077
2022-11-29 20:57:03.951121, 1.25611
2022-11-29 20:57:03.959295, 1.24633
2022-11-29 20:57:03.971580, 1.23167
2022-11-29 20:57:03.979989, 1.22190
2022-11-29 20:57:03.988079, 1.23167
2022-11-29 20:57:03.996389, 1.25611
2022-11-29 20:57:04.008503, 1.29521
2022-11-29 20:57:04.016797, 1.34897
2022-11-29 20:57:04.024972, 1.40274
2022-11-29 20:57:04.037150, 1.46628
2022-11-29 20:57:04.045490, 1.49071
2022-11-29 20:57:04.053604, 1.54936
2022-11-29 20:57:04.061886, 1.54936
2022-11-29 20:57:04.074071, 1.57380
2022-11-29 20:57:04.082297, 1.59824
2022-11-29 20:57:04.090490, 1.62757
2022-11-29 20:57:04.102721, 1.64712
2022-11-29 20:57:04.110906, 1.67644
2022-11-29 20:57:04.119184, 1.69599
2022-11-29 20:57:04.127400, 1.71554
2022-11-29 20:57:04.139625, 1.72532
2022-11-29 20:57:04.147818, 1.72043
2022-11-29 20:57:04.156033, 1.70577
2022-11-29 20:57:04.164230, 1.67644
2022-11-29 20:57:04.176437, 1.67155
2022-11-29 20:57:04.184744, 1.60313
2022-11-29 20:57:04.192968, 1.56403
2022-11-29 20:57:04.205186, 1.52493
2022-11-29 20:57:04.213405, 1.49071
2022-11-29 20:57:04.221590, 1.46139
2022-11-29 20:57:04.229760, 1.43695
2022-11-29 20:57:04.241962, 1.40274
2022-11-29 20:57:04.250141, 1.32942
2022-11-29 20:57:04.258329, 1.21701
2022-11-29 20:57:04.270717, 1.07527
2022-11-29 20:57:04.278966, 0.93353
2022-11-29 20:57:04.287074, 0.78201
2022-11-29 20:57:04.295461, 0.62072
2022-11-29 20:57:04.307524, 0.46921
2022-11-29 20:57:04.315741, 0.33724
2022-11-29 20:57:04.323990, 0.24438
2022-11-29 20:57:04.336203, 0.21017
2022-11-29 20:57:04.344400, 0.22972
2022-11-29 20:57:04.352638, 0.28348
2022-11-29 20:57:04.360735, 0.38123
2022-11-29 20:57:04.373093, 0.44966
2022-11-29 20:57:04.381247, 0.53763
2022-11-29 20:57:04.389558, 0.61584
2022-11-29 20:57:04.401736, 0.70870
2022-11-29 20:57:04.409945, 0.79668
2022-11-29 20:57:04.418181, 0.88465
2022-11-29 20:57:04.426297, 0.97752
2022-11-29 20:57:04.438620, 1.05083
2022-11-29 20:57:04.446811, 1.12414
2022-11-29 20:57:04.454923, 1.17302
2022-11-29 20:57:04.467224, 1.19257
2022-11-29 20:57:04.475406, 1.24145
2022-11-29 20:57:04.483730, 1.21701
2022-11-29 20:57:04.491854, 1.22190
2022-11-29 20:57:04.504125, 1.23167
2022-11-29 20:57:04.512367, 1.25611
2022-11-29 20:57:04.520606, 1.27566
2022-11-29 20:57:04.532803, 1.31476
2022-11-29 20:57:04.541028, 1.36364
2022-11-29 20:57:04.549273, 1.39785
2022-11-29 20:57:04.557447, 1.43206
2022-11-29 20:57:04.569742, 1.43695
2022-11-29 20:57:04.577955, 1.44184
2022-11-29 20:57:04.586148, 1.42229
2022-11-29 20:57:04.598353, 1.40762
2022-11-29 20:57:04.606528, 1.40274
2022-11-29 20:57:04.614829, 1.41740
2022-11-29 20:57:04.622886, 1.40274
2022-11-29 20:57:04.635232, 1.42229
2022-11-29 20:57:04.643536, 1.45650
2022-11-29 20:57:04.651666, 1.49560
2022-11-29 20:57:04.663934, 1.52981
2022-11-29 20:57:04.672067, 1.56891
2022-11-29 20:57:04.680367, 1.59824
2022-11-29 20:57:04.688407, 1.63245
2022-11-29 20:57:04.700693, 1.66178
2022-11-29 20:57:04.708875, 1.69599
2022-11-29 20:57:04.717078, 1.70577
2022-11-29 20:57:04.729486, 1.72532
2022-11-29 20:57:04.737638, 1.73998
2022-11-29 20:57:04.745944, 1.75464
2022-11-29 20:57:04.754028, 1.76931
2022-11-29 20:57:04.766246, 1.79374
2022-11-29 20:57:04.774510, 1.81818
2022-11-29 20:57:04.782722, 1.84262
2022-11-29 20:57:04.795031, 1.86706
2022-11-29 20:57:04.803165, 1.87195
2022-11-29 20:57:04.811462, 1.89150
2022-11-29 20:57:04.819510, 1.87195
2022-11-29 20:57:04.831912, 1.85239
2022-11-29 20:57:04.840049, 1.84262
2022-11-29 20:57:04.848380, 1.82796
2022-11-29 20:57:04.860460, 1.80352
2022-11-29 20:57:04.868618, 1.77908
2022-11-29 20:57:04.876897, 1.76442
2022-11-29 20:57:04.885021, 1.75464
2022-11-29 20:57:04.897404, 1.74487
2022-11-29 20:57:04.905608, 1.74487
2022-11-29 20:57:04.913883, 1.74976
2022-11-29 20:57:04.926011, 1.77419
2022-11-29 20:57:04.934316, 1.80841
2022-11-29 20:57:04.942438, 1.85728
2022-11-29 20:57:04.950677, 1.90127
2022-11-29 20:57:04.962994, 1.95503
2022-11-29 20:57:04.971129, 2.01369
2022-11-29 20:57:04.979407, 2.04301
2022-11-29 20:57:04.987451, 2.07722
2022-11-29 20:57:04.999807, 2.08700
2022-11-29 20:57:05.007884, 2.08700
2022-11-29 20:57:05.016240, 2.09677
2022-11-29 20:57:05.028491, 2.05279
2022-11-29 20:57:05.036614, 2.03812
2022-11-29 20:57:05.044861, 2.03324
2022-11-29 20:57:05.053084, 2.02346
2022-11-29 20:57:05.065272, 2.00880
2022-11-29 20:57:05.073424, 2.00880
2022-11-29 20:57:05.081738, 1.97947
2022-11-29 20:57:05.094016, 1.96481
2022-11-29 20:57:05.102147, 1.95015
2022-11-29 20:57:05.110358, 1.93060
2022-11-29 20:57:05.118564, 1.92571
2022-11-29 20:57:05.130873, 1.93548
2022-11-29 20:57:05.139025, 1.94526
2022-11-29 20:57:05.147278, 1.95015
2022-11-29 20:57:05.159432, 1.98436
2022-11-29 20:57:05.167710, 2.00880
2022-11-29 20:57:05.175856, 2.03324
2022-11-29 20:57:05.184082, 2.04790
2022-11-29 20:57:05.196390, 2.04301
2022-11-29 20:57:05.204645, 2.02835
2022-11-29 20:57:05.212864, 1.99902
2022-11-29 20:57:05.224971, 1.96970
2022-11-29 20:57:05.233254, 1.93548
2022-11-29 20:57:05.241490, 1.90127
2022-11-29 20:57:05.249679, 1.87195
2022-11-29 20:57:05.261960, 1.86217
2022-11-29 20:57:05.270196, 1.85728
2022-11-29 20:57:05.278415, 1.86706
2022-11-29 20:57:05.290578, 1.87683
2022-11-29 20:57:05.298790, 1.89150
2022-11-29 20:57:05.306952, 1.92571
2022-11-29 20:57:05.315162, 1.91105
2022-11-29 20:57:05.327439, 1.91593
2022-11-29 20:57:05.335725, 1.92082
2022-11-29 20:57:05.343924, 1.93060
2022-11-29 20:57:05.356143, 1.95503
2022-11-29 20:57:05.364425, 1.99902
2022-11-29 20:57:05.372507, 2.03812
2022-11-29 20:57:05.380658, 2.05767
2022-11-29 20:57:05.392936, 2.10166
2022-11-29 20:57:05.401115, 2.13099
2022-11-29 20:57:05.409316, 2.15543
2022-11-29 20:57:05.421726, 2.15054
2022-11-29 20:57:05.429952, 2.14565
2022-11-29 20:57:05.438083, 2.10166
2022-11-29 20:57:05.446376, 2.05767
2022-11-29 20:57:05.458483, 2.04301
2022-11-29 20:57:05.466736, 1.97947
2022-11-29 20:57:05.474837, 1.95992
2022-11-29 20:57:05.487219, 1.94037
2022-11-29 20:57:05.495424, 1.94037
2022-11-29 20:57:05.503576, 1.92571
2022-11-29 20:57:05.511855, 1.92571
2022-11-29 20:57:05.523979, 1.93060
2022-11-29 20:57:05.532271, 1.93060
2022-11-29 20:57:05.540504, 1.94037
2022-11-29 20:57:05.552662, 1.93548
2022-11-29 20:57:05.560951, 1.94037
2022-11-29 20:57:05.569059, 1.93548
2022-11-29 20:57:05.577362, 1.93060
2022-11-29 20:57:05.589488, 1.92571
2022-11-29 20:57:05.597800, 1.91593
2022-11-29 20:57:05.606019, 1.91105
2022-11-29 20:57:05.618190, 1.90616
2022-11-29 20:57:05.626465, 1.91593
2022-11-29 20:57:05.634617, 1.92082
2022-11-29 20:57:05.643128, 1.94037
2022-11-29 20:57:05.655081, 1.95015
2022-11-29 20:57:05.663496, 1.95503
2022-11-29 20:57:05.671573, 1.98436
2022-11-29 20:57:05.683824, 1.96970
2022-11-29 20:57:05.691910, 1.98436
2022-11-29 20:57:05.700137, 1.98925
2022-11-29 20:57:05.708359, 2.00880
2022-11-29 20:57:05.720603, 2.02835
2022-11-29 20:57:05.728891, 2.08211
2022-11-29 20:57:05.736994, 2.10166
2022-11-29 20:57:05.749347, 2.13099
2022-11-29 20:57:05.757590, 2.16520
2022-11-29 20:57:05.765786, 2.16520
2022-11-29 20:57:05.773923, 2.16031
2022-11-29 20:57:05.786202, 2.14076
2022-11-29 20:57:05.794514, 2.11144
2022-11-29 20:57:05.802598, 2.07722
2022-11-29 20:57:05.814892, 2.05279
2022-11-29 20:57:05.823085, 2.03324
2022-11-29 20:57:05.831286, 2.01857
2022-11-29 20:57:05.839491, 2.01369
2022-11-29 20:57:05.851671, 2.00391
2022-11-29 20:57:05.859924, 2.00880
2022-11-29 20:57:05.868084, 2.00391
2022-11-29 20:57:05.876339, 2.01369
2022-11-29 20:57:05.888618, 2.01857
2022-11-29 20:57:05.896871, 2.02835
2022-11-29 20:57:05.905042, 2.01857
2022-11-29 20:57:05.917250, 2.02346
2022-11-29 20:57:05.925364, 2.01369
2022-11-29 20:57:05.933620, 1.99902
2022-11-29 20:57:05.941945, 1.98436
2022-11-29 20:57:05.954124, 1.96970
2022-11-29 20:57:05.962392, 1.95015
2022-11-29 20:57:05.970554, 1.92571
2022-11-29 20:57:05.982793, 1.89150
2022-11-29 20:57:05.990996, 1.86217
2022-11-29 20:57:05.999202, 1.82796
2022-11-29 20:57:06.007316, 1.80352
2022-11-29 20:57:06.019669, 1.78397
2022-11-29 20:57:06.027923, 1.78886
2022-11-29 20:57:06.036004, 1.77908
2022-11-29 20:57:06.048357, 1.79374
2022-11-29 20:57:06.056457, 1.81818
2022-11-29 20:57:06.064716, 1.84751
2022-11-29 20:57:06.073027, 1.89150
2022-11-29 20:57:06.085124, 1.92571
2022-11-29 20:57:06.093354, 1.96481
2022-11-29 20:57:06.101630, 1.97947
2022-11-29 20:57:06.114021, 1.99413
2022-11-29 20:57:06.121985, 1.98436
2022-11-29 20:57:06.130334, 1.96481
2022-11-29 20:57:06.138537, 1.93548
2022-11-29 20:57:06.150745, 1.90127
2022-11-29 20:57:06.158865, 1.87195
2022-11-29 20:57:06.167173, 1.83773
2022-11-29 20:57:06.179459, 1.80841
2022-11-29 20:57:06.187588, 1.76931
2022-11-29 20:57:06.195804, 1.74487
2022-11-29 20:57:06.203932, 1.72532
2022-11-29 20:57:06.216294, 1.70577
2022-11-29 20:57:06.224457, 1.73509
2022-11-29 20:57:06.232690, 1.71065
2022-11-29 20:57:06.245018, 1.72532
2022-11-29 20:57:06.253157, 1.73998
2022-11-29 20:57:06.261438, 1.76442
2022-11-29 20:57:06.269478, 1.78397
2022-11-29 20:57:06.281806, 1.81329
2022-11-29 20:57:06.290031, 1.83284
2022-11-29 20:57:06.298294, 1.84751
2022-11-29 20:57:06.310412, 1.86217
2022-11-29 20:57:06.318660, 1.87195
2022-11-29 20:57:06.326875, 1.89638
2022-11-29 20:57:06.335019, 1.89638
2022-11-29 20:57:06.347374, 1.90616
2022-11-29 20:57:06.355550, 1.91593
2022-11-29 20:57:06.363814, 1.87195
2022-11-29 20:57:06.375966, 1.81818
2022-11-29 20:57:06.384150, 1.72532
2022-11-29 20:57:06.392344, 1.61290
2022-11-29 20:57:06.400553, 1.48583
2022-11-29 20:57:06.412870, 1.38319
2022-11-29 20:57:06.421084, 1.31965
2022-11-29 20:57:06.429372, 1.29521
2022-11-29 20:57:06.441573, 1.31965
2022-11-29 20:57:06.449705, 1.39296
2022-11-29 20:57:06.457867, 1.42717
2022-11-29 20:57:06.466152, 1.48583
2022-11-29 20:57:06.478396, 1.54448
2022-11-29 20:57:06.486557, 1.60313
2022-11-29 20:57:06.494812, 1.67644
2022-11-29 20:57:06.507009, 1.70577
2022-11-29 20:57:06.515385, 1.74487
2022-11-29 20:57:06.523517, 1.77908
2022-11-29 20:57:06.531735, 1.80352
2022-11-29 20:57:06.543926, 1.84751
2022-11-29 20:57:06.552169, 1.84751
2022-11-29 20:57:06.560341, 1.87683
2022-11-29 20:57:06.572543, 1.88661
2022-11-29 20:57:06.580878, 1.91105
2022-11-29 20:57:06.589051, 1.90127
2022-11-29 20:57:06.597275, 1.88661
2022-11-29 20:57:06.609425, 1.87195
2022-11-29 20:57:06.617638, 1.84751
2022-11-29 20:57:06.625873, 1.80841
2022-11-29 20:57:06.638176, 1.76442
2022-11-29 20:57:06.646443, 1.71554
2022-11-29 20:57:06.654579, 1.66667
2022-11-29 20:57:06.662899, 1.62268
2022-11-29 20:57:06.675026, 1.59335
2022-11-29 20:57:06.683263, 1.57869
2022-11-29 20:57:06.691458, 1.58847
2022-11-29 20:57:06.699662, 1.62268
2022-11-29 20:57:06.711989, 1.61779
2022-11-29 20:57:06.720014, 1.64712
2022-11-29 20:57:06.728406, 1.65200
2022-11-29 20:57:06.740536, 1.66178
2022-11-29 20:57:06.748783, 1.65689
2022-11-29 20:57:06.756951, 1.63734
2022-11-29 20:57:06.765234, 1.61290
2022-11-29 20:57:06.777516, 1.62757
2022-11-29 20:57:06.785659, 1.62268
2022-11-29 20:57:06.793899, 1.67155
2022-11-29 20:57:06.806098, 1.73509
2022-11-29 20:57:06.814360, 1.79863
2022-11-29 20:57:06.822487, 1.86706
2022-11-29 20:57:06.830665, 1.91593
2022-11-29 20:57:06.842942, 1.96970
2022-11-29 20:57:06.851198, 1.97947
2022-11-29 20:57:06.859315, 1.99902
2022-11-29 20:57:06.871679, 1.98925
2022-11-29 20:57:06.879971, 1.96970
2022-11-29 20:57:06.888043, 1.95015
2022-11-29 20:57:06.896240, 1.90616
2022-11-29 20:57:06.908439, 1.86706
2022-11-29 20:57:06.916640, 1.84751
2022-11-29 20:57:06.925002, 1.78886
2022-11-29 20:57:06.937174, 1.75464
2022-11-29 20:57:06.945484, 1.70088
2022-11-29 20:57:06.953499, 1.61779
2022-11-29 20:57:06.961918, 1.52981
2022-11-29 20:57:06.974038, 1.47116
2022-11-29 20:57:06.982183, 1.43206
2022-11-29 20:57:06.990466, 1.46139
2022-11-29 20:57:07.002760, 1.52981
2022-11-29 20:57:07.010978, 1.62268
2022-11-29 20:57:07.019104, 1.69599
2022-11-29 20:57:07.027378, 1.74487
2022-11-29 20:57:07.039545, 1.69110
2022-11-29 20:57:07.047751, 1.61779
2022-11-29 20:57:07.055876, 1.53959
2022-11-29 20:57:07.068253, 1.49071
2022-11-29 20:57:07.076387, 1.50049
2022-11-29 20:57:07.084556, 1.52981
2022-11-29 20:57:07.092781, 1.56403
2022-11-29 20:57:07.105101, 1.55914
2022-11-29 20:57:07.113408, 1.49560
2022-11-29 20:57:07.121558, 1.38319
2022-11-29 20:57:07.133763, 1.22190
2022-11-29 20:57:07.141950, 1.06061
2022-11-29 20:57:07.150236, 0.89932
2022-11-29 20:57:07.158460, 0.80645
2022-11-29 20:57:07.170542, 0.82111
2022-11-29 20:57:07.178876, 0.88465
2022-11-29 20:57:07.187061, 1.05572
2022-11-29 20:57:07.199245, 1.24633
2022-11-29 20:57:07.207502, 1.40762
2022-11-29 20:57:07.215738, 1.50538
2022-11-29 20:57:07.223931, 1.53959
2022-11-29 20:57:07.236186, 1.51515
2022-11-29 20:57:07.244373, 1.45161
2022-11-29 20:57:07.252550, 1.38319
2022-11-29 20:57:07.264891, 1.36852
2022-11-29 20:57:07.273105, 1.32942
2022-11-29 20:57:07.281265, 1.33920
2022-11-29 20:57:07.289449, 1.34409
2022-11-29 20:57:07.301642, 1.33920
2022-11-29 20:57:07.309889, 1.32942
2022-11-29 20:57:07.318047, 1.30499
2022-11-29 20:57:07.330387, 1.30499
2022-11-29 20:57:07.338590, 1.27566
2022-11-29 20:57:07.346828, 1.27077
2022-11-29 20:57:07.355019, 1.29032
2022-11-29 20:57:07.367255, 1.33431
2022-11-29 20:57:07.375343, 1.42229
2022-11-29 20:57:07.383694, 1.51515
2022-11-29 20:57:07.395923, 1.60802
2022-11-29 20:57:07.404079, 1.66667
2022-11-29 20:57:07.412367, 1.70577
2022-11-29 20:57:07.420556, 1.70577
2022-11-29 20:57:07.432816, 1.68622
2022-11-29 20:57:07.440982, 1.68133
2022-11-29 20:57:07.449196, 1.69599
2022-11-29 20:57:07.461426, 1.75953
2022-11-29 20:57:07.469579, 1.86217
2022-11-29 20:57:07.477908, 1.96970
2022-11-29 20:57:07.485989, 2.06256
2022-11-29 20:57:07.498314, 2.10655
2022-11-29 20:57:07.506496, 2.13099
2022-11-29 20:57:07.514785, 2.07234
2022-11-29 20:57:07.522857, 2.02346
2022-11-29 20:57:07.535171, 1.98925
2022-11-29 20:57:07.543342, 1.99413
2022-11-29 20:57:07.551605, 2.03324
2022-11-29 20:57:07.563931, 2.09677
2022-11-29 20:57:07.572019, 2.16031
2022-11-29 20:57:07.580351, 2.19453
2022-11-29 20:57:07.588369, 2.19941
2022-11-29 20:57:07.600649, 2.16031
2022-11-29 20:57:07.608846, 2.12121
2022-11-29 20:57:07.617110, 2.03812
2022-11-29 20:57:07.629395, 1.99902
2022-11-29 20:57:07.637583, 2.00391
2022-11-29 20:57:07.646205, 2.03324
2022-11-29 20:57:07.654021, 2.09677
2022-11-29 20:57:07.666233, 2.16520
2022-11-29 20:57:07.674469, 2.21896
2022-11-29 20:57:07.682690, 2.25806
2022-11-29 20:57:07.694981, 2.20919
2022-11-29 20:57:07.703160, 2.15543
2022-11-29 20:57:07.711413, 2.09189
2022-11-29 20:57:07.719478, 2.06745
2022-11-29 20:57:07.731730, 2.09677
2022-11-29 20:57:07.739999, 2.12610
2022-11-29 20:57:07.748215, 2.20919
2022-11-29 20:57:07.760417, 2.30694
2022-11-29 20:57:07.768662, 2.38514
2022-11-29 20:57:07.776949, 2.43891
2022-11-29 20:57:07.785011, 2.43402
2022-11-29 20:57:07.797342, 2.39003
2022-11-29 20:57:07.805608, 2.33138
2022-11-29 20:57:07.813804, 2.26784
2022-11-29 20:57:07.825938, 2.23851
2022-11-29 20:57:07.834141, 2.24340
2022-11-29 20:57:07.842314, 2.27273
2022-11-29 20:57:07.850599, 2.33627
2022-11-29 20:57:07.862939, 2.36559
2022-11-29 20:57:07.871156, 2.40469
2022-11-29 20:57:07.879352, 2.42913
2022-11-29 20:57:07.891611, 2.41935
2022-11-29 20:57:07.899688, 2.37048
2022-11-29 20:57:07.907919, 2.28250
2022-11-29 20:57:07.916242, 2.20430
2022-11-29 20:57:07.928501, 2.15054
2022-11-29 20:57:07.936521, 2.10166
2022-11-29 20:57:07.944916, 2.11144
2022-11-29 20:57:07.956980, 2.14076
2022-11-29 20:57:07.965344, 2.17986
2022-11-29 20:57:07.973494, 2.17009
2022-11-29 20:57:07.981647, 2.17986
2022-11-29 20:57:07.993912, 2.21408
2022-11-29 20:57:08.002118, 2.19941
2022-11-29 20:57:08.010253, 2.19941
2022-11-29 20:57:08.022608, 2.18475
2022-11-29 20:57:08.030878, 2.16031
2022-11-29 20:57:08.039015, 2.12121
2022-11-29 20:57:08.047208, 2.08211
2022-11-29 20:57:08.059391, 2.06256
2022-11-29 20:57:08.067661, 2.04790
2022-11-29 20:57:08.075828, 2.05767
2022-11-29 20:57:08.088140, 2.05767
2022-11-29 20:57:08.096410, 2.03812
2022-11-29 20:57:08.104542, 2.01857
2022-11-29 20:57:08.112800, 1.98925
2022-11-29 20:57:08.124983, 1.97458
2022-11-29 20:57:08.133153, 1.95992
2022-11-29 20:57:08.141429, 1.95992
2022-11-29 20:57:08.153683, 1.95015
2022-11-29 20:57:08.161881, 1.95015
2022-11-29 20:57:08.170129, 1.94526
2022-11-29 20:57:08.178277, 1.94037
2022-11-29 20:57:08.190483, 1.93548
2022-11-29 20:57:08.198736, 1.91593
2022-11-29 20:57:08.206875, 1.91105
2022-11-29 20:57:08.219266, 1.88661
2022-11-29 20:57:08.227419, 1.89150
2022-11-29 20:57:08.235624, 1.89638
2022-11-29 20:57:08.243836, 1.90127
2022-11-29 20:57:08.256047, 1.92082
2022-11-29 20:57:08.264273, 1.93060
2022-11-29 20:57:08.272402, 1.95015
2022-11-29 20:57:08.284777, 1.94037
2022-11-29 20:57:08.293163, 1.92571
2022-11-29 20:57:08.301201, 1.90616
2022-11-29 20:57:08.309319, 1.84262
2022-11-29 20:57:08.321516, 1.80841
2022-11-29 20:57:08.329878, 1.76931
2022-11-29 20:57:08.338016, 1.74976
2022-11-29 20:57:08.346254, 1.77419
2022-11-29 20:57:08.358455, 1.78397
2022-11-29 20:57:08.366721, 1.82307
2022-11-29 20:57:08.374957, 1.87195
2022-11-29 20:57:08.387147, 1.90127
2022-11-29 20:57:08.395282, 1.92571
2022-11-29 20:57:08.403530, 1.89150
2022-11-29 20:57:08.411928, 1.83773
2022-11-29 20:57:08.423949, 1.77908
2022-11-29 20:57:08.432268, 1.69599
2022-11-29 20:57:08.440408, 1.65689
2022-11-29 20:57:08.452582, 1.64223
2022-11-29 20:57:08.460892, 1.67644
2022-11-29 20:57:08.469078, 1.76442
2022-11-29 20:57:08.477323, 1.81329
2022-11-29 20:57:08.489564, 1.87683
2022-11-29 20:57:08.497886, 1.90616
2022-11-29 20:57:08.505989, 1.90616
2022-11-29 20:57:08.518151, 1.88172
2022-11-29 20:57:08.526327, 1.82796
2022-11-29 20:57:08.534631, 1.77908
2022-11-29 20:57:08.542973, 1.74487
2022-11-29 20:57:08.555086, 1.72532
2022-11-29 20:57:08.563380, 1.72043
2022-11-29 20:57:08.571516, 1.73021
2022-11-29 20:57:08.583788, 1.73998
2022-11-29 20:57:08.591934, 1.73021
2022-11-29 20:57:08.600141, 1.70577
2022-11-29 20:57:08.608343, 1.67644
2022-11-29 20:57:08.620631, 1.61779
2022-11-29 20:57:08.628869, 1.59335
2022-11-29 20:57:08.637066, 1.60802
2022-11-29 20:57:08.649372, 1.67155
2022-11-29 20:57:08.657472, 1.75953
2022-11-29 20:57:08.665705, 1.82307
2022-11-29 20:57:08.673911, 1.85239
2022-11-29 20:57:08.686185, 1.85239
2022-11-29 20:57:08.694447, 1.77908
2022-11-29 20:57:08.702661, 1.72532
2022-11-29 20:57:08.714866, 1.67644
2022-11-29 20:57:08.723063, 1.67155
2022-11-29 20:57:08.731172, 1.69110
2022-11-29 20:57:08.739434, 1.75464
2022-11-29 20:57:08.751669, 1.84751
2022-11-29 20:57:08.759876, 1.94526
2022-11-29 20:57:08.768108, 2.03324
2022-11-29 20:57:08.780320, 2.09189
2022-11-29 20:57:08.788493, 2.12610
2022-11-29 20:57:08.796864, 2.14076
2022-11-29 20:57:08.804898, 2.14565
2022-11-29 20:57:08.817145, 2.15543
2022-11-29 20:57:08.825345, 2.17498
2022-11-29 20:57:08.833565, 2.19453
2022-11-29 20:57:08.845979, 2.23363
2022-11-29 20:57:08.854101, 2.27761
2022-11-29 20:57:08.862273, 2.34604
2022-11-29 20:57:08.870413, 2.43402
2022-11-29 20:57:08.882726, 2.53666
2022-11-29 20:57:08.890840, 2.65885
2022-11-29 20:57:08.899255, 2.78104
2022-11-29 20:57:08.911357, 2.89834
2022-11-29 20:57:08.923734, 3.00587
2022-11-29 20:57:08.927961, 3.04985
2022-11-29 20:57:08.936010, 3.07429
2022-11-29 20:57:08.948326, 3.06452
2022-11-29 20:57:08.956544, 3.04008
2022-11-29 20:57:08.964787, 2.99120
2022-11-29 20:57:08.977449, 2.97165
2022-11-29 20:57:08.985153, 2.93255
2022-11-29 20:57:08.993338, 2.93255
2022-11-29 20:57:09.001452, 2.98631
2022-11-29 20:57:09.013812, 3.03030
2022-11-29 20:57:09.021962, 3.10850
2022-11-29 20:57:09.030275, 3.16716
2022-11-29 20:57:09.045680, 3.19159
2022-11-29 20:57:09.050678, 3.14760
2022-11-29 20:57:09.058833, 3.07918
2022-11-29 20:57:09.067051, 2.97654
2022-11-29 20:57:09.079553, 2.87390
2022-11-29 20:57:09.087517, 2.76637
2022-11-29 20:57:09.095817, 2.67351
2022-11-29 20:57:09.108062, 2.56598
2022-11-29 20:57:09.116224, 2.48289
2022-11-29 20:57:09.124332, 2.42424
2022-11-29 20:57:09.132606, 2.38025
2022-11-29 20:57:09.145016, 2.36559
2022-11-29 20:57:09.153117, 2.29228
2022-11-29 20:57:09.161429, 2.23363
2022-11-29 20:57:09.173555, 2.18964
2022-11-29 20:57:09.181816, 2.17009
2022-11-29 20:57:09.189940, 2.18475
2022-11-29 20:57:09.198172, 2.20919
2022-11-29 20:57:09.210410, 2.23851
2022-11-29 20:57:09.218560, 2.25318
2022-11-29 20:57:09.226835, 2.22874
2022-11-29 20:57:09.234989, 2.20430
2022-11-29 20:57:09.247400, 2.17986
2022-11-29 20:57:09.255431, 2.11632
2022-11-29 20:57:09.263815, 2.06745
2022-11-29 20:57:09.275899, 2.01369
2022-11-29 20:57:09.284113, 1.98436
2022-11-29 20:57:09.292281, 1.98925
2022-11-29 20:57:09.300606, 2.02835
2022-11-29 20:57:09.313085, 2.08700
2022-11-29 20:57:09.321100, 2.13099
2022-11-29 20:57:09.336271, 2.13587
2022-11-29 20:57:09.341513, 2.10655
2022-11-29 20:57:09.349669, 1.95503
2022-11-29 20:57:09.357813, 1.80841
2022-11-29 20:57:09.366051, 1.67644
2022-11-29 20:57:09.378414, 1.61290
2022-11-29 20:57:09.386510, 1.63245
2022-11-29 20:57:09.394816, 1.66178
2022-11-29 20:57:09.406997, 1.73509
2022-11-29 20:57:09.415236, 1.78397
2022-11-29 20:57:09.423428, 1.80352
2022-11-29 20:57:09.431625, 1.79374
2022-11-29 20:57:09.443857, 1.69110
2022-11-29 20:57:09.452086, 1.58847
2022-11-29 20:57:09.460238, 1.49071
2022-11-29 20:57:09.472656, 1.43206
2022-11-29 20:57:09.480804, 1.41251
2022-11-29 20:57:09.488976, 1.41740
2022-11-29 20:57:09.497114, 1.43206
2022-11-29 20:57:09.509389, 1.49071
2022-11-29 20:57:09.517650, 1.47605
2022-11-29 20:57:09.525806, 1.48094
2022-11-29 20:57:09.538175, 1.47605
2022-11-29 20:57:09.546419, 1.48094
2022-11-29 20:57:09.554499, 1.50049
2022-11-29 20:57:09.562816, 1.53470
2022-11-29 20:57:09.574919, 1.62268
2022-11-29 20:57:09.583180, 1.64712
2022-11-29 20:57:09.591367, 1.69110
2022-11-29 20:57:09.603649, 1.69599
2022-11-29 20:57:09.611951, 1.68622
2022-11-29 20:57:09.620071, 1.67155
2022-11-29 20:57:09.628451, 1.67644
2022-11-29 20:57:09.640457, 1.70577
2022-11-29 20:57:09.648712, 1.73509
2022-11-29 20:57:09.656958, 1.77908
2022-11-29 20:57:09.669188, 1.83284
2022-11-29 20:57:09.677388, 1.83773
2022-11-29 20:57:09.685682, 1.84751
2022-11-29 20:57:09.693771, 1.86217
2022-11-29 20:57:09.706022, 1.82307
2022-11-29 20:57:09.714244, 1.78886
2022-11-29 20:57:09.722397, 1.74976
2022-11-29 20:57:09.734684, 1.73021
2022-11-29 20:57:09.743054, 1.73998
2022-11-29 20:57:09.751064, 1.74487
2022-11-29 20:57:09.759287, 1.74976
2022-11-29 20:57:09.771523, 1.76442
2022-11-29 20:57:09.779883, 1.76442
2022-11-29 20:57:09.788123, 1.79374
2022-11-29 20:57:09.800271, 1.81329
2022-11-29 20:57:09.808377, 1.85239
2022-11-29 20:57:09.816798, 1.86706
2022-11-29 20:57:09.824828, 1.85239
2022-11-29 20:57:09.837119, 1.82796
2022-11-29 20:57:09.845411, 1.80352
2022-11-29 20:57:09.853586, 1.79863
2022-11-29 20:57:09.865915, 1.81818
2022-11-29 20:57:09.874024, 1.85239
2022-11-29 20:57:09.882277, 1.89150
2022-11-29 20:57:09.890402, 1.93548
2022-11-29 20:57:09.902643, 1.95992
2022-11-29 20:57:09.910946, 1.98436
2022-11-29 20:57:09.919030, 1.98925
2022-11-29 20:57:09.931407, 1.96970
2022-11-29 20:57:09.939428, 1.95503
2022-11-29 20:57:09.947723, 1.94037
2022-11-29 20:57:09.955957, 1.94526
2022-11-29 20:57:09.968165, 1.96481
2022-11-29 20:57:09.976447, 1.98436
2022-11-29 20:57:09.984661, 1.97458
2022-11-29 20:57:09.996855, 1.94526
2022-11-29 20:57:10.005049, 1.89638
2022-11-29 20:57:10.013254, 1.85239
2022-11-29 20:57:10.021464, 1.83284
2022-11-29 20:57:10.033707, 1.83284
2022-11-29 20:57:10.041859, 1.85239
2022-11-29 20:57:10.050163, 1.86706
2022-11-29 20:57:10.058236, 1.91593
2022-11-29 20:57:10.070766, 1.90616
2022-11-29 20:57:10.078886, 1.92571
2022-11-29 20:57:10.087068, 1.95503
2022-11-29 20:57:10.099211, 1.96970
2022-11-29 20:57:10.107442, 1.98436
2022-11-29 20:57:10.115748, 1.94037
2022-11-29 20:57:10.123896, 1.90127
2022-11-29 20:57:10.136180, 1.78886
2022-11-29 20:57:10.144313, 1.71554
2022-11-29 20:57:10.152622, 1.66178
2022-11-29 20:57:10.165046, 1.65689
2022-11-29 20:57:10.172985, 1.70088
2022-11-29 20:57:10.181250, 1.70577
2022-11-29 20:57:10.189368, 1.71065
2022-11-29 20:57:10.201611, 1.69110
2022-11-29 20:57:10.210009, 1.66667
2022-11-29 20:57:10.218087, 1.64712
2022-11-29 20:57:10.230491, 1.62268
2022-11-29 20:57:10.238572, 1.59335
2022-11-29 20:57:10.246771, 1.52981
2022-11-29 20:57:10.254915, 1.44184
2022-11-29 20:57:10.267136, 1.34409
2022-11-29 20:57:10.275351, 1.27566
2022-11-29 20:57:10.283586, 1.16813
2022-11-29 20:57:10.295890, 1.11437
2022-11-29 20:57:10.304078, 1.11926
2022-11-29 20:57:10.312387, 1.11437
2022-11-29 20:57:10.320542, 1.17302
2022-11-29 20:57:10.332804, 1.25611
2022-11-29 20:57:10.340951, 1.32454
2022-11-29 20:57:10.349217, 1.36852
2022-11-29 20:57:10.361521, 1.37830
2022-11-29 20:57:10.369623, 1.35875
2022-11-29 20:57:10.377864, 1.31965
2022-11-29 20:57:10.386055, 1.30499
2022-11-29 20:57:10.398295, 1.31965
2022-11-29 20:57:10.406385, 1.37830
2022-11-29 20:57:10.414771, 1.47116
2022-11-29 20:57:10.426938, 1.58847
2022-11-29 20:57:10.435184, 1.68133
2022-11-29 20:57:10.443448, 1.73021
2022-11-29 20:57:10.451487, 1.66667
2022-11-29 20:57:10.463869, 1.54448
2022-11-29 20:57:10.471949, 1.40274
2022-11-29 20:57:10.480277, 1.28543
2022-11-29 20:57:10.492448, 1.23656
2022-11-29 20:57:10.500682, 1.27566
2022-11-29 20:57:10.508799, 1.39785
2022-11-29 20:57:10.517147, 1.54448
2022-11-29 20:57:10.529449, 1.68622
2022-11-29 20:57:10.537531, 1.80352
2022-11-29 20:57:10.546112, 1.80841
2022-11-29 20:57:10.558038, 1.77908
2022-11-29 20:57:10.566344, 1.71554
2022-11-29 20:57:10.574381, 1.66178
2022-11-29 20:57:10.582650, 1.64223
2022-11-29 20:57:10.594828, 1.64712
2022-11-29 20:57:10.603047, 1.65200
2022-11-29 20:57:10.611296, 1.63734
2022-11-29 20:57:10.623545, 1.60313
2022-11-29 20:57:10.631762, 1.56891
2022-11-29 20:57:10.639947, 1.51515
2022-11-29 20:57:10.648225, 1.52493
2022-11-29 20:57:10.660631, 1.58358
2022-11-29 20:57:10.668573, 1.68133
2022-11-29 20:57:10.676812, 1.79863
2022-11-29 20:57:10.689051, 1.85239
2022-11-29 20:57:10.697221, 1.87195
2022-11-29 20:57:10.705433, 1.83773
2022-11-29 20:57:10.713846, 1.74976
2022-11-29 20:57:10.725873, 1.65689
2022-11-29 20:57:10.734104, 1.56891
2022-11-29 20:57:10.742293, 1.54448
2022-11-29 20:57:10.754627, 1.57380
2022-11-29 20:57:10.762913, 1.65200
2022-11-29 20:57:10.770944, 1.76931
2022-11-29 20:57:10.779249, 1.83284
2022-11-29 20:57:10.791467, 1.87683
2022-11-29 20:57:10.799720, 1.87195
2022-11-29 20:57:10.807916, 1.82796
2022-11-29 20:57:10.820129, 1.75953
2022-11-29 20:57:10.828404, 1.71554
2022-11-29 20:57:10.836486, 1.71065
2022-11-29 20:57:10.845314, 1.73509
2022-11-29 20:57:10.857075, 1.80352
2022-11-29 20:57:10.865234, 1.80841
2022-11-29 20:57:10.873411, 1.82307
2022-11-29 20:57:10.885627, 1.81329
2022-11-29 20:57:10.894066, 1.79863
2022-11-29 20:57:10.902093, 1.74976
2022-11-29 20:57:10.910221, 1.67644
2022-11-29 20:57:10.922575, 1.60802
2022-11-29 20:57:10.930769, 1.55425
2022-11-29 20:57:10.938985, 1.55914
2022-11-29 20:57:10.947147, 1.58358
2022-11-29 20:57:10.959392, 1.64712
2022-11-29 20:57:10.967578, 1.68622
2022-11-29 20:57:10.975860, 1.71554
2022-11-29 20:57:10.988104, 1.69599
2022-11-29 20:57:10.996362, 1.65200
2022-11-29 20:57:11.004424, 1.56403
2022-11-29 20:57:11.012707, 1.50049
2022-11-29 20:57:11.024879, 1.44673
2022-11-29 20:57:11.033078, 1.44673
2022-11-29 20:57:11.041278, 1.51515
2022-11-29 20:57:11.053573, 1.57380
2022-11-29 20:57:11.061886, 1.66178
2022-11-29 20:57:11.070000, 1.71065
2022-11-29 20:57:11.078314, 1.69110
2022-11-29 20:57:11.090455, 1.60802
2022-11-29 20:57:11.098661, 1.48094
2022-11-29 20:57:11.106974, 1.36364
2022-11-29 20:57:11.119174, 1.27077
2022-11-29 20:57:11.127461, 1.23167
2022-11-29 20:57:11.135598, 1.25122
2022-11-29 20:57:11.143765, 1.30499
2022-11-29 20:57:11.156005, 1.37830
2022-11-29 20:57:11.164232, 1.43695
2022-11-29 20:57:11.172359, 1.48583
2022-11-29 20:57:11.185583, 1.50538
2022-11-29 20:57:11.192921, 1.45650
2022-11-29 20:57:11.201034, 1.39785
2022-11-29 20:57:11.209245, 1.31965
2022-11-29 20:57:11.221487, 1.26588
2022-11-29 20:57:11.229725, 1.24633
2022-11-29 20:57:11.237859, 1.26588
2022-11-29 20:57:11.250144, 1.31476
2022-11-29 20:57:11.258392, 1.37341
2022-11-29 20:57:11.266587, 1.43206
2022-11-29 20:57:11.274767, 1.46139
2022-11-29 20:57:11.287052, 1.47116
2022-11-29 20:57:11.295216, 1.43206
2022-11-29 20:57:11.303482, 1.37341
2022-11-29 20:57:11.315730, 1.31476
2022-11-29 20:57:11.323972, 1.28543
2022-11-29 20:57:11.332155, 1.29032
2022-11-29 20:57:11.340353, 1.35875
2022-11-29 20:57:11.352542, 1.39296
2022-11-29 20:57:11.360836, 1.46139
2022-11-29 20:57:11.368986, 1.51026
2022-11-29 20:57:11.381324, 1.54448
2022-11-29 20:57:11.389555, 1.56891
2022-11-29 20:57:11.397690, 1.57869
2022-11-29 20:57:11.405853, 1.60313
2022-11-29 20:57:11.418133, 1.56403
2022-11-29 20:57:11.426357, 1.54936
2022-11-29 20:57:11.434621, 1.52493
2022-11-29 20:57:11.446926, 1.51026
2022-11-29 20:57:11.454988, 1.49071
2022-11-29 20:57:11.463277, 1.49071
2022-11-29 20:57:11.471455, 1.49560
2022-11-29 20:57:11.483660, 1.51515
2022-11-29 20:57:11.491871, 1.53959
2022-11-29 20:57:11.500037, 1.56403
2022-11-29 20:57:11.512409, 1.60802
2022-11-29 20:57:11.520542, 1.59335
2022-11-29 20:57:11.528840, 1.58847
2022-11-29 20:57:11.536997, 1.56403
2022-11-29 20:57:11.549214, 1.53470
2022-11-29 20:57:11.557430, 1.51026
2022-11-29 20:57:11.565663, 1.50049
2022-11-29 20:57:11.577952, 1.51515
2022-11-29 20:57:11.586095, 1.54936
2022-11-29 20:57:11.594414, 1.60313
2022-11-29 20:57:11.602550, 1.67155
2022-11-29 20:57:11.614742, 1.73509
2022-11-29 20:57:11.622922, 1.77908
2022-11-29 20:57:11.631149, 1.75953
2022-11-29 20:57:11.643460, 1.68622
2022-11-29 20:57:11.651666, 1.56403
2022-11-29 20:57:11.659929, 1.45161
2022-11-29 20:57:11.668024, 1.39296
2022-11-29 20:57:11.680321, 1.38807
2022-11-29 20:57:11.688471, 1.46139
2022-11-29 20:57:11.696777, 1.53470
2022-11-29 20:57:11.708955, 1.59824
2022-11-29 20:57:11.717194, 1.62268
2022-11-29 20:57:11.725347, 1.62757
2022-11-29 20:57:11.733814, 1.61779
2022-11-29 20:57:11.745879, 1.63245
2022-11-29 20:57:11.754030, 1.57869
2022-11-29 20:57:11.762427, 1.54936
2022-11-29 20:57:11.770512, 1.51026
2022-11-29 20:57:11.782729, 1.48094
2022-11-29 20:57:11.790893, 1.47116
2022-11-29 20:57:11.799226, 1.48094
2022-11-29 20:57:11.811476, 1.51026
2022-11-29 20:57:11.819515, 1.54936
2022-11-29 20:57:11.827816, 1.58847
2022-11-29 20:57:11.835943, 1.64223
2022-11-29 20:57:11.848295, 1.68622
2022-11-29 20:57:11.856420, 1.72532
2022-11-29 20:57:11.864724, 1.73509
2022-11-29 20:57:11.876898, 1.73021
2022-11-29 20:57:11.885129, 1.68622
2022-11-29 20:57:11.893328, 1.62757
2022-11-29 20:57:11.901610, 1.57869
2022-11-29 20:57:11.913932, 1.56403
2022-11-29 20:57:11.921959, 1.58358
2022-11-29 20:57:11.930304, 1.62268
2022-11-29 20:57:11.942416, 1.66667
2022-11-29 20:57:11.950716, 1.69599
2022-11-29 20:57:11.958864, 1.72043
2022-11-29 20:57:11.967058, 1.73021
2022-11-29 20:57:11.979365, 1.72532
2022-11-29 20:57:11.987675, 1.71065
2022-11-29 20:57:11.995907, 1.70088
2022-11-29 20:57:12.008017, 1.66667
2022-11-29 20:57:12.016186, 1.63245
2022-11-29 20:57:12.024391, 1.57869
2022-11-29 20:57:12.032603, 1.50049
2022-11-29 20:57:12.045236, 1.42229
2022-11-29 20:57:12.053059, 1.37341
2022-11-29 20:57:12.061241, 1.35386
2022-11-29 20:57:12.073531, 1.37341
2022-11-29 20:57:12.081751, 1.41740
2022-11-29 20:57:12.089964, 1.47605
2022-11-29 20:57:12.098160, 1.52004
2022-11-29 20:57:12.110368, 1.54448
2022-11-29 20:57:12.118560, 1.52004
2022-11-29 20:57:12.126875, 1.45650
2022-11-29 20:57:12.139058, 1.35875
2022-11-29 20:57:12.147533, 1.26588
2022-11-29 20:57:12.155510, 1.19746
2022-11-29 20:57:12.163794, 1.18280
2022-11-29 20:57:12.175929, 1.21701
2022-11-29 20:57:12.184160, 1.27566
2022-11-29 20:57:12.192402, 1.33431
2022-11-29 20:57:12.204617, 1.39296
2022-11-29 20:57:12.213030, 1.42229
2022-11-29 20:57:12.221054, 1.44184
2022-11-29 20:57:12.229413, 1.44184
2022-11-29 20:57:12.241489, 1.44184
2022-11-29 20:57:12.249659, 1.42717
2022-11-29 20:57:12.257866, 1.42717
2022-11-29 20:57:12.270115, 1.40762
2022-11-29 20:57:12.278699, 1.44184
2022-11-29 20:57:12.286593, 1.44673
2022-11-29 20:57:12.294998, 1.48583
2022-11-29 20:57:12.307057, 1.53470
2022-11-29 20:57:12.315260, 1.55914
2022-11-29 20:57:12.323312, 1.54936
2022-11-29 20:57:12.335640, 1.52981
2022-11-29 20:57:12.352950, 1.51026
2022-11-29 20:57:12.353177, 1.54936
2022-11-29 20:57:12.360258, 1.57869
2022-11-29 20:57:12.372497, 1.66178
2022-11-29 20:57:12.380673, 1.68622
2022-11-29 20:57:12.388904, 1.66178
2022-11-29 20:57:12.401179, 1.56891
2022-11-29 20:57:12.409400, 1.46139
2022-11-29 20:57:12.417571, 1.38807
2022-11-29 20:57:12.425797, 1.33431
2022-11-29 20:57:12.438112, 1.35875
2022-11-29 20:57:12.446245, 1.43695
2022-11-29 20:57:12.454463, 1.54448
2022-11-29 20:57:12.466747, 1.66178
2022-11-29 20:57:12.474899, 1.73998
2022-11-29 20:57:12.483441, 1.74976
2022-11-29 20:57:12.491392, 1.69110
2022-11-29 20:57:12.503533, 1.59335
2022-11-29 20:57:12.511896, 1.48583
2022-11-29 20:57:12.519986, 1.44184
2022-11-29 20:57:12.532249, 1.43206
2022-11-29 20:57:12.542553, 1.50049
2022-11-29 20:57:12.548751, 1.59335
2022-11-29 20:57:12.556889, 1.68133
2022-11-29 20:57:12.569100, 1.73509
2022-11-29 20:57:12.577366, 1.71554
2022-11-29 20:57:12.585595, 1.65689
2022-11-29 20:57:12.593769, 1.57869
2022-11-29 20:57:12.606009, 1.52493
2022-11-29 20:57:12.614198, 1.50538
2022-11-29 20:57:12.622310, 1.52004
2022-11-29 20:57:12.634706, 1.54936
2022-11-29 20:57:12.643593, 1.57380
2022-11-29 20:57:12.651321, 1.58358
2022-11-29 20:57:12.659207, 1.58847
2022-11-29 20:57:12.671485, 1.60313
2022-11-29 20:57:12.679827, 1.64223
2022-11-29 20:57:12.687860, 1.70577
2022-11-29 20:57:12.700156, 1.73998
2022-11-29 20:57:12.708426, 1.77419
2022-11-29 20:57:12.716619, 1.75953
2022-11-29 20:57:12.724863, 1.71065
2022-11-29 20:57:12.737125, 1.64223
2022-11-29 20:57:12.745455, 1.56403
2022-11-29 20:57:12.753445, 1.51026
2022-11-29 20:57:12.765738, 1.49560
2022-11-29 20:57:12.773999, 1.53470
2022-11-29 20:57:12.782276, 1.56891
2022-11-29 20:57:12.790301, 1.63734
2022-11-29 20:57:12.802522, 1.70088
2022-11-29 20:57:12.810924, 1.73509
2022-11-29 20:57:12.818980, 1.73998
2022-11-29 20:57:12.831302, 1.70577
2022-11-29 20:57:12.839503, 1.64712
2022-11-29 20:57:12.847749, 1.56891
2022-11-29 20:57:12.856041, 1.51515
2022-11-29 20:57:12.868111, 1.43206
2022-11-29 20:57:12.876622, 1.41740
2022-11-29 20:57:12.884527, 1.44184
2022-11-29 20:57:12.896869, 1.49560
2022-11-29 20:57:12.904993, 1.55425
2022-11-29 20:57:12.913400, 1.63734
2022-11-29 20:57:12.921479, 1.66178
2022-11-29 20:57:12.933803, 1.68133
2022-11-29 20:57:12.941921, 1.67155
2022-11-29 20:57:12.950130, 1.62268
2022-11-29 20:57:12.962677, 1.55914
2022-11-29 20:57:12.970505, 1.51026
2022-11-29 20:57:12.978983, 1.49071
2022-11-29 20:57:12.986988, 1.52004
2022-11-29 20:57:12.999259, 1.53470
2022-11-29 20:57:13.007416, 1.57869
2022-11-29 20:57:13.015661, 1.61779
2022-11-29 20:57:13.027887, 1.66178
2022-11-29 20:57:13.036109, 1.68133
2022-11-29 20:57:13.044372, 1.67644
2022-11-29 20:57:13.052560, 1.65200
2022-11-29 20:57:13.064758, 1.61290
2022-11-29 20:57:13.072907, 1.56403
2022-11-29 20:57:13.081184, 1.49560
2022-11-29 20:57:13.093425, 1.48583
2022-11-29 20:57:13.101655, 1.51026
2022-11-29 20:57:13.109983, 1.53959
2022-11-29 20:57:13.118106, 1.57380
2022-11-29 20:57:13.130425, 1.61290
2022-11-29 20:57:13.138491, 1.65200
2022-11-29 20:57:13.146762, 1.64223
2022-11-29 20:57:13.158876, 1.64223
2022-11-29 20:57:13.167224, 1.61290
2022-11-29 20:57:13.175374, 1.56891
2022-11-29 20:57:13.183620, 1.52493
2022-11-29 20:57:13.195885, 1.51026
2022-11-29 20:57:13.204051, 1.53470
2022-11-29 20:57:13.212340, 1.60802
2022-11-29 20:57:13.224465, 1.71065
2022-11-29 20:57:13.232779, 1.76442
2022-11-29 20:57:13.240856, 1.81329
2022-11-29 20:57:13.249106, 1.82796
2022-11-29 20:57:13.261491, 1.82796
2022-11-29 20:57:13.269616, 1.74487
2022-11-29 20:57:13.277778, 1.65200
2022-11-29 20:57:13.290013, 1.58358
2022-11-29 20:57:13.298189, 1.53959
2022-11-29 20:57:13.306352, 1.54448
2022-11-29 20:57:13.314654, 1.58847
2022-11-29 20:57:13.326939, 1.66178
2022-11-29 20:57:13.335162, 1.73998
2022-11-29 20:57:13.343510, 1.81329
2022-11-29 20:57:13.355568, 1.80841
2022-11-29 20:57:13.363858, 1.77419
2022-11-29 20:57:13.371886, 1.69110
2022-11-29 20:57:13.380169, 1.58358
2022-11-29 20:57:13.392600, 1.48583
2022-11-29 20:57:13.400778, 1.43695
2022-11-29 20:57:13.408798, 1.44673
2022-11-29 20:57:13.417098, 1.51515
2022-11-29 20:57:13.429376, 1.61779
2022-11-29 20:57:13.437504, 1.71065
2022-11-29 20:57:13.445783, 1.78886
2022-11-29 20:57:13.457967, 1.78397
2022-11-29 20:57:13.466348, 1.74976
2022-11-29 20:57:13.474375, 1.68622
2022-11-29 20:57:13.483616, 1.60313
2022-11-29 20:57:13.494979, 1.53959
2022-11-29 20:57:13.503009, 1.51515
2022-11-29 20:57:13.511276, 1.53959
2022-11-29 20:57:13.523524, 1.58358
2022-11-29 20:57:13.531730, 1.65200
2022-11-29 20:57:13.539878, 1.70577
2022-11-29 20:57:13.548237, 1.73021
2022-11-29 20:57:13.560486, 1.72532
2022-11-29 20:57:13.568688, 1.69599
2022-11-29 20:57:13.576979, 1.64223
2022-11-29 20:57:13.589151, 1.61290
2022-11-29 20:57:13.597348, 1.59824
2022-11-29 20:57:13.605426, 1.61290
2022-11-29 20:57:13.613690, 1.62757
2022-11-29 20:57:13.625845, 1.61290
2022-11-29 20:57:13.634079, 1.61779
2022-11-29 20:57:13.642273, 1.61779
2022-11-29 20:57:13.654658, 1.61290
2022-11-29 20:57:13.663540, 1.59335
2022-11-29 20:57:13.670988, 1.56403
2022-11-29 20:57:13.679194, 1.53470
2022-11-29 20:57:13.691422, 1.51515
2022-11-29 20:57:13.699608, 1.50538
2022-11-29 20:57:13.707868, 1.52493
2022-11-29 20:57:13.720181, 1.56403
2022-11-29 20:57:13.728416, 1.60313
2022-11-29 20:57:13.736613, 1.63245
2022-11-29 20:57:13.744737, 1.62757
2022-11-29 20:57:13.756920, 1.59335
2022-11-29 20:57:13.765203, 1.53959
2022-11-29 20:57:13.773446, 1.48094
2022-11-29 20:57:13.785661, 1.40274
2022-11-29 20:57:13.793939, 1.38319
2022-11-29 20:57:13.802012, 1.32942
2022-11-29 20:57:13.810375, 1.31476
2022-11-29 20:57:13.822513, 1.28543
2022-11-29 20:57:13.830758, 1.24633
2022-11-29 20:57:13.838945, 1.19746
2022-11-29 20:57:13.851134, 1.15347
2022-11-29 20:57:13.859560, 1.12414
2022-11-29 20:57:13.867543, 1.10459
2022-11-29 20:57:13.875695, 1.09482
2022-11-29 20:57:13.888093, 1.10948
2022-11-29 20:57:13.896354, 1.15836
2022-11-29 20:57:13.904522, 1.24145
2022-11-29 20:57:13.916669, 1.30499
2022-11-29 20:57:13.924873, 1.39785
2022-11-29 20:57:13.933064, 1.45161
2022-11-29 20:57:13.941340, 1.51026
2022-11-29 20:57:13.953535, 1.55425
2022-11-29 20:57:13.962086, 1.59824
2022-11-29 20:57:13.970074, 1.59824
2022-11-29 20:57:13.982272, 1.64223
2022-11-29 20:57:13.990439, 1.63245
2022-11-29 20:57:13.998716, 1.66667
2022-11-29 20:57:14.006761, 1.65689
2022-11-29 20:57:14.019061, 1.66667
2022-11-29 20:57:14.027460, 1.67155
2022-11-29 20:57:14.035591, 1.68622
2022-11-29 20:57:14.047854, 1.72532
2022-11-29 20:57:14.055892, 1.74487
2022-11-29 20:57:14.064374, 1.78397
2022-11-29 20:57:14.072487, 1.83284
2022-11-29 20:57:14.084636, 1.86217
2022-11-29 20:57:14.093079, 1.89150
2022-11-29 20:57:14.101071, 1.91593
2022-11-29 20:57:14.113389, 1.94037
2022-11-29 20:57:14.121538, 1.96481
2022-11-29 20:57:14.129801, 1.98436
2022-11-29 20:57:14.138072, 2.00880
2022-11-29 20:57:14.150243, 2.02346
2022-11-29 20:57:14.158394, 2.03812
2022-11-29 20:57:14.166579, 2.04790
2022-11-29 20:57:14.178894, 2.03324
2022-11-29 20:57:14.187068, 1.98925
2022-11-29 20:57:14.195685, 1.88661
2022-11-29 20:57:14.203567, 1.73509
2022-11-29 20:57:14.215729, 1.57869
2022-11-29 20:57:14.223902, 1.46139
2022-11-29 20:57:14.232211, 1.41251
2022-11-29 20:57:14.244605, 1.45161
2022-11-29 20:57:14.252596, 1.52981
2022-11-29 20:57:14.260954, 1.60313
2022-11-29 20:57:14.269024, 1.67644
2022-11-29 20:57:14.281311, 1.63734
2022-11-29 20:57:14.289371, 1.59824
2022-11-29 20:57:14.297740, 1.55914
2022-11-29 20:57:14.305869, 1.55425
2022-11-29 20:57:14.318186, 1.58358
2022-11-29 20:57:14.327001, 1.61779
2022-11-29 20:57:14.334628, 1.66178
2022-11-29 20:57:14.346751, 1.69110
2022-11-29 20:57:14.354965, 1.72043
2022-11-29 20:57:14.363320, 1.72532
2022-11-29 20:57:14.371389, 1.71065
2022-11-29 20:57:14.383654, 1.67644
2022-11-29 20:57:14.391809, 1.66667
2022-11-29 20:57:14.400520, 1.62757
2022-11-29 20:57:14.412312, 1.63245
2022-11-29 20:57:14.420514, 1.67155
2022-11-29 20:57:14.428816, 1.72532
2022-11-29 20:57:14.436858, 1.80841
2022-11-29 20:57:14.449110, 1.84262
2022-11-29 20:57:14.457408, 1.88661
2022-11-29 20:57:14.465671, 1.87683
2022-11-29 20:57:14.477863, 1.85239
2022-11-29 20:57:14.486167, 1.81818
2022-11-29 20:57:14.494266, 1.73509
2022-11-29 20:57:14.502412, 1.65200
2022-11-29 20:57:14.514721, 1.60802
2022-11-29 20:57:14.522860, 1.60313
2022-11-29 20:57:14.531210, 1.63245
2022-11-29 20:57:14.543370, 1.67644
2022-11-29 20:57:14.551567, 1.71554
2022-11-29 20:57:14.559817, 1.74487
2022-11-29 20:57:14.567994, 1.75464
2022-11-29 20:57:14.580255, 1.76931
2022-11-29 20:57:14.588515, 1.72532
2022-11-29 20:57:14.596703, 1.70088
2022-11-29 20:57:14.608868, 1.66667
2022-11-29 20:57:14.617092, 1.64223
2022-11-29 20:57:14.625279, 1.62757
2022-11-29 20:57:14.633495, 1.62757
2022-11-29 20:57:14.645883, 1.62757
2022-11-29 20:57:14.654073, 1.65689
2022-11-29 20:57:14.662225, 1.65200
2022-11-29 20:57:14.674441, 1.66667
2022-11-29 20:57:14.682679, 1.65689
2022-11-29 20:57:14.690892, 1.64712
2022-11-29 20:57:14.699102, 1.62268
2022-11-29 20:57:14.711333, 1.60313
2022-11-29 20:57:14.719524, 1.58847
2022-11-29 20:57:14.727824, 1.56891
2022-11-29 20:57:14.740000, 1.55914
2022-11-29 20:57:14.748338, 1.53959
2022-11-29 20:57:14.756452, 1.53470
2022-11-29 20:57:14.764812, 1.51026
2022-11-29 20:57:14.776851, 1.49071
2022-11-29 20:57:14.792425, 1.45650
2022-11-29 20:57:14.795114, 1.43695
2022-11-29 20:57:14.805541, 1.43695
2022-11-29 20:57:14.813730, 1.44184
2022-11-29 20:57:14.821903, 1.45650
2022-11-29 20:57:14.830121, 1.45650
2022-11-29 20:57:14.842408, 1.46139
2022-11-29 20:57:14.850733, 1.48583
2022-11-29 20:57:14.858910, 1.46139
2022-11-29 20:57:14.871113, 1.47116
2022-11-29 20:57:14.879299, 1.45650
2022-11-29 20:57:14.887517, 1.45650
2022-11-29 20:57:14.895693, 1.44673
2022-11-29 20:57:14.907878, 1.46139
2022-11-29 20:57:14.916110, 1.47605
2022-11-29 20:57:14.924321, 1.50049
2022-11-29 20:57:14.936598, 1.52981
2022-11-29 20:57:14.944854, 1.54448
2022-11-29 20:57:14.953041, 1.53959
2022-11-29 20:57:14.961164, 1.54448
2022-11-29 20:57:14.973450, 1.49560
2022-11-29 20:57:14.981670, 1.48583
2022-11-29 20:57:14.989798, 1.49560
2022-11-29 20:57:15.002072, 1.53959
2022-11-29 20:57:15.010364, 1.60313
2022-11-29 20:57:15.018486, 1.67155
2022-11-29 20:57:15.026769, 1.73021
2022-11-29 20:57:15.038950, 1.77908
2022-11-29 20:57:15.047218, 1.79863
2022-11-29 20:57:15.055345, 1.80352
2022-11-29 20:57:15.067641, 1.77908
2022-11-29 20:57:15.075906, 1.73998
2022-11-29 20:57:15.084137, 1.70577
2022-11-29 20:57:15.092194, 1.64223
2022-11-29 20:57:15.104536, 1.59335
2022-11-29 20:57:15.112915, 1.54936
2022-11-29 20:57:15.120945, 1.50538
2022-11-29 20:57:15.129334, 1.45161
2022-11-29 20:57:15.141365, 1.39785
2022-11-29 20:57:15.149638, 1.32942
2022-11-29 20:57:15.157860, 1.28055
2022-11-29 20:57:15.170090, 1.20723
2022-11-29 20:57:15.178332, 1.22190
2022-11-29 20:57:15.186490, 1.31476
2022-11-29 20:57:15.194801, 1.45650
2022-11-29 20:57:15.206968, 1.62268
2022-11-29 20:57:15.215149, 1.77419
2022-11-29 20:57:15.223351, 1.89638
2022-11-29 20:57:15.235660, 1.98925
2022-11-29 20:57:15.243890, 1.99413
2022-11-29 20:57:15.251978, 1.96970
2022-11-29 20:57:15.260219, 1.91105
2022-11-29 20:57:15.272364, 1.86706
2022-11-29 20:57:15.280816, 1.85239
2022-11-29 20:57:15.288904, 1.87195
2022-11-29 20:57:15.301167, 1.92082
2022-11-29 20:57:15.309276, 2.00391
2022-11-29 20:57:15.317648, 2.10166
2022-11-29 20:57:15.325825, 2.20919
2022-11-29 20:57:15.337995, 2.30694
2022-11-29 20:57:15.346411, 2.37048
2022-11-29 20:57:15.354432, 2.38025
2022-11-29 20:57:15.366670, 2.33138
2022-11-29 20:57:15.374855, 2.24340
2022-11-29 20:57:15.383106, 2.14076
2022-11-29 20:57:15.391284, 2.08700
2022-11-29 20:57:15.403543, 2.06256
2022-11-29 20:57:15.411861, 2.10655
2022-11-29 20:57:15.419988, 2.18964
2022-11-29 20:57:15.432191, 2.25318
2022-11-29 20:57:15.440466, 2.29717
2022-11-29 20:57:15.448844, 2.29228
2022-11-29 20:57:15.456868, 2.25318
2022-11-29 20:57:15.469072, 2.18964
2022-11-29 20:57:15.477286, 2.11632
2022-11-29 20:57:15.485447, 2.06256
2022-11-29 20:57:15.497967, 2.03812
2022-11-29 20:57:15.505974, 2.04790
2022-11-29 20:57:15.514353, 2.07234
2022-11-29 20:57:15.522411, 2.12121
2022-11-29 20:57:15.534645, 2.14076
2022-11-29 20:57:15.543220, 2.13587
2022-11-29 20:57:15.551048, 2.02835
2022-11-29 20:57:15.563655, 1.87683
2022-11-29 20:57:15.571489, 1.74976
2022-11-29 20:57:15.580093, 1.67644
2022-11-29 20:57:15.587918, 1.67644
2022-11-29 20:57:15.600213, 1.75464
2022-11-29 20:57:15.608494, 1.85239
2022-11-29 20:57:15.616702, 1.94037
2022-11-29 20:57:15.628931, 1.98925
2022-11-29 20:57:15.636980, 2.01857
2022-11-29 20:57:15.645554, 2.06745
2022-11-29 20:57:15.653492, 2.15543
2022-11-29 20:57:15.674943, 2.25806
2022-11-29 20:57:15.675245, 2.32649
2022-11-29 20:57:15.682051, 2.30694
2022-11-29 20:57:15.694384, 2.17986
2022-11-29 20:57:15.702530, 1.92082
2022-11-29 20:57:15.710899, 1.52004
2022-11-29 20:57:15.718973, 1.08504
2022-11-29 20:57:15.731215, 0.75758
2022-11-29 20:57:15.739340, 0.67937
2022-11-29 20:57:15.747694, 0.88465
2022-11-29 20:57:15.766940, 1.24633
2022-11-29 20:57:15.768048, 1.67155
2022-11-29 20:57:15.776401, 2.03324
2022-11-29 20:57:15.784571, 2.26784
2022-11-29 20:57:15.796857, 2.39492
2022-11-29 20:57:15.804937, 2.39980
2022-11-29 20:57:15.813141, 2.32160
2022-11-29 20:57:15.825478, 2.16031
2022-11-29 20:57:15.833546, 1.93548
2022-11-29 20:57:15.841744, 1.70577
2022-11-29 20:57:15.849939, 1.53959
2022-11-29 20:57:15.862262, 1.51026
2022-11-29 20:57:15.870533, 1.57380
2022-11-29 20:57:15.878608, 1.74976
2022-11-29 20:57:15.890886, 1.95015
2022-11-29 20:57:15.899123, 2.12121
2022-11-29 20:57:15.907311, 2.24829
2022-11-29 20:57:15.915587, 2.31672
2022-11-29 20:57:15.927868, 2.36070
2022-11-29 20:57:15.936071, 2.38025
2022-11-29 20:57:15.944173, 2.35582
2022-11-29 20:57:15.952677, 2.28250
2022-11-29 20:57:15.964631, 2.17009
2022-11-29 20:57:15.972848, 2.05767
2022-11-29 20:57:15.981129, 1.94526
2022-11-29 20:57:15.993390, 1.88661
2022-11-29 20:57:16.001563, 1.82307
2022-11-29 20:57:16.009875, 1.81818
2022-11-29 20:57:16.017883, 1.84262
2022-11-29 20:57:16.030277, 1.87195
2022-11-29 20:57:16.038455, 1.89150
2022-11-29 20:57:16.046658, 1.87683
2022-11-29 20:57:16.058870, 1.87683
2022-11-29 20:57:16.067129, 1.81329
2022-11-29 20:57:16.075251, 1.80841
2022-11-29 20:57:16.083469, 1.78397
2022-11-29 20:57:16.096072, 1.79374
2022-11-29 20:57:16.104019, 1.81329
2022-11-29 20:57:16.112381, 1.81818
2022-11-29 20:57:16.124389, 1.81818
2022-11-29 20:57:16.132636, 1.77908
2022-11-29 20:57:16.140857, 1.72043
2022-11-29 20:57:16.148998, 1.64223
2022-11-29 20:57:16.161353, 1.58358
2022-11-29 20:57:16.169509, 1.49071
2022-11-29 20:57:16.177710, 1.42717
2022-11-29 20:57:16.189958, 1.36364
2022-11-29 20:57:16.198155, 1.29521
2022-11-29 20:57:16.206353, 1.22678
2022-11-29 20:57:16.214571, 1.14369
2022-11-29 20:57:16.226796, 1.06061
2022-11-29 20:57:16.235163, 0.97752
2022-11-29 20:57:16.243239, 0.89932
2022-11-29 20:57:16.255519, 0.82600
2022-11-29 20:57:16.263690, 0.75758
2022-11-29 20:57:16.271873, 0.72825
2022-11-29 20:57:16.280113, 0.65982
2022-11-29 20:57:16.292317, 0.64027
2022-11-29 20:57:16.300595, 0.62072
2022-11-29 20:57:16.308765, 0.60117
2022-11-29 20:57:16.320999, 0.59140
2022-11-29 20:57:16.329310, 0.55718
2022-11-29 20:57:16.337435, 0.52297
2022-11-29 20:57:16.345661, 0.47898
2022-11-29 20:57:16.357835, 0.42033
2022-11-29 20:57:16.366057, 0.35191
2022-11-29 20:57:16.374346, 0.28348
2022-11-29 20:57:16.386591, 0.21994
2022-11-29 20:57:16.394808, 0.18084
2022-11-29 20:57:16.403041, 0.16618
2022-11-29 20:57:16.411188, 0.18084
2022-11-29 20:57:16.423438, 0.21994
2022-11-29 20:57:16.431656, 0.27370
2022-11-29 20:57:16.439881, 0.34702
2022-11-29 20:57:16.452080, 0.37146
2022-11-29 20:57:16.460317, 0.39589
2022-11-29 20:57:16.468500, 0.40567
2022-11-29 20:57:16.476635, 0.40567
2022-11-29 20:57:16.488922, 0.40567
2022-11-29 20:57:16.497184, 0.38612
2022-11-29 20:57:16.505372, 0.38123
2022-11-29 20:57:16.517563, 0.37634
2022-11-29 20:57:16.525799, 0.39589
2022-11-29 20:57:16.533999, 0.43500
2022-11-29 20:57:16.542192, 0.46432
2022-11-29 20:57:16.554542, 0.47410
2022-11-29 20:57:16.562726, 0.40567
2022-11-29 20:57:16.570947, 0.26393
2022-11-29 20:57:16.583177, 0.03910
2022-11-29 20:57:16.591425, 0.00000
2022-11-29 20:57:16.599606, 0.00000
2022-11-29 20:57:16.607902, 0.00000
2022-11-29 20:57:16.620060, 0.00000
2022-11-29 20:57:16.628271, 0.01466
2022-11-29 20:57:16.636625, 0.00000
2022-11-29 20:57:16.648790, 0.00000
2022-11-29 20:57:16.656891, 0.00000
2022-11-29 20:57:16.665075, 0.01466
2022-11-29 20:57:16.673356, 0.00489
2022-11-29 20:57:16.685647, 0.00978
2022-11-29 20:57:16.693776, 0.00000
2022-11-29 20:57:16.702010, 0.00000
2022-11-29 20:57:16.714306, 0.00000
2022-11-29 20:57:16.722382, 0.00000
2022-11-29 20:57:16.730646, 0.00000
2022-11-29 20:57:16.738795, 0.00000
2022-11-29 20:57:16.751053, 0.00000
2022-11-29 20:57:16.759331, 0.00000
2022-11-29 20:57:16.767517, 0.00000
2022-11-29 20:57:16.775643, 0.00000
2022-11-29 20:57:16.787982, 0.00000
2022-11-29 20:57:16.796212, 0.00000
2022-11-29 20:57:16.804349, 0.00000
2022-11-29 20:57:16.816616, 0.00000
2022-11-29 20:57:16.824840, 0.00000
2022-11-29 20:57:16.833473, 0.00000
2022-11-29 20:57:16.841262, 0.00489
2022-11-29 20:57:16.853563, 0.00000
2022-11-29 20:57:16.862023, 0.00000
2022-11-29 20:57:16.869978, 0.00000
2022-11-29 20:57:16.882204, 0.00000
2022-11-29 20:57:16.890325, 0.00000
2022-11-29 20:57:16.898656, 0.00000
2022-11-29 20:57:16.906877, 0.00489
2022-11-29 20:57:16.919011, 0.00000
2022-11-29 20:57:16.927260, 0.00000
2022-11-29 20:57:16.935490, 0.00000
2022-11-29 20:57:16.947832, 0.00000
2022-11-29 20:57:16.955860, 0.00000
2022-11-29 20:57:16.964203, 0.02444
2022-11-29 20:57:16.972326, 0.15152
2022-11-29 20:57:16.984521, 0.31769
2022-11-29 20:57:16.992855, 0.46432
2022-11-29 20:57:17.000931, 0.57674
2022-11-29 20:57:17.013312, 0.63539
2022-11-29 20:57:17.021394, 0.67449
2022-11-29 20:57:17.029690, 0.67937
2022-11-29 20:57:17.037960, 0.69404
2022-11-29 20:57:17.050139, 0.68915
2022-11-29 20:57:17.058314, 0.70381
2022-11-29 20:57:17.066560, 0.73314
2022-11-29 20:57:17.078848, 0.76246
2022-11-29 20:57:17.087088, 0.80645
2022-11-29 20:57:17.095285, 0.85044
2022-11-29 20:57:17.103451, 0.91398
2022-11-29 20:57:17.115663, 0.95797
2022-11-29 20:57:17.123888, 1.02639
2022-11-29 20:57:17.132127, 1.08504
2022-11-29 20:57:17.144409, 1.14369
2022-11-29 20:57:17.152530, 1.19746
2022-11-29 20:57:17.160781, 1.23656
2022-11-29 20:57:17.168978, 1.30987
2022-11-29 20:57:17.181209, 1.31476
2022-11-29 20:57:17.189370, 1.35386
2022-11-29 20:57:17.197656, 1.36852
2022-11-29 20:57:17.209860, 1.39785
2022-11-29 20:57:17.218018, 1.41740
2022-11-29 20:57:17.226209, 1.43695
2022-11-29 20:57:17.234422, 1.45650
2022-11-29 20:57:17.246838, 1.47116
2022-11-29 20:57:17.254855, 1.49071
2022-11-29 20:57:17.263249, 1.49560
2022-11-29 20:57:17.275460, 1.50049
2022-11-29 20:57:17.283639, 1.50049
2022-11-29 20:57:17.291827, 1.50049
2022-11-29 20:57:17.300028, 1.50538
2022-11-29 20:57:17.312251, 1.51515
2022-11-29 20:57:17.320384, 1.52493
2022-11-29 20:57:17.328719, 1.54448
2022-11-29 20:57:17.341012, 1.56403
2022-11-29 20:57:17.349165, 1.57869
2022-11-29 20:57:17.357361, 1.58358
2022-11-29 20:57:17.365574, 1.58847
2022-11-29 20:57:17.377791, 1.58358
2022-11-29 20:57:17.386017, 1.58358
2022-11-29 20:57:17.394326, 1.58358
2022-11-29 20:57:17.406508, 1.58847
2022-11-29 20:57:17.414744, 1.59335
2022-11-29 20:57:17.422912, 1.59824
2022-11-29 20:57:17.431143, 1.59824
2022-11-29 20:57:17.443309, 1.59335
2022-11-29 20:57:17.451474, 1.59824
2022-11-29 20:57:17.459760, 1.58847
2022-11-29 20:57:17.471997, 1.58847
2022-11-29 20:57:17.480321, 1.57869
2022-11-29 20:57:17.488355, 1.57869
2022-11-29 20:57:17.496670, 1.56891
2022-11-29 20:57:17.508783, 1.56891
2022-11-29 20:57:17.517077, 1.57869
2022-11-29 20:57:17.525246, 1.55425
2022-11-29 20:57:17.537552, 1.54448
2022-11-29 20:57:17.545879, 1.52493
2022-11-29 20:57:17.554003, 1.52493
2022-11-29 20:57:17.562253, 1.48094
2022-11-29 20:57:17.574407, 1.47116
2022-11-29 20:57:17.582684, 1.46139
2022-11-29 20:57:17.590798, 1.46139
2022-11-29 20:57:17.603067, 1.46628
2022-11-29 20:57:17.611366, 1.46628
2022-11-29 20:57:17.619547, 1.48094
2022-11-29 20:57:17.627741, 1.47116
2022-11-29 20:57:17.639904, 1.48094
2022-11-29 20:57:17.648238, 1.44184
2022-11-29 20:57:17.656372, 1.42717
2022-11-29 20:57:17.664644, 1.40762
2022-11-29 20:57:17.676783, 1.40274
2022-11-29 20:57:17.685077, 1.43206
2022-11-29 20:57:17.693193, 1.43695
2022-11-29 20:57:17.705485, 1.46628
2022-11-29 20:57:17.713732, 1.48094
2022-11-29 20:57:17.721803, 1.47605
2022-11-29 20:57:17.730187, 1.45161
2022-11-29 20:57:17.742271, 1.38807
2022-11-29 20:57:17.750595, 1.32454
2022-11-29 20:57:17.758726, 1.27566
2022-11-29 20:57:17.771004, 1.24145
2022-11-29 20:57:17.779269, 1.23656
2022-11-29 20:57:17.787436, 1.29032
2022-11-29 20:57:17.795607, 1.28055
2022-11-29 20:57:17.807908, 1.29032
2022-11-29 20:57:17.816138, 1.27077
2022-11-29 20:57:17.824353, 1.20723
2022-11-29 20:57:17.836617, 1.12903
2022-11-29 20:57:17.844864, 1.02151
2022-11-29 20:57:17.852964, 0.94330
2022-11-29 20:57:17.861188, 0.90909
2022-11-29 20:57:17.873406, 0.91887
2022-11-29 20:57:17.881672, 1.00196
2022-11-29 20:57:17.889867, 1.12903
2022-11-29 20:57:17.902075, 1.27077
2022-11-29 20:57:17.910311, 1.41740
2022-11-29 20:57:17.918491, 1.52981
2022-11-29 20:57:17.926648, 1.62268
2022-11-29 20:57:17.938999, 1.71065
2022-11-29 20:57:17.947240, 1.76442
2022-11-29 20:57:17.955390, 1.83773
2022-11-29 20:57:17.967553, 1.87195
2022-11-29 20:57:17.975747, 1.90616
2022-11-29 20:57:17.983987, 1.95015
2022-11-29 20:57:17.992151, 1.98436
2022-11-29 20:57:18.004529, 2.02346
2022-11-29 20:57:18.012763, 2.04301
2022-11-29 20:57:18.020963, 2.04301
2022-11-29 20:57:18.033187, 2.00391
2022-11-29 20:57:18.041443, 1.95015
2022-11-29 20:57:18.049590, 1.88661
2022-11-29 20:57:18.057819, 1.78886
2022-11-29 20:57:18.070030, 1.70088
2022-11-29 20:57:18.078272, 1.61290
2022-11-29 20:57:18.086527, 1.52981
2022-11-29 20:57:18.098697, 1.43206
2022-11-29 20:57:18.106924, 1.34409
2022-11-29 20:57:18.115079, 1.27077
2022-11-29 20:57:18.123283, 1.25122
2022-11-29 20:57:18.135547, 1.27077
2022-11-29 20:57:18.143869, 1.30499
2022-11-29 20:57:18.151891, 1.30010
2022-11-29 20:57:18.164235, 1.31965
2022-11-29 20:57:18.172453, 1.29032
2022-11-29 20:57:18.180683, 1.26100
2022-11-29 20:57:18.188844, 1.22678
2022-11-29 20:57:18.201074, 1.18768
2022-11-29 20:57:18.209236, 1.14369
2022-11-29 20:57:18.217441, 1.11437
2022-11-29 20:57:18.229840, 1.10459
2022-11-29 20:57:18.237997, 1.12903
2022-11-29 20:57:18.246267, 1.18768
2022-11-29 20:57:18.254426, 1.30499
2022-11-29 20:57:18.266679, 1.37341
2022-11-29 20:57:18.274757, 1.45650
2022-11-29 20:57:18.283098, 1.47605
2022-11-29 20:57:18.295260, 1.48094
2022-11-29 20:57:18.303502, 1.47116
2022-11-29 20:57:18.311773, 1.49071
2022-11-29 20:57:18.319992, 1.48583
2022-11-29 20:57:18.332181, 1.54936
2022-11-29 20:57:18.340362, 1.63734
2022-11-29 20:57:18.348607, 1.73509
2022-11-29 20:57:18.360829, 1.80352
2022-11-29 20:57:18.369058, 1.84751
2022-11-29 20:57:18.377252, 1.86706
2022-11-29 20:57:18.385472, 1.89638
2022-11-29 20:57:18.397784, 1.94037
2022-11-29 20:57:18.405934, 2.01369
2022-11-29 20:57:18.414177, 2.07722
2022-11-29 20:57:18.426393, 2.16031
2022-11-29 20:57:18.434551, 2.18475
2022-11-29 20:57:18.442736, 2.18964
2022-11-29 20:57:18.450960, 2.17986
2022-11-29 20:57:18.463305, 2.13587
2022-11-29 20:57:18.471445, 2.11144
2022-11-29 20:57:18.479737, 2.06745
2022-11-29 20:57:18.487787, 2.06256
2022-11-29 20:57:18.500082, 2.08211
2022-11-29 20:57:18.508355, 2.12610
2022-11-29 20:57:18.516547, 2.16520
2022-11-29 20:57:18.528845, 2.19453
2022-11-29 20:57:18.537020, 2.20919
2022-11-29 20:57:18.545387, 2.19941
2022-11-29 20:57:18.553357, 2.18964
2022-11-29 20:57:18.565694, 2.16031
2022-11-29 20:57:18.573820, 2.13099
2022-11-29 20:57:18.582116, 2.10166
2022-11-29 20:57:18.594355, 2.07234
2022-11-29 20:57:18.602541, 2.06745
2022-11-29 20:57:18.610793, 2.06256
2022-11-29 20:57:18.619060, 2.08211
2022-11-29 20:57:18.631255, 2.10655
2022-11-29 20:57:18.639332, 2.11632
2022-11-29 20:57:18.647666, 2.11632
2022-11-29 20:57:18.659782, 2.12121
2022-11-29 20:57:18.668061, 2.06745
2022-11-29 20:57:18.676252, 2.01369
2022-11-29 20:57:18.684396, 1.96481
2022-11-29 20:57:18.696769, 1.91593
2022-11-29 20:57:18.704838, 1.89638
2022-11-29 20:57:18.713247, 1.87683
2022-11-29 20:57:18.725293, 1.89150
2022-11-29 20:57:18.733578, 1.88661
2022-11-29 20:57:18.741805, 1.92571
2022-11-29 20:57:18.750009, 1.92571
2022-11-29 20:57:18.762254, 1.96481
2022-11-29 20:57:18.770482, 1.95503
2022-11-29 20:57:18.778733, 1.95992
2022-11-29 20:57:18.790980, 1.95503
2022-11-29 20:57:18.799219, 1.95015
2022-11-29 20:57:18.807404, 1.91593
2022-11-29 20:57:18.815571, 1.89638
2022-11-29 20:57:18.827824, 1.87195
2022-11-29 20:57:18.835938, 1.85239
2022-11-29 20:57:18.844255, 1.79863
2022-11-29 20:57:18.856471, 1.73021
2022-11-29 20:57:18.864727, 1.61779
2022-11-29 20:57:18.872921, 1.50049
2022-11-29 20:57:18.881093, 1.36852
2022-11-29 20:57:18.893314, 1.24633
2022-11-29 20:57:18.901463, 1.13392
2022-11-29 20:57:18.909655, 1.07038
2022-11-29 20:57:18.921983, 0.98240
2022-11-29 20:57:18.930455, 0.94330
2022-11-29 20:57:18.938460, 0.92864
2022-11-29 20:57:18.946732, 0.92864
2022-11-29 20:57:18.958865, 0.96285
2022-11-29 20:57:18.967084, 0.97263
2022-11-29 20:57:18.975227, 1.00196
2022-11-29 20:57:18.987526, 1.02639
2022-11-29 20:57:18.995726, 1.04594
2022-11-29 20:57:19.003896, 1.09482
2022-11-29 20:57:19.012068, 1.08993
2022-11-29 20:57:19.024397, 1.10948
2022-11-29 20:57:19.032706, 1.12414
2022-11-29 20:57:19.040734, 1.13881
2022-11-29 20:57:19.053087, 1.15347
2022-11-29 20:57:19.064779, 1.16325
2022-11-29 20:57:19.069458, 1.18280
2022-11-29 20:57:19.077707, 1.19257
2022-11-29 20:57:19.089923, 1.20723
2022-11-29 20:57:19.098265, 1.22678
2022-11-29 20:57:19.106378, 1.24145
2022-11-29 20:57:19.118608, 1.26588
2022-11-29 20:57:19.126911, 1.31476
2022-11-29 20:57:19.135081, 1.32942
2022-11-29 20:57:19.143586, 1.37341
2022-11-29 20:57:19.155404, 1.41251
2022-11-29 20:57:19.163777, 1.45161
2022-11-29 20:57:19.171840, 1.52004
2022-11-29 20:57:19.184160, 1.52981
2022-11-29 20:57:19.192264, 1.55914
2022-11-29 20:57:19.200506, 1.57380
2022-11-29 20:57:19.208839, 1.57869
2022-11-29 20:57:19.221127, 1.60802
2022-11-29 20:57:19.229257, 1.59335
2022-11-29 20:57:19.237398, 1.61290
2022-11-29 20:57:19.249628, 1.61290
2022-11-29 20:57:19.257787, 1.62268
2022-11-29 20:57:19.266151, 1.63245
2022-11-29 20:57:19.274216, 1.64223
2022-11-29 20:57:19.286591, 1.66178
2022-11-29 20:57:19.294806, 1.67155
2022-11-29 20:57:19.302891, 1.69110
2022-11-29 20:57:19.311168, 1.70577
2022-11-29 20:57:19.323391, 1.71554
2022-11-29 20:57:19.331640, 1.72532
2022-11-29 20:57:19.339845, 1.72532
2022-11-29 20:57:19.352068, 1.73021
2022-11-29 20:57:19.360280, 1.74976
2022-11-29 20:57:19.368515, 1.73021
2022-11-29 20:57:19.376724, 1.73509
2022-11-29 20:57:19.389010, 1.73021
2022-11-29 20:57:19.397291, 1.73509
2022-11-29 20:57:19.405401, 1.74487
2022-11-29 20:57:19.421885, 1.75953
2022-11-29 20:57:19.425904, 1.77908
2022-11-29 20:57:19.434095, 1.77908
2022-11-29 20:57:19.442113, 1.79374
2022-11-29 20:57:19.454427, 1.79863
2022-11-29 20:57:19.470164, 1.82307
2022-11-29 20:57:19.470821, 1.80352
2022-11-29 20:57:19.483146, 1.80352
2022-11-29 20:57:19.491314, 1.80352
2022-11-29 20:57:19.499507, 1.80841
2022-11-29 20:57:19.507813, 1.80841
2022-11-29 20:57:19.519941, 1.81329
2022-11-29 20:57:19.528393, 1.80841
2022-11-29 20:57:19.536491, 1.81329
2022-11-29 20:57:19.548728, 1.82307
2022-11-29 20:57:19.556891, 1.81818
2022-11-29 20:57:19.565148, 1.82307
2022-11-29 20:57:19.573368, 1.81818
2022-11-29 20:57:19.585483, 1.82307
2022-11-29 20:57:19.593753, 1.81818
2022-11-29 20:57:19.601986, 1.82307
2022-11-29 20:57:19.614267, 1.81329
2022-11-29 20:57:19.627049, 1.82307
2022-11-29 20:57:19.630684, 1.81818
2022-11-29 20:57:19.638882, 1.81818
2022-11-29 20:57:19.651146, 1.82796
2022-11-29 20:57:19.659284, 1.81818
2022-11-29 20:57:19.667442, 1.82307
2022-11-29 20:57:19.679811, 1.83773
2022-11-29 20:57:19.688269, 1.82307
2022-11-29 20:57:19.696182, 1.82307
2022-11-29 20:57:19.704418, 1.84262
2022-11-29 20:57:19.716655, 1.82307
2022-11-29 20:57:19.725086, 1.82307
2022-11-29 20:57:19.733171, 1.82796
2022-11-29 20:57:19.745299, 1.82307
2022-11-29 20:57:19.753467, 1.82796
2022-11-29 20:57:19.765444, 1.82307
2022-11-29 20:57:19.769872, 1.82796
2022-11-29 20:57:19.782069, 1.83284
2022-11-29 20:57:19.790333, 1.82796
2022-11-29 20:57:19.798642, 1.85239
2022-11-29 20:57:19.810784, 1.82796
2022-11-29 20:57:19.819059, 1.83284
2022-11-29 20:57:19.827352, 1.85239
2022-11-29 20:57:19.835496, 1.83284
2022-11-29 20:57:19.847665, 1.82796
2022-11-29 20:57:19.855903, 1.82796
2022-11-29 20:57:19.864135, 1.82796
2022-11-29 20:57:19.876789, 1.82307
2022-11-29 20:57:19.884642, 1.82796
2022-11-29 20:57:19.892759, 1.82307
2022-11-29 20:57:19.900974, 1.84751
2022-11-29 20:57:19.913461, 1.83284
2022-11-29 20:57:19.921437, 1.84751
2022-11-29 20:57:19.929754, 1.86217
2022-11-29 20:57:19.941908, 1.87683
2022-11-29 20:57:19.950091, 1.91105
2022-11-29 20:57:19.958845, 1.91593
2022-11-29 20:57:19.966593, 1.94526
2022-11-29 20:57:19.978865, 1.95503
2022-11-29 20:57:19.986964, 1.97947
2022-11-29 20:57:19.995201, 1.98436
2022-11-29 20:57:20.007380, 2.00391
2022-11-29 20:57:20.015730, 1.99902
2022-11-29 20:57:20.023839, 2.01369
2022-11-29 20:57:20.032080, 1.99902
2022-11-29 20:57:20.044346, 1.99413
2022-11-29 20:57:20.052471, 1.99413
2022-11-29 20:57:20.060815, 1.98436
2022-11-29 20:57:20.072984, 1.98436
2022-11-29 20:57:20.081281, 1.97947
2022-11-29 20:57:20.089435, 1.97458
2022-11-29 20:57:20.097671, 1.97947
2022-11-29 20:57:20.109961, 1.96970
2022-11-29 20:57:20.118031, 1.96970
2022-11-29 20:57:20.126568, 1.96970
2022-11-29 20:57:20.138516, 1.96970
2022-11-29 20:57:20.147247, 1.95992
2022-11-29 20:57:20.154996, 1.96481
2022-11-29 20:57:20.163564, 1.95992
2022-11-29 20:57:20.175389, 1.97947
2022-11-29 20:57:20.183585, 1.95015
2022-11-29 20:57:20.191771, 1.94526
2022-11-29 20:57:20.200036, 1.95015
2022-11-29 20:57:20.212353, 1.94526
2022-11-29 20:57:20.220465, 1.95015
2022-11-29 20:57:20.229048, 1.95015
2022-11-29 20:57:20.240917, 1.95503
2022-11-29 20:57:20.249152, 1.95503
2022-11-29 20:57:20.257332, 1.94526
2022-11-29 20:57:20.265602, 1.95015
2022-11-29 20:57:20.277799, 1.94526
2022-11-29 20:57:20.286013, 1.94526
2022-11-29 20:57:20.294305, 1.94037
2022-11-29 20:57:20.306398, 1.94526
2022-11-29 20:57:20.314618, 1.94037
2022-11-29 20:57:20.322915, 1.94037
2022-11-29 20:57:20.331050, 1.93548
2022-11-29 20:57:20.343484, 1.93060
2022-11-29 20:57:20.351553, 1.93060
2022-11-29 20:57:20.359862, 1.92082
2022-11-29 20:57:20.371986, 1.94037
2022-11-29 20:57:20.380221, 1.90616
2022-11-29 20:57:20.388363, 1.90616
2022-11-29 20:57:20.396673, 1.90127
2022-11-29 20:57:20.408851, 1.89638
2022-11-29 20:57:20.417093, 1.89638
2022-11-29 20:57:20.425285, 1.89638
2022-11-29 20:57:20.437510, 1.89638
2022-11-29 20:57:20.445844, 1.89150
2022-11-29 20:57:20.453832, 1.89150
2022-11-29 20:57:20.462245, 1.88172
2022-11-29 20:57:20.474357, 1.88172
2022-11-29 20:57:20.482659, 1.87683
2022-11-29 20:57:20.490794, 1.87195
2022-11-29 20:57:20.503015, 1.87195
2022-11-29 20:57:20.511277, 1.87195
2022-11-29 20:57:20.519473, 1.86706
2022-11-29 20:57:20.527892, 1.86706
2022-11-29 20:57:20.539851, 1.86706
2022-11-29 20:57:20.548076, 1.86217
2022-11-29 20:57:20.556264, 1.86217
2022-11-29 20:57:20.568526, 1.86217
2022-11-29 20:57:20.576810, 1.86706
2022-11-29 20:57:20.584958, 1.85728
2022-11-29 20:57:20.593236, 1.85239
2022-11-29 20:57:20.605399, 1.85239
2022-11-29 20:57:20.613772, 1.85239
2022-11-29 20:57:20.621776, 1.85239
2022-11-29 20:57:20.634062, 1.84751
2022-11-29 20:57:20.642272, 1.84751
2022-11-29 20:57:20.650425, 1.85728
2022-11-29 20:57:20.658720, 1.85728
2022-11-29 20:57:20.670914, 1.85239
2022-11-29 20:57:20.679260, 1.85239
2022-11-29 20:57:20.687777, 1.87195
2022-11-29 20:57:20.699682, 1.88661
2022-11-29 20:57:20.707864, 1.90616
2022-11-29 20:57:20.716059, 1.93060
2022-11-29 20:57:20.724276, 1.95015
2022-11-29 20:57:20.736577, 1.97458
2022-11-29 20:57:20.744866, 1.98436
2022-11-29 20:57:20.752959, 2.02346
2022-11-29 20:57:20.765209, 2.00391
2022-11-29 20:57:20.773407, 2.00880
2022-11-29 20:57:20.781594, 2.01857
2022-11-29 20:57:20.789745, 1.99902
2022-11-29 20:57:20.802045, 1.99413
2022-11-29 20:57:20.810256, 1.98925
2022-11-29 20:57:20.818424, 1.97458
2022-11-29 20:57:20.830740, 1.96970
2022-11-29 20:57:20.838870, 1.96970
2022-11-29 20:57:20.847124, 1.95992
2022-11-29 20:57:20.855250, 1.95992
2022-11-29 20:57:20.867557, 1.95015
2022-11-29 20:57:20.875768, 1.95015
2022-11-29 20:57:20.883965, 1.94526
2022-11-29 20:57:20.896329, 1.94037
2022-11-29 20:57:20.904397, 1.94037
2022-11-29 20:57:20.912644, 1.93060
2022-11-29 20:57:20.920830, 1.92571
2022-11-29 20:57:20.933080, 1.92082
2022-11-29 20:57:20.941384, 1.91593
2022-11-29 20:57:20.949469, 1.91105
2022-11-29 20:57:20.961859, 1.91105
2022-11-29 20:57:20.970075, 1.91105
2022-11-29 20:57:20.978241, 1.90616
2022-11-29 20:57:20.986457, 1.91105
2022-11-29 20:57:20.998661, 1.91105
2022-11-29 20:57:21.006772, 1.91593
2022-11-29 20:57:21.015139, 1.91593
2022-11-29 20:57:21.023272, 1.92571
2022-11-29 20:57:21.035546, 1.91105
2022-11-29 20:57:21.043704, 1.90616
2022-11-29 20:57:21.051957, 1.91105
2022-11-29 20:57:21.064144, 1.90616
2022-11-29 20:57:21.072355, 1.91105
2022-11-29 20:57:21.080625, 1.90616
2022-11-29 20:57:21.088877, 1.90127
2022-11-29 20:57:21.101085, 1.90127
2022-11-29 20:57:21.109206, 1.89150
2022-11-29 20:57:21.117485, 1.89150
2022-11-29 20:57:21.129761, 1.88172
2022-11-29 20:57:21.137966, 1.88172
2022-11-29 20:57:21.146223, 1.87683
2022-11-29 20:57:21.154449, 1.87683
2022-11-29 20:57:21.166592, 1.87195
2022-11-29 20:57:21.174810, 1.86706
2022-11-29 20:57:21.182917, 1.86706
2022-11-29 20:57:21.195302, 1.87195
2022-11-29 20:57:21.203502, 1.87683
2022-11-29 20:57:21.211812, 1.85239
2022-11-29 20:57:21.219933, 1.85239
2022-11-29 20:57:21.232133, 1.84751
2022-11-29 20:57:21.240297, 1.84751
2022-11-29 20:57:21.248575, 1.84262
2022-11-29 20:57:21.260921, 1.84262
2022-11-29 20:57:21.269091, 1.84262
2022-11-29 20:57:21.277314, 1.83773
2022-11-29 20:57:21.285486, 1.85239
2022-11-29 20:57:21.297655, 1.83284
2022-11-29 20:57:21.305871, 1.83284
2022-11-29 20:57:21.314119, 1.82796
2022-11-29 20:57:21.326276, 1.82307
2022-11-29 20:57:21.334479, 1.82796
2022-11-29 20:57:21.342938, 1.82307
2022-11-29 20:57:21.351001, 1.83284
2022-11-29 20:57:21.363231, 1.84262
2022-11-29 20:57:21.371367, 1.81818
2022-11-29 20:57:21.379670, 1.81818
2022-11-29 20:57:21.391809, 1.81329
2022-11-29 20:57:21.400018, 1.81329
2022-11-29 20:57:21.408287, 1.81329
2022-11-29 20:57:21.416431, 1.81818
2022-11-29 20:57:21.428772, 1.80352
2022-11-29 20:57:21.436939, 1.80352
2022-11-29 20:57:21.445259, 1.80352
2022-11-29 20:57:21.457363, 1.80352
2022-11-29 20:57:21.465577, 1.80841
2022-11-29 20:57:21.473845, 1.81329
2022-11-29 20:57:21.482045, 1.83284
2022-11-29 20:57:21.494270, 1.84751
2022-11-29 20:57:21.502394, 1.87195
2022-11-29 20:57:21.510633, 1.89150
2022-11-29 20:57:21.522854, 1.91593
2022-11-29 20:57:21.531095, 1.93548
2022-11-29 20:57:21.539398, 1.94037
2022-11-29 20:57:21.547579, 1.95015
2022-11-29 20:57:21.559728, 1.95503
2022-11-29 20:57:21.568009, 1.95015
2022-11-29 20:57:21.576116, 1.94037
2022-11-29 20:57:21.588461, 1.94037
2022-11-29 20:57:21.596667, 1.92571
2022-11-29 20:57:21.604913, 1.92082
2022-11-29 20:57:21.613189, 1.92082
2022-11-29 20:57:21.625263, 1.90616
2022-11-29 20:57:21.633558, 1.90127
2022-11-29 20:57:21.641792, 1.90127
2022-11-29 20:57:21.653976, 1.89150
2022-11-29 20:57:21.662191, 1.88661
2022-11-29 20:57:21.670449, 1.90127
2022-11-29 20:57:21.678685, 1.88661
2022-11-29 20:57:21.690880, 1.89150
2022-11-29 20:57:21.699081, 1.87195
2022-11-29 20:57:21.707301, 1.86217
2022-11-29 20:57:21.719594, 1.86217
2022-11-29 20:57:21.727798, 1.85239
2022-11-29 20:57:21.736065, 1.85239
2022-11-29 20:57:21.744133, 1.84262
2022-11-29 20:57:21.756343, 1.84262
2022-11-29 20:57:21.764570, 1.84262
2022-11-29 20:57:21.772847, 1.83773
2022-11-29 20:57:21.785088, 1.83773
2022-11-29 20:57:21.793253, 1.83773
2022-11-29 20:57:21.801527, 1.84262
2022-11-29 20:57:21.809725, 1.83284
2022-11-29 20:57:21.821945, 1.83773
2022-11-29 20:57:21.830162, 1.83773
2022-11-29 20:57:21.838356, 1.83284
2022-11-29 20:57:21.846561, 1.83284
2022-11-29 20:57:21.858752, 1.82796
2022-11-29 20:57:21.866959, 1.82796
2022-11-29 20:57:21.875201, 1.82307
2022-11-29 20:57:21.887526, 1.81818
2022-11-29 20:57:21.895753, 1.80841
2022-11-29 20:57:21.903892, 1.80841
2022-11-29 20:57:21.912129, 1.80352
2022-11-29 20:57:21.924358, 1.79863
2022-11-29 20:57:21.932581, 1.79863
2022-11-29 20:57:21.940781, 1.79374
2022-11-29 20:57:21.953047, 1.80841
2022-11-29 20:57:21.961277, 1.78397
2022-11-29 20:57:21.969502, 1.78397
2022-11-29 20:57:21.977622, 1.77419
2022-11-29 20:57:21.989916, 1.77908
2022-11-29 20:57:21.998175, 1.77908
2022-11-29 20:57:22.006227, 1.76931
2022-11-29 20:57:22.018538, 1.76931
2022-11-29 20:57:22.026808, 1.76442
2022-11-29 20:57:22.034997, 1.76442
2022-11-29 20:57:22.043097, 1.76442
2022-11-29 20:57:22.055435, 1.77419
2022-11-29 20:57:22.063687, 1.76931
2022-11-29 20:57:22.071817, 1.78397
2022-11-29 20:57:22.084118, 1.75953
2022-11-29 20:57:22.092217, 1.75464
2022-11-29 20:57:22.100531, 1.75953
2022-11-29 20:57:22.108758, 1.74976
2022-11-29 20:57:22.121040, 1.75464
2022-11-29 20:57:22.129239, 1.75464
2022-11-29 20:57:22.137376, 1.75464
2022-11-29 20:57:22.149598, 1.75464
2022-11-29 20:57:22.157839, 1.74976
2022-11-29 20:57:22.166121, 1.74976
2022-11-29 20:57:22.174240, 1.74487
2022-11-29 20:57:22.186497, 1.74976
2022-11-29 20:57:22.194874, 1.74487
2022-11-29 20:57:22.202934, 1.74976
2022-11-29 20:57:22.215176, 1.74487
2022-11-29 20:57:22.223323, 1.73998
2022-11-29 20:57:22.231497, 1.73998
2022-11-29 20:57:22.239747, 1.73509
2022-11-29 20:57:22.252070, 1.74487
2022-11-29 20:57:22.260315, 1.73509
2022-11-29 20:57:22.268385, 1.74976
2022-11-29 20:57:22.280779, 1.75953
2022-11-29 20:57:22.288920, 1.77908
2022-11-29 20:57:22.297041, 1.79863
2022-11-29 20:57:22.305384, 1.81818
2022-11-29 20:57:22.317579, 1.84262
2022-11-29 20:57:22.325796, 1.85239
2022-11-29 20:57:22.333903, 1.86706
2022-11-29 20:57:22.346283, 1.87195
2022-11-29 20:57:22.354369, 1.87195
2022-11-29 20:57:22.362706, 1.87195
2022-11-29 20:57:22.370863, 1.86706
2022-11-29 20:57:22.383094, 1.85728
2022-11-29 20:57:22.391283, 1.84262
2022-11-29 20:57:22.399443, 1.86217
2022-11-29 20:57:22.411785, 1.82307
2022-11-29 20:57:22.420006, 1.82307
2022-11-29 20:57:22.428147, 1.83284
2022-11-29 20:57:22.436304, 1.80841
2022-11-29 20:57:22.448591, 1.79863
2022-11-29 20:57:22.456873, 1.79374
2022-11-29 20:57:22.465052, 1.79374
2022-11-29 20:57:22.477271, 1.78886
2022-11-29 20:57:22.485497, 1.78397
2022-11-29 20:57:22.493737, 1.77908
2022-11-29 20:57:22.501941, 1.77419
2022-11-29 20:57:22.514190, 1.76931
2022-11-29 20:57:22.522404, 1.78886
2022-11-29 20:57:22.530577, 1.77419
2022-11-29 20:57:22.542819, 1.75953
2022-11-29 20:57:22.551051, 1.76442
2022-11-29 20:57:22.559210, 1.76442
2022-11-29 20:57:22.567401, 1.76931
2022-11-29 20:57:22.579757, 1.76931
2022-11-29 20:57:22.587922, 1.77419
2022-11-29 20:57:22.596168, 1.77419
2022-11-29 20:57:22.608345, 1.76931
2022-11-29 20:57:22.616528, 1.77908
2022-11-29 20:57:22.624837, 1.76931
2022-11-29 20:57:22.633015, 1.78886
2022-11-29 20:57:22.645249, 1.76442
2022-11-29 20:57:22.653423, 1.76931
2022-11-29 20:57:22.661613, 1.76442
2022-11-29 20:57:22.669872, 1.76442
2022-11-29 20:57:22.682137, 1.75953
2022-11-29 20:57:22.690294, 1.75464
2022-11-29 20:57:22.698580, 1.74976
2022-11-29 20:57:22.710690, 1.74976
2022-11-29 20:57:22.718995, 1.75464
2022-11-29 20:57:22.727207, 1.75953
2022-11-29 20:57:22.735451, 1.73998
2022-11-29 20:57:22.747674, 1.73509
2022-11-29 20:57:22.755828, 1.73021
2022-11-29 20:57:22.764176, 1.73021
2022-11-29 20:57:22.776312, 1.72532
2022-11-29 20:57:22.784598, 1.73021
2022-11-29 20:57:22.792818, 1.72043
2022-11-29 20:57:22.801048, 1.72532
2022-11-29 20:57:22.813223, 1.72043
2022-11-29 20:57:22.821374, 1.72043
2022-11-29 20:57:22.829656, 1.72532
2022-11-29 20:57:22.841773, 1.71554
2022-11-29 20:57:22.850044, 1.71554
2022-11-29 20:57:22.858316, 1.71554
2022-11-29 20:57:22.866423, 1.72043
2022-11-29 20:57:22.878752, 1.71554
2022-11-29 20:57:22.886909, 1.73509
2022-11-29 20:57:22.895224, 1.71065
2022-11-29 20:57:22.907356, 1.71065
2022-11-29 20:57:22.915557, 1.71554
2022-11-29 20:57:22.923839, 1.71065
2022-11-29 20:57:22.932037, 1.71065
2022-11-29 20:57:22.944271, 1.71065
2022-11-29 20:57:22.952373, 1.70577
2022-11-29 20:57:22.960762, 1.70577
2022-11-29 20:57:22.972853, 1.70577
2022-11-29 20:57:22.981151, 1.70088
2022-11-29 20:57:22.989341, 1.70088
2022-11-29 20:57:22.997573, 1.70088
2022-11-29 20:57:23.009748, 1.69599
2022-11-29 20:57:23.018021, 1.70577
2022-11-29 20:57:23.026142, 1.70088
2022-11-29 20:57:23.038481, 1.70088
2022-11-29 20:57:23.046686, 1.70577
2022-11-29 20:57:23.054880, 1.71554
2022-11-29 20:57:23.063102, 1.73509
2022-11-29 20:57:23.075228, 1.75464
2022-11-29 20:57:23.083449, 1.77908
2022-11-29 20:57:23.091767, 1.79863
2022-11-29 20:57:23.103915, 1.80841
2022-11-29 20:57:23.112215, 1.81818
2022-11-29 20:57:23.120467, 1.83284
2022-11-29 20:57:23.128630, 1.82796
2022-11-29 20:57:23.140873, 1.82307
2022-11-29 20:57:23.149072, 1.81818
2022-11-29 20:57:23.157268, 1.80841
2022-11-29 20:57:23.169552, 1.80352
2022-11-29 20:57:23.177765, 1.79374
2022-11-29 20:57:23.186002, 1.78397
2022-11-29 20:57:23.194050, 1.77419
2022-11-29 20:57:23.206476, 1.77419
2022-11-29 20:57:23.214611, 1.76442
2022-11-29 20:57:23.222820, 1.75953
2022-11-29 20:57:23.235080, 1.75464
2022-11-29 20:57:23.243203, 1.74976
2022-11-29 20:57:23.251462, 1.74976
2022-11-29 20:57:23.259573, 1.73998
2022-11-29 20:57:23.271941, 1.74487
2022-11-29 20:57:23.280149, 1.73998
2022-11-29 20:57:23.288294, 1.73509
2022-11-29 20:57:23.300621, 1.73021
2022-11-29 20:57:23.308761, 1.73021
2022-11-29 20:57:23.317006, 1.74487
2022-11-29 20:57:23.325117, 1.72532
2022-11-29 20:57:23.337474, 1.73021
2022-11-29 20:57:23.345716, 1.72532
2022-11-29 20:57:23.353854, 1.73021
2022-11-29 20:57:23.366140, 1.73021
2022-11-29 20:57:23.374322, 1.73021
2022-11-29 20:57:23.382470, 1.73998
2022-11-29 20:57:23.390797, 1.75464
2022-11-29 20:57:23.402986, 1.73509
2022-11-29 20:57:23.411291, 1.73021
2022-11-29 20:57:23.419521, 1.73509
2022-11-29 20:57:23.431774, 1.72532
2022-11-29 20:57:23.439846, 1.73021
2022-11-29 20:57:23.448079, 1.72532
2022-11-29 20:57:23.456254, 1.72043
2022-11-29 20:57:23.468554, 1.72043
2022-11-29 20:57:23.476750, 1.71554
2022-11-29 20:57:23.484983, 1.71065
2022-11-29 20:57:23.497195, 1.71065
2022-11-29 20:57:23.505374, 1.71065
2022-11-29 20:57:23.513630, 1.70088
2022-11-29 20:57:23.521691, 1.69599
2022-11-29 20:57:23.534014, 1.69599
2022-11-29 20:57:23.542258, 1.69110
2022-11-29 20:57:23.550533, 1.69110
2022-11-29 20:57:23.558588, 1.68622
2022-11-29 20:57:23.570946, 1.69110
2022-11-29 20:57:23.579159, 1.69110
2022-11-29 20:57:23.587384, 1.68622
2022-11-29 20:57:23.599603, 1.70577
2022-11-29 20:57:23.607835, 1.68133
2022-11-29 20:57:23.616039, 1.68133
2022-11-29 20:57:23.624246, 1.67644
2022-11-29 20:57:23.636526, 1.68133
2022-11-29 20:57:23.644768, 1.67644
2022-11-29 20:57:23.652945, 1.69599
2022-11-29 20:57:23.665203, 1.67644
2022-11-29 20:57:23.673423, 1.67644
2022-11-29 20:57:23.681524, 1.67644
2022-11-29 20:57:23.689796, 1.67644
2022-11-29 20:57:23.702047, 1.68133
2022-11-29 20:57:23.710256, 1.67644
2022-11-29 20:57:23.718467, 1.68133
2022-11-29 20:57:23.730802, 1.69110
2022-11-29 20:57:23.738819, 1.68622
2022-11-29 20:57:23.747167, 1.69110
2022-11-29 20:57:23.755330, 1.66667
2022-11-29 20:57:23.767533, 1.67155
2022-11-29 20:57:23.775640, 1.66667
2022-11-29 20:57:23.783903, 1.66667
2022-11-29 20:57:23.796242, 1.66178
2022-11-29 20:57:23.804319, 1.66178
2022-11-29 20:57:23.812643, 1.66178
2022-11-29 20:57:23.820717, 1.65689
2022-11-29 20:57:23.833068, 1.65689
2022-11-29 20:57:23.841403, 1.65200
2022-11-29 20:57:23.849399, 1.65689
2022-11-29 20:57:23.861794, 1.66667
2022-11-29 20:57:23.869887, 1.66667
2022-11-29 20:57:23.878156, 1.67155
2022-11-29 20:57:23.886382, 1.67644
2022-11-29 20:57:23.898642, 1.69110
2022-11-29 20:57:23.906818, 1.70577
2022-11-29 20:57:23.915060, 1.73021
2022-11-29 20:57:23.927366, 1.74487
2022-11-29 20:57:23.935485, 1.76442
2022-11-29 20:57:23.943736, 1.77419
2022-11-29 20:57:23.951909, 1.78886
2022-11-29 20:57:23.964181, 1.78886
2022-11-29 20:57:23.972392, 1.78886
2022-11-29 20:57:23.980558, 1.78397
2022-11-29 20:57:23.992759, 1.77419
2022-11-29 20:57:24.001047, 1.76442
2022-11-29 20:57:24.009222, 1.75464
2022-11-29 20:57:24.017349, 1.74487
2022-11-29 20:57:24.029766, 1.75953
2022-11-29 20:57:24.037931, 1.73021
2022-11-29 20:57:24.046109, 1.72043
2022-11-29 20:57:24.058280, 1.73021
2022-11-29 20:57:24.066493, 1.71065
2022-11-29 20:57:24.074752, 1.70577
2022-11-29 20:57:24.082900, 1.70577
2022-11-29 20:57:24.095229, 1.70088
2022-11-29 20:57:24.103405, 1.70088
2022-11-29 20:57:24.111821, 1.69599
2022-11-29 20:57:24.123856, 1.69599
2022-11-29 20:57:24.132118, 1.68622
2022-11-29 20:57:24.140286, 1.68133
2022-11-29 20:57:24.148454, 1.68622
2022-11-29 20:57:24.160693, 1.67644
2022-11-29 20:57:24.168951, 1.68133
2022-11-29 20:57:24.177159, 1.68622
2022-11-29 20:57:24.189430, 1.68622
2022-11-29 20:57:24.197658, 1.70577
2022-11-29 20:57:24.205803, 1.69110
2022-11-29 20:57:24.214059, 1.69110
2022-11-29 20:57:24.226296, 1.69110
2022-11-29 20:57:24.234546, 1.69599
2022-11-29 20:57:24.242778, 1.69110
2022-11-29 20:57:24.254936, 1.69599
2022-11-29 20:57:24.263140, 1.69599
2022-11-29 20:57:24.271383, 1.69599
2022-11-29 20:57:24.279626, 1.71554
2022-11-29 20:57:24.291737, 1.68133
2022-11-29 20:57:24.300060, 1.71065
2022-11-29 20:57:24.308249, 1.67644
2022-11-29 20:57:24.320481, 1.67644
2022-11-29 20:57:24.328733, 1.67155
2022-11-29 20:57:24.336815, 1.67155
2022-11-29 20:57:24.345172, 1.67155
2022-11-29 20:57:24.357358, 1.66667
2022-11-29 20:57:24.365606, 1.66667
2022-11-29 20:57:24.373754, 1.66178
2022-11-29 20:57:24.381962, 1.66667
2022-11-29 20:57:24.394248, 1.68622
2022-11-29 20:57:24.402437, 1.66178
2022-11-29 20:57:24.410676, 1.65689
2022-11-29 20:57:24.422909, 1.65689
2022-11-29 20:57:24.431142, 1.65689
2022-11-29 20:57:24.439318, 1.65200
2022-11-29 20:57:24.447540, 1.65200
2022-11-29 20:57:24.459721, 1.65200
2022-11-29 20:57:24.468021, 1.67644
2022-11-29 20:57:24.476219, 1.64712
2022-11-29 20:57:24.488354, 1.65200
2022-11-29 20:57:24.496645, 1.65200
2022-11-29 20:57:24.504837, 1.65200
2022-11-29 20:57:24.513075, 1.65689
2022-11-29 20:57:24.525218, 1.67644
2022-11-29 20:57:24.533498, 1.65200
2022-11-29 20:57:24.541758, 1.65200
2022-11-29 20:57:24.553969, 1.65200
2022-11-29 20:57:24.562225, 1.64712
2022-11-29 20:57:24.570396, 1.64712
2022-11-29 20:57:24.578591, 1.65200
2022-11-29 20:57:24.590824, 1.65200
2022-11-29 20:57:24.598961, 1.65689
2022-11-29 20:57:24.607255, 1.66667
2022-11-29 20:57:24.619495, 1.67155
2022-11-29 20:57:24.627769, 1.67155
2022-11-29 20:57:24.635909, 1.65200
2022-11-29 20:57:24.644085, 1.64712
2022-11-29 20:57:24.656335, 1.64712
2022-11-29 20:57:24.664661, 1.64712
2022-11-29 20:57:24.672784, 1.64223
2022-11-29 20:57:24.685086, 1.64712
2022-11-29 20:57:24.693187, 1.64223
2022-11-29 20:57:24.701476, 1.64712
2022-11-29 20:57:24.709543, 1.64223
2022-11-29 20:57:24.721949, 1.65200
2022-11-29 20:57:24.730126, 1.66178
2022-11-29 20:57:24.738326, 1.67155
2022-11-29 20:57:24.750503, 1.70088
2022-11-29 20:57:24.758747, 1.71065
2022-11-29 20:57:24.767055, 1.73509
2022-11-29 20:57:24.775190, 1.77419
2022-11-29 20:57:24.787395, 1.76442
2022-11-29 20:57:24.795646, 1.76931
2022-11-29 20:57:24.803860, 1.79863
2022-11-29 20:57:24.816034, 1.77908
2022-11-29 20:57:24.824308, 1.77419
2022-11-29 20:57:24.832530, 1.76442
2022-11-29 20:57:24.840768, 1.75464
2022-11-29 20:57:24.852964, 1.74976
2022-11-29 20:57:24.861114, 1.73509
2022-11-29 20:57:24.869300, 1.75953
2022-11-29 20:57:24.881569, 1.72043
2022-11-29 20:57:24.889889, 1.71554
2022-11-29 20:57:24.898063, 1.71065
2022-11-29 20:57:24.906247, 1.70088
2022-11-29 20:57:24.918533, 1.70577
2022-11-29 20:57:24.926732, 1.69599
2022-11-29 20:57:24.934937, 1.69599
2022-11-29 20:57:24.947221, 1.68622
2022-11-29 20:57:24.955291, 1.68622
2022-11-29 20:57:24.963629, 1.68133
2022-11-29 20:57:24.971797, 1.67644
2022-11-29 20:57:24.983980, 1.68133
2022-11-29 20:57:24.992151, 1.67644
2022-11-29 20:57:25.000386, 1.68133
2022-11-29 20:57:25.012776, 1.67644
2022-11-29 20:57:25.020827, 1.68622
2022-11-29 20:57:25.029170, 1.68622
2022-11-29 20:57:25.037372, 1.68622
2022-11-29 20:57:25.049579, 1.69599
2022-11-29 20:57:25.057763, 1.71065
2022-11-29 20:57:25.065933, 1.69599
2022-11-29 20:57:25.078204, 1.69110
2022-11-29 20:57:25.086386, 1.69599
2022-11-29 20:57:25.094784, 1.69599
2022-11-29 20:57:25.102892, 1.69599
2022-11-29 20:57:25.115123, 1.69599
2022-11-29 20:57:25.123331, 1.69110
2022-11-29 20:57:25.131529, 1.69110
2022-11-29 20:57:25.143742, 1.68622
2022-11-29 20:57:25.152008, 1.68622
2022-11-29 20:57:25.160210, 1.68133
2022-11-29 20:57:25.168318, 1.68133
2022-11-29 20:57:25.180628, 1.67644
2022-11-29 20:57:25.188853, 1.67644
2022-11-29 20:57:25.197079, 1.68622
2022-11-29 20:57:25.205239, 1.68133
2022-11-29 20:57:25.217470, 1.67155
2022-11-29 20:57:25.225671, 1.66667
2022-11-29 20:57:25.233933, 1.66667
2022-11-29 20:57:25.246171, 1.66178
2022-11-29 20:57:25.254367, 1.66178
2022-11-29 20:57:25.262724, 1.66178
2022-11-29 20:57:25.270703, 1.66178
2022-11-29 20:57:25.282993, 1.66178
2022-11-29 20:57:25.291269, 1.66178
2022-11-29 20:57:25.299479, 1.66178
2022-11-29 20:57:25.311755, 1.65689
2022-11-29 20:57:25.319946, 1.66178
2022-11-29 20:57:25.328232, 1.66178
2022-11-29 20:57:25.336356, 1.66178
2022-11-29 20:57:25.348629, 1.66178
2022-11-29 20:57:25.356761, 1.67155
2022-11-29 20:57:25.364943, 1.67644
2022-11-29 20:57:25.377245, 1.67644
2022-11-29 20:57:25.385509, 1.66178
2022-11-29 20:57:25.393678, 1.65689
2022-11-29 20:57:25.401956, 1.66178
2022-11-29 20:57:25.414116, 1.66178
2022-11-29 20:57:25.422298, 1.65689
2022-11-29 20:57:25.430620, 1.66178
2022-11-29 20:57:25.442715, 1.65200
2022-11-29 20:57:25.450925, 1.65689
2022-11-29 20:57:25.459222, 1.65689
2022-11-29 20:57:25.467433, 1.68133
2022-11-29 20:57:25.479714, 1.65200
2022-11-29 20:57:25.487854, 1.65200
2022-11-29 20:57:25.496017, 1.65200
2022-11-29 20:57:25.508305, 1.64712
2022-11-29 20:57:25.516503, 1.65200
2022-11-29 20:57:25.524751, 1.65200
2022-11-29 20:57:25.532971, 1.65200
2022-11-29 20:57:25.545285, 1.65689
2022-11-29 20:57:25.553380, 1.67155
2022-11-29 20:57:25.561552, 1.70577
2022-11-29 20:57:25.573825, 1.72532
2022-11-29 20:57:25.581990, 1.73021
2022-11-29 20:57:25.590305, 1.73509
2022-11-29 20:57:25.598580, 1.76931
2022-11-29 20:57:25.610732, 1.76442
2022-11-29 20:57:25.618908, 1.77419
2022-11-29 20:57:25.627135, 1.77419
2022-11-29 20:57:25.639309, 1.77908
2022-11-29 20:57:25.647535, 1.77419
2022-11-29 20:57:25.655942, 1.79374
2022-11-29 20:57:25.664105, 1.75953
2022-11-29 20:57:25.676279, 1.74487
2022-11-29 20:57:25.684577, 1.73998
2022-11-29 20:57:25.692769, 1.73021
2022-11-29 20:57:25.704906, 1.72043
2022-11-29 20:57:25.713356, 1.71065
2022-11-29 20:57:25.721381, 1.73021
2022-11-29 20:57:25.729599, 1.70577
2022-11-29 20:57:25.741783, 1.70088
2022-11-29 20:57:25.750000, 1.71065
2022-11-29 20:57:25.758197, 1.71065
2022-11-29 20:57:25.770441, 1.71554
2022-11-29 20:57:25.778682, 1.68133
2022-11-29 20:57:25.786950, 1.68133
2022-11-29 20:57:25.795111, 1.68133
2022-11-29 20:57:25.807325, 1.67644
2022-11-29 20:57:25.815537, 1.67644
2022-11-29 20:57:25.823745, 1.67644
2022-11-29 20:57:25.836024, 1.68133
2022-11-29 20:57:25.844196, 1.68133
2022-11-29 20:57:25.852430, 1.68133
2022-11-29 20:57:25.860532, 1.68622
2022-11-29 20:57:25.872909, 1.68622
2022-11-29 20:57:25.881122, 1.69599
2022-11-29 20:57:25.889237, 1.69110
2022-11-29 20:57:25.901484, 1.68622
2022-11-29 20:57:25.909717, 1.68622
2022-11-29 20:57:25.917926, 1.68622
2022-11-29 20:57:25.926229, 1.68133
2022-11-29 20:57:25.938451, 1.68622
2022-11-29 20:57:25.946693, 1.68133
2022-11-29 20:57:25.954809, 1.67644
2022-11-29 20:57:25.967084, 1.67644
2022-11-29 20:57:25.976104, 1.66667
2022-11-29 20:57:25.983430, 1.67155
2022-11-29 20:57:25.991758, 1.67155
2022-11-29 20:57:26.009871, 1.67155
2022-11-29 20:57:26.012220, 1.66667
2022-11-29 20:57:26.020324, 1.66667
2022-11-29 20:57:26.028781, 1.65689
2022-11-29 20:57:26.040892, 1.65689
2022-11-29 20:57:26.049073, 1.65689
2022-11-29 20:57:26.057199, 1.65200
2022-11-29 20:57:26.069507, 1.65200
2022-11-29 20:57:26.077751, 1.64712
2022-11-29 20:57:26.085813, 1.65200
2022-11-29 20:57:26.094045, 1.64712
2022-11-29 20:57:26.106339, 1.64712
2022-11-29 20:57:26.114535, 1.66178
2022-11-29 20:57:26.122673, 1.64223
2022-11-29 20:57:26.134978, 1.64712
2022-11-29 20:57:26.143156, 1.64712
2022-11-29 20:57:26.151383, 1.64712
2022-11-29 20:57:26.159685, 1.64223
2022-11-29 20:57:26.171812, 1.64712
2022-11-29 20:57:26.180110, 1.65200
2022-11-29 20:57:26.188317, 1.64223
2022-11-29 20:57:26.200548, 1.64223
2022-11-29 20:57:26.208672, 1.64223
2022-11-29 20:57:26.217008, 1.64223
2022-11-29 20:57:26.225183, 1.64223
2022-11-29 20:57:26.237380, 1.64223
2022-11-29 20:57:26.245705, 1.65200
2022-11-29 20:57:26.253907, 1.63734
2022-11-29 20:57:26.266108, 1.63734
2022-11-29 20:57:26.274274, 1.63734
2022-11-29 20:57:26.282566, 1.63734
2022-11-29 20:57:26.290723, 1.63245
2022-11-29 20:57:26.302966, 1.63245
2022-11-29 20:57:26.311196, 1.63245
2022-11-29 20:57:26.319416, 1.63245
2022-11-29 20:57:26.331615, 1.63245
2022-11-29 20:57:26.339824, 1.63245
2022-11-29 20:57:26.348076, 1.63245
2022-11-29 20:57:26.356223, 1.64223
2022-11-29 20:57:26.368430, 1.62757
2022-11-29 20:57:26.376827, 1.62268
2022-11-29 20:57:26.384935, 1.62757
2022-11-29 20:57:26.397233, 1.62757
2022-11-29 20:57:26.405369, 1.62757
2022-11-29 20:57:26.413681, 1.63245
2022-11-29 20:57:26.421766, 1.64712
2022-11-29 20:57:26.434015, 1.67644
2022-11-29 20:57:26.442213, 1.70088
2022-11-29 20:57:26.450445, 1.71065
2022-11-29 20:57:26.462943, 1.72043
2022-11-29 20:57:26.470957, 1.75464
2022-11-29 20:57:26.479200, 1.74976
2022-11-29 20:57:26.487371, 1.75464
2022-11-29 20:57:26.499595, 1.75464
2022-11-29 20:57:26.507753, 1.75953
2022-11-29 20:57:26.516018, 1.74976
2022-11-29 20:57:26.528384, 1.73509
2022-11-29 20:57:26.536426, 1.72532
2022-11-29 20:57:26.544675, 1.71554
2022-11-29 20:57:26.552882, 1.71065
2022-11-29 20:57:26.565069, 1.70088
2022-11-29 20:57:26.573292, 1.69110
2022-11-29 20:57:26.581495, 1.68622
2022-11-29 20:57:26.594015, 1.67644
2022-11-29 20:57:26.601985, 1.67155
2022-11-29 20:57:26.610180, 1.67155
2022-11-29 20:57:26.618378, 1.67155
2022-11-29 20:57:26.630641, 1.68133
2022-11-29 20:57:26.638768, 1.66178
2022-11-29 20:57:26.647084, 1.65689
2022-11-29 20:57:26.659419, 1.65200
2022-11-29 20:57:26.667553, 1.65200
2022-11-29 20:57:26.675892, 1.64712
2022-11-29 20:57:26.684180, 1.65200
2022-11-29 20:57:26.696263, 1.65200
2022-11-29 20:57:26.704383, 1.65200
2022-11-29 20:57:26.712740, 1.65689
2022-11-29 20:57:26.724755, 1.67155
2022-11-29 20:57:26.732997, 1.68622
2022-11-29 20:57:26.741384, 1.65689
2022-11-29 20:57:26.749403, 1.65689
2022-11-29 20:57:26.761937, 1.65689
2022-11-29 20:57:26.769911, 1.66178
2022-11-29 20:57:26.778082, 1.66178
2022-11-29 20:57:26.790341, 1.67644
2022-11-29 20:57:26.798655, 1.66667
2022-11-29 20:57:26.806821, 1.67644
2022-11-29 20:57:26.815048, 1.67644
2022-11-29 20:57:26.827285, 1.65689
2022-11-29 20:57:26.835458, 1.65200
2022-11-29 20:57:26.843807, 1.64712
2022-11-29 20:57:26.855876, 1.64712
2022-11-29 20:57:26.864099, 1.64223
2022-11-29 20:57:26.872333, 1.63734
2022-11-29 20:57:26.880615, 1.64223
2022-11-29 20:57:26.892877, 1.63734
2022-11-29 20:57:26.901057, 1.64712
2022-11-29 20:57:26.909248, 1.63245
2022-11-29 20:57:26.917381, 1.63245
2022-11-29 20:57:26.929739, 1.62757
2022-11-29 20:57:26.937770, 1.62757
2022-11-29 20:57:26.946165, 1.62757
2022-11-29 20:57:26.958299, 1.62268
2022-11-29 20:57:26.966546, 1.63734
2022-11-29 20:57:26.974832, 1.64712
2022-11-29 20:57:26.982977, 1.62757
2022-11-29 20:57:26.995293, 1.62268
2022-11-29 20:57:27.003375, 1.62757
2022-11-29 20:57:27.011604, 1.62268
2022-11-29 20:57:27.023850, 1.62268
2022-11-29 20:57:27.032124, 1.62757
2022-11-29 20:57:27.040243, 1.62757
2022-11-29 20:57:27.048483, 1.63734
2022-11-29 20:57:27.060972, 1.62268
2022-11-29 20:57:27.068845, 1.63245
2022-11-29 20:57:27.077234, 1.62268
2022-11-29 20:57:27.089400, 1.62757
2022-11-29 20:57:27.097638, 1.62757
2022-11-29 20:57:27.105777, 1.62268
2022-11-29 20:57:27.114127, 1.62757
2022-11-29 20:57:27.126289, 1.63734
2022-11-29 20:57:27.134439, 1.64712
2022-11-29 20:57:27.142782, 1.62268
2022-11-29 20:57:27.154937, 1.62268
2022-11-29 20:57:27.163140, 1.62268
2022-11-29 20:57:27.171350, 1.62268
2022-11-29 20:57:27.179611, 1.62268
2022-11-29 20:57:27.191742, 1.61779
2022-11-29 20:57:27.200039, 1.61779
2022-11-29 20:57:27.208198, 1.61779
2022-11-29 20:57:27.220429, 1.62268
2022-11-29 20:57:27.228819, 1.62268
2022-11-29 20:57:27.236860, 1.62268
2022-11-29 20:57:27.245074, 1.62268
2022-11-29 20:57:27.257293, 1.62268
2022-11-29 20:57:27.265552, 1.62757
2022-11-29 20:57:27.273758, 1.64712
2022-11-29 20:57:27.285983, 1.66667
2022-11-29 20:57:27.294285, 1.65200
2022-11-29 20:57:27.302383, 1.67644
2022-11-29 20:57:27.310746, 1.69599
2022-11-29 20:57:27.322819, 1.73021
2022-11-29 20:57:27.331217, 1.73509
2022-11-29 20:57:27.339278, 1.73998
2022-11-29 20:57:27.351562, 1.77419
2022-11-29 20:57:27.359776, 1.74487
2022-11-29 20:57:27.367935, 1.74487
2022-11-29 20:57:27.376263, 1.73509
2022-11-29 20:57:27.388341, 1.75953
2022-11-29 20:57:27.396716, 1.72532
2022-11-29 20:57:27.404882, 1.71554
2022-11-29 20:57:27.417084, 1.71065
2022-11-29 20:57:27.425290, 1.69599
2022-11-29 20:57:27.433538, 1.69110
2022-11-29 20:57:27.441781, 1.68622
2022-11-29 20:57:27.453893, 1.68133
2022-11-29 20:57:27.462153, 1.69110
2022-11-29 20:57:27.470264, 1.67155
2022-11-29 20:57:27.482585, 1.67155
2022-11-29 20:57:27.490819, 1.66667
2022-11-29 20:57:27.499066, 1.66667
2022-11-29 20:57:27.507200, 1.66667
2022-11-29 20:57:27.519461, 1.67155
2022-11-29 20:57:27.527842, 1.67155
2022-11-29 20:57:27.535887, 1.67644
2022-11-29 20:57:27.548153, 1.65689
2022-11-29 20:57:27.556273, 1.65200
2022-11-29 20:57:27.564552, 1.66178
2022-11-29 20:57:27.572817, 1.66178
2022-11-29 20:57:27.584996, 1.66667
2022-11-29 20:57:27.593246, 1.66667
2022-11-29 20:57:27.601420, 1.67644
2022-11-29 20:57:27.613760, 1.67644
2022-11-29 20:57:27.621926, 1.67644
2022-11-29 20:57:27.630124, 1.67644
2022-11-29 20:57:27.638269, 1.67644
2022-11-29 20:57:27.650520, 1.67644
2022-11-29 20:57:27.658717, 1.67155
2022-11-29 20:57:27.666935, 1.67644
2022-11-29 20:57:27.679251, 1.69110
2022-11-29 20:57:27.687408, 1.69110
2022-11-29 20:57:27.695803, 1.67644
2022-11-29 20:57:27.703823, 1.66178
2022-11-29 20:57:27.716101, 1.66178
2022-11-29 20:57:27.724292, 1.66178
2022-11-29 20:57:27.732563, 1.65689
2022-11-29 20:57:27.740759, 1.65200
2022-11-29 20:57:27.752968, 1.65200
2022-11-29 20:57:27.761204, 1.64712
2022-11-29 20:57:27.769429, 1.65200
2022-11-29 20:57:27.781586, 1.64712
2022-11-29 20:57:27.789845, 1.64223
2022-11-29 20:57:27.798100, 1.64712
2022-11-29 20:57:27.806238, 1.64223
2022-11-29 20:57:27.818472, 1.64712
2022-11-29 20:57:27.826788, 1.65689
2022-11-29 20:57:27.834866, 1.64712
2022-11-29 20:57:27.847175, 1.64712
2022-11-29 20:57:27.855351, 1.64223
2022-11-29 20:57:27.863625, 1.64712
2022-11-29 20:57:27.871753, 1.64223
2022-11-29 20:57:27.884007, 1.64223
2022-11-29 20:57:27.892225, 1.64223
2022-11-29 20:57:27.900444, 1.64223
2022-11-29 20:57:27.912653, 1.64223
2022-11-29 20:57:27.920925, 1.64712
2022-11-29 20:57:27.929170, 1.64223
2022-11-29 20:57:27.937329, 1.64223
2022-11-29 20:57:27.949542, 1.64712
2022-11-29 20:57:27.957785, 1.65200
2022-11-29 20:57:27.966033, 1.65689
2022-11-29 20:57:27.978257, 1.65200
2022-11-29 20:57:27.986422, 1.63734
2022-11-29 20:57:27.994658, 1.63734
2022-11-29 20:57:28.002848, 1.63734
2022-11-29 20:57:28.015041, 1.63734
2022-11-29 20:57:28.023260, 1.63245
2022-11-29 20:57:28.031472, 1.63734
2022-11-29 20:57:28.043705, 1.63245
2022-11-29 20:57:28.051990, 1.63734
2022-11-29 20:57:28.060202, 1.63734
2022-11-29 20:57:28.068451, 1.63734
2022-11-29 20:57:28.080747, 1.63734
2022-11-29 20:57:28.088758, 1.64712
2022-11-29 20:57:28.097134, 1.66178
2022-11-29 20:57:28.109293, 1.67155
2022-11-29 20:57:28.117508, 1.69599
2022-11-29 20:57:28.125798, 1.73021
2022-11-29 20:57:28.133943, 1.73021
2022-11-29 20:57:28.146234, 1.74487
2022-11-29 20:57:28.154333, 1.77419
2022-11-29 20:57:28.162643, 1.75953
2022-11-29 20:57:28.174786, 1.75953
2022-11-29 20:57:28.182979, 1.75464
2022-11-29 20:57:28.191215, 1.74976
2022-11-29 20:57:28.199362, 1.73998
2022-11-29 20:57:28.211691, 1.73021
2022-11-29 20:57:28.219895, 1.72532
2022-11-29 20:57:28.228463, 1.72043
2022-11-29 20:57:28.240318, 1.70577
2022-11-29 20:57:28.248564, 1.70088
2022-11-29 20:57:28.256645, 1.69110
2022-11-29 20:57:28.264947, 1.69110
2022-11-29 20:57:28.277242, 1.68622
2022-11-29 20:57:28.285356, 1.68622
2022-11-29 20:57:28.293605, 1.69599
2022-11-29 20:57:28.305857, 1.69599
2022-11-29 20:57:28.314079, 1.70088
2022-11-29 20:57:28.322339, 1.67644
2022-11-29 20:57:28.330553, 1.68133
2022-11-29 20:57:28.342888, 1.66178
2022-11-29 20:57:28.350978, 1.66178
2022-11-29 20:57:28.359206, 1.65689
2022-11-29 20:57:28.371344, 1.66667
2022-11-29 20:57:28.379621, 1.66667
2022-11-29 20:57:28.387869, 1.66667
2022-11-29 20:57:28.396074, 1.67155
2022-11-29 20:57:28.408281, 1.67155
2022-11-29 20:57:28.416537, 1.67644
2022-11-29 20:57:28.424985, 1.67644
2022-11-29 20:57:28.436956, 1.69599
2022-11-29 20:57:28.445211, 1.67644
2022-11-29 20:57:28.453472, 1.67644
2022-11-29 20:57:28.461555, 1.67155
2022-11-29 20:57:28.473800, 1.67155
2022-11-29 20:57:28.482150, 1.67155
2022-11-29 20:57:28.490205, 1.66178
2022-11-29 20:57:28.502468, 1.66667
2022-11-29 20:57:28.510678, 1.66178
2022-11-29 20:57:28.518792, 1.66178
2022-11-29 20:57:28.527276, 1.66178
2022-11-29 20:57:28.539332, 1.66178
2022-11-29 20:57:28.547487, 1.65200
2022-11-29 20:57:28.555753, 1.65200
2022-11-29 20:57:28.564024, 1.65200
2022-11-29 20:57:28.576221, 1.64223
2022-11-29 20:57:28.584478, 1.64223
2022-11-29 20:57:28.594326, 1.63734
2022-11-29 20:57:28.604907, 1.64223
2022-11-29 20:57:28.613816, 1.63734
2022-11-29 20:57:28.621326, 1.64223
2022-11-29 20:57:28.629754, 1.63734
2022-11-29 20:57:28.641799, 1.63734
2022-11-29 20:57:28.649973, 1.63734
2022-11-29 20:57:28.658127, 1.63245
2022-11-29 20:57:28.670493, 1.63734
2022-11-29 20:57:28.678762, 1.63245
2022-11-29 20:57:28.686896, 1.62757
2022-11-29 20:57:28.695262, 1.63245
2022-11-29 20:57:28.707295, 1.63245
2022-11-29 20:57:28.715581, 1.65689
2022-11-29 20:57:28.723643, 1.62757
2022-11-29 20:57:28.735983, 1.63245
2022-11-29 20:57:28.744199, 1.62757
2022-11-29 20:57:28.752365, 1.62757
2022-11-29 20:57:28.761447, 1.62757
2022-11-29 20:57:28.772769, 1.62268
2022-11-29 20:57:28.781042, 1.62268
2022-11-29 20:57:28.789172, 1.61779
2022-11-29 20:57:28.801512, 1.62268
2022-11-29 20:57:28.809792, 1.64223
2022-11-29 20:57:28.817842, 1.61779
2022-11-29 20:57:28.826141, 1.61779
2022-11-29 20:57:28.838324, 1.61290
2022-11-29 20:57:28.846676, 1.61290
2022-11-29 20:57:28.854691, 1.60802
2022-11-29 20:57:28.867017, 1.61290
