2022-11-25 16:40:18.024720
2022-11-25 16:40:18.025035
2022-11-25 16:40:18.025215
2022-11-25 16:40:18.025375
2022-11-25 16:40:18.058022
2022-11-25 16:40:18.058308
2022-11-25 16:40:18.058471
2022-11-25 16:40:18.091199
2022-11-25 16:40:18.091539
2022-11-25 16:40:18.091715
2022-11-25 16:40:18.091875
2022-11-25 16:40:18.124583
2022-11-25 16:40:18.124884
2022-11-25 16:40:18.125066
2022-11-25 16:40:18.125232
2022-11-25 16:40:18.157850
2022-11-25 16:40:18.158130
2022-11-25 16:40:18.158299
2022-11-25 16:40:18.191168
2022-11-25 16:40:18.191476
2022-11-25 16:40:18.191648
2022-11-25 16:40:18.191804
2022-11-25 16:40:18.224513
2022-11-25 16:40:18.224805
2022-11-25 16:40:18.224981
2022-11-25 16:40:18.257746
2022-11-25 16:40:18.257954
2022-11-25 16:40:18.258049
2022-11-25 16:40:18.258137
2022-11-25 16:40:18.291105
2022-11-25 16:40:18.291406
2022-11-25 16:40:18.291573
2022-11-25 16:40:18.324310
2022-11-25 16:40:18.324615
2022-11-25 16:40:18.324790
2022-11-25 16:40:18.324952
2022-11-25 16:40:18.357701
2022-11-25 16:40:18.357940
2022-11-25 16:40:18.358069
2022-11-25 16:40:18.390874
2022-11-25 16:40:18.391256
2022-11-25 16:40:18.391433
2022-11-25 16:40:18.391595
2022-11-25 16:40:18.424275
2022-11-25 16:40:18.424571
2022-11-25 16:40:18.424742
2022-11-25 16:40:18.424912
2022-11-25 16:40:18.457663
2022-11-25 16:40:18.457954
2022-11-25 16:40:18.458121
2022-11-25 16:40:18.490871
2022-11-25 16:40:18.491179
2022-11-25 16:40:18.491361
2022-11-25 16:40:18.491516
2022-11-25 16:40:18.524248
2022-11-25 16:40:18.524540
2022-11-25 16:40:18.524714
2022-11-25 16:40:18.557466
2022-11-25 16:40:18.557760
2022-11-25 16:40:18.557948
2022-11-25 16:40:18.558107
2022-11-25 16:40:18.590852
2022-11-25 16:40:18.591154
2022-11-25 16:40:18.591321
2022-11-25 16:40:18.624056
2022-11-25 16:40:18.624345
2022-11-25 16:40:18.624535
2022-11-25 16:40:18.624724
2022-11-25 16:40:18.657410
2022-11-25 16:40:18.657704
2022-11-25 16:40:18.657897
2022-11-25 16:40:18.690644
2022-11-25 16:40:18.690962
2022-11-25 16:40:18.691160
2022-11-25 16:40:18.691326
2022-11-25 16:40:18.723985
2022-11-25 16:40:18.724274
2022-11-25 16:40:18.724451
2022-11-25 16:40:18.724614
2022-11-25 16:40:18.757268
2022-11-25 16:40:18.757478
2022-11-25 16:40:18.757567
2022-11-25 16:40:18.790589
2022-11-25 16:40:18.790906
2022-11-25 16:40:18.791092
2022-11-25 16:40:18.791252
2022-11-25 16:40:18.823932
2022-11-25 16:40:18.824239
2022-11-25 16:40:18.824434
2022-11-25 16:40:18.857161
2022-11-25 16:40:18.857459
2022-11-25 16:40:18.857630
2022-11-25 16:40:18.857792
2022-11-25 16:40:18.890560
2022-11-25 16:40:18.890863
2022-11-25 16:40:18.891034
2022-11-25 16:40:18.923766
2022-11-25 16:40:18.924063
2022-11-25 16:40:18.924229
2022-11-25 16:40:18.924394
2022-11-25 16:40:18.957154
2022-11-25 16:40:18.957452
2022-11-25 16:40:18.957623
2022-11-25 16:40:18.990318
2022-11-25 16:40:18.990660
2022-11-25 16:40:18.990840
2022-11-25 16:40:18.990997
2022-11-25 16:40:19.023691
2022-11-25 16:40:19.023988
2022-11-25 16:40:19.024164
2022-11-25 16:40:19.024323
2022-11-25 16:40:19.057063
2022-11-25 16:40:19.057366
2022-11-25 16:40:19.057537
2022-11-25 16:40:19.090306
2022-11-25 16:40:19.090602
2022-11-25 16:40:19.090786
2022-11-25 16:40:19.090949
2022-11-25 16:40:19.123663
2022-11-25 16:40:19.123939
2022-11-25 16:40:19.124107
2022-11-25 16:40:19.156892
2022-11-25 16:40:19.157196
2022-11-25 16:40:19.157373
2022-11-25 16:40:19.157532
2022-11-25 16:40:19.190255
2022-11-25 16:40:19.190560
2022-11-25 16:40:19.190733
2022-11-25 16:40:19.223433
2022-11-25 16:40:19.223665
2022-11-25 16:40:19.223792
2022-11-25 16:40:19.223907
2022-11-25 16:40:19.256782
2022-11-25 16:40:19.256993
2022-11-25 16:40:19.257089
2022-11-25 16:40:19.290012
2022-11-25 16:40:19.290328
2022-11-25 16:40:19.290499
2022-11-25 16:40:19.290658
2022-11-25 16:40:19.323358
2022-11-25 16:40:19.323569
2022-11-25 16:40:19.323683
2022-11-25 16:40:19.323795
2022-11-25 16:40:19.356759
2022-11-25 16:40:19.357111
2022-11-25 16:40:19.357318
2022-11-25 16:40:19.389983
2022-11-25 16:40:19.390226
2022-11-25 16:40:19.390353
2022-11-25 16:40:19.390468
2022-11-25 16:40:19.423332
2022-11-25 16:40:19.423610
2022-11-25 16:40:19.423774
2022-11-25 16:40:19.456583
2022-11-25 16:40:19.456866
2022-11-25 16:40:19.457034
2022-11-25 16:40:19.457189
2022-11-25 16:40:19.489978
2022-11-25 16:40:19.490284
2022-11-25 16:40:19.490460
2022-11-25 16:40:19.523185
2022-11-25 16:40:19.523490
2022-11-25 16:40:19.523661
2022-11-25 16:40:19.523828
2022-11-25 16:40:19.556557
2022-11-25 16:40:19.556864
2022-11-25 16:40:19.557035
2022-11-25 16:40:19.589728
2022-11-25 16:40:19.590047
2022-11-25 16:40:19.590221
2022-11-25 16:40:19.590379
2022-11-25 16:40:19.623133
2022-11-25 16:40:19.623418
2022-11-25 16:40:19.623594
2022-11-25 16:40:19.623762
2022-11-25 16:40:19.656496
2022-11-25 16:40:19.656783
2022-11-25 16:40:19.656944
2022-11-25 16:40:19.689707
2022-11-25 16:40:19.690003
2022-11-25 16:40:19.690170
2022-11-25 16:40:19.690329
2022-11-25 16:40:19.723078
2022-11-25 16:40:19.723375
2022-11-25 16:40:19.723551
2022-11-25 16:40:19.756277
2022-11-25 16:40:19.756491
2022-11-25 16:40:19.756584
2022-11-25 16:40:19.756665
2022-11-25 16:40:19.789635
2022-11-25 16:40:19.789937
2022-11-25 16:40:19.790108
2022-11-25 16:40:19.822859
2022-11-25 16:40:19.823163
2022-11-25 16:40:19.823341
2022-11-25 16:40:19.823504
2022-11-25 16:40:19.856227
2022-11-25 16:40:19.856464
2022-11-25 16:40:19.856588
2022-11-25 16:40:19.889432
2022-11-25 16:40:19.889751
2022-11-25 16:40:19.889927
2022-11-25 16:40:19.890091
2022-11-25 16:40:19.922800
2022-11-25 16:40:19.923094
2022-11-25 16:40:19.923270
2022-11-25 16:40:19.923432
2022-11-25 16:40:19.956183
2022-11-25 16:40:19.956463
2022-11-25 16:40:19.956628
2022-11-25 16:40:19.989419
2022-11-25 16:40:19.989721
2022-11-25 16:40:19.989895
2022-11-25 16:40:19.990055
2022-11-25 16:40:20.022803
2022-11-25 16:40:20.023097
2022-11-25 16:40:20.023268
2022-11-25 16:40:20.055992
2022-11-25 16:40:20.056221
2022-11-25 16:40:20.056341
2022-11-25 16:40:20.056456
2022-11-25 16:40:20.089344
2022-11-25 16:40:20.089631
2022-11-25 16:40:20.089798
2022-11-25 16:40:20.122607
2022-11-25 16:40:20.122923
2022-11-25 16:40:20.123101
2022-11-25 16:40:20.123266
2022-11-25 16:40:20.155950
2022-11-25 16:40:20.156241
2022-11-25 16:40:20.156403
2022-11-25 16:40:20.189156
2022-11-25 16:40:20.189497
2022-11-25 16:40:20.189670
2022-11-25 16:40:20.189840
2022-11-25 16:40:20.222503
2022-11-25 16:40:20.222739
2022-11-25 16:40:20.222862
2022-11-25 16:40:20.222980
2022-11-25 16:40:20.255859
2022-11-25 16:40:20.256088
2022-11-25 16:40:20.256207
2022-11-25 16:40:20.289128
2022-11-25 16:40:20.289427
2022-11-25 16:40:20.289604
2022-11-25 16:40:20.289763
2022-11-25 16:40:20.322462
2022-11-25 16:40:20.322708
2022-11-25 16:40:20.322830
2022-11-25 16:40:20.355712
2022-11-25 16:40:20.356001
2022-11-25 16:40:20.356171
2022-11-25 16:40:20.356341
2022-11-25 16:40:20.389098
2022-11-25 16:40:20.389402
2022-11-25 16:40:20.389578
2022-11-25 16:40:20.422271
2022-11-25 16:40:20.422519
2022-11-25 16:40:20.422639
2022-11-25 16:40:20.422752
2022-11-25 16:40:20.455636
2022-11-25 16:40:20.455920
2022-11-25 16:40:20.456098
2022-11-25 16:40:20.488862
2022-11-25 16:40:20.489185
2022-11-25 16:40:20.489371
2022-11-25 16:40:20.489534
2022-11-25 16:40:20.522270
2022-11-25 16:40:20.522560
2022-11-25 16:40:20.522727
2022-11-25 16:40:20.522885
2022-11-25 16:40:20.555613
2022-11-25 16:40:20.555911
2022-11-25 16:40:20.556077
2022-11-25 16:40:20.588846
2022-11-25 16:40:20.589149
2022-11-25 16:40:20.589321
2022-11-25 16:40:20.589480
2022-11-25 16:40:20.622203
2022-11-25 16:40:20.622491
2022-11-25 16:40:20.622657
2022-11-25 16:40:20.655414
2022-11-25 16:40:20.655706
2022-11-25 16:40:20.655878
2022-11-25 16:40:20.656043
2022-11-25 16:40:20.688784
2022-11-25 16:40:20.689069
2022-11-25 16:40:20.689234
2022-11-25 16:40:20.722021
2022-11-25 16:40:20.722321
2022-11-25 16:40:20.722499
2022-11-25 16:40:20.722655
2022-11-25 16:40:20.755363
2022-11-25 16:40:20.755597
2022-11-25 16:40:20.755734
2022-11-25 16:40:20.788631
2022-11-25 16:40:20.788899
2022-11-25 16:40:20.789022
2022-11-25 16:40:20.789133
2022-11-25 16:40:20.821985
2022-11-25 16:40:20.822302
2022-11-25 16:40:20.822470
2022-11-25 16:40:20.822629
2022-11-25 16:40:20.855317
2022-11-25 16:40:20.855600
2022-11-25 16:40:20.855773
2022-11-25 16:40:20.888569
2022-11-25 16:40:20.888864
2022-11-25 16:40:20.889033
2022-11-25 16:40:20.889196
2022-11-25 16:40:20.921841
2022-11-25 16:40:20.922124
2022-11-25 16:40:20.922296
2022-11-25 16:40:20.955122
2022-11-25 16:40:20.955411
2022-11-25 16:40:20.955581
2022-11-25 16:40:20.955813
2022-11-25 16:40:20.988504
2022-11-25 16:40:20.988802
2022-11-25 16:40:20.988978
2022-11-25 16:40:21.021676
2022-11-25 16:40:21.021977
2022-11-25 16:40:21.022151
2022-11-25 16:40:21.022310
2022-11-25 16:40:21.055139
2022-11-25 16:40:21.055441
2022-11-25 16:40:21.055623
2022-11-25 16:40:21.088253
2022-11-25 16:40:21.088517
2022-11-25 16:40:21.088645
2022-11-25 16:40:21.088764
2022-11-25 16:40:21.121733
2022-11-25 16:40:21.122015
2022-11-25 16:40:21.122189
2022-11-25 16:40:21.122352
2022-11-25 16:40:21.155044
2022-11-25 16:40:21.155338
2022-11-25 16:40:21.155503
2022-11-25 16:40:21.188249
2022-11-25 16:40:21.188547
2022-11-25 16:40:21.188715
2022-11-25 16:40:21.188873
2022-11-25 16:40:21.221570
2022-11-25 16:40:21.221810
2022-11-25 16:40:21.221934
2022-11-25 16:40:21.254830
2022-11-25 16:40:21.255033
2022-11-25 16:40:21.255129
2022-11-25 16:40:21.255212
2022-11-25 16:40:21.288173
2022-11-25 16:40:21.288455
2022-11-25 16:40:21.288631
2022-11-25 16:40:21.321434
2022-11-25 16:40:21.321713
2022-11-25 16:40:21.321881
2022-11-25 16:40:21.322036
2022-11-25 16:40:21.354748
2022-11-25 16:40:21.354970
2022-11-25 16:40:21.355091
2022-11-25 16:40:21.387962
2022-11-25 16:40:21.388261
2022-11-25 16:40:21.388436
2022-11-25 16:40:21.388587
2022-11-25 16:40:21.421338
2022-11-25 16:40:21.421633
2022-11-25 16:40:21.421805
2022-11-25 16:40:21.421962
2022-11-25 16:40:21.454701
2022-11-25 16:40:21.454932
2022-11-25 16:40:21.455062
2022-11-25 16:40:21.487944
2022-11-25 16:40:21.488234
2022-11-25 16:40:21.488411
2022-11-25 16:40:21.488572
2022-11-25 16:40:21.521325
2022-11-25 16:40:21.521636
2022-11-25 16:40:21.521807
2022-11-25 16:40:21.554544
2022-11-25 16:40:21.554823
2022-11-25 16:40:21.554985
2022-11-25 16:40:21.555137
2022-11-25 16:40:21.587887
2022-11-25 16:40:21.588181
2022-11-25 16:40:21.588353
2022-11-25 16:40:21.621150
2022-11-25 16:40:21.621450
2022-11-25 16:40:21.621625
2022-11-25 16:40:21.621784
2022-11-25 16:40:21.654507
2022-11-25 16:40:21.654800
2022-11-25 16:40:21.654968
2022-11-25 16:40:21.687701
2022-11-25 16:40:21.688008
2022-11-25 16:40:21.688188
2022-11-25 16:40:21.688341
2022-11-25 16:40:21.721076
2022-11-25 16:40:21.721324
2022-11-25 16:40:21.721442
2022-11-25 16:40:21.721552
2022-11-25 16:40:21.754387
2022-11-25 16:40:21.754578
2022-11-25 16:40:21.754669
2022-11-25 16:40:21.787716
2022-11-25 16:40:21.788016
2022-11-25 16:40:21.788191
2022-11-25 16:40:21.788348
2022-11-25 16:40:21.821003
2022-11-25 16:40:21.821230
2022-11-25 16:40:21.821348
2022-11-25 16:40:21.854272
2022-11-25 16:40:21.854567
2022-11-25 16:40:21.854741
2022-11-25 16:40:21.854905
2022-11-25 16:40:21.887618
2022-11-25 16:40:21.887924
2022-11-25 16:40:21.888097
2022-11-25 16:40:21.920832
2022-11-25 16:40:21.921109
2022-11-25 16:40:21.921277
2022-11-25 16:40:21.921433
2022-11-25 16:40:21.954187
2022-11-25 16:40:21.954452
2022-11-25 16:40:21.954625
2022-11-25 16:40:21.987392
2022-11-25 16:40:21.987700
2022-11-25 16:40:21.987871
2022-11-25 16:40:21.988025
2022-11-25 16:40:22.020766
2022-11-25 16:40:22.021063
2022-11-25 16:40:22.021239
2022-11-25 16:40:22.021661
2022-11-25 16:40:22.054179
2022-11-25 16:40:22.054472
2022-11-25 16:40:22.054650
2022-11-25 16:40:22.087377
2022-11-25 16:40:22.087657
2022-11-25 16:40:22.087823
2022-11-25 16:40:22.087977
2022-11-25 16:40:22.120674
2022-11-25 16:40:22.120954
2022-11-25 16:40:22.121121
2022-11-25 16:40:22.153975
2022-11-25 16:40:22.154270
2022-11-25 16:40:22.154438
2022-11-25 16:40:22.154596
2022-11-25 16:40:22.187276
2022-11-25 16:40:22.187574
2022-11-25 16:40:22.187750
2022-11-25 16:40:22.220572
2022-11-25 16:40:22.220859
2022-11-25 16:40:22.221028
2022-11-25 16:40:22.221207
2022-11-25 16:40:22.253878
2022-11-25 16:40:22.254059
2022-11-25 16:40:22.254151
2022-11-25 16:40:22.287124
2022-11-25 16:40:22.287435
2022-11-25 16:40:22.287604
2022-11-25 16:40:22.287759
2022-11-25 16:40:22.320496
2022-11-25 16:40:22.320797
2022-11-25 16:40:22.320973
2022-11-25 16:40:22.321130
2022-11-25 16:40:22.353851
2022-11-25 16:40:22.354137
2022-11-25 16:40:22.354309
2022-11-25 16:40:22.387005
2022-11-25 16:40:22.387251
2022-11-25 16:40:22.387415
2022-11-25 16:40:22.387573
2022-11-25 16:40:22.420435
2022-11-25 16:40:22.420714
2022-11-25 16:40:22.420880
2022-11-25 16:40:22.453684
2022-11-25 16:40:22.453967
2022-11-25 16:40:22.454139
2022-11-25 16:40:22.454290
2022-11-25 16:40:22.486996
2022-11-25 16:40:22.487201
2022-11-25 16:40:22.487298
2022-11-25 16:40:22.520270
2022-11-25 16:40:22.520573
2022-11-25 16:40:22.520746
2022-11-25 16:40:22.520906
2022-11-25 16:40:22.553629
2022-11-25 16:40:22.553924
2022-11-25 16:40:22.554096
2022-11-25 16:40:22.586805
2022-11-25 16:40:22.587119
2022-11-25 16:40:22.587296
2022-11-25 16:40:22.587457
2022-11-25 16:40:22.620228
2022-11-25 16:40:22.620522
2022-11-25 16:40:22.620694
2022-11-25 16:40:22.620907
2022-11-25 16:40:22.653585
2022-11-25 16:40:22.653874
2022-11-25 16:40:22.654048
2022-11-25 16:40:22.686837
2022-11-25 16:40:22.687132
2022-11-25 16:40:22.687303
2022-11-25 16:40:22.687461
2022-11-25 16:40:22.720158
2022-11-25 16:40:22.720434
2022-11-25 16:40:22.720601
2022-11-25 16:40:22.753377
2022-11-25 16:40:22.753564
2022-11-25 16:40:22.753652
2022-11-25 16:40:22.753727
2022-11-25 16:40:22.786686
2022-11-25 16:40:22.786882
2022-11-25 16:40:22.786971
2022-11-25 16:40:22.819970
2022-11-25 16:40:22.820256
2022-11-25 16:40:22.820426
2022-11-25 16:40:22.820590
2022-11-25 16:40:22.853328
2022-11-25 16:40:22.853630
2022-11-25 16:40:22.853805
2022-11-25 16:40:22.886559
2022-11-25 16:40:22.886773
2022-11-25 16:40:22.886867
2022-11-25 16:40:22.886953
2022-11-25 16:40:22.919944
2022-11-25 16:40:22.920238
2022-11-25 16:40:22.920407
2022-11-25 16:40:22.920574
2022-11-25 16:40:22.953308
2022-11-25 16:40:22.953607
2022-11-25 16:40:22.953782
2022-11-25 16:40:22.986504
2022-11-25 16:40:22.986736
2022-11-25 16:40:22.986859
2022-11-25 16:40:22.986976
2022-11-25 16:40:23.019744
2022-11-25 16:40:23.019954
2022-11-25 16:40:23.020053
2022-11-25 16:40:23.053111
2022-11-25 16:40:23.053413
2022-11-25 16:40:23.053592
2022-11-25 16:40:23.053751
2022-11-25 16:40:23.086481
2022-11-25 16:40:23.086777
2022-11-25 16:40:23.086948
2022-11-25 16:40:23.119621
2022-11-25 16:40:23.119933
2022-11-25 16:40:23.120104
2022-11-25 16:40:23.120262
2022-11-25 16:40:23.153031
2022-11-25 16:40:23.153319
2022-11-25 16:40:23.153504
2022-11-25 16:40:23.186264
2022-11-25 16:40:23.186589
2022-11-25 16:40:23.186766
2022-11-25 16:40:23.186932
2022-11-25 16:40:23.219542
2022-11-25 16:40:23.219754
2022-11-25 16:40:23.219846
2022-11-25 16:40:23.219938
2022-11-25 16:40:23.252923
2022-11-25 16:40:23.253124
2022-11-25 16:40:23.253224
2022-11-25 16:40:23.286221
2022-11-25 16:40:23.286525
2022-11-25 16:40:23.286697
2022-11-25 16:40:23.286863
2022-11-25 16:40:23.319574
2022-11-25 16:40:23.319801
2022-11-25 16:40:23.319922
2022-11-25 16:40:23.352836
2022-11-25 16:40:23.353133
2022-11-25 16:40:23.353305
2022-11-25 16:40:23.353471
2022-11-25 16:40:23.386163
2022-11-25 16:40:23.386448
2022-11-25 16:40:23.386611
2022-11-25 16:40:23.419391
2022-11-25 16:40:23.419698
2022-11-25 16:40:23.419869
2022-11-25 16:40:23.420025
2022-11-25 16:40:23.452733
2022-11-25 16:40:23.453005
2022-11-25 16:40:23.453172
2022-11-25 16:40:23.485984
2022-11-25 16:40:23.486212
2022-11-25 16:40:23.486309
2022-11-25 16:40:23.486394
2022-11-25 16:40:23.519312
2022-11-25 16:40:23.519519
2022-11-25 16:40:23.519614
2022-11-25 16:40:23.519705
2022-11-25 16:40:23.552788
2022-11-25 16:40:23.553076
2022-11-25 16:40:23.553248
2022-11-25 16:40:23.585933
2022-11-25 16:40:23.586230
2022-11-25 16:40:23.586404
2022-11-25 16:40:23.586561
2022-11-25 16:40:23.619251
2022-11-25 16:40:23.619481
2022-11-25 16:40:23.619601
2022-11-25 16:40:23.652493
2022-11-25 16:40:23.652726
2022-11-25 16:40:23.652850
2022-11-25 16:40:23.652972
2022-11-25 16:40:23.685871
2022-11-25 16:40:23.686158
2022-11-25 16:40:23.686336
2022-11-25 16:40:23.719125
2022-11-25 16:40:23.719413
2022-11-25 16:40:23.719587
2022-11-25 16:40:23.719741
2022-11-25 16:40:23.752287
2022-11-25 16:40:23.752465
2022-11-25 16:40:23.752556
2022-11-25 16:40:23.785689
2022-11-25 16:40:23.786018
2022-11-25 16:40:23.786191
2022-11-25 16:40:23.786352
2022-11-25 16:40:23.819062
2022-11-25 16:40:23.819338
2022-11-25 16:40:23.819498
2022-11-25 16:40:23.819654
2022-11-25 16:40:23.852408
2022-11-25 16:40:23.852681
2022-11-25 16:40:23.852847
2022-11-25 16:40:23.885696
2022-11-25 16:40:23.885982
2022-11-25 16:40:23.886157
2022-11-25 16:40:23.886319
2022-11-25 16:40:23.919031
2022-11-25 16:40:23.919335
2022-11-25 16:40:23.919512
2022-11-25 16:40:23.952216
2022-11-25 16:40:23.952419
2022-11-25 16:40:23.952509
2022-11-25 16:40:23.952594
2022-11-25 16:40:23.985593
2022-11-25 16:40:23.985887
2022-11-25 16:40:23.986056
2022-11-25 16:40:24.018832
2022-11-25 16:40:24.019119
2022-11-25 16:40:24.019280
2022-11-25 16:40:24.019432
2022-11-25 16:40:24.052189
2022-11-25 16:40:24.052435
2022-11-25 16:40:24.052566
2022-11-25 16:40:24.085377
2022-11-25 16:40:24.085591
2022-11-25 16:40:24.085686
2022-11-25 16:40:24.085772
2022-11-25 16:40:24.118787
2022-11-25 16:40:24.119077
2022-11-25 16:40:24.119247
2022-11-25 16:40:24.119417
2022-11-25 16:40:24.152116
2022-11-25 16:40:24.152353
2022-11-25 16:40:24.152630
2022-11-25 16:40:24.185392
2022-11-25 16:40:24.185689
2022-11-25 16:40:24.185860
2022-11-25 16:40:24.186022
2022-11-25 16:40:24.218679
2022-11-25 16:40:24.218974
2022-11-25 16:40:24.219141
2022-11-25 16:40:24.251830
2022-11-25 16:40:24.252030
2022-11-25 16:40:24.252125
2022-11-25 16:40:24.252207
2022-11-25 16:40:24.285311
2022-11-25 16:40:24.285593
2022-11-25 16:40:24.285758
2022-11-25 16:40:24.318510
2022-11-25 16:40:24.318784
2022-11-25 16:40:24.318947
2022-11-25 16:40:24.319105
2022-11-25 16:40:24.351897
2022-11-25 16:40:24.352202
2022-11-25 16:40:24.352379
2022-11-25 16:40:24.385109
2022-11-25 16:40:24.385444
2022-11-25 16:40:24.385630
2022-11-25 16:40:24.385794
2022-11-25 16:40:24.418453
2022-11-25 16:40:24.418758
2022-11-25 16:40:24.418937
2022-11-25 16:40:24.419097
2022-11-25 16:40:24.451846
2022-11-25 16:40:24.452160
2022-11-25 16:40:24.452335
2022-11-25 16:40:24.485062
2022-11-25 16:40:24.485361
2022-11-25 16:40:24.485552
2022-11-25 16:40:24.485711
2022-11-25 16:40:24.518421
2022-11-25 16:40:24.518708
2022-11-25 16:40:24.518874
2022-11-25 16:40:24.551657
2022-11-25 16:40:24.551870
2022-11-25 16:40:24.551967
2022-11-25 16:40:24.552057
2022-11-25 16:40:24.585028
2022-11-25 16:40:24.585318
2022-11-25 16:40:24.585492
2022-11-25 16:40:24.618223
2022-11-25 16:40:24.618502
2022-11-25 16:40:24.618675
2022-11-25 16:40:24.618831
2022-11-25 16:40:24.651575
2022-11-25 16:40:24.651814
2022-11-25 16:40:24.651936
2022-11-25 16:40:24.684809
2022-11-25 16:40:24.685147
2022-11-25 16:40:24.685321
2022-11-25 16:40:24.685481
2022-11-25 16:40:24.718204
2022-11-25 16:40:24.718498
2022-11-25 16:40:24.718676
2022-11-25 16:40:24.718839
2022-11-25 16:40:24.751376
2022-11-25 16:40:24.751586
2022-11-25 16:40:24.751689
2022-11-25 16:40:24.784758
2022-11-25 16:40:24.784967
2022-11-25 16:40:24.785063
2022-11-25 16:40:24.785151
2022-11-25 16:40:24.818146
2022-11-25 16:40:24.818452
2022-11-25 16:40:24.818622
2022-11-25 16:40:24.851320
2022-11-25 16:40:24.851574
2022-11-25 16:40:24.851704
2022-11-25 16:40:24.851821
2022-11-25 16:40:24.884766
2022-11-25 16:40:24.885071
2022-11-25 16:40:24.885243
2022-11-25 16:40:24.917965
2022-11-25 16:40:24.918266
2022-11-25 16:40:24.918448
2022-11-25 16:40:24.918604
2022-11-25 16:40:24.951318
2022-11-25 16:40:24.951601
2022-11-25 16:40:24.951773
2022-11-25 16:40:24.984516
2022-11-25 16:40:24.984830
2022-11-25 16:40:24.985005
2022-11-25 16:40:24.985158
2022-11-25 16:40:25.017940
2022-11-25 16:40:25.018257
2022-11-25 16:40:25.018437
2022-11-25 16:40:25.018597
2022-11-25 16:40:25.051283
2022-11-25 16:40:25.051598
2022-11-25 16:40:25.051771
2022-11-25 16:40:25.084461
2022-11-25 16:40:25.084697
2022-11-25 16:40:25.084815
2022-11-25 16:40:25.084929
2022-11-25 16:40:25.117865
2022-11-25 16:40:25.118180
2022-11-25 16:40:25.118359
2022-11-25 16:40:25.151106
2022-11-25 16:40:25.151420
2022-11-25 16:40:25.151591
2022-11-25 16:40:25.151757
2022-11-25 16:40:25.184383
2022-11-25 16:40:25.184583
2022-11-25 16:40:25.184674
2022-11-25 16:40:25.217644
2022-11-25 16:40:25.217849
2022-11-25 16:40:25.217954
2022-11-25 16:40:25.218053
2022-11-25 16:40:25.250863
2022-11-25 16:40:25.251058
2022-11-25 16:40:25.251156
2022-11-25 16:40:25.284226
2022-11-25 16:40:25.284577
2022-11-25 16:40:25.284770
2022-11-25 16:40:25.284925
2022-11-25 16:40:25.317578
2022-11-25 16:40:25.317824
2022-11-25 16:40:25.317954
2022-11-25 16:40:25.318071
2022-11-25 16:40:25.350984
2022-11-25 16:40:25.351284
2022-11-25 16:40:25.351465
2022-11-25 16:40:25.384217
2022-11-25 16:40:25.384510
2022-11-25 16:40:25.384692
2022-11-25 16:40:25.384857
2022-11-25 16:40:25.417564
2022-11-25 16:40:25.417866
2022-11-25 16:40:25.418049
2022-11-25 16:40:25.450793
2022-11-25 16:40:25.451071
2022-11-25 16:40:25.451234
2022-11-25 16:40:25.451395
2022-11-25 16:40:25.484175
2022-11-25 16:40:25.484481
2022-11-25 16:40:25.484657
2022-11-25 16:40:25.517387
2022-11-25 16:40:25.517632
2022-11-25 16:40:25.517759
2022-11-25 16:40:25.517878
2022-11-25 16:40:25.550701
2022-11-25 16:40:25.550940
2022-11-25 16:40:25.551063
2022-11-25 16:40:25.583936
2022-11-25 16:40:25.584167
2022-11-25 16:40:25.584259
2022-11-25 16:40:25.584345
2022-11-25 16:40:25.617314
2022-11-25 16:40:25.617557
2022-11-25 16:40:25.617681
2022-11-25 16:40:25.617798
2022-11-25 16:40:25.650591
2022-11-25 16:40:25.650787
2022-11-25 16:40:25.650876
2022-11-25 16:40:25.683932
2022-11-25 16:40:25.684231
2022-11-25 16:40:25.684405
2022-11-25 16:40:25.684566
2022-11-25 16:40:25.717230
2022-11-25 16:40:25.717448
2022-11-25 16:40:25.717570
2022-11-25 16:40:25.750471
2022-11-25 16:40:25.750753
2022-11-25 16:40:25.750918
2022-11-25 16:40:25.751085
2022-11-25 16:40:25.783873
2022-11-25 16:40:25.784178
2022-11-25 16:40:25.784348
2022-11-25 16:40:25.817081
2022-11-25 16:40:25.817285
2022-11-25 16:40:25.817376
2022-11-25 16:40:25.817458
2022-11-25 16:40:25.850451
2022-11-25 16:40:25.850750
2022-11-25 16:40:25.850928
2022-11-25 16:40:25.883662
2022-11-25 16:40:25.883990
2022-11-25 16:40:25.884162
2022-11-25 16:40:25.884320
2022-11-25 16:40:25.917039
2022-11-25 16:40:25.917335
2022-11-25 16:40:25.917508
2022-11-25 16:40:25.917662
2022-11-25 16:40:25.950391
2022-11-25 16:40:25.950684
2022-11-25 16:40:25.950854
2022-11-25 16:40:25.983600
2022-11-25 16:40:25.983898
2022-11-25 16:40:25.984080
2022-11-25 16:40:25.984236
2022-11-25 16:40:26.016988
2022-11-25 16:40:26.017288
2022-11-25 16:40:26.017463
2022-11-25 16:40:26.050190
2022-11-25 16:40:26.050424
2022-11-25 16:40:26.050542
2022-11-25 16:40:26.050654
2022-11-25 16:40:26.083566
2022-11-25 16:40:26.083870
2022-11-25 16:40:26.084049
2022-11-25 16:40:26.116787
2022-11-25 16:40:26.117082
2022-11-25 16:40:26.117260
2022-11-25 16:40:26.117425
2022-11-25 16:40:26.150097
2022-11-25 16:40:26.150296
2022-11-25 16:40:26.150394
2022-11-25 16:40:26.183320
2022-11-25 16:40:26.183582
2022-11-25 16:40:26.183713
2022-11-25 16:40:26.183825
2022-11-25 16:40:26.216749
2022-11-25 16:40:26.217038
2022-11-25 16:40:26.217230
2022-11-25 16:40:26.217397
2022-11-25 16:40:26.250096
2022-11-25 16:40:26.250395
2022-11-25 16:40:26.250564
2022-11-25 16:40:26.283303
2022-11-25 16:40:26.283545
2022-11-25 16:40:26.283829
2022-11-25 16:40:26.283951
2022-11-25 16:40:26.316769
2022-11-25 16:40:26.317072
2022-11-25 16:40:26.317249
2022-11-25 16:40:26.349897
2022-11-25 16:40:26.350128
2022-11-25 16:40:26.350246
2022-11-25 16:40:26.350358
2022-11-25 16:40:26.383280
2022-11-25 16:40:26.383578
2022-11-25 16:40:26.383753
2022-11-25 16:40:26.416520
2022-11-25 16:40:26.416809
2022-11-25 16:40:26.416973
2022-11-25 16:40:26.417124
2022-11-25 16:40:26.449830
2022-11-25 16:40:26.450111
2022-11-25 16:40:26.450283
2022-11-25 16:40:26.483006
2022-11-25 16:40:26.483329
2022-11-25 16:40:26.483496
2022-11-25 16:40:26.483657
2022-11-25 16:40:26.516449
2022-11-25 16:40:26.516744
2022-11-25 16:40:26.516925
2022-11-25 16:40:26.517089
2022-11-25 16:40:26.549752
2022-11-25 16:40:26.549989
2022-11-25 16:40:26.550109
2022-11-25 16:40:26.583012
2022-11-25 16:40:26.583309
2022-11-25 16:40:26.583481
2022-11-25 16:40:26.583643
2022-11-25 16:40:26.616325
2022-11-25 16:40:26.616524
2022-11-25 16:40:26.616617
2022-11-25 16:40:26.649617
2022-11-25 16:40:26.649894
2022-11-25 16:40:26.650066
2022-11-25 16:40:26.650224
2022-11-25 16:40:26.682967
2022-11-25 16:40:26.683253
2022-11-25 16:40:26.683412
2022-11-25 16:40:26.716158
2022-11-25 16:40:26.716438
2022-11-25 16:40:26.716596
2022-11-25 16:40:26.716759
2022-11-25 16:40:26.749528
2022-11-25 16:40:26.749751
2022-11-25 16:40:26.749866
2022-11-25 16:40:26.782733
2022-11-25 16:40:26.783061
2022-11-25 16:40:26.783232
2022-11-25 16:40:26.783396
2022-11-25 16:40:26.816106
2022-11-25 16:40:26.816397
2022-11-25 16:40:26.816579
2022-11-25 16:40:26.816739
2022-11-25 16:40:26.849440
2022-11-25 16:40:26.849673
2022-11-25 16:40:26.849797
2022-11-25 16:40:26.882681
2022-11-25 16:40:26.882906
2022-11-25 16:40:26.883030
2022-11-25 16:40:26.883145
2022-11-25 16:40:26.915968
2022-11-25 16:40:26.916197
2022-11-25 16:40:26.916321
2022-11-25 16:40:26.949257
2022-11-25 16:40:26.949450
2022-11-25 16:40:26.949539
2022-11-25 16:40:26.949629
2022-11-25 16:40:26.982683
2022-11-25 16:40:26.982984
2022-11-25 16:40:26.983158
2022-11-25 16:40:27.015868
2022-11-25 16:40:27.016094
2022-11-25 16:40:27.016218
2022-11-25 16:40:27.016333
2022-11-25 16:40:27.049201
2022-11-25 16:40:27.049423
2022-11-25 16:40:27.049549
2022-11-25 16:40:27.082400
2022-11-25 16:40:27.082608
2022-11-25 16:40:27.082710
2022-11-25 16:40:27.082800
2022-11-25 16:40:27.115812
2022-11-25 16:40:27.116105
2022-11-25 16:40:27.116280
2022-11-25 16:40:27.116442
2022-11-25 16:40:27.149154
2022-11-25 16:40:27.149428
2022-11-25 16:40:27.149604
2022-11-25 16:40:27.182390
2022-11-25 16:40:27.182668
2022-11-25 16:40:27.182841
2022-11-25 16:40:27.183000
2022-11-25 16:40:27.215684
2022-11-25 16:40:27.215859
2022-11-25 16:40:27.215950
2022-11-25 16:40:27.248951
2022-11-25 16:40:27.249163
2022-11-25 16:40:27.249281
2022-11-25 16:40:27.249401
2022-11-25 16:40:27.282234
2022-11-25 16:40:27.282392
2022-11-25 16:40:27.282482
2022-11-25 16:40:27.315572
2022-11-25 16:40:27.315828
2022-11-25 16:40:27.315998
2022-11-25 16:40:27.316149
2022-11-25 16:40:27.348890
2022-11-25 16:40:27.349141
2022-11-25 16:40:27.349308
2022-11-25 16:40:27.382083
2022-11-25 16:40:27.382572
2022-11-25 16:40:27.382790
2022-11-25 16:40:27.382961
2022-11-25 16:40:27.415473
2022-11-25 16:40:27.415658
2022-11-25 16:40:27.415749
2022-11-25 16:40:27.415849
2022-11-25 16:40:27.448782
2022-11-25 16:40:27.448960
2022-11-25 16:40:27.449058
2022-11-25 16:40:27.482110
2022-11-25 16:40:27.482400
2022-11-25 16:40:27.482578
2022-11-25 16:40:27.482737
2022-11-25 16:40:27.515415
2022-11-25 16:40:27.515632
2022-11-25 16:40:27.515755
2022-11-25 16:40:27.548678
2022-11-25 16:40:27.548959
2022-11-25 16:40:27.549130
2022-11-25 16:40:27.549291
2022-11-25 16:40:27.582026
2022-11-25 16:40:27.582252
2022-11-25 16:40:27.582374
2022-11-25 16:40:27.615260
2022-11-25 16:40:27.615477
2022-11-25 16:40:27.615603
2022-11-25 16:40:27.615717
2022-11-25 16:40:27.648605
2022-11-25 16:40:27.648833
2022-11-25 16:40:27.648956
2022-11-25 16:40:27.681808
2022-11-25 16:40:27.682010
2022-11-25 16:40:27.682107
2022-11-25 16:40:27.682188
2022-11-25 16:40:27.715232
2022-11-25 16:40:27.715508
2022-11-25 16:40:27.715674
2022-11-25 16:40:27.715828
2022-11-25 16:40:27.748528
2022-11-25 16:40:27.748805
2022-11-25 16:40:27.748976
2022-11-25 16:40:27.781709
2022-11-25 16:40:27.781814
2022-11-25 16:40:27.781881
2022-11-25 16:40:27.781943
2022-11-25 16:40:27.815058
2022-11-25 16:40:27.815183
2022-11-25 16:40:27.815260
2022-11-25 16:40:27.848289
2022-11-25 16:40:27.848599
2022-11-25 16:40:27.848822
2022-11-25 16:40:27.848986
2022-11-25 16:40:27.881668
2022-11-25 16:40:27.881845
2022-11-25 16:40:27.881964
2022-11-25 16:40:27.914884
2022-11-25 16:40:27.915133
2022-11-25 16:40:27.915265
2022-11-25 16:40:27.915382
2022-11-25 16:40:27.948219
2022-11-25 16:40:27.948420
2022-11-25 16:40:27.948625
2022-11-25 16:40:27.981447
2022-11-25 16:40:27.981710
2022-11-25 16:40:27.981905
2022-11-25 16:40:27.982146
2022-11-25 16:40:28.014838
2022-11-25 16:40:28.015107
2022-11-25 16:40:28.015433
2022-11-25 16:40:28.015608
2022-11-25 16:40:28.048209
2022-11-25 16:40:28.048461
2022-11-25 16:40:28.048791
2022-11-25 16:40:28.081403
2022-11-25 16:40:28.081690
2022-11-25 16:40:28.081839
2022-11-25 16:40:28.081957
2022-11-25 16:40:28.114835
2022-11-25 16:40:28.115058
2022-11-25 16:40:28.115225
2022-11-25 16:40:28.148013
2022-11-25 16:40:28.148165
2022-11-25 16:40:28.148260
2022-11-25 16:40:28.148343
2022-11-25 16:40:28.181473
2022-11-25 16:40:28.181714
2022-11-25 16:40:28.181880
2022-11-25 16:40:28.214683
2022-11-25 16:40:28.214837
2022-11-25 16:40:28.214928
2022-11-25 16:40:28.215016
2022-11-25 16:40:28.248030
2022-11-25 16:40:28.248278
2022-11-25 16:40:28.248453
2022-11-25 16:40:28.281260
2022-11-25 16:40:28.281424
2022-11-25 16:40:28.281516
2022-11-25 16:40:28.281600
2022-11-25 16:40:28.314646
2022-11-25 16:40:28.314893
2022-11-25 16:40:28.315062
2022-11-25 16:40:28.315227
2022-11-25 16:40:28.347999
2022-11-25 16:40:28.348228
2022-11-25 16:40:28.348391
2022-11-25 16:40:28.381118
2022-11-25 16:40:28.381506
2022-11-25 16:40:28.381705
2022-11-25 16:40:28.381866
2022-11-25 16:40:28.414513
2022-11-25 16:40:28.414860
2022-11-25 16:40:28.414984
2022-11-25 16:40:28.447791
2022-11-25 16:40:28.448064
2022-11-25 16:40:28.448237
2022-11-25 16:40:28.448393
2022-11-25 16:40:28.481081
2022-11-25 16:40:28.481250
2022-11-25 16:40:28.481338
2022-11-25 16:40:28.514352
2022-11-25 16:40:28.514528
2022-11-25 16:40:28.514619
2022-11-25 16:40:28.514700
2022-11-25 16:40:28.547696
2022-11-25 16:40:28.547878
2022-11-25 16:40:28.548000
2022-11-25 16:40:28.580885
2022-11-25 16:40:28.581217
2022-11-25 16:40:28.581415
2022-11-25 16:40:28.581577
2022-11-25 16:40:28.614233
2022-11-25 16:40:28.614513
2022-11-25 16:40:28.614660
2022-11-25 16:40:28.614779
2022-11-25 16:40:28.647600
2022-11-25 16:40:28.647955
2022-11-25 16:40:28.648143
2022-11-25 16:40:28.680818
2022-11-25 16:40:28.681008
2022-11-25 16:40:28.681134
2022-11-25 16:40:28.681222
2022-11-25 16:40:28.714171
2022-11-25 16:40:28.714468
2022-11-25 16:40:28.714614
2022-11-25 16:40:28.747422
2022-11-25 16:40:28.747656
2022-11-25 16:40:28.747824
2022-11-25 16:40:28.748159
2022-11-25 16:40:28.780726
2022-11-25 16:40:28.780843
2022-11-25 16:40:28.780915
2022-11-25 16:40:28.813940
2022-11-25 16:40:28.814081
2022-11-25 16:40:28.814173
2022-11-25 16:40:28.814256
2022-11-25 16:40:28.847323
2022-11-25 16:40:28.847500
2022-11-25 16:40:28.847624
2022-11-25 16:40:28.880588
2022-11-25 16:40:28.880848
2022-11-25 16:40:28.881027
2022-11-25 16:40:28.881193
2022-11-25 16:40:28.913921
2022-11-25 16:40:28.914060
2022-11-25 16:40:28.914155
2022-11-25 16:40:28.914243
2022-11-25 16:40:28.947326
2022-11-25 16:40:28.947563
2022-11-25 16:40:28.947735
2022-11-25 16:40:28.980496
2022-11-25 16:40:28.980680
2022-11-25 16:40:28.980808
2022-11-25 16:40:28.980921
2022-11-25 16:40:29.013859
2022-11-25 16:40:29.014043
2022-11-25 16:40:29.014167
2022-11-25 16:40:29.047074
2022-11-25 16:40:29.047249
2022-11-25 16:40:29.047376
2022-11-25 16:40:29.047489
2022-11-25 16:40:29.080367
2022-11-25 16:40:29.080508
2022-11-25 16:40:29.080601
2022-11-25 16:40:29.113700
2022-11-25 16:40:29.113937
2022-11-25 16:40:29.114104
2022-11-25 16:40:29.114270
2022-11-25 16:40:29.147104
2022-11-25 16:40:29.147341
2022-11-25 16:40:29.147519
2022-11-25 16:40:29.180277
2022-11-25 16:40:29.180468
2022-11-25 16:40:29.180602
2022-11-25 16:40:29.180713
2022-11-25 16:40:29.213660
2022-11-25 16:40:29.213803
2022-11-25 16:40:29.213901
2022-11-25 16:40:29.213991
2022-11-25 16:40:29.247019
2022-11-25 16:40:29.247245
2022-11-25 16:40:29.247414
2022-11-25 16:40:29.280180
2022-11-25 16:40:29.280263
2022-11-25 16:40:29.280330
2022-11-25 16:40:29.280391
2022-11-25 16:40:29.313537
2022-11-25 16:40:29.313679
2022-11-25 16:40:29.313774
2022-11-25 16:40:29.346832
2022-11-25 16:40:29.347026
2022-11-25 16:40:29.347153
2022-11-25 16:40:29.347269
2022-11-25 16:40:29.380153
2022-11-25 16:40:29.380327
2022-11-25 16:40:29.380450
2022-11-25 16:40:29.413500
2022-11-25 16:40:29.413728
2022-11-25 16:40:29.413906
2022-11-25 16:40:29.414070
2022-11-25 16:40:29.446723
2022-11-25 16:40:29.446886
2022-11-25 16:40:29.447005
2022-11-25 16:40:29.480023
2022-11-25 16:40:29.480278
2022-11-25 16:40:29.480454
2022-11-25 16:40:29.480619
2022-11-25 16:40:29.513417
2022-11-25 16:40:29.513655
2022-11-25 16:40:29.513829
2022-11-25 16:40:29.513988
2022-11-25 16:40:29.546687
2022-11-25 16:40:29.546870
2022-11-25 16:40:29.547013
2022-11-25 16:40:29.579983
2022-11-25 16:40:29.580222
2022-11-25 16:40:29.580398
2022-11-25 16:40:29.580558
2022-11-25 16:40:29.613287
2022-11-25 16:40:29.613473
2022-11-25 16:40:29.613601
2022-11-25 16:40:29.646531
2022-11-25 16:40:29.646672
2022-11-25 16:40:29.646768
2022-11-25 16:40:29.646851
2022-11-25 16:40:29.679830
2022-11-25 16:40:29.679999
2022-11-25 16:40:29.680125
2022-11-25 16:40:29.713110
2022-11-25 16:40:29.713255
2022-11-25 16:40:29.713346
2022-11-25 16:40:29.713434
2022-11-25 16:40:29.746501
2022-11-25 16:40:29.746678
2022-11-25 16:40:29.746809
2022-11-25 16:40:29.779706
2022-11-25 16:40:29.779848
2022-11-25 16:40:29.779934
2022-11-25 16:40:29.780010
2022-11-25 16:40:29.813058
2022-11-25 16:40:29.813222
2022-11-25 16:40:29.813346
2022-11-25 16:40:29.813461
2022-11-25 16:40:29.846413
2022-11-25 16:40:29.846649
2022-11-25 16:40:29.846818
2022-11-25 16:40:29.879679
2022-11-25 16:40:29.879857
2022-11-25 16:40:29.879981
2022-11-25 16:40:29.880093
2022-11-25 16:40:29.912981
2022-11-25 16:40:29.913157
2022-11-25 16:40:29.913287
2022-11-25 16:40:29.946215
2022-11-25 16:40:29.946379
2022-11-25 16:40:29.946498
2022-11-25 16:40:29.946607
2022-11-25 16:40:29.979590
2022-11-25 16:40:29.979725
2022-11-25 16:40:29.979814
2022-11-25 16:40:30.012851
2022-11-25 16:40:30.013024
2022-11-25 16:40:30.013149
2022-11-25 16:40:30.013268
2022-11-25 16:40:30.046175
2022-11-25 16:40:30.046360
2022-11-25 16:40:30.046490
2022-11-25 16:40:30.079525
2022-11-25 16:40:30.079781
2022-11-25 16:40:30.079954
2022-11-25 16:40:30.080116
2022-11-25 16:40:30.112770
2022-11-25 16:40:30.112967
2022-11-25 16:40:30.113105
2022-11-25 16:40:30.113229
2022-11-25 16:40:30.146159
2022-11-25 16:40:30.146335
2022-11-25 16:40:30.146455
2022-11-25 16:40:30.179390
2022-11-25 16:40:30.179574
2022-11-25 16:40:30.179697
2022-11-25 16:40:30.179819
2022-11-25 16:40:30.212789
2022-11-25 16:40:30.213033
2022-11-25 16:40:30.213204
2022-11-25 16:40:30.246019
2022-11-25 16:40:30.246201
2022-11-25 16:40:30.246325
2022-11-25 16:40:30.246437
2022-11-25 16:40:30.279201
2022-11-25 16:40:30.279327
2022-11-25 16:40:30.279418
2022-11-25 16:40:30.312550
2022-11-25 16:40:30.312721
2022-11-25 16:40:30.312842
2022-11-25 16:40:30.312951
2022-11-25 16:40:30.345935
2022-11-25 16:40:30.346115
2022-11-25 16:40:30.346243
2022-11-25 16:40:30.379052
2022-11-25 16:40:30.379211
2022-11-25 16:40:30.379310
2022-11-25 16:40:30.379395
2022-11-25 16:40:30.412572
2022-11-25 16:40:30.412756
2022-11-25 16:40:30.412877
2022-11-25 16:40:30.412992
2022-11-25 16:40:30.445798
2022-11-25 16:40:30.445939
2022-11-25 16:40:30.446032
2022-11-25 16:40:30.479200
2022-11-25 16:40:30.479391
2022-11-25 16:40:30.479515
2022-11-25 16:40:30.479629
2022-11-25 16:40:30.512494
2022-11-25 16:40:30.512679
2022-11-25 16:40:30.512803
2022-11-25 16:40:30.545664
2022-11-25 16:40:30.545940
2022-11-25 16:40:30.546065
2022-11-25 16:40:30.546181
2022-11-25 16:40:30.579008
2022-11-25 16:40:30.579190
2022-11-25 16:40:30.579316
2022-11-25 16:40:30.612286
2022-11-25 16:40:30.612518
2022-11-25 16:40:30.612664
2022-11-25 16:40:30.612781
2022-11-25 16:40:30.645645
2022-11-25 16:40:30.645861
2022-11-25 16:40:30.646022
2022-11-25 16:40:30.678918
2022-11-25 16:40:30.679119
2022-11-25 16:40:30.679281
2022-11-25 16:40:30.679440
2022-11-25 16:40:30.712289
2022-11-25 16:40:30.712487
2022-11-25 16:40:30.712611
2022-11-25 16:40:30.712723
2022-11-25 16:40:30.745512
2022-11-25 16:40:30.745653
2022-11-25 16:40:30.745749
2022-11-25 16:40:30.778858
2022-11-25 16:40:30.779006
2022-11-25 16:40:30.779099
2022-11-25 16:40:30.779182
2022-11-25 16:40:30.812283
2022-11-25 16:40:30.812535
2022-11-25 16:40:30.812789
2022-11-25 16:40:30.845380
2022-11-25 16:40:30.845602
2022-11-25 16:40:30.845748
2022-11-25 16:40:30.845907
2022-11-25 16:40:30.878749
2022-11-25 16:40:30.878949
2022-11-25 16:40:30.879078
2022-11-25 16:40:30.912024
2022-11-25 16:40:30.912230
2022-11-25 16:40:30.912342
2022-11-25 16:40:30.912428
2022-11-25 16:40:30.945299
2022-11-25 16:40:30.945446
2022-11-25 16:40:30.945540
2022-11-25 16:40:30.978590
2022-11-25 16:40:30.978893
2022-11-25 16:40:30.979069
2022-11-25 16:40:30.979226
2022-11-25 16:40:31.011975
2022-11-25 16:40:31.012196
2022-11-25 16:40:31.012361
2022-11-25 16:40:31.012522
2022-11-25 16:40:31.045240
2022-11-25 16:40:31.045441
2022-11-25 16:40:31.045563
2022-11-25 16:40:31.078428
2022-11-25 16:40:31.078595
2022-11-25 16:40:31.078690
2022-11-25 16:40:31.078773
2022-11-25 16:40:31.111884
2022-11-25 16:40:31.112161
2022-11-25 16:40:31.112336
2022-11-25 16:40:31.144996
2022-11-25 16:40:31.145233
2022-11-25 16:40:31.145325
2022-11-25 16:40:31.145440
2022-11-25 16:40:31.178396
2022-11-25 16:40:31.178561
2022-11-25 16:40:31.178745
2022-11-25 16:40:31.211569
2022-11-25 16:40:31.211715
2022-11-25 16:40:31.211853
2022-11-25 16:40:31.211952
2022-11-25 16:40:31.244910
2022-11-25 16:40:31.245021
2022-11-25 16:40:31.245151
2022-11-25 16:40:31.278187
2022-11-25 16:40:31.278389
2022-11-25 16:40:31.278491
2022-11-25 16:40:31.278592
2022-11-25 16:40:31.311535
2022-11-25 16:40:31.311681
2022-11-25 16:40:31.311850
2022-11-25 16:40:31.311960
2022-11-25 16:40:31.344874
2022-11-25 16:40:31.345009
2022-11-25 16:40:31.345117
2022-11-25 16:40:31.378115
2022-11-25 16:40:31.378249
2022-11-25 16:40:31.378336
2022-11-25 16:40:31.378475
2022-11-25 16:40:31.411478
2022-11-25 16:40:31.411687
2022-11-25 16:40:31.411837
2022-11-25 16:40:31.444756
2022-11-25 16:40:31.444990
2022-11-25 16:40:31.445111
2022-11-25 16:40:31.445275
2022-11-25 16:40:31.478170
2022-11-25 16:40:31.478389
2022-11-25 16:40:31.478687
2022-11-25 16:40:31.511516
2022-11-25 16:40:31.511770
2022-11-25 16:40:31.511945
2022-11-25 16:40:31.512065
2022-11-25 16:40:31.544682
2022-11-25 16:40:31.544843
2022-11-25 16:40:31.545070
2022-11-25 16:40:31.578009
2022-11-25 16:40:31.578239
2022-11-25 16:40:31.578407
2022-11-25 16:40:31.578554
2022-11-25 16:40:31.611284
2022-11-25 16:40:31.611446
2022-11-25 16:40:31.611658
2022-11-25 16:40:31.611815
2022-11-25 16:40:31.644619
2022-11-25 16:40:31.644874
2022-11-25 16:40:31.645023
2022-11-25 16:40:31.677956
2022-11-25 16:40:31.678110
2022-11-25 16:40:31.678311
2022-11-25 16:40:31.678469
2022-11-25 16:40:31.711477
2022-11-25 16:40:31.711790
2022-11-25 16:40:31.712070
2022-11-25 16:40:31.744661
2022-11-25 16:40:31.744879
2022-11-25 16:40:31.745238
2022-11-25 16:40:31.745496
2022-11-25 16:40:31.777879
2022-11-25 16:40:31.778009
2022-11-25 16:40:31.778127
2022-11-25 16:40:31.811118
2022-11-25 16:40:31.811319
2022-11-25 16:40:31.811443
2022-11-25 16:40:31.811535
2022-11-25 16:40:31.844550
2022-11-25 16:40:31.844680
2022-11-25 16:40:31.844820
2022-11-25 16:40:31.877720
2022-11-25 16:40:31.877903
2022-11-25 16:40:31.878020
2022-11-25 16:40:31.878132
2022-11-25 16:40:31.911188
2022-11-25 16:40:31.911449
2022-11-25 16:40:31.911619
2022-11-25 16:40:31.911776
2022-11-25 16:40:31.944493
2022-11-25 16:40:31.944724
2022-11-25 16:40:31.944887
2022-11-25 16:40:31.977740
2022-11-25 16:40:31.977973
2022-11-25 16:40:31.978132
2022-11-25 16:40:31.978285
2022-11-25 16:40:32.011114
2022-11-25 16:40:32.011384
2022-11-25 16:40:32.011557
2022-11-25 16:40:32.044227
2022-11-25 16:40:32.044461
2022-11-25 16:40:32.044588
2022-11-25 16:40:32.044703
2022-11-25 16:40:32.077714
2022-11-25 16:40:32.077966
2022-11-25 16:40:32.078137
2022-11-25 16:40:32.110905
2022-11-25 16:40:32.111134
2022-11-25 16:40:32.111295
2022-11-25 16:40:32.111451
2022-11-25 16:40:32.144251
2022-11-25 16:40:32.144490
2022-11-25 16:40:32.144664
2022-11-25 16:40:32.177516
2022-11-25 16:40:32.177788
2022-11-25 16:40:32.177959
2022-11-25 16:40:32.178116
2022-11-25 16:40:32.210941
2022-11-25 16:40:32.211218
2022-11-25 16:40:32.211378
2022-11-25 16:40:32.211537
2022-11-25 16:40:32.244208
2022-11-25 16:40:32.244443
2022-11-25 16:40:32.244609
2022-11-25 16:40:32.277399
2022-11-25 16:40:32.277592
2022-11-25 16:40:32.277713
2022-11-25 16:40:32.277825
2022-11-25 16:40:32.310868
2022-11-25 16:40:32.311121
2022-11-25 16:40:32.311291
2022-11-25 16:40:32.344063
2022-11-25 16:40:32.344305
2022-11-25 16:40:32.344473
2022-11-25 16:40:32.344715
2022-11-25 16:40:32.377227
2022-11-25 16:40:32.377373
2022-11-25 16:40:32.377543
2022-11-25 16:40:32.410658
2022-11-25 16:40:32.410913
2022-11-25 16:40:32.411080
2022-11-25 16:40:32.411235
2022-11-25 16:40:32.444011
2022-11-25 16:40:32.444261
2022-11-25 16:40:32.444422
2022-11-25 16:40:32.477176
2022-11-25 16:40:32.477438
2022-11-25 16:40:32.477604
2022-11-25 16:40:32.477759
2022-11-25 16:40:32.510625
2022-11-25 16:40:32.510876
2022-11-25 16:40:32.511041
2022-11-25 16:40:32.511198
2022-11-25 16:40:32.543924
2022-11-25 16:40:32.544165
2022-11-25 16:40:32.544332
2022-11-25 16:40:32.577145
2022-11-25 16:40:32.577399
2022-11-25 16:40:32.577569
2022-11-25 16:40:32.577726
2022-11-25 16:40:32.610506
2022-11-25 16:40:32.610761
2022-11-25 16:40:32.610925
2022-11-25 16:40:32.643720
2022-11-25 16:40:32.643966
2022-11-25 16:40:32.644138
2022-11-25 16:40:32.644299
2022-11-25 16:40:32.677055
2022-11-25 16:40:32.677254
2022-11-25 16:40:32.677376
2022-11-25 16:40:32.710309
2022-11-25 16:40:32.710552
2022-11-25 16:40:32.710728
2022-11-25 16:40:32.710879
2022-11-25 16:40:32.743680
2022-11-25 16:40:32.743914
2022-11-25 16:40:32.744079
2022-11-25 16:40:32.776877
2022-11-25 16:40:32.777052
2022-11-25 16:40:32.777140
2022-11-25 16:40:32.777221
2022-11-25 16:40:32.810281
2022-11-25 16:40:32.810532
2022-11-25 16:40:32.810703
2022-11-25 16:40:32.810920
2022-11-25 16:40:32.843674
2022-11-25 16:40:32.843906
2022-11-25 16:40:32.844074
2022-11-25 16:40:32.876892
2022-11-25 16:40:32.877156
2022-11-25 16:40:32.877326
2022-11-25 16:40:32.877485
2022-11-25 16:40:32.910260
2022-11-25 16:40:32.910493
2022-11-25 16:40:32.910655
2022-11-25 16:40:32.943468
2022-11-25 16:40:32.943728
2022-11-25 16:40:32.943901
2022-11-25 16:40:32.944057
2022-11-25 16:40:32.976836
2022-11-25 16:40:32.977088
2022-11-25 16:40:32.977258
2022-11-25 16:40:33.009931
2022-11-25 16:40:33.010106
2022-11-25 16:40:33.010202
2022-11-25 16:40:33.010289
2022-11-25 16:40:33.043439
2022-11-25 16:40:33.043695
2022-11-25 16:40:33.043865
2022-11-25 16:40:33.076630
2022-11-25 16:40:33.076909
2022-11-25 16:40:33.077082
2022-11-25 16:40:33.077244
2022-11-25 16:40:33.110100
2022-11-25 16:40:33.110351
2022-11-25 16:40:33.110522
2022-11-25 16:40:33.110681
2022-11-25 16:40:33.143391
2022-11-25 16:40:33.143642
2022-11-25 16:40:33.143824
2022-11-25 16:40:33.176644
2022-11-25 16:40:33.176917
2022-11-25 16:40:33.177091
2022-11-25 16:40:33.177250
2022-11-25 16:40:33.210033
2022-11-25 16:40:33.210281
2022-11-25 16:40:33.210450
2022-11-25 16:40:33.243272
2022-11-25 16:40:33.243522
2022-11-25 16:40:33.243693
2022-11-25 16:40:33.243846
2022-11-25 16:40:33.276550
2022-11-25 16:40:33.276711
2022-11-25 16:40:33.276798
2022-11-25 16:40:33.309795
2022-11-25 16:40:33.310109
2022-11-25 16:40:33.310282
2022-11-25 16:40:33.310442
2022-11-25 16:40:33.343232
2022-11-25 16:40:33.343510
2022-11-25 16:40:33.343681
2022-11-25 16:40:33.376343
2022-11-25 16:40:33.376722
2022-11-25 16:40:33.376904
2022-11-25 16:40:33.377062
2022-11-25 16:40:33.409742
2022-11-25 16:40:33.410041
2022-11-25 16:40:33.410245
2022-11-25 16:40:33.410408
2022-11-25 16:40:33.443099
2022-11-25 16:40:33.443404
2022-11-25 16:40:33.443593
2022-11-25 16:40:33.476298
2022-11-25 16:40:33.476643
2022-11-25 16:40:33.476814
2022-11-25 16:40:33.476968
2022-11-25 16:40:33.509684
2022-11-25 16:40:33.510012
2022-11-25 16:40:33.510217
2022-11-25 16:40:33.542900
2022-11-25 16:40:33.543349
2022-11-25 16:40:33.543558
2022-11-25 16:40:33.543726
2022-11-25 16:40:33.576191
2022-11-25 16:40:33.576383
2022-11-25 16:40:33.576647
2022-11-25 16:40:33.609500
2022-11-25 16:40:33.609689
2022-11-25 16:40:33.609947
2022-11-25 16:40:33.610095
2022-11-25 16:40:33.642852
2022-11-25 16:40:33.643246
2022-11-25 16:40:33.643433
2022-11-25 16:40:33.676078
2022-11-25 16:40:33.676369
2022-11-25 16:40:33.676700
2022-11-25 16:40:33.676898
2022-11-25 16:40:33.709454
2022-11-25 16:40:33.709713
2022-11-25 16:40:33.710069
2022-11-25 16:40:33.710265
2022-11-25 16:40:33.742781
2022-11-25 16:40:33.743023
2022-11-25 16:40:33.743363
2022-11-25 16:40:33.776014
2022-11-25 16:40:33.776177
2022-11-25 16:40:33.776266
2022-11-25 16:40:33.776349
2022-11-25 16:40:33.809353
2022-11-25 16:40:33.809552
2022-11-25 16:40:33.809671
2022-11-25 16:40:33.842614
2022-11-25 16:40:33.842865
2022-11-25 16:40:33.843030
2022-11-25 16:40:33.843291
2022-11-25 16:40:33.875964
2022-11-25 16:40:33.876212
2022-11-25 16:40:33.876374
2022-11-25 16:40:33.909195
2022-11-25 16:40:33.909434
2022-11-25 16:40:33.909594
2022-11-25 16:40:33.909770
2022-11-25 16:40:33.942605
2022-11-25 16:40:33.942872
2022-11-25 16:40:33.943074
2022-11-25 16:40:33.975764
2022-11-25 16:40:33.975973
2022-11-25 16:40:33.976094
2022-11-25 16:40:33.976206
2022-11-25 16:40:34.009158
2022-11-25 16:40:34.009415
2022-11-25 16:40:34.009590
2022-11-25 16:40:34.009781
2022-11-25 16:40:34.042473
2022-11-25 16:40:34.042719
2022-11-25 16:40:34.042879
2022-11-25 16:40:34.075743
2022-11-25 16:40:34.075989
2022-11-25 16:40:34.076165
2022-11-25 16:40:34.076328
2022-11-25 16:40:34.109120
2022-11-25 16:40:34.109376
2022-11-25 16:40:34.109547
2022-11-25 16:40:34.142312
2022-11-25 16:40:34.142558
2022-11-25 16:40:34.142729
2022-11-25 16:40:34.142885
2022-11-25 16:40:34.175637
2022-11-25 16:40:34.175896
2022-11-25 16:40:34.176063
2022-11-25 16:40:34.208932
2022-11-25 16:40:34.209190
2022-11-25 16:40:34.209360
2022-11-25 16:40:34.209515
2022-11-25 16:40:34.242268
2022-11-25 16:40:34.242519
2022-11-25 16:40:34.242684
2022-11-25 16:40:34.275388
2022-11-25 16:40:34.275564
2022-11-25 16:40:34.275666
2022-11-25 16:40:34.275749
2022-11-25 16:40:34.308851
2022-11-25 16:40:34.309105
2022-11-25 16:40:34.309278
2022-11-25 16:40:34.309437
2022-11-25 16:40:34.342225
2022-11-25 16:40:34.342483
2022-11-25 16:40:34.342655
2022-11-25 16:40:34.375416
2022-11-25 16:40:34.375609
2022-11-25 16:40:34.375732
2022-11-25 16:40:34.375841
2022-11-25 16:40:34.408819
2022-11-25 16:40:34.409074
2022-11-25 16:40:34.409246
2022-11-25 16:40:34.442063
2022-11-25 16:40:34.442329
2022-11-25 16:40:34.442497
2022-11-25 16:40:34.442659
2022-11-25 16:40:34.475382
2022-11-25 16:40:34.475616
2022-11-25 16:40:34.475777
2022-11-25 16:40:34.508617
2022-11-25 16:40:34.508881
2022-11-25 16:40:34.509053
2022-11-25 16:40:34.509215
2022-11-25 16:40:34.541976
2022-11-25 16:40:34.542217
2022-11-25 16:40:34.542381
2022-11-25 16:40:34.575188
2022-11-25 16:40:34.575461
2022-11-25 16:40:34.575639
2022-11-25 16:40:34.575798
2022-11-25 16:40:34.608605
2022-11-25 16:40:34.608801
2022-11-25 16:40:34.608917
2022-11-25 16:40:34.609030
2022-11-25 16:40:34.641893
2022-11-25 16:40:34.642136
2022-11-25 16:40:34.642312
2022-11-25 16:40:34.675117
2022-11-25 16:40:34.675314
2022-11-25 16:40:34.675438
2022-11-25 16:40:34.675553
2022-11-25 16:40:34.708509
2022-11-25 16:40:34.708748
2022-11-25 16:40:34.708922
2022-11-25 16:40:34.741751
2022-11-25 16:40:34.741989
2022-11-25 16:40:34.742157
2022-11-25 16:40:34.742314
2022-11-25 16:40:34.775081
2022-11-25 16:40:34.775238
2022-11-25 16:40:34.775334
2022-11-25 16:40:34.808377
2022-11-25 16:40:34.808643
2022-11-25 16:40:34.808812
2022-11-25 16:40:34.808971
2022-11-25 16:40:34.841675
2022-11-25 16:40:34.841876
2022-11-25 16:40:34.842000
2022-11-25 16:40:34.874911
2022-11-25 16:40:34.875125
2022-11-25 16:40:34.875247
2022-11-25 16:40:34.875364
2022-11-25 16:40:34.908270
2022-11-25 16:40:34.908539
2022-11-25 16:40:34.908707
2022-11-25 16:40:34.908865
2022-11-25 16:40:34.941678
2022-11-25 16:40:34.941920
2022-11-25 16:40:34.942079
2022-11-25 16:40:34.974871
2022-11-25 16:40:34.975124
2022-11-25 16:40:34.975293
2022-11-25 16:40:34.975463
2022-11-25 16:40:35.008209
2022-11-25 16:40:35.008456
2022-11-25 16:40:35.008619
2022-11-25 16:40:35.041494
2022-11-25 16:40:35.041758
2022-11-25 16:40:35.041934
2022-11-25 16:40:35.042098
2022-11-25 16:40:35.074819
2022-11-25 16:40:35.075068
2022-11-25 16:40:35.075237
2022-11-25 16:40:35.108027
2022-11-25 16:40:35.108289
2022-11-25 16:40:35.108455
2022-11-25 16:40:35.108612
2022-11-25 16:40:35.141424
2022-11-25 16:40:35.141682
2022-11-25 16:40:35.141855
2022-11-25 16:40:35.174637
2022-11-25 16:40:35.174901
2022-11-25 16:40:35.175069
2022-11-25 16:40:35.175225
2022-11-25 16:40:35.207999
2022-11-25 16:40:35.208252
2022-11-25 16:40:35.208422
2022-11-25 16:40:35.208579
2022-11-25 16:40:35.241360
2022-11-25 16:40:35.241619
2022-11-25 16:40:35.241788
2022-11-25 16:40:35.274528
2022-11-25 16:40:35.274684
2022-11-25 16:40:35.274778
2022-11-25 16:40:35.274861
2022-11-25 16:40:35.307964
2022-11-25 16:40:35.308215
2022-11-25 16:40:35.308387
2022-11-25 16:40:35.341207
2022-11-25 16:40:35.341466
2022-11-25 16:40:35.341629
2022-11-25 16:40:35.341794
2022-11-25 16:40:35.374424
2022-11-25 16:40:35.374616
2022-11-25 16:40:35.374740
2022-11-25 16:40:35.407765
2022-11-25 16:40:35.408010
2022-11-25 16:40:35.408173
2022-11-25 16:40:35.408331
2022-11-25 16:40:35.441123
2022-11-25 16:40:35.441387
2022-11-25 16:40:35.441571
2022-11-25 16:40:35.474288
2022-11-25 16:40:35.474562
2022-11-25 16:40:35.474734
2022-11-25 16:40:35.474893
2022-11-25 16:40:35.507738
2022-11-25 16:40:35.507996
2022-11-25 16:40:35.508170
2022-11-25 16:40:35.508329
2022-11-25 16:40:35.541066
2022-11-25 16:40:35.541323
2022-11-25 16:40:35.541495
2022-11-25 16:40:35.574286
2022-11-25 16:40:35.574536
2022-11-25 16:40:35.574704
2022-11-25 16:40:35.574863
2022-11-25 16:40:35.607654
2022-11-25 16:40:35.607905
2022-11-25 16:40:35.608080
2022-11-25 16:40:35.640878
2022-11-25 16:40:35.641135
2022-11-25 16:40:35.641309
2022-11-25 16:40:35.641467
2022-11-25 16:40:35.674222
2022-11-25 16:40:35.674483
2022-11-25 16:40:35.674652
2022-11-25 16:40:35.707466
2022-11-25 16:40:35.707722
2022-11-25 16:40:35.707894
2022-11-25 16:40:35.708049
2022-11-25 16:40:35.740800
2022-11-25 16:40:35.741000
2022-11-25 16:40:35.741129
2022-11-25 16:40:35.773834
2022-11-25 16:40:35.773954
2022-11-25 16:40:35.774019
2022-11-25 16:40:35.774128
2022-11-25 16:40:35.807219
2022-11-25 16:40:35.807319
2022-11-25 16:40:35.807400
2022-11-25 16:40:35.807481
2022-11-25 16:40:35.840643
2022-11-25 16:40:35.840781
2022-11-25 16:40:35.840874
2022-11-25 16:40:35.873998
2022-11-25 16:40:35.874253
2022-11-25 16:40:35.874422
2022-11-25 16:40:35.874585
2022-11-25 16:40:35.907271
2022-11-25 16:40:35.907435
2022-11-25 16:40:35.907526
2022-11-25 16:40:35.940586
2022-11-25 16:40:35.940842
2022-11-25 16:40:35.941014
2022-11-25 16:40:35.941171
2022-11-25 16:40:35.973932
2022-11-25 16:40:35.974177
2022-11-25 16:40:35.974347
2022-11-25 16:40:36.007171
2022-11-25 16:40:36.007433
2022-11-25 16:40:36.007601
2022-11-25 16:40:36.007760
2022-11-25 16:40:36.040520
2022-11-25 16:40:36.040775
2022-11-25 16:40:36.040947
2022-11-25 16:40:36.073743
2022-11-25 16:40:36.074017
2022-11-25 16:40:36.074188
2022-11-25 16:40:36.074357
2022-11-25 16:40:36.107134
2022-11-25 16:40:36.107383
2022-11-25 16:40:36.107574
2022-11-25 16:40:36.107736
2022-11-25 16:40:36.140459
2022-11-25 16:40:36.140710
2022-11-25 16:40:36.140882
2022-11-25 16:40:36.173720
2022-11-25 16:40:36.173982
2022-11-25 16:40:36.174151
2022-11-25 16:40:36.174311
2022-11-25 16:40:36.207037
2022-11-25 16:40:36.207286
2022-11-25 16:40:36.207457
2022-11-25 16:40:36.240277
2022-11-25 16:40:36.240515
2022-11-25 16:40:36.240689
2022-11-25 16:40:36.240844
2022-11-25 16:40:36.273412
2022-11-25 16:40:36.273512
2022-11-25 16:40:36.273591
2022-11-25 16:40:36.306846
2022-11-25 16:40:36.306984
2022-11-25 16:40:36.307078
2022-11-25 16:40:36.307166
2022-11-25 16:40:36.340244
2022-11-25 16:40:36.340492
2022-11-25 16:40:36.340658
2022-11-25 16:40:36.373362
2022-11-25 16:40:36.373630
2022-11-25 16:40:36.373796
2022-11-25 16:40:36.373954
2022-11-25 16:40:36.406823
2022-11-25 16:40:36.407076
2022-11-25 16:40:36.407260
2022-11-25 16:40:36.407417
2022-11-25 16:40:36.440188
2022-11-25 16:40:36.440435
2022-11-25 16:40:36.440603
2022-11-25 16:40:36.473418
2022-11-25 16:40:36.473659
2022-11-25 16:40:36.473828
2022-11-25 16:40:36.473985
2022-11-25 16:40:36.506762
2022-11-25 16:40:36.506996
2022-11-25 16:40:36.507163
2022-11-25 16:40:36.540003
2022-11-25 16:40:36.540248
2022-11-25 16:40:36.540413
2022-11-25 16:40:36.540567
2022-11-25 16:40:36.573349
2022-11-25 16:40:36.573598
2022-11-25 16:40:36.573766
2022-11-25 16:40:36.606579
2022-11-25 16:40:36.606831
2022-11-25 16:40:36.606998
2022-11-25 16:40:36.607152
2022-11-25 16:40:36.639944
2022-11-25 16:40:36.640187
2022-11-25 16:40:36.640348
2022-11-25 16:40:36.673137
2022-11-25 16:40:36.673399
2022-11-25 16:40:36.673565
2022-11-25 16:40:36.673721
2022-11-25 16:40:36.706526
2022-11-25 16:40:36.706777
2022-11-25 16:40:36.706947
2022-11-25 16:40:36.707104
2022-11-25 16:40:36.739902
2022-11-25 16:40:36.740151
2022-11-25 16:40:36.740320
2022-11-25 16:40:36.772981
2022-11-25 16:40:36.773133
2022-11-25 16:40:36.773220
2022-11-25 16:40:36.773320
2022-11-25 16:40:36.806496
2022-11-25 16:40:36.806746
2022-11-25 16:40:36.806914
2022-11-25 16:40:36.839718
2022-11-25 16:40:36.839972
2022-11-25 16:40:36.840136
2022-11-25 16:40:36.840302
2022-11-25 16:40:36.873067
2022-11-25 16:40:36.873317
2022-11-25 16:40:36.873481
2022-11-25 16:40:36.906288
2022-11-25 16:40:36.906555
2022-11-25 16:40:36.906729
2022-11-25 16:40:36.907086
2022-11-25 16:40:36.939657
2022-11-25 16:40:36.939907
2022-11-25 16:40:36.940073
2022-11-25 16:40:36.972860
2022-11-25 16:40:36.973127
2022-11-25 16:40:36.973290
2022-11-25 16:40:36.973444
2022-11-25 16:40:37.006253
2022-11-25 16:40:37.006520
2022-11-25 16:40:37.006692
2022-11-25 16:40:37.006849
2022-11-25 16:40:37.039638
2022-11-25 16:40:37.039880
2022-11-25 16:40:37.040050
2022-11-25 16:40:37.072798
2022-11-25 16:40:37.072988
2022-11-25 16:40:37.073104
2022-11-25 16:40:37.073218
2022-11-25 16:40:37.106194
2022-11-25 16:40:37.106446
2022-11-25 16:40:37.106614
2022-11-25 16:40:37.139426
2022-11-25 16:40:37.139670
2022-11-25 16:40:37.139830
2022-11-25 16:40:37.139981
2022-11-25 16:40:37.172740
2022-11-25 16:40:37.172993
2022-11-25 16:40:37.173159
2022-11-25 16:40:37.206010
2022-11-25 16:40:37.206251
2022-11-25 16:40:37.206416
2022-11-25 16:40:37.206574
2022-11-25 16:40:37.239350
2022-11-25 16:40:37.239590
2022-11-25 16:40:37.239759
2022-11-25 16:40:37.272559
2022-11-25 16:40:37.272831
2022-11-25 16:40:37.273004
2022-11-25 16:40:37.273160
2022-11-25 16:40:37.305928
2022-11-25 16:40:37.306090
2022-11-25 16:40:37.306181
2022-11-25 16:40:37.306265
2022-11-25 16:40:37.339292
2022-11-25 16:40:37.339534
2022-11-25 16:40:37.339709
2022-11-25 16:40:37.372505
2022-11-25 16:40:37.372758
2022-11-25 16:40:37.372921
2022-11-25 16:40:37.373076
2022-11-25 16:40:37.405951
2022-11-25 16:40:37.406206
2022-11-25 16:40:37.406372
2022-11-25 16:40:37.439137
2022-11-25 16:40:37.439396
2022-11-25 16:40:37.439568
2022-11-25 16:40:37.439725
2022-11-25 16:40:37.472448
2022-11-25 16:40:37.472702
2022-11-25 16:40:37.472870
2022-11-25 16:40:37.505722
2022-11-25 16:40:37.505970
2022-11-25 16:40:37.506131
2022-11-25 16:40:37.506290
2022-11-25 16:40:37.539091
2022-11-25 16:40:37.539329
2022-11-25 16:40:37.539501
2022-11-25 16:40:37.572304
2022-11-25 16:40:37.572558
2022-11-25 16:40:37.572729
2022-11-25 16:40:37.572888
2022-11-25 16:40:37.605673
2022-11-25 16:40:37.605911
2022-11-25 16:40:37.606075
2022-11-25 16:40:37.606230
2022-11-25 16:40:37.638977
2022-11-25 16:40:37.639200
2022-11-25 16:40:37.639364
2022-11-25 16:40:37.672246
2022-11-25 16:40:37.672478
2022-11-25 16:40:37.672640
2022-11-25 16:40:37.672793
2022-11-25 16:40:37.705659
2022-11-25 16:40:37.705907
2022-11-25 16:40:37.706075
2022-11-25 16:40:37.738814
2022-11-25 16:40:37.739000
2022-11-25 16:40:37.739126
2022-11-25 16:40:37.739236
2022-11-25 16:40:37.772201
2022-11-25 16:40:37.772449
2022-11-25 16:40:37.772540
2022-11-25 16:40:37.805418
2022-11-25 16:40:37.805629
2022-11-25 16:40:37.805742
2022-11-25 16:40:37.805829
2022-11-25 16:40:37.838757
2022-11-25 16:40:37.838994
2022-11-25 16:40:37.839153
2022-11-25 16:40:37.871997
2022-11-25 16:40:37.872300
2022-11-25 16:40:37.872477
2022-11-25 16:40:37.872633
2022-11-25 16:40:37.905353
2022-11-25 16:40:37.905595
2022-11-25 16:40:37.905760
2022-11-25 16:40:37.905916
2022-11-25 16:40:37.938736
2022-11-25 16:40:37.938978
2022-11-25 16:40:37.939136
2022-11-25 16:40:37.971968
2022-11-25 16:40:37.972213
2022-11-25 16:40:37.972390
2022-11-25 16:40:37.972547
2022-11-25 16:40:38.005284
2022-11-25 16:40:38.005520
2022-11-25 16:40:38.005685
2022-11-25 16:40:38.038582
2022-11-25 16:40:38.038748
2022-11-25 16:40:38.038876
2022-11-25 16:40:38.038984
2022-11-25 16:40:38.071929
2022-11-25 16:40:38.072180
2022-11-25 16:40:38.072344
2022-11-25 16:40:38.105163
2022-11-25 16:40:38.105415
2022-11-25 16:40:38.105583
2022-11-25 16:40:38.105742
2022-11-25 16:40:38.138484
2022-11-25 16:40:38.138741
2022-11-25 16:40:38.138907
2022-11-25 16:40:38.171713
2022-11-25 16:40:38.171985
2022-11-25 16:40:38.172153
2022-11-25 16:40:38.172320
2022-11-25 16:40:38.205073
2022-11-25 16:40:38.205332
2022-11-25 16:40:38.205505
2022-11-25 16:40:38.205666
2022-11-25 16:40:38.238412
2022-11-25 16:40:38.238599
2022-11-25 16:40:38.238722
2022-11-25 16:40:38.271641
2022-11-25 16:40:38.271889
2022-11-25 16:40:38.272058
2022-11-25 16:40:38.272211
2022-11-25 16:40:38.304838
2022-11-25 16:40:38.304917
2022-11-25 16:40:38.304980
2022-11-25 16:40:38.338120
2022-11-25 16:40:38.338245
2022-11-25 16:40:38.338322
2022-11-25 16:40:38.338393
2022-11-25 16:40:38.371629
2022-11-25 16:40:38.371876
2022-11-25 16:40:38.372050
2022-11-25 16:40:38.404855
2022-11-25 16:40:38.405113
2022-11-25 16:40:38.405280
2022-11-25 16:40:38.405443
2022-11-25 16:40:38.438212
2022-11-25 16:40:38.438459
2022-11-25 16:40:38.438627
2022-11-25 16:40:38.471416
2022-11-25 16:40:38.471679
2022-11-25 16:40:38.471848
2022-11-25 16:40:38.472004
2022-11-25 16:40:38.504774
2022-11-25 16:40:38.505003
2022-11-25 16:40:38.505161
2022-11-25 16:40:38.505317
2022-11-25 16:40:38.538149
2022-11-25 16:40:38.538394
2022-11-25 16:40:38.538564
2022-11-25 16:40:38.571376
2022-11-25 16:40:38.571630
2022-11-25 16:40:38.571796
2022-11-25 16:40:38.571955
2022-11-25 16:40:38.604720
2022-11-25 16:40:38.604970
2022-11-25 16:40:38.605136
2022-11-25 16:40:38.637933
2022-11-25 16:40:38.638187
2022-11-25 16:40:38.638355
2022-11-25 16:40:38.638510
2022-11-25 16:40:38.671324
2022-11-25 16:40:38.671580
2022-11-25 16:40:38.671757
2022-11-25 16:40:38.704539
2022-11-25 16:40:38.704806
2022-11-25 16:40:38.704980
2022-11-25 16:40:38.705139
2022-11-25 16:40:38.737905
2022-11-25 16:40:38.738156
2022-11-25 16:40:38.738325
2022-11-25 16:40:38.771071
2022-11-25 16:40:38.771328
2022-11-25 16:40:38.771500
2022-11-25 16:40:38.771658
2022-11-25 16:40:38.804474
2022-11-25 16:40:38.804635
2022-11-25 16:40:38.804730
2022-11-25 16:40:38.804817
2022-11-25 16:40:38.837877
2022-11-25 16:40:38.838111
2022-11-25 16:40:38.838277
2022-11-25 16:40:38.871116
2022-11-25 16:40:38.871364
2022-11-25 16:40:38.871531
2022-11-25 16:40:38.871688
2022-11-25 16:40:38.904454
2022-11-25 16:40:38.904706
2022-11-25 16:40:38.904870
2022-11-25 16:40:38.937687
2022-11-25 16:40:38.937943
2022-11-25 16:40:38.938115
2022-11-25 16:40:38.938276
2022-11-25 16:40:38.971037
2022-11-25 16:40:38.971282
2022-11-25 16:40:38.971447
2022-11-25 16:40:39.004265
2022-11-25 16:40:39.004525
2022-11-25 16:40:39.004698
2022-11-25 16:40:39.004857
2022-11-25 16:40:39.037572
2022-11-25 16:40:39.037761
2022-11-25 16:40:39.038067
2022-11-25 16:40:39.070844
2022-11-25 16:40:39.071094
2022-11-25 16:40:39.071261
2022-11-25 16:40:39.071420
2022-11-25 16:40:39.104215
2022-11-25 16:40:39.104460
2022-11-25 16:40:39.104625
2022-11-25 16:40:39.104787
2022-11-25 16:40:39.137580
2022-11-25 16:40:39.137832
2022-11-25 16:40:39.138011
2022-11-25 16:40:39.170818
2022-11-25 16:40:39.171070
2022-11-25 16:40:39.171232
2022-11-25 16:40:39.171393
2022-11-25 16:40:39.204164
2022-11-25 16:40:39.204412
2022-11-25 16:40:39.204578
2022-11-25 16:40:39.237442
2022-11-25 16:40:39.237699
2022-11-25 16:40:39.237874
2022-11-25 16:40:39.238033
2022-11-25 16:40:39.270739
2022-11-25 16:40:39.270987
2022-11-25 16:40:39.271161
2022-11-25 16:40:39.303954
2022-11-25 16:40:39.304114
2022-11-25 16:40:39.304206
2022-11-25 16:40:39.304288
2022-11-25 16:40:39.337304
2022-11-25 16:40:39.337555
2022-11-25 16:40:39.337731
2022-11-25 16:40:39.370554
2022-11-25 16:40:39.370841
2022-11-25 16:40:39.371016
2022-11-25 16:40:39.371178
2022-11-25 16:40:39.403949
2022-11-25 16:40:39.404190
2022-11-25 16:40:39.404355
2022-11-25 16:40:39.404512
2022-11-25 16:40:39.437278
2022-11-25 16:40:39.437519
2022-11-25 16:40:39.437693
2022-11-25 16:40:39.470504
2022-11-25 16:40:39.470740
2022-11-25 16:40:39.470902
2022-11-25 16:40:39.471056
2022-11-25 16:40:39.503894
2022-11-25 16:40:39.504144
2022-11-25 16:40:39.504317
2022-11-25 16:40:39.537113
2022-11-25 16:40:39.537371
2022-11-25 16:40:39.537549
2022-11-25 16:40:39.537710
2022-11-25 16:40:39.570433
2022-11-25 16:40:39.570667
2022-11-25 16:40:39.570835
2022-11-25 16:40:39.603675
2022-11-25 16:40:39.603910
2022-11-25 16:40:39.604078
2022-11-25 16:40:39.604238
2022-11-25 16:40:39.637004
2022-11-25 16:40:39.637198
2022-11-25 16:40:39.637321
2022-11-25 16:40:39.670244
2022-11-25 16:40:39.670519
2022-11-25 16:40:39.670686
2022-11-25 16:40:39.670845
2022-11-25 16:40:39.703629
2022-11-25 16:40:39.703883
2022-11-25 16:40:39.704055
2022-11-25 16:40:39.704216
2022-11-25 16:40:39.736996
2022-11-25 16:40:39.737234
2022-11-25 16:40:39.737398
2022-11-25 16:40:39.770231
2022-11-25 16:40:39.770487
2022-11-25 16:40:39.770655
2022-11-25 16:40:39.770811
2022-11-25 16:40:39.803568
2022-11-25 16:40:39.803730
2022-11-25 16:40:39.803823
2022-11-25 16:40:39.836822
2022-11-25 16:40:39.837068
2022-11-25 16:40:39.837238
2022-11-25 16:40:39.837402
2022-11-25 16:40:39.870129
2022-11-25 16:40:39.870316
2022-11-25 16:40:39.870437
2022-11-25 16:40:39.903384
2022-11-25 16:40:39.903640
2022-11-25 16:40:39.903818
2022-11-25 16:40:39.903976
2022-11-25 16:40:39.936716
2022-11-25 16:40:39.936909
2022-11-25 16:40:39.937030
2022-11-25 16:40:39.969956
2022-11-25 16:40:39.970228
2022-11-25 16:40:39.970400
2022-11-25 16:40:39.970561
2022-11-25 16:40:40.003376
2022-11-25 16:40:40.003660
2022-11-25 16:40:40.003829
2022-11-25 16:40:40.003986
2022-11-25 16:40:40.036569
2022-11-25 16:40:40.036727
2022-11-25 16:40:40.036823
2022-11-25 16:40:40.069935
2022-11-25 16:40:40.070180
2022-11-25 16:40:40.070345
2022-11-25 16:40:40.070498
2022-11-25 16:40:40.103325
2022-11-25 16:40:40.103577
2022-11-25 16:40:40.103748
2022-11-25 16:40:40.136502
2022-11-25 16:40:40.136754
2022-11-25 16:40:40.136924
2022-11-25 16:40:40.137077
2022-11-25 16:40:40.169935
2022-11-25 16:40:40.170189
2022-11-25 16:40:40.170357
2022-11-25 16:40:40.203146
2022-11-25 16:40:40.203405
2022-11-25 16:40:40.203570
2022-11-25 16:40:40.203732
2022-11-25 16:40:40.236415
2022-11-25 16:40:40.236572
2022-11-25 16:40:40.236667
2022-11-25 16:40:40.269682
2022-11-25 16:40:40.269943
2022-11-25 16:40:40.270110
2022-11-25 16:40:40.270266
2022-11-25 16:40:40.303004
2022-11-25 16:40:40.303169
2022-11-25 16:40:40.303257
2022-11-25 16:40:40.303345
2022-11-25 16:40:40.336391
2022-11-25 16:40:40.336644
2022-11-25 16:40:40.336808
2022-11-25 16:40:40.369664
2022-11-25 16:40:40.369926
2022-11-25 16:40:40.370094
2022-11-25 16:40:40.370261
2022-11-25 16:40:40.403002
2022-11-25 16:40:40.403251
2022-11-25 16:40:40.403426
2022-11-25 16:40:40.436227
2022-11-25 16:40:40.436480
2022-11-25 16:40:40.436649
2022-11-25 16:40:40.436807
2022-11-25 16:40:40.469660
2022-11-25 16:40:40.469905
2022-11-25 16:40:40.470068
2022-11-25 16:40:40.502808
2022-11-25 16:40:40.503059
2022-11-25 16:40:40.503226
2022-11-25 16:40:40.503381
2022-11-25 16:40:40.536134
2022-11-25 16:40:40.536325
2022-11-25 16:40:40.536448
2022-11-25 16:40:40.569391
2022-11-25 16:40:40.569667
2022-11-25 16:40:40.569843
2022-11-25 16:40:40.570004
2022-11-25 16:40:40.602768
2022-11-25 16:40:40.603025
2022-11-25 16:40:40.603198
2022-11-25 16:40:40.603358
2022-11-25 16:40:40.636145
2022-11-25 16:40:40.636387
2022-11-25 16:40:40.636549
2022-11-25 16:40:40.669371
2022-11-25 16:40:40.669634
2022-11-25 16:40:40.669813
2022-11-25 16:40:40.669969
2022-11-25 16:40:40.702704
2022-11-25 16:40:40.702950
2022-11-25 16:40:40.703117
2022-11-25 16:40:40.735923
2022-11-25 16:40:40.736171
2022-11-25 16:40:40.736352
2022-11-25 16:40:40.736506
2022-11-25 16:40:40.769270
2022-11-25 16:40:40.769435
2022-11-25 16:40:40.769523
2022-11-25 16:40:40.802520
2022-11-25 16:40:40.802682
2022-11-25 16:40:40.802775
2022-11-25 16:40:40.802858
2022-11-25 16:40:40.835913
2022-11-25 16:40:40.836166
2022-11-25 16:40:40.836332
2022-11-25 16:40:40.869121
2022-11-25 16:40:40.869301
2022-11-25 16:40:40.869392
2022-11-25 16:40:40.869473
2022-11-25 16:40:40.902426
2022-11-25 16:40:40.902667
2022-11-25 16:40:40.902828
2022-11-25 16:40:40.902990
2022-11-25 16:40:40.935828
2022-11-25 16:40:40.936081
2022-11-25 16:40:40.936245
2022-11-25 16:40:40.969041
2022-11-25 16:40:40.969290
2022-11-25 16:40:40.969460
2022-11-25 16:40:40.969618
2022-11-25 16:40:41.002443
2022-11-25 16:40:41.002693
2022-11-25 16:40:41.002861
2022-11-25 16:40:41.035657
2022-11-25 16:40:41.035991
2022-11-25 16:40:41.036170
2022-11-25 16:40:41.036324
2022-11-25 16:40:41.068976
2022-11-25 16:40:41.069141
2022-11-25 16:40:41.069230
2022-11-25 16:40:41.102227
2022-11-25 16:40:41.102487
2022-11-25 16:40:41.102661
2022-11-25 16:40:41.102825
2022-11-25 16:40:41.135618
2022-11-25 16:40:41.135877
2022-11-25 16:40:41.136057
2022-11-25 16:40:41.168783
2022-11-25 16:40:41.168997
2022-11-25 16:40:41.169229
2022-11-25 16:40:41.169346
2022-11-25 16:40:41.202187
2022-11-25 16:40:41.202441
2022-11-25 16:40:41.202612
2022-11-25 16:40:41.202777
2022-11-25 16:40:41.235553
2022-11-25 16:40:41.235784
2022-11-25 16:40:41.235944
2022-11-25 16:40:41.268784
2022-11-25 16:40:41.269028
2022-11-25 16:40:41.269201
2022-11-25 16:40:41.269358
2022-11-25 16:40:41.302116
2022-11-25 16:40:41.302312
2022-11-25 16:40:41.302434
2022-11-25 16:40:41.335341
2022-11-25 16:40:41.335583
2022-11-25 16:40:41.335750
2022-11-25 16:40:41.335919
2022-11-25 16:40:41.368726
2022-11-25 16:40:41.368987
2022-11-25 16:40:41.369155
2022-11-25 16:40:41.401940
2022-11-25 16:40:41.402184
2022-11-25 16:40:41.402354
2022-11-25 16:40:41.402508
2022-11-25 16:40:41.435300
2022-11-25 16:40:41.435493
2022-11-25 16:40:41.435611
2022-11-25 16:40:41.468557
2022-11-25 16:40:41.468831
2022-11-25 16:40:41.468999
2022-11-25 16:40:41.469155
2022-11-25 16:40:41.501883
2022-11-25 16:40:41.502114
2022-11-25 16:40:41.502268
2022-11-25 16:40:41.502425
2022-11-25 16:40:41.535240
2022-11-25 16:40:41.535489
2022-11-25 16:40:41.535662
2022-11-25 16:40:41.568461
2022-11-25 16:40:41.568718
2022-11-25 16:40:41.568884
2022-11-25 16:40:41.569040
2022-11-25 16:40:41.601813
2022-11-25 16:40:41.602052
2022-11-25 16:40:41.602220
2022-11-25 16:40:41.635084
2022-11-25 16:40:41.635329
2022-11-25 16:40:41.635501
2022-11-25 16:40:41.635660
2022-11-25 16:40:41.668438
2022-11-25 16:40:41.668686
2022-11-25 16:40:41.668855
2022-11-25 16:40:41.701660
2022-11-25 16:40:41.701916
2022-11-25 16:40:41.702088
2022-11-25 16:40:41.702249
2022-11-25 16:40:41.735035
2022-11-25 16:40:41.735278
2022-11-25 16:40:41.735443
2022-11-25 16:40:41.768241
2022-11-25 16:40:41.768517
2022-11-25 16:40:41.768690
2022-11-25 16:40:41.768847
2022-11-25 16:40:41.801595
2022-11-25 16:40:41.801758
2022-11-25 16:40:41.801845
2022-11-25 16:40:41.801928
2022-11-25 16:40:41.834937
2022-11-25 16:40:41.835173
2022-11-25 16:40:41.835329
2022-11-25 16:40:41.868176
2022-11-25 16:40:41.868369
2022-11-25 16:40:41.868494
2022-11-25 16:40:41.868607
2022-11-25 16:40:41.901500
2022-11-25 16:40:41.901763
2022-11-25 16:40:41.901936
2022-11-25 16:40:41.934805
2022-11-25 16:40:41.935062
2022-11-25 16:40:41.935232
2022-11-25 16:40:41.935387
2022-11-25 16:40:41.968169
2022-11-25 16:40:41.968427
2022-11-25 16:40:41.968601
2022-11-25 16:40:42.001278
2022-11-25 16:40:42.001524
2022-11-25 16:40:42.001690
2022-11-25 16:40:42.001850
2022-11-25 16:40:42.034718
2022-11-25 16:40:42.034973
2022-11-25 16:40:42.035140
2022-11-25 16:40:42.067956
2022-11-25 16:40:42.068238
2022-11-25 16:40:42.068414
2022-11-25 16:40:42.068575
2022-11-25 16:40:42.101330
2022-11-25 16:40:42.101588
2022-11-25 16:40:42.101763
2022-11-25 16:40:42.101923
2022-11-25 16:40:42.134642
2022-11-25 16:40:42.134807
2022-11-25 16:40:42.134893
2022-11-25 16:40:42.167870
2022-11-25 16:40:42.168036
2022-11-25 16:40:42.168127
2022-11-25 16:40:42.168217
2022-11-25 16:40:42.201247
2022-11-25 16:40:42.201474
2022-11-25 16:40:42.201632
2022-11-25 16:40:42.234483
2022-11-25 16:40:42.234738
2022-11-25 16:40:42.234918
2022-11-25 16:40:42.235078
2022-11-25 16:40:42.267852
2022-11-25 16:40:42.268098
2022-11-25 16:40:42.268260
2022-11-25 16:40:42.301090
2022-11-25 16:40:42.301298
2022-11-25 16:40:42.301413
2022-11-25 16:40:42.301505
2022-11-25 16:40:42.334465
2022-11-25 16:40:42.334713
2022-11-25 16:40:42.334876
2022-11-25 16:40:42.367639
2022-11-25 16:40:42.367924
2022-11-25 16:40:42.368095
2022-11-25 16:40:42.368251
2022-11-25 16:40:42.401019
2022-11-25 16:40:42.401252
2022-11-25 16:40:42.401411
2022-11-25 16:40:42.401563
2022-11-25 16:40:42.434366
2022-11-25 16:40:42.434617
2022-11-25 16:40:42.434783
2022-11-25 16:40:42.467573
2022-11-25 16:40:42.467730
2022-11-25 16:40:42.467818
2022-11-25 16:40:42.467899
2022-11-25 16:40:42.500929
2022-11-25 16:40:42.501123
2022-11-25 16:40:42.501246
2022-11-25 16:40:42.534181
2022-11-25 16:40:42.534426
2022-11-25 16:40:42.534599
2022-11-25 16:40:42.534756
2022-11-25 16:40:42.567565
2022-11-25 16:40:42.567828
2022-11-25 16:40:42.567992
2022-11-25 16:40:42.600825
2022-11-25 16:40:42.601099
2022-11-25 16:40:42.601443
2022-11-25 16:40:42.601635
2022-11-25 16:40:42.634146
2022-11-25 16:40:42.634390
2022-11-25 16:40:42.634554
2022-11-25 16:40:42.667378
2022-11-25 16:40:42.667659
2022-11-25 16:40:42.667832
2022-11-25 16:40:42.667989
2022-11-25 16:40:42.700719
2022-11-25 16:40:42.700969
2022-11-25 16:40:42.701138
2022-11-25 16:40:42.701296
2022-11-25 16:40:42.733877
2022-11-25 16:40:42.734057
2022-11-25 16:40:42.734159
2022-11-25 16:40:42.767321
2022-11-25 16:40:42.767509
2022-11-25 16:40:42.767632
2022-11-25 16:40:42.767748
2022-11-25 16:40:42.800642
2022-11-25 16:40:42.800836
2022-11-25 16:40:42.800962
2022-11-25 16:40:42.833913
2022-11-25 16:40:42.834169
2022-11-25 16:40:42.834337
2022-11-25 16:40:42.834497
2022-11-25 16:40:42.867217
2022-11-25 16:40:42.867430
2022-11-25 16:40:42.867553
2022-11-25 16:40:42.900587
2022-11-25 16:40:42.900864
2022-11-25 16:40:42.901042
2022-11-25 16:40:42.901197
2022-11-25 16:40:42.933835
2022-11-25 16:40:42.934001
2022-11-25 16:40:42.934091
2022-11-25 16:40:42.967048
2022-11-25 16:40:42.967324
2022-11-25 16:40:42.967492
2022-11-25 16:40:42.967646
2022-11-25 16:40:43.000397
2022-11-25 16:40:43.000656
2022-11-25 16:40:43.000830
2022-11-25 16:40:43.000994
2022-11-25 16:40:43.033746
2022-11-25 16:40:43.033946
2022-11-25 16:40:43.034067
2022-11-25 16:40:43.067042
2022-11-25 16:40:43.067303
2022-11-25 16:40:43.067471
2022-11-25 16:40:43.067633
2022-11-25 16:40:43.100408
2022-11-25 16:40:43.100658
2022-11-25 16:40:43.100829
2022-11-25 16:40:43.133616
2022-11-25 16:40:43.133818
2022-11-25 16:40:43.133945
2022-11-25 16:40:43.134062
2022-11-25 16:40:43.166979
2022-11-25 16:40:43.167217
2022-11-25 16:40:43.167375
2022-11-25 16:40:43.200204
2022-11-25 16:40:43.200460
2022-11-25 16:40:43.200631
2022-11-25 16:40:43.200793
2022-11-25 16:40:43.233621
2022-11-25 16:40:43.233865
2022-11-25 16:40:43.234029
2022-11-25 16:40:43.266805
2022-11-25 16:40:43.267088
2022-11-25 16:40:43.267263
2022-11-25 16:40:43.267420
2022-11-25 16:40:43.300162
2022-11-25 16:40:43.300410
2022-11-25 16:40:43.300501
2022-11-25 16:40:43.300588
2022-11-25 16:40:43.333519
2022-11-25 16:40:43.333772
2022-11-25 16:40:43.333937
2022-11-25 16:40:43.366754
2022-11-25 16:40:43.367005
2022-11-25 16:40:43.367176
2022-11-25 16:40:43.367335
2022-11-25 16:40:43.400070
2022-11-25 16:40:43.400304
2022-11-25 16:40:43.400470
2022-11-25 16:40:43.433294
2022-11-25 16:40:43.433479
2022-11-25 16:40:43.433595
2022-11-25 16:40:43.433709
2022-11-25 16:40:43.466693
2022-11-25 16:40:43.466932
2022-11-25 16:40:43.467100
2022-11-25 16:40:43.499882
2022-11-25 16:40:43.500131
2022-11-25 16:40:43.500298
2022-11-25 16:40:43.500452
2022-11-25 16:40:43.533260
2022-11-25 16:40:43.533494
2022-11-25 16:40:43.533652
2022-11-25 16:40:43.566532
2022-11-25 16:40:43.566793
2022-11-25 16:40:43.566957
2022-11-25 16:40:43.567112
2022-11-25 16:40:43.599869
2022-11-25 16:40:43.600118
2022-11-25 16:40:43.600287
2022-11-25 16:40:43.600451
2022-11-25 16:40:43.633220
2022-11-25 16:40:43.633471
2022-11-25 16:40:43.633632
2022-11-25 16:40:43.666470
2022-11-25 16:40:43.666722
2022-11-25 16:40:43.666905
2022-11-25 16:40:43.667063
2022-11-25 16:40:43.699752
2022-11-25 16:40:43.699936
2022-11-25 16:40:43.700050
2022-11-25 16:40:43.733006
2022-11-25 16:40:43.733156
2022-11-25 16:40:43.733248
2022-11-25 16:40:43.733331
2022-11-25 16:40:43.766387
2022-11-25 16:40:43.766590
2022-11-25 16:40:43.766710
2022-11-25 16:40:43.799593
2022-11-25 16:40:43.799746
2022-11-25 16:40:43.799841
2022-11-25 16:40:43.799926
2022-11-25 16:40:43.832958
2022-11-25 16:40:43.833192
2022-11-25 16:40:43.833359
2022-11-25 16:40:43.866164
2022-11-25 16:40:43.866427
2022-11-25 16:40:43.866593
2022-11-25 16:40:43.866758
2022-11-25 16:40:43.899573
2022-11-25 16:40:43.899757
2022-11-25 16:40:43.899875
2022-11-25 16:40:43.899985
2022-11-25 16:40:43.932857
2022-11-25 16:40:43.933035
2022-11-25 16:40:43.933146
2022-11-25 16:40:43.966152
2022-11-25 16:40:43.966389
2022-11-25 16:40:43.966549
2022-11-25 16:40:43.966706
2022-11-25 16:40:43.999450
2022-11-25 16:40:43.999675
2022-11-25 16:40:43.999840
2022-11-25 16:40:44.032719
2022-11-25 16:40:44.032970
2022-11-25 16:40:44.033137
2022-11-25 16:40:44.033294
2022-11-25 16:40:44.066065
2022-11-25 16:40:44.066306
2022-11-25 16:40:44.066467
2022-11-25 16:40:44.099274
2022-11-25 16:40:44.099524
2022-11-25 16:40:44.099696
2022-11-25 16:40:44.099853
2022-11-25 16:40:44.132674
2022-11-25 16:40:44.132917
2022-11-25 16:40:44.133084
2022-11-25 16:40:44.165859
2022-11-25 16:40:44.166055
2022-11-25 16:40:44.166169
2022-11-25 16:40:44.166282
2022-11-25 16:40:44.199222
2022-11-25 16:40:44.199451
2022-11-25 16:40:44.199617
2022-11-25 16:40:44.199774
2022-11-25 16:40:44.232602
2022-11-25 16:40:44.232826
2022-11-25 16:40:44.232984
2022-11-25 16:40:44.265825
2022-11-25 16:40:44.266072
2022-11-25 16:40:44.266233
2022-11-25 16:40:44.266390
2022-11-25 16:40:44.299139
2022-11-25 16:40:44.299286
2022-11-25 16:40:44.299376
2022-11-25 16:40:44.332389
2022-11-25 16:40:44.332565
2022-11-25 16:40:44.332685
2022-11-25 16:40:44.332798
2022-11-25 16:40:44.365745
2022-11-25 16:40:44.365928
2022-11-25 16:40:44.366047
2022-11-25 16:40:44.398975
2022-11-25 16:40:44.399148
2022-11-25 16:40:44.399268
2022-11-25 16:40:44.399382
2022-11-25 16:40:44.432343
2022-11-25 16:40:44.432580
2022-11-25 16:40:44.432741
2022-11-25 16:40:44.465543
2022-11-25 16:40:44.465744
2022-11-25 16:40:44.465865
2022-11-25 16:40:44.465981
2022-11-25 16:40:44.498890
2022-11-25 16:40:44.499072
2022-11-25 16:40:44.499188
2022-11-25 16:40:44.499301
2022-11-25 16:40:44.532233
2022-11-25 16:40:44.532403
2022-11-25 16:40:44.532519
2022-11-25 16:40:44.565561
2022-11-25 16:40:44.565811
2022-11-25 16:40:44.565978
2022-11-25 16:40:44.566135
2022-11-25 16:40:44.598849
2022-11-25 16:40:44.599031
2022-11-25 16:40:44.599157
2022-11-25 16:40:44.632109
2022-11-25 16:40:44.632258
2022-11-25 16:40:44.632346
2022-11-25 16:40:44.632433
2022-11-25 16:40:44.665454
2022-11-25 16:40:44.665684
2022-11-25 16:40:44.665849
2022-11-25 16:40:44.698691
2022-11-25 16:40:44.698906
2022-11-25 16:40:44.699063
2022-11-25 16:40:44.699215
2022-11-25 16:40:44.732054
2022-11-25 16:40:44.732280
2022-11-25 16:40:44.732447
2022-11-25 16:40:44.765271
2022-11-25 16:40:44.765528
2022-11-25 16:40:44.765707
2022-11-25 16:40:44.765865
2022-11-25 16:40:44.798652
2022-11-25 16:40:44.798806
2022-11-25 16:40:44.798895
2022-11-25 16:40:44.798975
2022-11-25 16:40:44.832018
2022-11-25 16:40:44.832255
2022-11-25 16:40:44.832417
2022-11-25 16:40:44.865202
2022-11-25 16:40:44.865393
2022-11-25 16:40:44.865512
2022-11-25 16:40:44.865624
2022-11-25 16:40:44.898590
2022-11-25 16:40:44.898781
2022-11-25 16:40:44.898905
2022-11-25 16:40:44.931830
2022-11-25 16:40:44.932030
2022-11-25 16:40:44.932157
2022-11-25 16:40:44.932272
2022-11-25 16:40:44.965185
2022-11-25 16:40:44.965414
2022-11-25 16:40:44.965586
2022-11-25 16:40:44.998429
2022-11-25 16:40:44.998681
2022-11-25 16:40:44.998850
2022-11-25 16:40:44.999011
2022-11-25 16:40:45.031728
2022-11-25 16:40:45.031878
2022-11-25 16:40:45.031969
2022-11-25 16:40:45.064979
2022-11-25 16:40:45.065140
2022-11-25 16:40:45.065234
2022-11-25 16:40:45.065315
2022-11-25 16:40:45.098344
2022-11-25 16:40:45.098545
2022-11-25 16:40:45.098665
2022-11-25 16:40:45.098783
2022-11-25 16:40:45.131650
2022-11-25 16:40:45.131843
2022-11-25 16:40:45.131966
2022-11-25 16:40:45.164959
2022-11-25 16:40:45.165142
2022-11-25 16:40:45.165267
2022-11-25 16:40:45.165381
2022-11-25 16:40:45.198244
2022-11-25 16:40:45.198400
2022-11-25 16:40:45.198492
2022-11-25 16:40:45.231548
2022-11-25 16:40:45.231802
2022-11-25 16:40:45.231976
2022-11-25 16:40:45.232136
2022-11-25 16:40:45.264916
2022-11-25 16:40:45.265159
2022-11-25 16:40:45.265326
2022-11-25 16:40:45.298115
2022-11-25 16:40:45.298272
2022-11-25 16:40:45.298363
2022-11-25 16:40:45.298446
2022-11-25 16:40:45.331505
2022-11-25 16:40:45.331746
2022-11-25 16:40:45.331915
2022-11-25 16:40:45.364695
2022-11-25 16:40:45.364894
2022-11-25 16:40:45.365015
2022-11-25 16:40:45.365132
2022-11-25 16:40:45.398080
2022-11-25 16:40:45.398325
2022-11-25 16:40:45.398505
2022-11-25 16:40:45.398666
2022-11-25 16:40:45.431477
2022-11-25 16:40:45.431730
2022-11-25 16:40:45.431900
2022-11-25 16:40:45.464672
2022-11-25 16:40:45.464859
2022-11-25 16:40:45.464983
2022-11-25 16:40:45.465095
2022-11-25 16:40:45.497977
2022-11-25 16:40:45.498161
2022-11-25 16:40:45.498279
2022-11-25 16:40:45.531302
2022-11-25 16:40:45.531497
2022-11-25 16:40:45.531621
2022-11-25 16:40:45.531738
2022-11-25 16:40:45.564595
2022-11-25 16:40:45.564747
2022-11-25 16:40:45.564837
2022-11-25 16:40:45.597853
2022-11-25 16:40:45.598089
2022-11-25 16:40:45.598255
2022-11-25 16:40:45.598410
2022-11-25 16:40:45.631185
2022-11-25 16:40:45.631371
2022-11-25 16:40:45.631493
2022-11-25 16:40:45.664505
2022-11-25 16:40:45.664783
2022-11-25 16:40:45.664958
2022-11-25 16:40:45.665120
2022-11-25 16:40:45.697705
2022-11-25 16:40:45.698049
2022-11-25 16:40:45.698239
2022-11-25 16:40:45.698406
2022-11-25 16:40:45.731089
2022-11-25 16:40:45.731272
2022-11-25 16:40:45.731395
2022-11-25 16:40:45.764290
2022-11-25 16:40:45.764560
2022-11-25 16:40:45.764706
2022-11-25 16:40:45.764868
2022-11-25 16:40:45.797678
2022-11-25 16:40:45.797825
2022-11-25 16:40:45.797894
2022-11-25 16:40:45.830907
2022-11-25 16:40:45.831085
2022-11-25 16:40:45.831175
2022-11-25 16:40:45.831259
2022-11-25 16:40:45.864198
2022-11-25 16:40:45.864452
2022-11-25 16:40:45.864586
2022-11-25 16:40:45.897528
2022-11-25 16:40:45.897746
2022-11-25 16:40:45.897869
2022-11-25 16:40:45.897980
2022-11-25 16:40:45.930853
2022-11-25 16:40:45.931207
2022-11-25 16:40:45.931402
2022-11-25 16:40:45.964058
2022-11-25 16:40:45.964249
2022-11-25 16:40:45.964374
2022-11-25 16:40:45.964562
2022-11-25 16:40:45.997413
2022-11-25 16:40:45.997602
2022-11-25 16:40:45.997916
2022-11-25 16:40:45.998099
2022-11-25 16:40:46.030786
2022-11-25 16:40:46.031085
2022-11-25 16:40:46.031275
2022-11-25 16:40:46.064005
2022-11-25 16:40:46.064243
2022-11-25 16:40:46.064582
2022-11-25 16:40:46.064776
2022-11-25 16:40:46.097353
2022-11-25 16:40:46.097530
2022-11-25 16:40:46.097697
2022-11-25 16:40:46.130580
2022-11-25 16:40:46.130723
2022-11-25 16:40:46.130819
2022-11-25 16:40:46.130904
2022-11-25 16:40:46.163931
2022-11-25 16:40:46.164121
2022-11-25 16:40:46.164248
2022-11-25 16:40:46.197180
2022-11-25 16:40:46.197361
2022-11-25 16:40:46.197488
2022-11-25 16:40:46.197601
2022-11-25 16:40:46.230504
2022-11-25 16:40:46.230652
2022-11-25 16:40:46.230745
2022-11-25 16:40:46.263735
2022-11-25 16:40:46.263917
2022-11-25 16:40:46.264041
2022-11-25 16:40:46.264163
2022-11-25 16:40:46.297116
2022-11-25 16:40:46.297260
2022-11-25 16:40:46.297352
2022-11-25 16:40:46.297435
2022-11-25 16:40:46.330433
2022-11-25 16:40:46.330614
2022-11-25 16:40:46.330707
2022-11-25 16:40:46.363709
2022-11-25 16:40:46.363848
2022-11-25 16:40:46.363946
2022-11-25 16:40:46.364036
2022-11-25 16:40:46.397075
2022-11-25 16:40:46.397256
2022-11-25 16:40:46.397377
2022-11-25 16:40:46.430273
2022-11-25 16:40:46.430462
2022-11-25 16:40:46.430593
2022-11-25 16:40:46.430711
2022-11-25 16:40:46.463641
2022-11-25 16:40:46.463815
2022-11-25 16:40:46.463937
2022-11-25 16:40:46.496884
2022-11-25 16:40:46.497058
2022-11-25 16:40:46.497182
2022-11-25 16:40:46.497295
2022-11-25 16:40:46.530238
2022-11-25 16:40:46.530417
2022-11-25 16:40:46.530539
2022-11-25 16:40:46.563477
2022-11-25 16:40:46.563668
2022-11-25 16:40:46.563794
2022-11-25 16:40:46.563913
2022-11-25 16:40:46.596825
2022-11-25 16:40:46.596996
2022-11-25 16:40:46.597115
2022-11-25 16:40:46.597227
2022-11-25 16:40:46.630163
2022-11-25 16:40:46.630304
2022-11-25 16:40:46.630397
2022-11-25 16:40:46.663484
2022-11-25 16:40:46.663714
2022-11-25 16:40:46.663890
2022-11-25 16:40:46.664055
2022-11-25 16:40:46.696766
2022-11-25 16:40:46.696934
2022-11-25 16:40:46.697054
2022-11-25 16:40:46.730019
2022-11-25 16:40:46.730200
2022-11-25 16:40:46.730325
2022-11-25 16:40:46.730439
2022-11-25 16:40:46.763331
2022-11-25 16:40:46.763505
2022-11-25 16:40:46.763630
2022-11-25 16:40:46.796597
2022-11-25 16:40:46.796739
2022-11-25 16:40:46.796825
2022-11-25 16:40:46.796901
2022-11-25 16:40:46.829943
2022-11-25 16:40:46.830124
2022-11-25 16:40:46.830251
2022-11-25 16:40:46.863180
2022-11-25 16:40:46.863345
2022-11-25 16:40:46.863441
2022-11-25 16:40:46.863525
2022-11-25 16:40:46.896530
2022-11-25 16:40:46.896712
2022-11-25 16:40:46.896837
2022-11-25 16:40:46.896956
2022-11-25 16:40:46.929840
2022-11-25 16:40:46.929977
2022-11-25 16:40:46.930068
2022-11-25 16:40:46.963083
2022-11-25 16:40:46.963253
2022-11-25 16:40:46.963376
2022-11-25 16:40:46.963494
2022-11-25 16:40:46.996468
2022-11-25 16:40:46.996636
2022-11-25 16:40:46.996755
2022-11-25 16:40:47.029725
2022-11-25 16:40:47.029897
2022-11-25 16:40:47.030017
2022-11-25 16:40:47.030131
2022-11-25 16:40:47.063043
2022-11-25 16:40:47.063185
2022-11-25 16:40:47.063282
2022-11-25 16:40:47.096300
2022-11-25 16:40:47.096474
2022-11-25 16:40:47.096594
2022-11-25 16:40:47.096709
2022-11-25 16:40:47.129631
2022-11-25 16:40:47.129803
2022-11-25 16:40:47.129927
2022-11-25 16:40:47.162899
2022-11-25 16:40:47.163096
2022-11-25 16:40:47.163230
2022-11-25 16:40:47.163343
2022-11-25 16:40:47.196240
2022-11-25 16:40:47.196380
2022-11-25 16:40:47.196471
2022-11-25 16:40:47.196555
2022-11-25 16:40:47.229585
2022-11-25 16:40:47.229761
2022-11-25 16:40:47.229884
2022-11-25 16:40:47.262750
2022-11-25 16:40:47.262888
2022-11-25 16:40:47.262984
2022-11-25 16:40:47.263067
2022-11-25 16:40:47.296180
2022-11-25 16:40:47.296320
2022-11-25 16:40:47.296414
2022-11-25 16:40:47.329464
2022-11-25 16:40:47.329649
2022-11-25 16:40:47.329775
2022-11-25 16:40:47.329886
2022-11-25 16:40:47.362759
2022-11-25 16:40:47.362943
2022-11-25 16:40:47.363068
2022-11-25 16:40:47.396096
2022-11-25 16:40:47.396347
2022-11-25 16:40:47.396531
2022-11-25 16:40:47.396692
2022-11-25 16:40:47.429366
2022-11-25 16:40:47.429508
2022-11-25 16:40:47.429601
2022-11-25 16:40:47.462580
2022-11-25 16:40:47.462774
2022-11-25 16:40:47.462901
2022-11-25 16:40:47.463016
2022-11-25 16:40:47.495965
2022-11-25 16:40:47.496134
2022-11-25 16:40:47.496254
2022-11-25 16:40:47.496366
2022-11-25 16:40:47.529174
2022-11-25 16:40:47.529351
2022-11-25 16:40:47.529471
2022-11-25 16:40:47.562617
2022-11-25 16:40:47.562805
2022-11-25 16:40:47.562931
2022-11-25 16:40:47.563048
2022-11-25 16:40:47.595814
2022-11-25 16:40:47.595957
2022-11-25 16:40:47.596048
2022-11-25 16:40:47.629130
2022-11-25 16:40:47.629307
2022-11-25 16:40:47.629432
2022-11-25 16:40:47.629546
2022-11-25 16:40:47.662438
2022-11-25 16:40:47.662619
2022-11-25 16:40:47.662746
2022-11-25 16:40:47.695709
2022-11-25 16:40:47.695890
2022-11-25 16:40:47.696021
2022-11-25 16:40:47.696138
2022-11-25 16:40:47.729062
2022-11-25 16:40:47.729237
2022-11-25 16:40:47.729360
2022-11-25 16:40:47.762291
2022-11-25 16:40:47.762491
2022-11-25 16:40:47.762619
2022-11-25 16:40:47.762733
2022-11-25 16:40:47.795586
2022-11-25 16:40:47.795737
2022-11-25 16:40:47.795832
2022-11-25 16:40:47.795916
2022-11-25 16:40:47.829118
2022-11-25 16:40:47.829330
2022-11-25 16:40:47.829505
2022-11-25 16:40:47.862291
2022-11-25 16:40:47.862476
2022-11-25 16:40:47.862603
2022-11-25 16:40:47.862723
2022-11-25 16:40:47.895637
2022-11-25 16:40:47.895787
2022-11-25 16:40:47.895881
2022-11-25 16:40:47.928898
2022-11-25 16:40:47.929077
2022-11-25 16:40:47.929205
2022-11-25 16:40:47.929330
2022-11-25 16:40:47.962194
2022-11-25 16:40:47.962347
2022-11-25 16:40:47.962469
2022-11-25 16:40:47.995490
2022-11-25 16:40:47.995668
2022-11-25 16:40:47.995793
2022-11-25 16:40:47.995907
2022-11-25 16:40:48.028870
2022-11-25 16:40:48.029068
2022-11-25 16:40:48.029193
2022-11-25 16:40:48.062063
2022-11-25 16:40:48.062287
2022-11-25 16:40:48.062430
2022-11-25 16:40:48.062552
2022-11-25 16:40:48.095550
2022-11-25 16:40:48.095746
2022-11-25 16:40:48.095871
2022-11-25 16:40:48.095989
2022-11-25 16:40:48.128716
2022-11-25 16:40:48.128854
2022-11-25 16:40:48.128945
2022-11-25 16:40:48.161930
2022-11-25 16:40:48.162088
2022-11-25 16:40:48.162198
2022-11-25 16:40:48.162292
2022-11-25 16:40:48.195302
2022-11-25 16:40:48.195481
2022-11-25 16:40:48.195617
2022-11-25 16:40:48.228494
2022-11-25 16:40:48.228635
2022-11-25 16:40:48.228743
2022-11-25 16:40:48.228827
2022-11-25 16:40:48.261839
2022-11-25 16:40:48.262060
2022-11-25 16:40:48.262185
2022-11-25 16:40:48.295060
2022-11-25 16:40:48.295246
2022-11-25 16:40:48.295357
2022-11-25 16:40:48.295450
2022-11-25 16:40:48.328455
2022-11-25 16:40:48.328654
2022-11-25 16:40:48.328805
2022-11-25 16:40:48.361700
2022-11-25 16:40:48.361852
2022-11-25 16:40:48.361968
2022-11-25 16:40:48.362059
2022-11-25 16:40:48.395049
2022-11-25 16:40:48.395194
2022-11-25 16:40:48.395290
2022-11-25 16:40:48.395377
2022-11-25 16:40:48.428448
2022-11-25 16:40:48.428617
2022-11-25 16:40:48.428755
2022-11-25 16:40:48.461591
2022-11-25 16:40:48.461768
2022-11-25 16:40:48.461855
2022-11-25 16:40:48.461966
2022-11-25 16:40:48.494964
2022-11-25 16:40:48.495107
2022-11-25 16:40:48.495242
2022-11-25 16:40:48.528144
2022-11-25 16:40:48.528273
2022-11-25 16:40:48.528394
2022-11-25 16:40:48.528479
2022-11-25 16:40:48.561598
2022-11-25 16:40:48.561777
2022-11-25 16:40:48.561964
2022-11-25 16:40:48.594770
2022-11-25 16:40:48.594921
2022-11-25 16:40:48.595075
2022-11-25 16:40:48.595176
2022-11-25 16:40:48.628076
2022-11-25 16:40:48.628285
2022-11-25 16:40:48.628483
2022-11-25 16:40:48.661392
2022-11-25 16:40:48.661586
2022-11-25 16:40:48.661679
2022-11-25 16:40:48.661816
2022-11-25 16:40:48.694784
2022-11-25 16:40:48.694972
2022-11-25 16:40:48.695104
2022-11-25 16:40:48.695219
2022-11-25 16:40:48.728006
2022-11-25 16:40:48.728191
2022-11-25 16:40:48.728350
2022-11-25 16:40:48.761384
2022-11-25 16:40:48.761594
2022-11-25 16:40:48.761722
2022-11-25 16:40:48.761987
2022-11-25 16:40:48.794725
2022-11-25 16:40:48.794884
2022-11-25 16:40:48.795010
2022-11-25 16:40:48.828139
2022-11-25 16:40:48.828403
2022-11-25 16:40:48.828569
2022-11-25 16:40:48.828745
2022-11-25 16:40:48.861363
2022-11-25 16:40:48.861594
2022-11-25 16:40:48.861815
2022-11-25 16:40:48.894614
2022-11-25 16:40:48.894804
2022-11-25 16:40:48.895019
2022-11-25 16:40:48.895194
2022-11-25 16:40:48.927871
2022-11-25 16:40:48.928102
2022-11-25 16:40:48.928239
2022-11-25 16:40:48.961247
2022-11-25 16:40:48.961522
2022-11-25 16:40:48.961692
2022-11-25 16:40:48.961852
2022-11-25 16:40:48.994655
2022-11-25 16:40:48.994899
2022-11-25 16:40:48.995062
2022-11-25 16:40:48.995217
2022-11-25 16:40:49.027978
2022-11-25 16:40:49.028211
2022-11-25 16:40:49.028371
2022-11-25 16:40:49.061238
2022-11-25 16:40:49.061481
2022-11-25 16:40:49.061640
2022-11-25 16:40:49.061794
2022-11-25 16:40:49.094598
2022-11-25 16:40:49.094842
2022-11-25 16:40:49.095015
2022-11-25 16:40:49.127820
2022-11-25 16:40:49.128052
2022-11-25 16:40:49.128209
2022-11-25 16:40:49.128361
2022-11-25 16:40:49.161122
2022-11-25 16:40:49.161278
2022-11-25 16:40:49.161392
2022-11-25 16:40:49.194427
2022-11-25 16:40:49.194702
2022-11-25 16:40:49.194934
2022-11-25 16:40:49.195137
2022-11-25 16:40:49.227824
2022-11-25 16:40:49.228057
2022-11-25 16:40:49.228223
2022-11-25 16:40:49.260992
2022-11-25 16:40:49.261264
2022-11-25 16:40:49.261436
2022-11-25 16:40:49.261599
2022-11-25 16:40:49.294221
2022-11-25 16:40:49.294381
2022-11-25 16:40:49.294467
2022-11-25 16:40:49.294549
2022-11-25 16:40:49.327583
2022-11-25 16:40:49.327749
2022-11-25 16:40:49.327841
2022-11-25 16:40:49.360955
2022-11-25 16:40:49.361196
2022-11-25 16:40:49.361359
2022-11-25 16:40:49.361519
2022-11-25 16:40:49.394312
2022-11-25 16:40:49.394573
2022-11-25 16:40:49.394736
2022-11-25 16:40:49.427504
2022-11-25 16:40:49.427825
2022-11-25 16:40:49.428034
2022-11-25 16:40:49.428195
2022-11-25 16:40:49.460925
2022-11-25 16:40:49.461167
2022-11-25 16:40:49.461334
2022-11-25 16:40:49.493988
2022-11-25 16:40:49.494234
2022-11-25 16:40:49.494377
2022-11-25 16:40:49.494504
2022-11-25 16:40:49.527289
2022-11-25 16:40:49.527456
2022-11-25 16:40:49.527640
2022-11-25 16:40:49.560689
2022-11-25 16:40:49.560966
2022-11-25 16:40:49.561138
2022-11-25 16:40:49.561297
2022-11-25 16:40:49.594056
2022-11-25 16:40:49.594299
2022-11-25 16:40:49.594458
2022-11-25 16:40:49.594620
2022-11-25 16:40:49.627319
2022-11-25 16:40:49.627549
2022-11-25 16:40:49.627709
2022-11-25 16:40:49.660649
2022-11-25 16:40:49.660893
2022-11-25 16:40:49.661056
2022-11-25 16:40:49.661343
2022-11-25 16:40:49.694016
2022-11-25 16:40:49.694267
2022-11-25 16:40:49.694432
2022-11-25 16:40:49.727225
2022-11-25 16:40:49.727467
2022-11-25 16:40:49.727631
2022-11-25 16:40:49.727788
2022-11-25 16:40:49.760628
2022-11-25 16:40:49.760884
2022-11-25 16:40:49.761057
2022-11-25 16:40:49.793805
2022-11-25 16:40:49.794069
2022-11-25 16:40:49.794238
2022-11-25 16:40:49.794545
2022-11-25 16:40:49.827180
2022-11-25 16:40:49.827428
2022-11-25 16:40:49.827773
2022-11-25 16:40:49.860380
2022-11-25 16:40:49.860631
2022-11-25 16:40:49.860793
2022-11-25 16:40:49.860956
2022-11-25 16:40:49.893782
2022-11-25 16:40:49.894015
2022-11-25 16:40:49.894180
2022-11-25 16:40:49.894336
2022-11-25 16:40:49.927132
2022-11-25 16:40:49.927369
2022-11-25 16:40:49.927537
2022-11-25 16:40:49.960369
2022-11-25 16:40:49.960615
2022-11-25 16:40:49.960783
2022-11-25 16:40:49.960941
2022-11-25 16:40:49.993656
2022-11-25 16:40:49.993895
2022-11-25 16:40:49.994066
2022-11-25 16:40:50.026934
2022-11-25 16:40:50.027181
2022-11-25 16:40:50.027343
2022-11-25 16:40:50.027496
2022-11-25 16:40:50.060289
2022-11-25 16:40:50.060535
2022-11-25 16:40:50.060698
2022-11-25 16:40:50.093532
2022-11-25 16:40:50.093785
2022-11-25 16:40:50.093951
2022-11-25 16:40:50.094106
2022-11-25 16:40:50.126878
2022-11-25 16:40:50.127137
2022-11-25 16:40:50.127311
2022-11-25 16:40:50.160087
2022-11-25 16:40:50.160354
2022-11-25 16:40:50.160525
2022-11-25 16:40:50.160685
2022-11-25 16:40:50.193477
2022-11-25 16:40:50.193733
2022-11-25 16:40:50.193908
2022-11-25 16:40:50.194068
2022-11-25 16:40:50.226865
2022-11-25 16:40:50.227115
2022-11-25 16:40:50.227282
2022-11-25 16:40:50.260056
2022-11-25 16:40:50.260312
2022-11-25 16:40:50.260475
2022-11-25 16:40:50.260643
2022-11-25 16:40:50.293435
2022-11-25 16:40:50.293692
2022-11-25 16:40:50.293868
2022-11-25 16:40:50.326660
2022-11-25 16:40:50.326923
2022-11-25 16:40:50.327092
2022-11-25 16:40:50.327252
2022-11-25 16:40:50.360030
2022-11-25 16:40:50.360234
2022-11-25 16:40:50.360358
2022-11-25 16:40:50.393291
2022-11-25 16:40:50.393558
2022-11-25 16:40:50.393735
2022-11-25 16:40:50.393893
2022-11-25 16:40:50.426633
2022-11-25 16:40:50.426879
2022-11-25 16:40:50.427042
2022-11-25 16:40:50.459885
2022-11-25 16:40:50.460155
2022-11-25 16:40:50.460324
2022-11-25 16:40:50.460481
2022-11-25 16:40:50.493289
2022-11-25 16:40:50.493543
2022-11-25 16:40:50.493709
2022-11-25 16:40:50.493864
2022-11-25 16:40:50.526588
2022-11-25 16:40:50.526849
2022-11-25 16:40:50.527025
2022-11-25 16:40:50.559860
2022-11-25 16:40:50.560125
2022-11-25 16:40:50.560293
2022-11-25 16:40:50.560453
2022-11-25 16:40:50.593181
2022-11-25 16:40:50.593465
2022-11-25 16:40:50.593641
2022-11-25 16:40:50.626380
2022-11-25 16:40:50.626684
2022-11-25 16:40:50.626855
2022-11-25 16:40:50.627015
2022-11-25 16:40:50.659815
2022-11-25 16:40:50.660128
2022-11-25 16:40:50.660308
2022-11-25 16:40:50.692952
2022-11-25 16:40:50.693337
2022-11-25 16:40:50.693541
2022-11-25 16:40:50.693706
2022-11-25 16:40:50.726345
2022-11-25 16:40:50.726634
2022-11-25 16:40:50.726819
2022-11-25 16:40:50.759524
2022-11-25 16:40:50.759906
2022-11-25 16:40:50.760088
2022-11-25 16:40:50.760246
2022-11-25 16:40:50.792940
2022-11-25 16:40:50.793325
2022-11-25 16:40:50.793575
2022-11-25 16:40:50.793776
2022-11-25 16:40:50.826105
2022-11-25 16:40:50.826184
2022-11-25 16:40:50.826253
2022-11-25 16:40:50.859402
2022-11-25 16:40:50.859544
2022-11-25 16:40:50.859639
2022-11-25 16:40:50.859826
2022-11-25 16:40:50.892879
2022-11-25 16:40:50.893282
2022-11-25 16:40:50.893492
2022-11-25 16:40:50.926087
2022-11-25 16:40:50.926322
2022-11-25 16:40:50.926657
2022-11-25 16:40:50.926851
2022-11-25 16:40:50.959455
2022-11-25 16:40:50.959693
2022-11-25 16:40:50.959957
2022-11-25 16:40:50.992692
2022-11-25 16:40:50.992943
2022-11-25 16:40:50.993125
2022-11-25 16:40:50.993410
2022-11-25 16:40:51.026062
2022-11-25 16:40:51.026330
2022-11-25 16:40:51.026600
2022-11-25 16:40:51.059244
2022-11-25 16:40:51.059506
2022-11-25 16:40:51.059689
2022-11-25 16:40:51.059993
2022-11-25 16:40:51.092646
2022-11-25 16:40:51.092901
2022-11-25 16:40:51.093211
2022-11-25 16:40:51.093408
2022-11-25 16:40:51.125976
2022-11-25 16:40:51.126218
2022-11-25 16:40:51.126410
2022-11-25 16:40:51.159225
2022-11-25 16:40:51.159478
2022-11-25 16:40:51.159727
2022-11-25 16:40:51.159916
2022-11-25 16:40:51.192572
2022-11-25 16:40:51.192730
2022-11-25 16:40:51.192818
2022-11-25 16:40:51.225796
2022-11-25 16:40:51.226046
2022-11-25 16:40:51.226215
2022-11-25 16:40:51.226400
2022-11-25 16:40:51.259162
2022-11-25 16:40:51.259418
2022-11-25 16:40:51.259586
2022-11-25 16:40:51.292383
2022-11-25 16:40:51.292638
2022-11-25 16:40:51.292804
2022-11-25 16:40:51.292995
2022-11-25 16:40:51.325693
2022-11-25 16:40:51.325841
2022-11-25 16:40:51.325926
2022-11-25 16:40:51.358931
2022-11-25 16:40:51.359177
2022-11-25 16:40:51.359339
2022-11-25 16:40:51.359489
2022-11-25 16:40:51.392301
2022-11-25 16:40:51.392457
2022-11-25 16:40:51.392547
2022-11-25 16:40:51.392631
2022-11-25 16:40:51.425680
2022-11-25 16:40:51.425936
2022-11-25 16:40:51.426103
2022-11-25 16:40:51.458907
2022-11-25 16:40:51.459136
2022-11-25 16:40:51.459302
2022-11-25 16:40:51.459461
2022-11-25 16:40:51.492285
2022-11-25 16:40:51.492531
2022-11-25 16:40:51.492700
2022-11-25 16:40:51.525502
2022-11-25 16:40:51.525737
2022-11-25 16:40:51.525903
2022-11-25 16:40:51.526060
2022-11-25 16:40:51.558824
2022-11-25 16:40:51.559113
2022-11-25 16:40:51.559282
2022-11-25 16:40:51.592091
2022-11-25 16:40:51.592352
2022-11-25 16:40:51.592524
2022-11-25 16:40:51.592680
2022-11-25 16:40:51.625455
2022-11-25 16:40:51.625713
2022-11-25 16:40:51.625879
2022-11-25 16:40:51.658655
2022-11-25 16:40:51.658926
2022-11-25 16:40:51.659096
2022-11-25 16:40:51.659261
2022-11-25 16:40:51.691988
2022-11-25 16:40:51.692185
2022-11-25 16:40:51.692311
2022-11-25 16:40:51.692424
2022-11-25 16:40:51.725389
2022-11-25 16:40:51.725626
2022-11-25 16:40:51.725787
2022-11-25 16:40:51.758616
2022-11-25 16:40:51.758851
2022-11-25 16:40:51.759020
2022-11-25 16:40:51.759179
2022-11-25 16:40:51.791976
2022-11-25 16:40:51.792221
2022-11-25 16:40:51.792554
2022-11-25 16:40:51.825194
2022-11-25 16:40:51.825356
2022-11-25 16:40:51.825448
2022-11-25 16:40:51.825532
2022-11-25 16:40:51.858576
2022-11-25 16:40:51.858810
2022-11-25 16:40:51.858978
2022-11-25 16:40:51.891796
2022-11-25 16:40:51.892039
2022-11-25 16:40:51.892201
2022-11-25 16:40:51.892355
2022-11-25 16:40:51.925161
2022-11-25 16:40:51.925409
2022-11-25 16:40:51.925586
2022-11-25 16:40:51.958329
2022-11-25 16:40:51.958616
2022-11-25 16:40:51.958787
2022-11-25 16:40:51.958950
2022-11-25 16:40:51.991723
2022-11-25 16:40:51.991959
2022-11-25 16:40:51.992125
2022-11-25 16:40:51.992287
2022-11-25 16:40:52.025077
2022-11-25 16:40:52.025301
2022-11-25 16:40:52.025461
2022-11-25 16:40:52.058335
2022-11-25 16:40:52.058588
2022-11-25 16:40:52.058752
2022-11-25 16:40:52.058909
2022-11-25 16:40:52.091689
2022-11-25 16:40:52.091953
2022-11-25 16:40:52.092128
2022-11-25 16:40:52.124934
2022-11-25 16:40:52.125183
2022-11-25 16:40:52.125347
2022-11-25 16:40:52.125516
2022-11-25 16:40:52.158260
2022-11-25 16:40:52.158458
2022-11-25 16:40:52.158578
2022-11-25 16:40:52.191540
2022-11-25 16:40:52.191786
2022-11-25 16:40:52.191953
2022-11-25 16:40:52.192111
2022-11-25 16:40:52.224851
2022-11-25 16:40:52.225105
2022-11-25 16:40:52.225270
2022-11-25 16:40:52.258048
2022-11-25 16:40:52.258296
2022-11-25 16:40:52.258465
2022-11-25 16:40:52.258622
2022-11-25 16:40:52.291468
2022-11-25 16:40:52.291712
2022-11-25 16:40:52.291875
2022-11-25 16:40:52.292034
2022-11-25 16:40:52.324764
2022-11-25 16:40:52.324919
2022-11-25 16:40:52.325008
2022-11-25 16:40:52.358010
2022-11-25 16:40:52.358242
2022-11-25 16:40:52.358405
2022-11-25 16:40:52.358561
2022-11-25 16:40:52.391376
2022-11-25 16:40:52.391611
2022-11-25 16:40:52.391775
2022-11-25 16:40:52.424615
2022-11-25 16:40:52.424851
2022-11-25 16:40:52.425023
2022-11-25 16:40:52.425179
2022-11-25 16:40:52.457980
2022-11-25 16:40:52.458219
2022-11-25 16:40:52.458385
2022-11-25 16:40:52.491226
2022-11-25 16:40:52.491486
2022-11-25 16:40:52.491656
2022-11-25 16:40:52.491818
2022-11-25 16:40:52.524604
2022-11-25 16:40:52.524854
2022-11-25 16:40:52.525023
2022-11-25 16:40:52.557785
2022-11-25 16:40:52.558056
2022-11-25 16:40:52.558226
2022-11-25 16:40:52.558383
2022-11-25 16:40:52.591156
2022-11-25 16:40:52.591398
2022-11-25 16:40:52.591560
2022-11-25 16:40:52.591716
2022-11-25 16:40:52.624524
2022-11-25 16:40:52.624742
2022-11-25 16:40:52.624899
2022-11-25 16:40:52.657753
2022-11-25 16:40:52.657979
2022-11-25 16:40:52.658144
2022-11-25 16:40:52.658301
2022-11-25 16:40:52.691120
2022-11-25 16:40:52.691360
2022-11-25 16:40:52.691526
2022-11-25 16:40:52.724317
2022-11-25 16:40:52.724538
2022-11-25 16:40:52.724697
2022-11-25 16:40:52.724849
2022-11-25 16:40:52.757687
2022-11-25 16:40:52.757934
2022-11-25 16:40:52.758094
2022-11-25 16:40:52.790922
2022-11-25 16:40:52.791165
2022-11-25 16:40:52.791329
2022-11-25 16:40:52.791487
2022-11-25 16:40:52.824286
2022-11-25 16:40:52.824528
2022-11-25 16:40:52.824695
2022-11-25 16:40:52.857507
2022-11-25 16:40:52.857791
2022-11-25 16:40:52.857970
2022-11-25 16:40:52.858134
2022-11-25 16:40:52.890887
2022-11-25 16:40:52.891150
2022-11-25 16:40:52.891325
2022-11-25 16:40:52.891484
2022-11-25 16:40:52.924213
2022-11-25 16:40:52.924455
2022-11-25 16:40:52.924623
2022-11-25 16:40:52.957451
2022-11-25 16:40:52.957691
2022-11-25 16:40:52.957861
2022-11-25 16:40:52.958017
2022-11-25 16:40:52.990853
2022-11-25 16:40:52.991114
2022-11-25 16:40:52.991284
2022-11-25 16:40:53.023955
2022-11-25 16:40:53.024146
2022-11-25 16:40:53.024240
2022-11-25 16:40:53.024329
2022-11-25 16:40:53.057323
2022-11-25 16:40:53.057574
2022-11-25 16:40:53.057745
2022-11-25 16:40:53.090646
2022-11-25 16:40:53.090912
2022-11-25 16:40:53.091079
2022-11-25 16:40:53.091235
2022-11-25 16:40:53.124020
2022-11-25 16:40:53.124279
2022-11-25 16:40:53.124448
2022-11-25 16:40:53.157199
2022-11-25 16:40:53.157456
2022-11-25 16:40:53.157624
2022-11-25 16:40:53.157782
2022-11-25 16:40:53.190572
2022-11-25 16:40:53.190801
2022-11-25 16:40:53.190962
2022-11-25 16:40:53.191116
2022-11-25 16:40:53.223933
2022-11-25 16:40:53.224161
2022-11-25 16:40:53.224333
2022-11-25 16:40:53.257177
2022-11-25 16:40:53.257432
2022-11-25 16:40:53.257600
2022-11-25 16:40:53.257761
2022-11-25 16:40:53.290515
2022-11-25 16:40:53.290759
2022-11-25 16:40:53.290926
2022-11-25 16:40:53.323724
2022-11-25 16:40:53.323893
2022-11-25 16:40:53.323984
2022-11-25 16:40:53.324065
2022-11-25 16:40:53.357113
2022-11-25 16:40:53.357364
2022-11-25 16:40:53.357525
2022-11-25 16:40:53.390325
2022-11-25 16:40:53.390581
2022-11-25 16:40:53.390752
2022-11-25 16:40:53.390909
2022-11-25 16:40:53.423729
2022-11-25 16:40:53.423971
2022-11-25 16:40:53.424133
2022-11-25 16:40:53.456947
2022-11-25 16:40:53.457216
2022-11-25 16:40:53.457388
2022-11-25 16:40:53.457544
2022-11-25 16:40:53.490306
2022-11-25 16:40:53.490548
2022-11-25 16:40:53.490709
2022-11-25 16:40:53.490878
2022-11-25 16:40:53.523663
2022-11-25 16:40:53.523904
2022-11-25 16:40:53.524068
2022-11-25 16:40:53.556864
2022-11-25 16:40:53.557104
2022-11-25 16:40:53.557266
2022-11-25 16:40:53.557428
2022-11-25 16:40:53.590290
2022-11-25 16:40:53.590545
2022-11-25 16:40:53.590716
2022-11-25 16:40:53.623459
2022-11-25 16:40:53.623652
2022-11-25 16:40:53.623769
2022-11-25 16:40:53.623884
2022-11-25 16:40:53.656855
2022-11-25 16:40:53.657108
2022-11-25 16:40:53.657276
2022-11-25 16:40:53.690077
2022-11-25 16:40:53.690321
2022-11-25 16:40:53.690499
2022-11-25 16:40:53.690662
2022-11-25 16:40:53.723429
2022-11-25 16:40:53.723690
2022-11-25 16:40:53.723859
2022-11-25 16:40:53.756632
2022-11-25 16:40:53.756881
2022-11-25 16:40:53.757051
2022-11-25 16:40:53.757213
2022-11-25 16:40:53.790031
2022-11-25 16:40:53.790277
2022-11-25 16:40:53.790438
2022-11-25 16:40:53.790592
2022-11-25 16:40:53.823314
2022-11-25 16:40:53.823476
2022-11-25 16:40:53.823567
2022-11-25 16:40:53.856615
2022-11-25 16:40:53.856865
2022-11-25 16:40:53.857037
2022-11-25 16:40:53.857199
2022-11-25 16:40:53.889973
2022-11-25 16:40:53.890227
2022-11-25 16:40:53.890398
2022-11-25 16:40:53.923203
2022-11-25 16:40:53.923460
2022-11-25 16:40:53.923747
2022-11-25 16:40:53.923906
2022-11-25 16:40:53.956618
2022-11-25 16:40:53.956861
2022-11-25 16:40:53.957027
2022-11-25 16:40:53.989777
2022-11-25 16:40:53.990028
2022-11-25 16:40:53.990201
2022-11-25 16:40:53.990360
2022-11-25 16:40:54.023162
2022-11-25 16:40:54.023414
2022-11-25 16:40:54.023583
2022-11-25 16:40:54.056278
2022-11-25 16:40:54.056541
2022-11-25 16:40:54.056707
2022-11-25 16:40:54.056867
2022-11-25 16:40:54.089711
2022-11-25 16:40:54.089955
2022-11-25 16:40:54.090118
2022-11-25 16:40:54.090274
2022-11-25 16:40:54.123071
2022-11-25 16:40:54.123268
2022-11-25 16:40:54.123389
2022-11-25 16:40:54.156241
2022-11-25 16:40:54.156502
2022-11-25 16:40:54.156673
2022-11-25 16:40:54.156833
2022-11-25 16:40:54.189668
2022-11-25 16:40:54.189914
2022-11-25 16:40:54.190088
2022-11-25 16:40:54.222897
2022-11-25 16:40:54.223158
2022-11-25 16:40:54.223325
2022-11-25 16:40:54.223482
2022-11-25 16:40:54.256270
2022-11-25 16:40:54.256522
2022-11-25 16:40:54.256687
2022-11-25 16:40:54.289543
2022-11-25 16:40:54.289795
2022-11-25 16:40:54.289969
2022-11-25 16:40:54.290127
2022-11-25 16:40:54.322789
2022-11-25 16:40:54.322958
2022-11-25 16:40:54.323046
2022-11-25 16:40:54.356068
2022-11-25 16:40:54.356344
2022-11-25 16:40:54.356514
2022-11-25 16:40:54.356673
2022-11-25 16:40:54.389455
2022-11-25 16:40:54.389697
2022-11-25 16:40:54.389872
2022-11-25 16:40:54.390033
2022-11-25 16:40:54.422793
2022-11-25 16:40:54.423028
2022-11-25 16:40:54.423188
2022-11-25 16:40:54.455997
2022-11-25 16:40:54.456197
2022-11-25 16:40:54.456321
2022-11-25 16:40:54.456433
2022-11-25 16:40:54.489386
2022-11-25 16:40:54.489632
2022-11-25 16:40:54.489803
2022-11-25 16:40:54.522618
2022-11-25 16:40:54.522863
2022-11-25 16:40:54.523035
2022-11-25 16:40:54.523193
2022-11-25 16:40:54.555914
2022-11-25 16:40:54.556113
2022-11-25 16:40:54.556233
2022-11-25 16:40:54.589189
2022-11-25 16:40:54.589445
2022-11-25 16:40:54.589614
2022-11-25 16:40:54.589777
2022-11-25 16:40:54.622593
2022-11-25 16:40:54.622845
2022-11-25 16:40:54.623012
2022-11-25 16:40:54.655759
2022-11-25 16:40:54.656027
2022-11-25 16:40:54.656203
2022-11-25 16:40:54.656362
2022-11-25 16:40:54.689161
2022-11-25 16:40:54.689414
2022-11-25 16:40:54.689582
2022-11-25 16:40:54.689741
2022-11-25 16:40:54.722491
2022-11-25 16:40:54.722733
2022-11-25 16:40:54.722893
2022-11-25 16:40:54.755726
2022-11-25 16:40:54.755974
2022-11-25 16:40:54.756144
2022-11-25 16:40:54.756300
2022-11-25 16:40:54.789104
2022-11-25 16:40:54.789352
2022-11-25 16:40:54.789519
2022-11-25 16:40:54.822263
2022-11-25 16:40:54.822417
2022-11-25 16:40:54.822506
2022-11-25 16:40:54.822592
2022-11-25 16:40:54.855670
2022-11-25 16:40:54.855913
2022-11-25 16:40:54.856083
2022-11-25 16:40:54.888932
2022-11-25 16:40:54.889192
2022-11-25 16:40:54.889365
2022-11-25 16:40:54.889525
2022-11-25 16:40:54.922273
2022-11-25 16:40:54.922512
2022-11-25 16:40:54.922679
2022-11-25 16:40:54.955516
2022-11-25 16:40:54.955796
2022-11-25 16:40:54.955963
2022-11-25 16:40:54.956120
2022-11-25 16:40:54.988870
2022-11-25 16:40:54.989107
2022-11-25 16:40:54.989273
2022-11-25 16:40:54.989427
2022-11-25 16:40:55.022217
2022-11-25 16:40:55.022470
2022-11-25 16:40:55.022636
2022-11-25 16:40:55.055432
2022-11-25 16:40:55.055668
2022-11-25 16:40:55.055838
2022-11-25 16:40:55.055993
2022-11-25 16:40:55.088804
2022-11-25 16:40:55.089039
2022-11-25 16:40:55.089201
2022-11-25 16:40:55.122037
2022-11-25 16:40:55.122294
2022-11-25 16:40:55.122468
2022-11-25 16:40:55.122625
2022-11-25 16:40:55.155322
2022-11-25 16:40:55.155570
2022-11-25 16:40:55.155731
2022-11-25 16:40:55.188646
2022-11-25 16:40:55.188912
2022-11-25 16:40:55.189080
2022-11-25 16:40:55.189237
2022-11-25 16:40:55.221983
2022-11-25 16:40:55.222233
2022-11-25 16:40:55.222400
2022-11-25 16:40:55.255102
2022-11-25 16:40:55.255364
2022-11-25 16:40:55.255532
2022-11-25 16:40:55.255689
2022-11-25 16:40:55.288563
2022-11-25 16:40:55.288800
2022-11-25 16:40:55.288972
2022-11-25 16:40:55.289127
2022-11-25 16:40:55.321859
2022-11-25 16:40:55.322029
2022-11-25 16:40:55.322123
2022-11-25 16:40:55.355152
2022-11-25 16:40:55.355394
2022-11-25 16:40:55.355560
2022-11-25 16:40:55.355727
2022-11-25 16:40:55.388501
2022-11-25 16:40:55.388748
2022-11-25 16:40:55.388911
2022-11-25 16:40:55.421715
2022-11-25 16:40:55.421933
2022-11-25 16:40:55.422095
2022-11-25 16:40:55.422257
2022-11-25 16:40:55.455099
2022-11-25 16:40:55.455347
2022-11-25 16:40:55.455514
2022-11-25 16:40:55.488334
2022-11-25 16:40:55.488543
2022-11-25 16:40:55.488668
2022-11-25 16:40:55.488785
2022-11-25 16:40:55.521683
2022-11-25 16:40:55.521932
2022-11-25 16:40:55.522095
2022-11-25 16:40:55.554848
2022-11-25 16:40:55.555097
2022-11-25 16:40:55.555259
2022-11-25 16:40:55.555419
2022-11-25 16:40:55.588294
2022-11-25 16:40:55.588557
2022-11-25 16:40:55.588729
2022-11-25 16:40:55.588887
2022-11-25 16:40:55.621660
2022-11-25 16:40:55.621902
2022-11-25 16:40:55.622067
2022-11-25 16:40:55.654853
2022-11-25 16:40:55.655089
2022-11-25 16:40:55.655258
2022-11-25 16:40:55.655409
2022-11-25 16:40:55.688221
2022-11-25 16:40:55.688474
2022-11-25 16:40:55.688642
2022-11-25 16:40:55.721440
2022-11-25 16:40:55.721687
2022-11-25 16:40:55.721862
2022-11-25 16:40:55.722019
2022-11-25 16:40:55.754798
2022-11-25 16:40:55.755029
2022-11-25 16:40:55.755195
2022-11-25 16:40:55.788039
2022-11-25 16:40:55.788302
2022-11-25 16:40:55.788486
2022-11-25 16:40:55.788645
2022-11-25 16:40:55.821340
2022-11-25 16:40:55.821535
2022-11-25 16:40:55.821652
2022-11-25 16:40:55.854597
2022-11-25 16:40:55.854882
2022-11-25 16:40:55.855062
2022-11-25 16:40:55.855225
2022-11-25 16:40:55.888011
2022-11-25 16:40:55.888258
2022-11-25 16:40:55.888421
2022-11-25 16:40:55.888573
2022-11-25 16:40:55.921331
2022-11-25 16:40:55.921570
2022-11-25 16:40:55.921731
2022-11-25 16:40:55.954547
2022-11-25 16:40:55.954782
2022-11-25 16:40:55.954950
2022-11-25 16:40:55.955105
2022-11-25 16:40:55.987946
2022-11-25 16:40:55.988183
2022-11-25 16:40:55.988350
2022-11-25 16:40:56.021148
2022-11-25 16:40:56.021393
2022-11-25 16:40:56.021553
2022-11-25 16:40:56.021706
2022-11-25 16:40:56.054526
2022-11-25 16:40:56.054962
2022-11-25 16:40:56.055135
2022-11-25 16:40:56.087748
2022-11-25 16:40:56.088001
2022-11-25 16:40:56.088174
2022-11-25 16:40:56.088330
2022-11-25 16:40:56.121066
2022-11-25 16:40:56.121289
2022-11-25 16:40:56.121444
2022-11-25 16:40:56.154331
2022-11-25 16:40:56.154613
2022-11-25 16:40:56.154788
2022-11-25 16:40:56.154953
2022-11-25 16:40:56.187688
2022-11-25 16:40:56.187934
2022-11-25 16:40:56.188099
2022-11-25 16:40:56.188254
2022-11-25 16:40:56.221011
2022-11-25 16:40:56.221282
2022-11-25 16:40:56.221447
2022-11-25 16:40:56.254277
2022-11-25 16:40:56.254510
2022-11-25 16:40:56.254667
2022-11-25 16:40:56.254824
2022-11-25 16:40:56.287606
2022-11-25 16:40:56.287853
2022-11-25 16:40:56.288021
2022-11-25 16:40:56.320846
2022-11-25 16:40:56.321012
2022-11-25 16:40:56.321102
2022-11-25 16:40:56.321187
2022-11-25 16:40:56.354223
2022-11-25 16:40:56.354475
2022-11-25 16:40:56.354636
2022-11-25 16:40:56.387440
2022-11-25 16:40:56.387665
2022-11-25 16:40:56.387830
2022-11-25 16:40:56.387987
2022-11-25 16:40:56.420814
2022-11-25 16:40:56.421072
2022-11-25 16:40:56.421247
2022-11-25 16:40:56.454027
2022-11-25 16:40:56.454298
2022-11-25 16:40:56.454461
2022-11-25 16:40:56.454618
2022-11-25 16:40:56.487429
2022-11-25 16:40:56.487664
2022-11-25 16:40:56.487835
2022-11-25 16:40:56.487993
2022-11-25 16:40:56.520788
2022-11-25 16:40:56.521029
2022-11-25 16:40:56.521192
2022-11-25 16:40:56.553970
2022-11-25 16:40:56.554209
2022-11-25 16:40:56.554382
2022-11-25 16:40:56.554540
2022-11-25 16:40:56.587307
2022-11-25 16:40:56.587484
2022-11-25 16:40:56.587599
2022-11-25 16:40:56.620590
2022-11-25 16:40:56.620857
2022-11-25 16:40:56.621031
2022-11-25 16:40:56.621190
2022-11-25 16:40:56.653893
2022-11-25 16:40:56.654094
2022-11-25 16:40:56.654219
2022-11-25 16:40:56.687172
2022-11-25 16:40:56.687421
2022-11-25 16:40:56.687590
2022-11-25 16:40:56.687753
2022-11-25 16:40:56.720525
2022-11-25 16:40:56.720784
2022-11-25 16:40:56.720955
2022-11-25 16:40:56.753753
2022-11-25 16:40:56.754026
2022-11-25 16:40:56.754197
2022-11-25 16:40:56.754357
2022-11-25 16:40:56.787095
2022-11-25 16:40:56.787329
2022-11-25 16:40:56.787493
2022-11-25 16:40:56.787652
2022-11-25 16:40:56.820437
2022-11-25 16:40:56.820598
2022-11-25 16:40:56.820687
2022-11-25 16:40:56.853701
2022-11-25 16:40:56.853901
2022-11-25 16:40:56.854019
2022-11-25 16:40:56.854133
2022-11-25 16:40:56.887090
2022-11-25 16:40:56.887349
2022-11-25 16:40:56.887515
2022-11-25 16:40:56.920317
2022-11-25 16:40:56.920573
2022-11-25 16:40:56.920740
2022-11-25 16:40:56.920902
2022-11-25 16:40:56.953665
2022-11-25 16:40:56.953908
2022-11-25 16:40:56.954069
2022-11-25 16:40:56.986857
2022-11-25 16:40:56.987042
2022-11-25 16:40:56.987157
2022-11-25 16:40:56.987265
2022-11-25 16:40:57.020231
2022-11-25 16:40:57.020481
2022-11-25 16:40:57.020648
2022-11-25 16:40:57.053429
2022-11-25 16:40:57.053634
2022-11-25 16:40:57.053756
2022-11-25 16:40:57.053875
2022-11-25 16:40:57.086811
2022-11-25 16:40:57.087051
2022-11-25 16:40:57.087214
2022-11-25 16:40:57.087373
2022-11-25 16:40:57.120205
2022-11-25 16:40:57.120451
2022-11-25 16:40:57.120614
2022-11-25 16:40:57.153418
2022-11-25 16:40:57.153649
2022-11-25 16:40:57.153814
2022-11-25 16:40:57.153964
2022-11-25 16:40:57.186751
2022-11-25 16:40:57.186987
2022-11-25 16:40:57.187145
2022-11-25 16:40:57.220004
2022-11-25 16:40:57.220271
2022-11-25 16:40:57.220447
2022-11-25 16:40:57.220604
2022-11-25 16:40:57.253376
2022-11-25 16:40:57.253628
2022-11-25 16:40:57.253793
2022-11-25 16:40:57.286589
2022-11-25 16:40:57.286846
2022-11-25 16:40:57.287016
2022-11-25 16:40:57.287174
2022-11-25 16:40:57.319896
2022-11-25 16:40:57.320059
2022-11-25 16:40:57.320151
2022-11-25 16:40:57.353140
2022-11-25 16:40:57.353414
2022-11-25 16:40:57.353590
2022-11-25 16:40:57.353754
2022-11-25 16:40:57.386514
2022-11-25 16:40:57.386709
2022-11-25 16:40:57.386944
2022-11-25 16:40:57.387073
2022-11-25 16:40:57.419849
2022-11-25 16:40:57.420044
2022-11-25 16:40:57.420165
2022-11-25 16:40:57.453086
2022-11-25 16:40:57.453342
2022-11-25 16:40:57.453513
2022-11-25 16:40:57.453670
2022-11-25 16:40:57.486486
2022-11-25 16:40:57.486744
2022-11-25 16:40:57.486911
2022-11-25 16:40:57.519719
2022-11-25 16:40:57.519975
2022-11-25 16:40:57.520144
2022-11-25 16:40:57.520300
2022-11-25 16:40:57.553021
2022-11-25 16:40:57.553273
2022-11-25 16:40:57.553437
2022-11-25 16:40:57.586293
2022-11-25 16:40:57.586530
2022-11-25 16:40:57.586687
2022-11-25 16:40:57.586838
2022-11-25 16:40:57.619682
2022-11-25 16:40:57.619934
2022-11-25 16:40:57.620099
2022-11-25 16:40:57.652867
2022-11-25 16:40:57.653122
2022-11-25 16:40:57.653281
2022-11-25 16:40:57.653437
2022-11-25 16:40:57.686219
2022-11-25 16:40:57.686446
2022-11-25 16:40:57.686607
2022-11-25 16:40:57.686761
2022-11-25 16:40:57.719608
2022-11-25 16:40:57.719852
2022-11-25 16:40:57.720012
2022-11-25 16:40:57.752853
2022-11-25 16:40:57.753098
2022-11-25 16:40:57.753273
2022-11-25 16:40:57.753430
2022-11-25 16:40:57.786199
2022-11-25 16:40:57.786443
2022-11-25 16:40:57.786611
2022-11-25 16:40:57.819371
2022-11-25 16:40:57.819525
2022-11-25 16:40:57.819612
2022-11-25 16:40:57.819692
2022-11-25 16:40:57.852736
2022-11-25 16:40:57.852990
2022-11-25 16:40:57.853159
2022-11-25 16:40:57.885972
2022-11-25 16:40:57.886239
2022-11-25 16:40:57.886410
2022-11-25 16:40:57.886571
2022-11-25 16:40:57.919348
2022-11-25 16:40:57.919606
2022-11-25 16:40:57.919780
2022-11-25 16:40:57.952571
2022-11-25 16:40:57.952844
2022-11-25 16:40:57.953016
2022-11-25 16:40:57.953177
2022-11-25 16:40:57.985961
2022-11-25 16:40:57.986218
2022-11-25 16:40:57.986387
2022-11-25 16:40:57.986549
2022-11-25 16:40:58.019301
2022-11-25 16:40:58.019558
2022-11-25 16:40:58.019737
2022-11-25 16:40:58.052515
2022-11-25 16:40:58.052765
2022-11-25 16:40:58.052933
2022-11-25 16:40:58.053093
2022-11-25 16:40:58.085897
2022-11-25 16:40:58.086156
2022-11-25 16:40:58.086334
2022-11-25 16:40:58.119139
2022-11-25 16:40:58.119391
2022-11-25 16:40:58.119562
2022-11-25 16:40:58.119719
2022-11-25 16:40:58.152487
2022-11-25 16:40:58.152680
2022-11-25 16:40:58.152798
2022-11-25 16:40:58.185726
2022-11-25 16:40:58.186160
2022-11-25 16:40:58.186356
2022-11-25 16:40:58.186515
2022-11-25 16:40:58.219070
2022-11-25 16:40:58.219314
2022-11-25 16:40:58.219483
2022-11-25 16:40:58.252274
2022-11-25 16:40:58.252516
2022-11-25 16:40:58.252678
2022-11-25 16:40:58.252830
2022-11-25 16:40:58.285665
2022-11-25 16:40:58.285898
2022-11-25 16:40:58.286065
2022-11-25 16:40:58.286227
2022-11-25 16:40:58.318934
2022-11-25 16:40:58.319087
2022-11-25 16:40:58.319176
2022-11-25 16:40:58.352281
2022-11-25 16:40:58.352538
2022-11-25 16:40:58.352717
2022-11-25 16:40:58.352889
2022-11-25 16:40:58.385592
2022-11-25 16:40:58.385836
2022-11-25 16:40:58.386009
2022-11-25 16:40:58.418815
2022-11-25 16:40:58.418988
2022-11-25 16:40:58.419102
2022-11-25 16:40:58.419211
2022-11-25 16:40:58.452187
2022-11-25 16:40:58.452427
2022-11-25 16:40:58.452589
2022-11-25 16:40:58.485415
2022-11-25 16:40:58.485651
2022-11-25 16:40:58.485808
2022-11-25 16:40:58.485959
2022-11-25 16:40:58.518747
2022-11-25 16:40:58.518971
2022-11-25 16:40:58.519127
2022-11-25 16:40:58.551988
2022-11-25 16:40:58.552246
2022-11-25 16:40:58.552411
2022-11-25 16:40:58.552565
2022-11-25 16:40:58.585381
2022-11-25 16:40:58.585637
2022-11-25 16:40:58.585807
2022-11-25 16:40:58.585970
2022-11-25 16:40:58.618686
2022-11-25 16:40:58.618872
2022-11-25 16:40:58.618995
2022-11-25 16:40:58.651929
2022-11-25 16:40:58.652084
2022-11-25 16:40:58.652175
2022-11-25 16:40:58.652259
2022-11-25 16:40:58.685322
2022-11-25 16:40:58.685578
2022-11-25 16:40:58.685751
2022-11-25 16:40:58.718553
2022-11-25 16:40:58.718736
2022-11-25 16:40:58.718853
2022-11-25 16:40:58.718962
2022-11-25 16:40:58.751930
2022-11-25 16:40:58.752184
2022-11-25 16:40:58.752358
2022-11-25 16:40:58.785115
2022-11-25 16:40:58.785369
2022-11-25 16:40:58.785543
2022-11-25 16:40:58.785695
2022-11-25 16:40:58.818351
2022-11-25 16:40:58.818514
2022-11-25 16:40:58.818603
2022-11-25 16:40:58.851714
2022-11-25 16:40:58.852006
2022-11-25 16:40:58.852180
2022-11-25 16:40:58.852341
2022-11-25 16:40:58.885075
2022-11-25 16:40:58.885267
2022-11-25 16:40:58.885393
2022-11-25 16:40:58.885509
2022-11-25 16:40:58.918458
2022-11-25 16:40:58.918704
2022-11-25 16:40:58.918866
2022-11-25 16:40:58.951629
2022-11-25 16:40:58.951820
2022-11-25 16:40:58.951940
2022-11-25 16:40:58.952048
2022-11-25 16:40:58.985002
2022-11-25 16:40:58.985205
2022-11-25 16:40:58.985324
2022-11-25 16:40:59.018246
2022-11-25 16:40:59.018491
2022-11-25 16:40:59.018659
2022-11-25 16:40:59.018814
2022-11-25 16:40:59.051616
2022-11-25 16:40:59.051873
2022-11-25 16:40:59.052034
2022-11-25 16:40:59.084825
2022-11-25 16:40:59.084993
2022-11-25 16:40:59.085086
2022-11-25 16:40:59.085172
2022-11-25 16:40:59.118188
2022-11-25 16:40:59.118446
2022-11-25 16:40:59.118619
2022-11-25 16:40:59.151387
2022-11-25 16:40:59.151597
2022-11-25 16:40:59.151715
2022-11-25 16:40:59.151840
2022-11-25 16:40:59.184820
2022-11-25 16:40:59.185053
2022-11-25 16:40:59.185215
2022-11-25 16:40:59.185370
2022-11-25 16:40:59.218181
2022-11-25 16:40:59.218433
2022-11-25 16:40:59.218605
2022-11-25 16:40:59.251387
2022-11-25 16:40:59.251644
2022-11-25 16:40:59.251818
2022-11-25 16:40:59.251973
2022-11-25 16:40:59.284757
2022-11-25 16:40:59.285015
2022-11-25 16:40:59.285189
2022-11-25 16:40:59.317877
2022-11-25 16:40:59.318015
2022-11-25 16:40:59.318087
2022-11-25 16:40:59.318153
2022-11-25 16:40:59.351286
2022-11-25 16:40:59.351446
2022-11-25 16:40:59.351542
2022-11-25 16:40:59.384573
2022-11-25 16:40:59.384838
2022-11-25 16:40:59.385009
2022-11-25 16:40:59.385163
2022-11-25 16:40:59.417915
2022-11-25 16:40:59.418170
2022-11-25 16:40:59.418341
2022-11-25 16:40:59.451107
2022-11-25 16:40:59.451386
2022-11-25 16:40:59.451562
2022-11-25 16:40:59.451722
2022-11-25 16:40:59.484552
2022-11-25 16:40:59.484749
2022-11-25 16:40:59.484876
2022-11-25 16:40:59.484990
2022-11-25 16:40:59.517866
2022-11-25 16:40:59.518119
2022-11-25 16:40:59.518285
2022-11-25 16:40:59.551078
2022-11-25 16:40:59.551337
2022-11-25 16:40:59.551509
2022-11-25 16:40:59.551670
2022-11-25 16:40:59.584439
2022-11-25 16:40:59.584692
2022-11-25 16:40:59.584855
2022-11-25 16:40:59.617696
2022-11-25 16:40:59.617963
2022-11-25 16:40:59.618132
