2022-11-25 16:33:45.091266
2022-11-25 16:33:45.091528
2022-11-25 16:33:45.091697
2022-11-25 16:33:45.124450
2022-11-25 16:33:45.124628
2022-11-25 16:33:45.124725
2022-11-25 16:33:45.124807
2022-11-25 16:33:45.157782
2022-11-25 16:33:45.157981
2022-11-25 16:33:45.158102
2022-11-25 16:33:45.158219
2022-11-25 16:33:45.191145
2022-11-25 16:33:45.191338
2022-11-25 16:33:45.191463
2022-11-25 16:33:45.224433
2022-11-25 16:33:45.224639
2022-11-25 16:33:45.224766
2022-11-25 16:33:45.224879
2022-11-25 16:33:45.257696
2022-11-25 16:33:45.257853
2022-11-25 16:33:45.257948
2022-11-25 16:33:45.290989
2022-11-25 16:33:45.291153
2022-11-25 16:33:45.291244
2022-11-25 16:33:45.291336
2022-11-25 16:33:45.324366
2022-11-25 16:33:45.324605
2022-11-25 16:33:45.324767
2022-11-25 16:33:45.357611
2022-11-25 16:33:45.357873
2022-11-25 16:33:45.358045
2022-11-25 16:33:45.358206
2022-11-25 16:33:45.390886
2022-11-25 16:33:45.391089
2022-11-25 16:33:45.391209
2022-11-25 16:33:45.424169
2022-11-25 16:33:45.424370
2022-11-25 16:33:45.424490
2022-11-25 16:33:45.424599
2022-11-25 16:33:45.457538
2022-11-25 16:33:45.457738
2022-11-25 16:33:45.457865
2022-11-25 16:33:45.457979
2022-11-25 16:33:45.490866
2022-11-25 16:33:45.491125
2022-11-25 16:33:45.491299
2022-11-25 16:33:45.524124
2022-11-25 16:33:45.524370
2022-11-25 16:33:45.524531
2022-11-25 16:33:45.524686
2022-11-25 16:33:45.557433
2022-11-25 16:33:45.557591
2022-11-25 16:33:45.557677
2022-11-25 16:33:45.590714
2022-11-25 16:33:45.590979
2022-11-25 16:33:45.591149
2022-11-25 16:33:45.591310
2022-11-25 16:33:45.624074
2022-11-25 16:33:45.624331
2022-11-25 16:33:45.624503
2022-11-25 16:33:45.657318
2022-11-25 16:33:45.657584
2022-11-25 16:33:45.657753
2022-11-25 16:33:45.657914
2022-11-25 16:33:45.690617
2022-11-25 16:33:45.690801
2022-11-25 16:33:45.690888
2022-11-25 16:33:45.723864
2022-11-25 16:33:45.724027
2022-11-25 16:33:45.724113
2022-11-25 16:33:45.724203
2022-11-25 16:33:45.757311
2022-11-25 16:33:45.757572
2022-11-25 16:33:45.757744
2022-11-25 16:33:45.757905
2022-11-25 16:33:45.790500
2022-11-25 16:33:45.790654
2022-11-25 16:33:45.790746
2022-11-25 16:33:45.823842
2022-11-25 16:33:45.824095
2022-11-25 16:33:45.824265
2022-11-25 16:33:45.824423
2022-11-25 16:33:45.857164
2022-11-25 16:33:45.857395
2022-11-25 16:33:45.857557
2022-11-25 16:33:45.890374
2022-11-25 16:33:45.890519
2022-11-25 16:33:45.890609
2022-11-25 16:33:45.890696
2022-11-25 16:33:45.923777
2022-11-25 16:33:45.924035
2022-11-25 16:33:45.924206
2022-11-25 16:33:45.956951
2022-11-25 16:33:45.957118
2022-11-25 16:33:45.957208
2022-11-25 16:33:45.957296
2022-11-25 16:33:45.990356
2022-11-25 16:33:45.990550
2022-11-25 16:33:45.990666
2022-11-25 16:33:46.023519
2022-11-25 16:33:46.023736
2022-11-25 16:33:46.023862
2022-11-25 16:33:46.023974
2022-11-25 16:33:46.056930
2022-11-25 16:33:46.057092
2022-11-25 16:33:46.057188
2022-11-25 16:33:46.057277
2022-11-25 16:33:46.090332
2022-11-25 16:33:46.090580
2022-11-25 16:33:46.090751
2022-11-25 16:33:46.123542
2022-11-25 16:33:46.123741
2022-11-25 16:33:46.123868
2022-11-25 16:33:46.123986
2022-11-25 16:33:46.156888
2022-11-25 16:33:46.157092
2022-11-25 16:33:46.157213
2022-11-25 16:33:46.190113
2022-11-25 16:33:46.190269
2022-11-25 16:33:46.190359
2022-11-25 16:33:46.190449
2022-11-25 16:33:46.223514
2022-11-25 16:33:46.223698
2022-11-25 16:33:46.223815
2022-11-25 16:33:46.256715
2022-11-25 16:33:46.256894
2022-11-25 16:33:46.257007
2022-11-25 16:33:46.257118
2022-11-25 16:33:46.290063
2022-11-25 16:33:46.290274
2022-11-25 16:33:46.290396
2022-11-25 16:33:46.323288
2022-11-25 16:33:46.323512
2022-11-25 16:33:46.323643
2022-11-25 16:33:46.323757
2022-11-25 16:33:46.356681
2022-11-25 16:33:46.356927
2022-11-25 16:33:46.357095
2022-11-25 16:33:46.357256
2022-11-25 16:33:46.389967
2022-11-25 16:33:46.390148
2022-11-25 16:33:46.390270
2022-11-25 16:33:46.423213
2022-11-25 16:33:46.423374
2022-11-25 16:33:46.423462
2022-11-25 16:33:46.423549
2022-11-25 16:33:46.456553
2022-11-25 16:33:46.456742
2022-11-25 16:33:46.456860
2022-11-25 16:33:46.489848
2022-11-25 16:33:46.490048
2022-11-25 16:33:46.490167
2022-11-25 16:33:46.490283
2022-11-25 16:33:46.523182
2022-11-25 16:33:46.523382
2022-11-25 16:33:46.523510
2022-11-25 16:33:46.556383
2022-11-25 16:33:46.556467
2022-11-25 16:33:46.556531
2022-11-25 16:33:46.556592
2022-11-25 16:33:46.589704
2022-11-25 16:33:46.589832
2022-11-25 16:33:46.589911
2022-11-25 16:33:46.622973
2022-11-25 16:33:46.623190
2022-11-25 16:33:46.623315
2022-11-25 16:33:46.623434
2022-11-25 16:33:46.656318
2022-11-25 16:33:46.656504
2022-11-25 16:33:46.656622
2022-11-25 16:33:46.656736
2022-11-25 16:33:46.689657
2022-11-25 16:33:46.689813
2022-11-25 16:33:46.689911
2022-11-25 16:33:46.722926
2022-11-25 16:33:46.723125
2022-11-25 16:33:46.723252
2022-11-25 16:33:46.723367
2022-11-25 16:33:46.756265
2022-11-25 16:33:46.756447
2022-11-25 16:33:46.756563
2022-11-25 16:33:46.789508
2022-11-25 16:33:46.789660
2022-11-25 16:33:46.789748
2022-11-25 16:33:46.789842
2022-11-25 16:33:46.822919
2022-11-25 16:33:46.823176
2022-11-25 16:33:46.823344
2022-11-25 16:33:46.856095
2022-11-25 16:33:46.856281
2022-11-25 16:33:46.856397
2022-11-25 16:33:46.856510
2022-11-25 16:33:46.889530
2022-11-25 16:33:46.889720
2022-11-25 16:33:46.889842
2022-11-25 16:33:46.922722
2022-11-25 16:33:46.922995
2022-11-25 16:33:46.923168
2022-11-25 16:33:46.923332
2022-11-25 16:33:46.956038
2022-11-25 16:33:46.956234
2022-11-25 16:33:46.956357
2022-11-25 16:33:46.956470
2022-11-25 16:33:46.989462
2022-11-25 16:33:46.989703
2022-11-25 16:33:46.989866
2022-11-25 16:33:47.022606
2022-11-25 16:33:47.022802
2022-11-25 16:33:47.022927
2022-11-25 16:33:47.023044
2022-11-25 16:33:47.055928
2022-11-25 16:33:47.056010
2022-11-25 16:33:47.056070
2022-11-25 16:33:47.089127
2022-11-25 16:33:47.089268
2022-11-25 16:33:47.089357
2022-11-25 16:33:47.089442
2022-11-25 16:33:47.122540
2022-11-25 16:33:47.122734
2022-11-25 16:33:47.122852
2022-11-25 16:33:47.155780
2022-11-25 16:33:47.155980
2022-11-25 16:33:47.156102
2022-11-25 16:33:47.156221
2022-11-25 16:33:47.189076
2022-11-25 16:33:47.189225
2022-11-25 16:33:47.189312
2022-11-25 16:33:47.222338
2022-11-25 16:33:47.222712
2022-11-25 16:33:47.222812
2022-11-25 16:33:47.222897
2022-11-25 16:33:47.255769
2022-11-25 16:33:47.256010
2022-11-25 16:33:47.256173
2022-11-25 16:33:47.256332
2022-11-25 16:33:47.289000
2022-11-25 16:33:47.289149
2022-11-25 16:33:47.289237
2022-11-25 16:33:47.322377
2022-11-25 16:33:47.322614
2022-11-25 16:33:47.322780
2022-11-25 16:33:47.322936
2022-11-25 16:33:47.355645
2022-11-25 16:33:47.355829
2022-11-25 16:33:47.355945
2022-11-25 16:33:47.388846
2022-11-25 16:33:47.388996
2022-11-25 16:33:47.389087
2022-11-25 16:33:47.389170
2022-11-25 16:33:47.422180
2022-11-25 16:33:47.422329
2022-11-25 16:33:47.422418
2022-11-25 16:33:47.455484
2022-11-25 16:33:47.455690
2022-11-25 16:33:47.455817
2022-11-25 16:33:47.455935
2022-11-25 16:33:47.488863
2022-11-25 16:33:47.489059
2022-11-25 16:33:47.489184
2022-11-25 16:33:47.522065
2022-11-25 16:33:47.522281
2022-11-25 16:33:47.522409
2022-11-25 16:33:47.522524
2022-11-25 16:33:47.555370
2022-11-25 16:33:47.555454
2022-11-25 16:33:47.555516
2022-11-25 16:33:47.555578
2022-11-25 16:33:47.588645
2022-11-25 16:33:47.588772
2022-11-25 16:33:47.588851
2022-11-25 16:33:47.622048
2022-11-25 16:33:47.622232
2022-11-25 16:33:47.622352
2022-11-25 16:33:47.622468
2022-11-25 16:33:47.655454
2022-11-25 16:33:47.655702
2022-11-25 16:33:47.655872
2022-11-25 16:33:47.688557
2022-11-25 16:33:47.688707
2022-11-25 16:33:47.688792
2022-11-25 16:33:47.688879
2022-11-25 16:33:47.721946
2022-11-25 16:33:47.722139
2022-11-25 16:33:47.722257
2022-11-25 16:33:47.755165
2022-11-25 16:33:47.755327
2022-11-25 16:33:47.755416
2022-11-25 16:33:47.755498
2022-11-25 16:33:47.788511
2022-11-25 16:33:47.788692
2022-11-25 16:33:47.788813
2022-11-25 16:33:47.821831
2022-11-25 16:33:47.822163
2022-11-25 16:33:47.822344
2022-11-25 16:33:47.822504
2022-11-25 16:33:47.855140
2022-11-25 16:33:47.855335
2022-11-25 16:33:47.855463
2022-11-25 16:33:47.855575
2022-11-25 16:33:47.888482
2022-11-25 16:33:47.888672
2022-11-25 16:33:47.888788
2022-11-25 16:33:47.921716
2022-11-25 16:33:47.921902
2022-11-25 16:33:47.922021
2022-11-25 16:33:47.922134
2022-11-25 16:33:47.955089
2022-11-25 16:33:47.955272
2022-11-25 16:33:47.955399
2022-11-25 16:33:47.988319
2022-11-25 16:33:47.988471
2022-11-25 16:33:47.988561
2022-11-25 16:33:47.988653
2022-11-25 16:33:48.021654
2022-11-25 16:33:48.021816
2022-11-25 16:33:48.021905
2022-11-25 16:33:48.054925
2022-11-25 16:33:48.055095
2022-11-25 16:33:48.055186
2022-11-25 16:33:48.055291
2022-11-25 16:33:48.088369
2022-11-25 16:33:48.088628
2022-11-25 16:33:48.088806
2022-11-25 16:33:48.121501
2022-11-25 16:33:48.121678
2022-11-25 16:33:48.121772
2022-11-25 16:33:48.121860
2022-11-25 16:33:48.154902
2022-11-25 16:33:48.155091
2022-11-25 16:33:48.155214
2022-11-25 16:33:48.155334
2022-11-25 16:33:48.188236
2022-11-25 16:33:48.188391
2022-11-25 16:33:48.188479
2022-11-25 16:33:48.221495
2022-11-25 16:33:48.221691
2022-11-25 16:33:48.221824
2022-11-25 16:33:48.221941
2022-11-25 16:33:48.254830
2022-11-25 16:33:48.255008
2022-11-25 16:33:48.255127
2022-11-25 16:33:48.288134
2022-11-25 16:33:48.288297
2022-11-25 16:33:48.288389
2022-11-25 16:33:48.288472
2022-11-25 16:33:48.321453
2022-11-25 16:33:48.321597
2022-11-25 16:33:48.321689
2022-11-25 16:33:48.354716
2022-11-25 16:33:48.354916
2022-11-25 16:33:48.355037
2022-11-25 16:33:48.355157
2022-11-25 16:33:48.388038
2022-11-25 16:33:48.388220
2022-11-25 16:33:48.388344
2022-11-25 16:33:48.421250
2022-11-25 16:33:48.421460
2022-11-25 16:33:48.421585
2022-11-25 16:33:48.421696
2022-11-25 16:33:48.454616
2022-11-25 16:33:48.454778
2022-11-25 16:33:48.454869
2022-11-25 16:33:48.454952
2022-11-25 16:33:48.487942
2022-11-25 16:33:48.488103
2022-11-25 16:33:48.488193
2022-11-25 16:33:48.521220
2022-11-25 16:33:48.521466
2022-11-25 16:33:48.521622
2022-11-25 16:33:48.521745
2022-11-25 16:33:48.554560
2022-11-25 16:33:48.554739
2022-11-25 16:33:48.554830
2022-11-25 16:33:48.587810
2022-11-25 16:33:48.588000
2022-11-25 16:33:48.588123
2022-11-25 16:33:48.588237
2022-11-25 16:33:48.621161
2022-11-25 16:33:48.621359
2022-11-25 16:33:48.621476
2022-11-25 16:33:48.654407
2022-11-25 16:33:48.654602
2022-11-25 16:33:48.654783
2022-11-25 16:33:48.654935
2022-11-25 16:33:48.687744
2022-11-25 16:33:48.687937
2022-11-25 16:33:48.688055
2022-11-25 16:33:48.720959
2022-11-25 16:33:48.721129
2022-11-25 16:33:48.721218
2022-11-25 16:33:48.721300
2022-11-25 16:33:48.754319
2022-11-25 16:33:48.754538
2022-11-25 16:33:48.754699
2022-11-25 16:33:48.754867
2022-11-25 16:33:48.787575
2022-11-25 16:33:48.787823
2022-11-25 16:33:48.787952
2022-11-25 16:33:48.820896
2022-11-25 16:33:48.821041
2022-11-25 16:33:48.821132
2022-11-25 16:33:48.821213
2022-11-25 16:33:48.854286
2022-11-25 16:33:48.854488
2022-11-25 16:33:48.854610
2022-11-25 16:33:48.887551
2022-11-25 16:33:48.887809
2022-11-25 16:33:48.887982
2022-11-25 16:33:48.888142
2022-11-25 16:33:48.920866
2022-11-25 16:33:48.921058
2022-11-25 16:33:48.921180
2022-11-25 16:33:48.954141
2022-11-25 16:33:48.954395
2022-11-25 16:33:48.954585
2022-11-25 16:33:48.954738
2022-11-25 16:33:48.987502
2022-11-25 16:33:48.987660
2022-11-25 16:33:48.987750
2022-11-25 16:33:49.020694
2022-11-25 16:33:49.020974
2022-11-25 16:33:49.021151
2022-11-25 16:33:49.021314
2022-11-25 16:33:49.054070
2022-11-25 16:33:49.054324
2022-11-25 16:33:49.054497
2022-11-25 16:33:49.054652
2022-11-25 16:33:49.087236
2022-11-25 16:33:49.087391
2022-11-25 16:33:49.087468
2022-11-25 16:33:49.120672
2022-11-25 16:33:49.120869
2022-11-25 16:33:49.120990
2022-11-25 16:33:49.121108
2022-11-25 16:33:49.154032
2022-11-25 16:33:49.154282
2022-11-25 16:33:49.154453
2022-11-25 16:33:49.187268
2022-11-25 16:33:49.187508
2022-11-25 16:33:49.187672
2022-11-25 16:33:49.187824
2022-11-25 16:33:49.220579
2022-11-25 16:33:49.220775
2022-11-25 16:33:49.220895
2022-11-25 16:33:49.253814
2022-11-25 16:33:49.254054
2022-11-25 16:33:49.254218
2022-11-25 16:33:49.254377
2022-11-25 16:33:49.287132
2022-11-25 16:33:49.287313
2022-11-25 16:33:49.287432
2022-11-25 16:33:49.320427
2022-11-25 16:33:49.320678
2022-11-25 16:33:49.320840
2022-11-25 16:33:49.320992
2022-11-25 16:33:49.353785
2022-11-25 16:33:49.354029
2022-11-25 16:33:49.354197
2022-11-25 16:33:49.354353
2022-11-25 16:33:49.387134
2022-11-25 16:33:49.387375
2022-11-25 16:33:49.387541
2022-11-25 16:33:49.420365
2022-11-25 16:33:49.420607
2022-11-25 16:33:49.420772
2022-11-25 16:33:49.420931
2022-11-25 16:33:49.453722
2022-11-25 16:33:49.453978
2022-11-25 16:33:49.454150
2022-11-25 16:33:49.486949
2022-11-25 16:33:49.487202
2022-11-25 16:33:49.487382
2022-11-25 16:33:49.487549
2022-11-25 16:33:49.520280
2022-11-25 16:33:49.520485
2022-11-25 16:33:49.520607
2022-11-25 16:33:49.553546
2022-11-25 16:33:49.553788
2022-11-25 16:33:49.553958
2022-11-25 16:33:49.554112
2022-11-25 16:33:49.586890
2022-11-25 16:33:49.587120
2022-11-25 16:33:49.587283
2022-11-25 16:33:49.620105
2022-11-25 16:33:49.620360
2022-11-25 16:33:49.620540
2022-11-25 16:33:49.620704
2022-11-25 16:33:49.653505
2022-11-25 16:33:49.653669
2022-11-25 16:33:49.653761
2022-11-25 16:33:49.653846
2022-11-25 16:33:49.686847
2022-11-25 16:33:49.687089
2022-11-25 16:33:49.687260
2022-11-25 16:33:49.720079
2022-11-25 16:33:49.720326
2022-11-25 16:33:49.720491
2022-11-25 16:33:49.720659
2022-11-25 16:33:49.753423
2022-11-25 16:33:49.753664
2022-11-25 16:33:49.753831
2022-11-25 16:33:49.786636
2022-11-25 16:33:49.786864
2022-11-25 16:33:49.787025
2022-11-25 16:33:49.787180
2022-11-25 16:33:49.819952
2022-11-25 16:33:49.820202
2022-11-25 16:33:49.820374
2022-11-25 16:33:49.853240
2022-11-25 16:33:49.853480
2022-11-25 16:33:49.853646
2022-11-25 16:33:49.853807
2022-11-25 16:33:49.886598
2022-11-25 16:33:49.886846
2022-11-25 16:33:49.887014
2022-11-25 16:33:49.919781
2022-11-25 16:33:49.920056
2022-11-25 16:33:49.920224
2022-11-25 16:33:49.920379
2022-11-25 16:33:49.953212
2022-11-25 16:33:49.953466
2022-11-25 16:33:49.953647
2022-11-25 16:33:49.953806
2022-11-25 16:33:49.986539
2022-11-25 16:33:49.986784
2022-11-25 16:33:49.986948
2022-11-25 16:33:50.019797
2022-11-25 16:33:50.020060
2022-11-25 16:33:50.020233
2022-11-25 16:33:50.020395
2022-11-25 16:33:50.053151
2022-11-25 16:33:50.053400
2022-11-25 16:33:50.053560
2022-11-25 16:33:50.086379
2022-11-25 16:33:50.086627
2022-11-25 16:33:50.086802
2022-11-25 16:33:50.086957
2022-11-25 16:33:50.119744
2022-11-25 16:33:50.119986
2022-11-25 16:33:50.120154
2022-11-25 16:33:50.152963
2022-11-25 16:33:50.153224
2022-11-25 16:33:50.153399
2022-11-25 16:33:50.153558
2022-11-25 16:33:50.186301
2022-11-25 16:33:50.186543
2022-11-25 16:33:50.186711
2022-11-25 16:33:50.219536
2022-11-25 16:33:50.219787
2022-11-25 16:33:50.219959
2022-11-25 16:33:50.220121
2022-11-25 16:33:50.252937
2022-11-25 16:33:50.253196
2022-11-25 16:33:50.253368
2022-11-25 16:33:50.253531
2022-11-25 16:33:50.286257
2022-11-25 16:33:50.286509
2022-11-25 16:33:50.286683
2022-11-25 16:33:50.319501
2022-11-25 16:33:50.319758
2022-11-25 16:33:50.319930
2022-11-25 16:33:50.320088
2022-11-25 16:33:50.352870
2022-11-25 16:33:50.353130
2022-11-25 16:33:50.353303
2022-11-25 16:33:50.386067
2022-11-25 16:33:50.386321
2022-11-25 16:33:50.386487
2022-11-25 16:33:50.386659
2022-11-25 16:33:50.419441
2022-11-25 16:33:50.419700
2022-11-25 16:33:50.419869
2022-11-25 16:33:50.452669
2022-11-25 16:33:50.452925
2022-11-25 16:33:50.453095
2022-11-25 16:33:50.453253
2022-11-25 16:33:50.486024
2022-11-25 16:33:50.486259
2022-11-25 16:33:50.486419
2022-11-25 16:33:50.519234
2022-11-25 16:33:50.519512
2022-11-25 16:33:50.519681
2022-11-25 16:33:50.519838
2022-11-25 16:33:50.552587
2022-11-25 16:33:50.552741
2022-11-25 16:33:50.552829
2022-11-25 16:33:50.552915
2022-11-25 16:33:50.585965
2022-11-25 16:33:50.586192
2022-11-25 16:33:50.586365
2022-11-25 16:33:50.619226
2022-11-25 16:33:50.619474
2022-11-25 16:33:50.619649
2022-11-25 16:33:50.619807
2022-11-25 16:33:50.652539
2022-11-25 16:33:50.652781
2022-11-25 16:33:50.652943
2022-11-25 16:33:50.685805
2022-11-25 16:33:50.686062
2022-11-25 16:33:50.686234
2022-11-25 16:33:50.686397
2022-11-25 16:33:50.719182
2022-11-25 16:33:50.719437
2022-11-25 16:33:50.719603
2022-11-25 16:33:50.752375
2022-11-25 16:33:50.752641
2022-11-25 16:33:50.752828
2022-11-25 16:33:50.752990
2022-11-25 16:33:50.785745
2022-11-25 16:33:50.785993
2022-11-25 16:33:50.786164
2022-11-25 16:33:50.818945
2022-11-25 16:33:50.819209
2022-11-25 16:33:50.819378
2022-11-25 16:33:50.819538
2022-11-25 16:33:50.852340
2022-11-25 16:33:50.852601
2022-11-25 16:33:50.852782
2022-11-25 16:33:50.852947
2022-11-25 16:33:50.885699
2022-11-25 16:33:50.885948
2022-11-25 16:33:50.886122
2022-11-25 16:33:50.918859
2022-11-25 16:33:50.919110
2022-11-25 16:33:50.919277
2022-11-25 16:33:50.919435
2022-11-25 16:33:50.952271
2022-11-25 16:33:50.952534
2022-11-25 16:33:50.952709
2022-11-25 16:33:50.985495
2022-11-25 16:33:50.985742
2022-11-25 16:33:50.985911
2022-11-25 16:33:50.986075
2022-11-25 16:33:51.018805
2022-11-25 16:33:51.019047
2022-11-25 16:33:51.019211
2022-11-25 16:33:51.052109
2022-11-25 16:33:51.052313
2022-11-25 16:33:51.052431
2022-11-25 16:33:51.052572
2022-11-25 16:33:51.085464
2022-11-25 16:33:51.085723
2022-11-25 16:33:51.085896
2022-11-25 16:33:51.118675
2022-11-25 16:33:51.118955
2022-11-25 16:33:51.119125
2022-11-25 16:33:51.119285
2022-11-25 16:33:51.152021
2022-11-25 16:33:51.152260
2022-11-25 16:33:51.152425
2022-11-25 16:33:51.152577
2022-11-25 16:33:51.185389
2022-11-25 16:33:51.185637
2022-11-25 16:33:51.185811
2022-11-25 16:33:51.218634
2022-11-25 16:33:51.218889
2022-11-25 16:33:51.219060
2022-11-25 16:33:51.219230
2022-11-25 16:33:51.251987
2022-11-25 16:33:51.252244
2022-11-25 16:33:51.252414
2022-11-25 16:33:51.285236
2022-11-25 16:33:51.285491
2022-11-25 16:33:51.285663
2022-11-25 16:33:51.285823
2022-11-25 16:33:51.318573
2022-11-25 16:33:51.318829
2022-11-25 16:33:51.318992
2022-11-25 16:33:51.351790
2022-11-25 16:33:51.352051
2022-11-25 16:33:51.352219
2022-11-25 16:33:51.352374
2022-11-25 16:33:51.385141
2022-11-25 16:33:51.385383
2022-11-25 16:33:51.385551
2022-11-25 16:33:51.418357
2022-11-25 16:33:51.418610
2022-11-25 16:33:51.418788
2022-11-25 16:33:51.418944
2022-11-25 16:33:51.451733
2022-11-25 16:33:51.451981
2022-11-25 16:33:51.452149
2022-11-25 16:33:51.452503
2022-11-25 16:33:51.485088
2022-11-25 16:33:51.485321
2022-11-25 16:33:51.485484
2022-11-25 16:33:51.518338
2022-11-25 16:33:51.518600
2022-11-25 16:33:51.518766
2022-11-25 16:33:51.518927
2022-11-25 16:33:51.551640
2022-11-25 16:33:51.551834
2022-11-25 16:33:51.551953
2022-11-25 16:33:51.584925
2022-11-25 16:33:51.585187
2022-11-25 16:33:51.585376
2022-11-25 16:33:51.585539
2022-11-25 16:33:51.618258
2022-11-25 16:33:51.618514
2022-11-25 16:33:51.618678
2022-11-25 16:33:51.651516
2022-11-25 16:33:51.651773
2022-11-25 16:33:51.651946
2022-11-25 16:33:51.652102
2022-11-25 16:33:51.684863
2022-11-25 16:33:51.685105
2022-11-25 16:33:51.685286
2022-11-25 16:33:51.718069
2022-11-25 16:33:51.718340
2022-11-25 16:33:51.718509
2022-11-25 16:33:51.718664
2022-11-25 16:33:51.751457
2022-11-25 16:33:51.751693
2022-11-25 16:33:51.751858
2022-11-25 16:33:51.752024
2022-11-25 16:33:51.784835
2022-11-25 16:33:51.785072
2022-11-25 16:33:51.785238
2022-11-25 16:33:51.818094
2022-11-25 16:33:51.818354
2022-11-25 16:33:51.818528
2022-11-25 16:33:51.818684
2022-11-25 16:33:51.851410
2022-11-25 16:33:51.851664
2022-11-25 16:33:51.851838
2022-11-25 16:33:51.884641
2022-11-25 16:33:51.884894
2022-11-25 16:33:51.885066
2022-11-25 16:33:51.885225
2022-11-25 16:33:51.917988
2022-11-25 16:33:51.918229
2022-11-25 16:33:51.918388
2022-11-25 16:33:51.951255
2022-11-25 16:33:51.951514
2022-11-25 16:33:51.951695
2022-11-25 16:33:51.951852
2022-11-25 16:33:51.984585
2022-11-25 16:33:51.984841
2022-11-25 16:33:51.985015
2022-11-25 16:33:52.017745
2022-11-25 16:33:52.018024
2022-11-25 16:33:52.018201
2022-11-25 16:33:52.018367
2022-11-25 16:33:52.051137
2022-11-25 16:33:52.051317
2022-11-25 16:33:52.051438
2022-11-25 16:33:52.051554
2022-11-25 16:33:52.084526
2022-11-25 16:33:52.084688
2022-11-25 16:33:52.084780
2022-11-25 16:33:52.117784
2022-11-25 16:33:52.118084
2022-11-25 16:33:52.118258
2022-11-25 16:33:52.118420
2022-11-25 16:33:52.151119
2022-11-25 16:33:52.151376
2022-11-25 16:33:52.151542
2022-11-25 16:33:52.184364
2022-11-25 16:33:52.184620
2022-11-25 16:33:52.184791
2022-11-25 16:33:52.184949
2022-11-25 16:33:52.217713
2022-11-25 16:33:52.217968
2022-11-25 16:33:52.218136
2022-11-25 16:33:52.250918
2022-11-25 16:33:52.251167
2022-11-25 16:33:52.251336
2022-11-25 16:33:52.251495
2022-11-25 16:33:52.284248
2022-11-25 16:33:52.284438
2022-11-25 16:33:52.284558
2022-11-25 16:33:52.317487
2022-11-25 16:33:52.317768
2022-11-25 16:33:52.317944
2022-11-25 16:33:52.318113
2022-11-25 16:33:52.350887
2022-11-25 16:33:52.351137
2022-11-25 16:33:52.351308
2022-11-25 16:33:52.351466
2022-11-25 16:33:52.384213
2022-11-25 16:33:52.384448
2022-11-25 16:33:52.384628
2022-11-25 16:33:52.417518
2022-11-25 16:33:52.417765
2022-11-25 16:33:52.417933
2022-11-25 16:33:52.418087
2022-11-25 16:33:52.450810
2022-11-25 16:33:52.451035
2022-11-25 16:33:52.451195
2022-11-25 16:33:52.484075
2022-11-25 16:33:52.484381
2022-11-25 16:33:52.484558
2022-11-25 16:33:52.484720
2022-11-25 16:33:52.517438
2022-11-25 16:33:52.517695
2022-11-25 16:33:52.517887
2022-11-25 16:33:52.550629
2022-11-25 16:33:52.550816
2022-11-25 16:33:52.550936
2022-11-25 16:33:52.551051
2022-11-25 16:33:52.584004
2022-11-25 16:33:52.584248
2022-11-25 16:33:52.584408
2022-11-25 16:33:52.617195
2022-11-25 16:33:52.617477
2022-11-25 16:33:52.617652
2022-11-25 16:33:52.617806
2022-11-25 16:33:52.650561
2022-11-25 16:33:52.650797
2022-11-25 16:33:52.650979
2022-11-25 16:33:52.651144
2022-11-25 16:33:52.683959
2022-11-25 16:33:52.684206
2022-11-25 16:33:52.684371
2022-11-25 16:33:52.717182
2022-11-25 16:33:52.717421
2022-11-25 16:33:52.717586
2022-11-25 16:33:52.717748
2022-11-25 16:33:52.750550
2022-11-25 16:33:52.750778
2022-11-25 16:33:52.750938
2022-11-25 16:33:52.783768
2022-11-25 16:33:52.784015
2022-11-25 16:33:52.784177
2022-11-25 16:33:52.784328
2022-11-25 16:33:52.817148
2022-11-25 16:33:52.817399
2022-11-25 16:33:52.817570
2022-11-25 16:33:52.850367
2022-11-25 16:33:52.850580
2022-11-25 16:33:52.850711
2022-11-25 16:33:52.850825
2022-11-25 16:33:52.883746
2022-11-25 16:33:52.884007
2022-11-25 16:33:52.884172
2022-11-25 16:33:52.916899
2022-11-25 16:33:52.917157
2022-11-25 16:33:52.917333
2022-11-25 16:33:52.917489
2022-11-25 16:33:52.950297
2022-11-25 16:33:52.950556
2022-11-25 16:33:52.950760
2022-11-25 16:33:52.950927
2022-11-25 16:33:52.983639
2022-11-25 16:33:52.983878
2022-11-25 16:33:52.984042
2022-11-25 16:33:53.016797
2022-11-25 16:33:53.016965
2022-11-25 16:33:53.017061
2022-11-25 16:33:53.017144
2022-11-25 16:33:53.050160
2022-11-25 16:33:53.050309
2022-11-25 16:33:53.050394
2022-11-25 16:33:53.083455
2022-11-25 16:33:53.083703
2022-11-25 16:33:53.083866
2022-11-25 16:33:53.084023
2022-11-25 16:33:53.116806
2022-11-25 16:33:53.117046
2022-11-25 16:33:53.117207
2022-11-25 16:33:53.150035
2022-11-25 16:33:53.150283
2022-11-25 16:33:53.150450
2022-11-25 16:33:53.150603
2022-11-25 16:33:53.183399
2022-11-25 16:33:53.183640
2022-11-25 16:33:53.183805
2022-11-25 16:33:53.216645
2022-11-25 16:33:53.216849
2022-11-25 16:33:53.216975
2022-11-25 16:33:53.217089
2022-11-25 16:33:53.249999
2022-11-25 16:33:53.250254
2022-11-25 16:33:53.250420
2022-11-25 16:33:53.250585
2022-11-25 16:33:53.283356
2022-11-25 16:33:53.283605
2022-11-25 16:33:53.283774
2022-11-25 16:33:53.316613
2022-11-25 16:33:53.316877
2022-11-25 16:33:53.317056
2022-11-25 16:33:53.317215
2022-11-25 16:33:53.349938
2022-11-25 16:33:53.350183
2022-11-25 16:33:53.350360
2022-11-25 16:33:53.383176
2022-11-25 16:33:53.383417
2022-11-25 16:33:53.383581
2022-11-25 16:33:53.383738
2022-11-25 16:33:53.416530
2022-11-25 16:33:53.416775
2022-11-25 16:33:53.416939
2022-11-25 16:33:53.449720
2022-11-25 16:33:53.449906
2022-11-25 16:33:53.450032
2022-11-25 16:33:53.450147
2022-11-25 16:33:53.483135
2022-11-25 16:33:53.483370
2022-11-25 16:33:53.483531
2022-11-25 16:33:53.516350
2022-11-25 16:33:53.516621
2022-11-25 16:33:53.516795
2022-11-25 16:33:53.516960
2022-11-25 16:33:53.549589
2022-11-25 16:33:53.549742
2022-11-25 16:33:53.549834
2022-11-25 16:33:53.549920
2022-11-25 16:33:53.583082
2022-11-25 16:33:53.583324
2022-11-25 16:33:53.583655
2022-11-25 16:33:53.616303
2022-11-25 16:33:53.616560
2022-11-25 16:33:53.616728
2022-11-25 16:33:53.616896
2022-11-25 16:33:53.649658
2022-11-25 16:33:53.649890
2022-11-25 16:33:53.650056
2022-11-25 16:33:53.682892
2022-11-25 16:33:53.683145
2022-11-25 16:33:53.683318
2022-11-25 16:33:53.683481
2022-11-25 16:33:53.716205
2022-11-25 16:33:53.716397
2022-11-25 16:33:53.716519
2022-11-25 16:33:53.749449
2022-11-25 16:33:53.749696
2022-11-25 16:33:53.749864
2022-11-25 16:33:53.750016
2022-11-25 16:33:53.782787
2022-11-25 16:33:53.783014
2022-11-25 16:33:53.783176
2022-11-25 16:33:53.816023
2022-11-25 16:33:53.816296
2022-11-25 16:33:53.816471
2022-11-25 16:33:53.816628
2022-11-25 16:33:53.849426
2022-11-25 16:33:53.849663
2022-11-25 16:33:53.849823
2022-11-25 16:33:53.849980
2022-11-25 16:33:53.882771
2022-11-25 16:33:53.883020
2022-11-25 16:33:53.883192
2022-11-25 16:33:53.916008
2022-11-25 16:33:53.916242
2022-11-25 16:33:53.916411
2022-11-25 16:33:53.916568
2022-11-25 16:33:53.949378
2022-11-25 16:33:53.949619
2022-11-25 16:33:53.949781
2022-11-25 16:33:53.982600
2022-11-25 16:33:53.982852
2022-11-25 16:33:53.983029
2022-11-25 16:33:53.983189
2022-11-25 16:33:54.015897
2022-11-25 16:33:54.016093
2022-11-25 16:33:54.016218
2022-11-25 16:33:54.049186
2022-11-25 16:33:54.049350
2022-11-25 16:33:54.049437
2022-11-25 16:33:54.049520
2022-11-25 16:33:54.082477
2022-11-25 16:33:54.082634
2022-11-25 16:33:54.082729
2022-11-25 16:33:54.115785
2022-11-25 16:33:54.116057
2022-11-25 16:33:54.116229
2022-11-25 16:33:54.116385
2022-11-25 16:33:54.149139
2022-11-25 16:33:54.149378
2022-11-25 16:33:54.149541
2022-11-25 16:33:54.149697
2022-11-25 16:33:54.182499
2022-11-25 16:33:54.182749
2022-11-25 16:33:54.182969
2022-11-25 16:33:54.215734
2022-11-25 16:33:54.215941
2022-11-25 16:33:54.216065
2022-11-25 16:33:54.216180
2022-11-25 16:33:54.249050
2022-11-25 16:33:54.249290
2022-11-25 16:33:54.249470
2022-11-25 16:33:54.282285
2022-11-25 16:33:54.282523
2022-11-25 16:33:54.282693
2022-11-25 16:33:54.282853
2022-11-25 16:33:54.315680
2022-11-25 16:33:54.315918
2022-11-25 16:33:54.316085
2022-11-25 16:33:54.348901
2022-11-25 16:33:54.349173
2022-11-25 16:33:54.349354
2022-11-25 16:33:54.349551
2022-11-25 16:33:54.382227
2022-11-25 16:33:54.382418
2022-11-25 16:33:54.382548
2022-11-25 16:33:54.415466
2022-11-25 16:33:54.415718
2022-11-25 16:33:54.415890
2022-11-25 16:33:54.416047
2022-11-25 16:33:54.448837
2022-11-25 16:33:54.449080
2022-11-25 16:33:54.449253
2022-11-25 16:33:54.449422
2022-11-25 16:33:54.482194
2022-11-25 16:33:54.482448
2022-11-25 16:33:54.482618
2022-11-25 16:33:54.515419
2022-11-25 16:33:54.515666
2022-11-25 16:33:54.515829
2022-11-25 16:33:54.515986
2022-11-25 16:33:54.548742
2022-11-25 16:33:54.548904
2022-11-25 16:33:54.549002
2022-11-25 16:33:54.582032
2022-11-25 16:33:54.582296
2022-11-25 16:33:54.582468
2022-11-25 16:33:54.582639
2022-11-25 16:33:54.615370
2022-11-25 16:33:54.615613
2022-11-25 16:33:54.615777
2022-11-25 16:33:54.648589
2022-11-25 16:33:54.648860
2022-11-25 16:33:54.649030
2022-11-25 16:33:54.649194
2022-11-25 16:33:54.681985
2022-11-25 16:33:54.682231
2022-11-25 16:33:54.682401
2022-11-25 16:33:54.715163
2022-11-25 16:33:54.715320
2022-11-25 16:33:54.715407
2022-11-25 16:33:54.715490
2022-11-25 16:33:54.748575
2022-11-25 16:33:54.748836
2022-11-25 16:33:54.749018
2022-11-25 16:33:54.749181
2022-11-25 16:33:54.781906
2022-11-25 16:33:54.782142
2022-11-25 16:33:54.782313
2022-11-25 16:33:54.815114
2022-11-25 16:33:54.815371
2022-11-25 16:33:54.815539
2022-11-25 16:33:54.815695
2022-11-25 16:33:54.848565
2022-11-25 16:33:54.848821
2022-11-25 16:33:54.848987
2022-11-25 16:33:54.881756
2022-11-25 16:33:54.882010
2022-11-25 16:33:54.882175
2022-11-25 16:33:54.882344
2022-11-25 16:33:54.915133
2022-11-25 16:33:54.915403
2022-11-25 16:33:54.915575
2022-11-25 16:33:54.948279
2022-11-25 16:33:54.948470
2022-11-25 16:33:54.948590
2022-11-25 16:33:54.948705
2022-11-25 16:33:54.981680
2022-11-25 16:33:54.981924
2022-11-25 16:33:54.982089
2022-11-25 16:33:55.014895
2022-11-25 16:33:55.015147
2022-11-25 16:33:55.015307
2022-11-25 16:33:55.015466
2022-11-25 16:33:55.048217
2022-11-25 16:33:55.048360
2022-11-25 16:33:55.048448
2022-11-25 16:33:55.048529
2022-11-25 16:33:55.081482
2022-11-25 16:33:55.081614
2022-11-25 16:33:55.081707
2022-11-25 16:33:55.114852
2022-11-25 16:33:55.115117
2022-11-25 16:33:55.115291
2022-11-25 16:33:55.115448
2022-11-25 16:33:55.148204
2022-11-25 16:33:55.148461
2022-11-25 16:33:55.148634
2022-11-25 16:33:55.181500
2022-11-25 16:33:55.181766
2022-11-25 16:33:55.181934
2022-11-25 16:33:55.182092
2022-11-25 16:33:55.214823
2022-11-25 16:33:55.215073
2022-11-25 16:33:55.215237
2022-11-25 16:33:55.248026
2022-11-25 16:33:55.248279
2022-11-25 16:33:55.248451
2022-11-25 16:33:55.248611
2022-11-25 16:33:55.281426
2022-11-25 16:33:55.281680
2022-11-25 16:33:55.281857
2022-11-25 16:33:55.314589
2022-11-25 16:33:55.314878
2022-11-25 16:33:55.315053
2022-11-25 16:33:55.315215
2022-11-25 16:33:55.347953
2022-11-25 16:33:55.348198
2022-11-25 16:33:55.348368
2022-11-25 16:33:55.348526
2022-11-25 16:33:55.381351
2022-11-25 16:33:55.381599
2022-11-25 16:33:55.381763
2022-11-25 16:33:55.414585
2022-11-25 16:33:55.414832
2022-11-25 16:33:55.414999
2022-11-25 16:33:55.415152
2022-11-25 16:33:55.447874
2022-11-25 16:33:55.448124
2022-11-25 16:33:55.448303
2022-11-25 16:33:55.481141
2022-11-25 16:33:55.481397
2022-11-25 16:33:55.481567
2022-11-25 16:33:55.481726
2022-11-25 16:33:55.514550
2022-11-25 16:33:55.514799
2022-11-25 16:33:55.514971
2022-11-25 16:33:55.547714
2022-11-25 16:33:55.547876
2022-11-25 16:33:55.547966
2022-11-25 16:33:55.548050
2022-11-25 16:33:55.581123
2022-11-25 16:33:55.581385
2022-11-25 16:33:55.581556
2022-11-25 16:33:55.614319
2022-11-25 16:33:55.614597
2022-11-25 16:33:55.614774
2022-11-25 16:33:55.614935
2022-11-25 16:33:55.647693
2022-11-25 16:33:55.647948
2022-11-25 16:33:55.648120
2022-11-25 16:33:55.648277
2022-11-25 16:33:55.681044
2022-11-25 16:33:55.681296
2022-11-25 16:33:55.681464
2022-11-25 16:33:55.714234
2022-11-25 16:33:55.714397
2022-11-25 16:33:55.714638
2022-11-25 16:33:55.714728
2022-11-25 16:33:55.747659
2022-11-25 16:33:55.747953
2022-11-25 16:33:55.748125
2022-11-25 16:33:55.780872
2022-11-25 16:33:55.781128
2022-11-25 16:33:55.781302
2022-11-25 16:33:55.781460
2022-11-25 16:33:55.814188
2022-11-25 16:33:55.814426
2022-11-25 16:33:55.814598
2022-11-25 16:33:55.847481
2022-11-25 16:33:55.847743
2022-11-25 16:33:55.847918
2022-11-25 16:33:55.848083
2022-11-25 16:33:55.880835
2022-11-25 16:33:55.881083
2022-11-25 16:33:55.881260
2022-11-25 16:33:55.914026
2022-11-25 16:33:55.914303
2022-11-25 16:33:55.914477
2022-11-25 16:33:55.914633
2022-11-25 16:33:55.947422
2022-11-25 16:33:55.947671
2022-11-25 16:33:55.947839
2022-11-25 16:33:55.948005
2022-11-25 16:33:55.980771
2022-11-25 16:33:55.981024
2022-11-25 16:33:55.981194
2022-11-25 16:33:56.013968
2022-11-25 16:33:56.014159
2022-11-25 16:33:56.014278
2022-11-25 16:33:56.014387
2022-11-25 16:33:56.047270
2022-11-25 16:33:56.047399
2022-11-25 16:33:56.047463
2022-11-25 16:33:56.080486
2022-11-25 16:33:56.080639
2022-11-25 16:33:56.080735
2022-11-25 16:33:56.080822
2022-11-25 16:33:56.113937
2022-11-25 16:33:56.114173
2022-11-25 16:33:56.114337
2022-11-25 16:33:56.147162
2022-11-25 16:33:56.147427
2022-11-25 16:33:56.147608
2022-11-25 16:33:56.147769
2022-11-25 16:33:56.180539
2022-11-25 16:33:56.180782
2022-11-25 16:33:56.180944
2022-11-25 16:33:56.213744
2022-11-25 16:33:56.214023
2022-11-25 16:33:56.214195
2022-11-25 16:33:56.214355
2022-11-25 16:33:56.247096
2022-11-25 16:33:56.247353
2022-11-25 16:33:56.247536
2022-11-25 16:33:56.247707
2022-11-25 16:33:56.280467
2022-11-25 16:33:56.280721
2022-11-25 16:33:56.280895
2022-11-25 16:33:56.313675
2022-11-25 16:33:56.313913
2022-11-25 16:33:56.314082
2022-11-25 16:33:56.314239
2022-11-25 16:33:56.347021
2022-11-25 16:33:56.347211
2022-11-25 16:33:56.347327
2022-11-25 16:33:56.380278
2022-11-25 16:33:56.380522
2022-11-25 16:33:56.380692
2022-11-25 16:33:56.380847
2022-11-25 16:33:56.413645
2022-11-25 16:33:56.413890
2022-11-25 16:33:56.414058
2022-11-25 16:33:56.446827
2022-11-25 16:33:56.447078
2022-11-25 16:33:56.447250
2022-11-25 16:33:56.447406
2022-11-25 16:33:56.480235
2022-11-25 16:33:56.480500
2022-11-25 16:33:56.480669
2022-11-25 16:33:56.513447
2022-11-25 16:33:56.513720
2022-11-25 16:33:56.513891
2022-11-25 16:33:56.514049
2022-11-25 16:33:56.546758
2022-11-25 16:33:56.546897
2022-11-25 16:33:56.546966
2022-11-25 16:33:56.547030
2022-11-25 16:33:56.580123
2022-11-25 16:33:56.580283
2022-11-25 16:33:56.580383
2022-11-25 16:33:56.613422
2022-11-25 16:33:56.613673
2022-11-25 16:33:56.613842
2022-11-25 16:33:56.613998
2022-11-25 16:33:56.646726
2022-11-25 16:33:56.646923
2022-11-25 16:33:56.647044
2022-11-25 16:33:56.679989
2022-11-25 16:33:56.680239
2022-11-25 16:33:56.680402
2022-11-25 16:33:56.680561
2022-11-25 16:33:56.713365
2022-11-25 16:33:56.713625
2022-11-25 16:33:56.713800
2022-11-25 16:33:56.746596
2022-11-25 16:33:56.746854
2022-11-25 16:33:56.747017
2022-11-25 16:33:56.747179
2022-11-25 16:33:56.779942
2022-11-25 16:33:56.780206
2022-11-25 16:33:56.780379
2022-11-25 16:33:56.813141
2022-11-25 16:33:56.813414
2022-11-25 16:33:56.813586
2022-11-25 16:33:56.813752
2022-11-25 16:33:56.846526
2022-11-25 16:33:56.846786
2022-11-25 16:33:56.846955
2022-11-25 16:33:56.847115
2022-11-25 16:33:56.879904
2022-11-25 16:33:56.880161
2022-11-25 16:33:56.880332
2022-11-25 16:33:56.913097
2022-11-25 16:33:56.913262
2022-11-25 16:33:56.913352
2022-11-25 16:33:56.913439
2022-11-25 16:33:56.946501
2022-11-25 16:33:56.946761
2022-11-25 16:33:56.946935
2022-11-25 16:33:56.979705
2022-11-25 16:33:56.979969
2022-11-25 16:33:56.980144
2022-11-25 16:33:56.980310
2022-11-25 16:33:57.013085
2022-11-25 16:33:57.013349
2022-11-25 16:33:57.013522
2022-11-25 16:33:57.046281
2022-11-25 16:33:57.046457
2022-11-25 16:33:57.046554
2022-11-25 16:33:57.046637
2022-11-25 16:33:57.079545
2022-11-25 16:33:57.079737
2022-11-25 16:33:57.079972
2022-11-25 16:33:57.112870
2022-11-25 16:33:57.113092
2022-11-25 16:33:57.113220
2022-11-25 16:33:57.113340
2022-11-25 16:33:57.146201
2022-11-25 16:33:57.146367
2022-11-25 16:33:57.146459
2022-11-25 16:33:57.146543
2022-11-25 16:33:57.179616
2022-11-25 16:33:57.179864
2022-11-25 16:33:57.180027
2022-11-25 16:33:57.212833
2022-11-25 16:33:57.213036
2022-11-25 16:33:57.213157
2022-11-25 16:33:57.213275
2022-11-25 16:33:57.246150
2022-11-25 16:33:57.246351
2022-11-25 16:33:57.246476
2022-11-25 16:33:57.279400
2022-11-25 16:33:57.279734
2022-11-25 16:33:57.279935
2022-11-25 16:33:57.280103
2022-11-25 16:33:57.312763
2022-11-25 16:33:57.313014
2022-11-25 16:33:57.313193
2022-11-25 16:33:57.345980
2022-11-25 16:33:57.346169
2022-11-25 16:33:57.346289
2022-11-25 16:33:57.346410
2022-11-25 16:33:57.379311
2022-11-25 16:33:57.379505
2022-11-25 16:33:57.379742
2022-11-25 16:33:57.412574
2022-11-25 16:33:57.412852
2022-11-25 16:33:57.413020
2022-11-25 16:33:57.413179
2022-11-25 16:33:57.445916
2022-11-25 16:33:57.446115
2022-11-25 16:33:57.446240
2022-11-25 16:33:57.446358
2022-11-25 16:33:57.479277
2022-11-25 16:33:57.479502
2022-11-25 16:33:57.479659
2022-11-25 16:33:57.512557
2022-11-25 16:33:57.512803
2022-11-25 16:33:57.512964
2022-11-25 16:33:57.513132
2022-11-25 16:33:57.545731
2022-11-25 16:33:57.545875
2022-11-25 16:33:57.545953
2022-11-25 16:33:57.579060
2022-11-25 16:33:57.579262
2022-11-25 16:33:57.579385
2022-11-25 16:33:57.579499
2022-11-25 16:33:57.612539
2022-11-25 16:33:57.612779
2022-11-25 16:33:57.612942
2022-11-25 16:33:57.645642
2022-11-25 16:33:57.645914
2022-11-25 16:33:57.646087
2022-11-25 16:33:57.646249
2022-11-25 16:33:57.678991
2022-11-25 16:33:57.679219
2022-11-25 16:33:57.679389
2022-11-25 16:33:57.712257
2022-11-25 16:33:57.712536
2022-11-25 16:33:57.712710
2022-11-25 16:33:57.712870
2022-11-25 16:33:57.745655
2022-11-25 16:33:57.745901
2022-11-25 16:33:57.746069
2022-11-25 16:33:57.746228
2022-11-25 16:33:57.778922
2022-11-25 16:33:57.779112
2022-11-25 16:33:57.779232
2022-11-25 16:33:57.812229
2022-11-25 16:33:57.812462
2022-11-25 16:33:57.812624
2022-11-25 16:33:57.812780
2022-11-25 16:33:57.845592
2022-11-25 16:33:57.846004
2022-11-25 16:33:57.846178
2022-11-25 16:33:57.878758
2022-11-25 16:33:57.878982
2022-11-25 16:33:57.879144
2022-11-25 16:33:57.879303
2022-11-25 16:33:57.912159
2022-11-25 16:33:57.912435
2022-11-25 16:33:57.912603
2022-11-25 16:33:57.945462
2022-11-25 16:33:57.945719
2022-11-25 16:33:57.945892
2022-11-25 16:33:57.946051
2022-11-25 16:33:57.978782
2022-11-25 16:33:57.979037
2022-11-25 16:33:57.979208
2022-11-25 16:33:58.011994
2022-11-25 16:33:58.012266
2022-11-25 16:33:58.012439
2022-11-25 16:33:58.012602
2022-11-25 16:33:58.045229
2022-11-25 16:33:58.045398
2022-11-25 16:33:58.045492
2022-11-25 16:33:58.045676
2022-11-25 16:33:58.078664
2022-11-25 16:33:58.078910
2022-11-25 16:33:58.079130
2022-11-25 16:33:58.111852
2022-11-25 16:33:58.112049
2022-11-25 16:33:58.112176
2022-11-25 16:33:58.112291
2022-11-25 16:33:58.145326
2022-11-25 16:33:58.145584
2022-11-25 16:33:58.145753
2022-11-25 16:33:58.178517
2022-11-25 16:33:58.178770
2022-11-25 16:33:58.178942
2022-11-25 16:33:58.179106
2022-11-25 16:33:58.211835
2022-11-25 16:33:58.212030
2022-11-25 16:33:58.212161
2022-11-25 16:33:58.245130
2022-11-25 16:33:58.245405
2022-11-25 16:33:58.245580
2022-11-25 16:33:58.245740
2022-11-25 16:33:58.278541
2022-11-25 16:33:58.278786
2022-11-25 16:33:58.278949
2022-11-25 16:33:58.311697
2022-11-25 16:33:58.311968
2022-11-25 16:33:58.312144
2022-11-25 16:33:58.312298
2022-11-25 16:33:58.345079
2022-11-25 16:33:58.345346
2022-11-25 16:33:58.345519
2022-11-25 16:33:58.345679
2022-11-25 16:33:58.378410
2022-11-25 16:33:58.378656
2022-11-25 16:33:58.378823
2022-11-25 16:33:58.411683
2022-11-25 16:33:58.411946
2022-11-25 16:33:58.412119
2022-11-25 16:33:58.412281
2022-11-25 16:33:58.445038
2022-11-25 16:33:58.445351
2022-11-25 16:33:58.445525
2022-11-25 16:33:58.478288
2022-11-25 16:33:58.478549
2022-11-25 16:33:58.478721
2022-11-25 16:33:58.478885
2022-11-25 16:33:58.511612
2022-11-25 16:33:58.511861
2022-11-25 16:33:58.512038
2022-11-25 16:33:58.544745
2022-11-25 16:33:58.544898
2022-11-25 16:33:58.544968
2022-11-25 16:33:58.545035
2022-11-25 16:33:58.578198
2022-11-25 16:33:58.578367
2022-11-25 16:33:58.578459
2022-11-25 16:33:58.611444
2022-11-25 16:33:58.611726
2022-11-25 16:33:58.611909
2022-11-25 16:33:58.612068
2022-11-25 16:33:58.644848
2022-11-25 16:33:58.645107
2022-11-25 16:33:58.645284
2022-11-25 16:33:58.645453
2022-11-25 16:33:58.678185
2022-11-25 16:33:58.678446
2022-11-25 16:33:58.678624
2022-11-25 16:33:58.711419
2022-11-25 16:33:58.711701
2022-11-25 16:33:58.711879
2022-11-25 16:33:58.712038
2022-11-25 16:33:58.744819
2022-11-25 16:33:58.745085
2022-11-25 16:33:58.745253
2022-11-25 16:33:58.777996
2022-11-25 16:33:58.778301
2022-11-25 16:33:58.778483
2022-11-25 16:33:58.778643
2022-11-25 16:33:58.811359
2022-11-25 16:33:58.811593
2022-11-25 16:33:58.811721
2022-11-25 16:33:58.844547
2022-11-25 16:33:58.844916
2022-11-25 16:33:58.845117
2022-11-25 16:33:58.845283
2022-11-25 16:33:58.877938
2022-11-25 16:33:58.878267
2022-11-25 16:33:58.878477
2022-11-25 16:33:58.911095
2022-11-25 16:33:58.911404
2022-11-25 16:33:58.911544
2022-11-25 16:33:58.911661
2022-11-25 16:33:58.944519
2022-11-25 16:33:58.944861
2022-11-25 16:33:58.945066
2022-11-25 16:33:58.945232
2022-11-25 16:33:58.977889
2022-11-25 16:33:58.978229
2022-11-25 16:33:58.978430
2022-11-25 16:33:59.011105
2022-11-25 16:33:59.011555
2022-11-25 16:33:59.011766
2022-11-25 16:33:59.011936
2022-11-25 16:33:59.044447
2022-11-25 16:33:59.044894
2022-11-25 16:33:59.045103
2022-11-25 16:33:59.077625
2022-11-25 16:33:59.077768
2022-11-25 16:33:59.077855
2022-11-25 16:33:59.077938
2022-11-25 16:33:59.110999
2022-11-25 16:33:59.111188
2022-11-25 16:33:59.111331
2022-11-25 16:33:59.144248
2022-11-25 16:33:59.144495
2022-11-25 16:33:59.144720
2022-11-25 16:33:59.144933
2022-11-25 16:33:59.177620
2022-11-25 16:33:59.177813
2022-11-25 16:33:59.177934
2022-11-25 16:33:59.210834
2022-11-25 16:33:59.211084
2022-11-25 16:33:59.211250
2022-11-25 16:33:59.211502
2022-11-25 16:33:59.244190
2022-11-25 16:33:59.244437
2022-11-25 16:33:59.244621
2022-11-25 16:33:59.244808
2022-11-25 16:33:59.277557
2022-11-25 16:33:59.277808
2022-11-25 16:33:59.278130
2022-11-25 16:33:59.310795
2022-11-25 16:33:59.311096
2022-11-25 16:33:59.311418
2022-11-25 16:33:59.311612
2022-11-25 16:33:59.344178
2022-11-25 16:33:59.344422
2022-11-25 16:33:59.344587
2022-11-25 16:33:59.377374
2022-11-25 16:33:59.377620
2022-11-25 16:33:59.377786
2022-11-25 16:33:59.377952
2022-11-25 16:33:59.410747
2022-11-25 16:33:59.410946
2022-11-25 16:33:59.411073
2022-11-25 16:33:59.444002
2022-11-25 16:33:59.444265
2022-11-25 16:33:59.444502
2022-11-25 16:33:59.444910
2022-11-25 16:33:59.477338
2022-11-25 16:33:59.477591
2022-11-25 16:33:59.477778
2022-11-25 16:33:59.510538
2022-11-25 16:33:59.510814
2022-11-25 16:33:59.510994
2022-11-25 16:33:59.511171
2022-11-25 16:33:59.543923
2022-11-25 16:33:59.544188
2022-11-25 16:33:59.544371
2022-11-25 16:33:59.544534
2022-11-25 16:33:59.577317
2022-11-25 16:33:59.577577
2022-11-25 16:33:59.577747
2022-11-25 16:33:59.610464
2022-11-25 16:33:59.610661
2022-11-25 16:33:59.610781
2022-11-25 16:33:59.610897
2022-11-25 16:33:59.643891
2022-11-25 16:33:59.644156
2022-11-25 16:33:59.644341
2022-11-25 16:33:59.677090
2022-11-25 16:33:59.677336
2022-11-25 16:33:59.677506
2022-11-25 16:33:59.677675
2022-11-25 16:33:59.710465
2022-11-25 16:33:59.710717
2022-11-25 16:33:59.710897
2022-11-25 16:33:59.743687
2022-11-25 16:33:59.743947
2022-11-25 16:33:59.744112
2022-11-25 16:33:59.744263
2022-11-25 16:33:59.777054
2022-11-25 16:33:59.777303
2022-11-25 16:33:59.777471
2022-11-25 16:33:59.810255
2022-11-25 16:33:59.810540
2022-11-25 16:33:59.810717
2022-11-25 16:33:59.810877
2022-11-25 16:33:59.843590
2022-11-25 16:33:59.843785
2022-11-25 16:33:59.843904
2022-11-25 16:33:59.844018
2022-11-25 16:33:59.876935
2022-11-25 16:33:59.877092
2022-11-25 16:33:59.877180
2022-11-25 16:33:59.910229
2022-11-25 16:33:59.910487
2022-11-25 16:33:59.910661
2022-11-25 16:33:59.910817
2022-11-25 16:33:59.943513
2022-11-25 16:33:59.943689
2022-11-25 16:33:59.943801
2022-11-25 16:33:59.976810
2022-11-25 16:33:59.977264
2022-11-25 16:33:59.977439
2022-11-25 16:33:59.977601
2022-11-25 16:34:00.010179
2022-11-25 16:34:00.010433
2022-11-25 16:34:00.010599
2022-11-25 16:34:00.043358
2022-11-25 16:34:00.043589
2022-11-25 16:34:00.043751
2022-11-25 16:34:00.043940
2022-11-25 16:34:00.076665
2022-11-25 16:34:00.076805
2022-11-25 16:34:00.076882
2022-11-25 16:34:00.109965
2022-11-25 16:34:00.110134
2022-11-25 16:34:00.110222
2022-11-25 16:34:00.110304
2022-11-25 16:34:00.143336
2022-11-25 16:34:00.143568
2022-11-25 16:34:00.143728
2022-11-25 16:34:00.143879
2022-11-25 16:34:00.176662
2022-11-25 16:34:00.176871
2022-11-25 16:34:00.176992
2022-11-25 16:34:00.209880
2022-11-25 16:34:00.210044
2022-11-25 16:34:00.210134
2022-11-25 16:34:00.210217
2022-11-25 16:34:00.243289
2022-11-25 16:34:00.243530
2022-11-25 16:34:00.243697
2022-11-25 16:34:00.276483
2022-11-25 16:34:00.276648
2022-11-25 16:34:00.276739
2022-11-25 16:34:00.276827
2022-11-25 16:34:00.309886
2022-11-25 16:34:00.310138
2022-11-25 16:34:00.310307
2022-11-25 16:34:00.343126
2022-11-25 16:34:00.343389
2022-11-25 16:34:00.343561
2022-11-25 16:34:00.343721
2022-11-25 16:34:00.376507
2022-11-25 16:34:00.376714
2022-11-25 16:34:00.376838
2022-11-25 16:34:00.409657
2022-11-25 16:34:00.409869
2022-11-25 16:34:00.409988
2022-11-25 16:34:00.410107
2022-11-25 16:34:00.443045
2022-11-25 16:34:00.443305
2022-11-25 16:34:00.443477
2022-11-25 16:34:00.443640
2022-11-25 16:34:00.476430
2022-11-25 16:34:00.476699
2022-11-25 16:34:00.476873
2022-11-25 16:34:00.509643
2022-11-25 16:34:00.509874
2022-11-25 16:34:00.510032
2022-11-25 16:34:00.510184
2022-11-25 16:34:00.542997
2022-11-25 16:34:00.543234
2022-11-25 16:34:00.543396
2022-11-25 16:34:00.576227
2022-11-25 16:34:00.576392
2022-11-25 16:34:00.576487
2022-11-25 16:34:00.576572
2022-11-25 16:34:00.609607
2022-11-25 16:34:00.609863
2022-11-25 16:34:00.610034
2022-11-25 16:34:00.642823
2022-11-25 16:34:00.643078
2022-11-25 16:34:00.643246
2022-11-25 16:34:00.643408
2022-11-25 16:34:00.676118
2022-11-25 16:34:00.676273
2022-11-25 16:34:00.676362
2022-11-25 16:34:00.709412
2022-11-25 16:34:00.709655
2022-11-25 16:34:00.709824
2022-11-25 16:34:00.709981
2022-11-25 16:34:00.742721
2022-11-25 16:34:00.742949
2022-11-25 16:34:00.743106
2022-11-25 16:34:00.743259
2022-11-25 16:34:00.776144
2022-11-25 16:34:00.776411
2022-11-25 16:34:00.776583
2022-11-25 16:34:00.809368
2022-11-25 16:34:00.809628
2022-11-25 16:34:00.809802
2022-11-25 16:34:00.809962
2022-11-25 16:34:00.842694
2022-11-25 16:34:00.842940
2022-11-25 16:34:00.843107
2022-11-25 16:34:00.875952
2022-11-25 16:34:00.876154
2022-11-25 16:34:00.876272
2022-11-25 16:34:00.876391
2022-11-25 16:34:00.909261
2022-11-25 16:34:00.909450
2022-11-25 16:34:00.909571
2022-11-25 16:34:00.942502
2022-11-25 16:34:00.942738
2022-11-25 16:34:00.942902
2022-11-25 16:34:00.943055
2022-11-25 16:34:00.975908
2022-11-25 16:34:00.976161
2022-11-25 16:34:00.976335
2022-11-25 16:34:01.009093
2022-11-25 16:34:01.009355
2022-11-25 16:34:01.009536
2022-11-25 16:34:01.009691
2022-11-25 16:34:01.042525
2022-11-25 16:34:01.042785
2022-11-25 16:34:01.042962
2022-11-25 16:34:01.043120
2022-11-25 16:34:01.075802
2022-11-25 16:34:01.075994
2022-11-25 16:34:01.076117
2022-11-25 16:34:01.109029
2022-11-25 16:34:01.109228
2022-11-25 16:34:01.109350
2022-11-25 16:34:01.109463
2022-11-25 16:34:01.142399
2022-11-25 16:34:01.142588
2022-11-25 16:34:01.142707
2022-11-25 16:34:01.175651
2022-11-25 16:34:01.175918
2022-11-25 16:34:01.176092
2022-11-25 16:34:01.176254
2022-11-25 16:34:01.209037
2022-11-25 16:34:01.209285
2022-11-25 16:34:01.209465
2022-11-25 16:34:01.242232
2022-11-25 16:34:01.242476
2022-11-25 16:34:01.242642
2022-11-25 16:34:01.242803
2022-11-25 16:34:01.275591
2022-11-25 16:34:01.275800
2022-11-25 16:34:01.275935
2022-11-25 16:34:01.308821
2022-11-25 16:34:01.309101
2022-11-25 16:34:01.309278
2022-11-25 16:34:01.309443
2022-11-25 16:34:01.342201
2022-11-25 16:34:01.342444
2022-11-25 16:34:01.342607
2022-11-25 16:34:01.342768
2022-11-25 16:34:01.375572
2022-11-25 16:34:01.375833
2022-11-25 16:34:01.376007
2022-11-25 16:34:01.408763
2022-11-25 16:34:01.409020
2022-11-25 16:34:01.409188
2022-11-25 16:34:01.409342
2022-11-25 16:34:01.442069
2022-11-25 16:34:01.442236
2022-11-25 16:34:01.442323
2022-11-25 16:34:01.475346
2022-11-25 16:34:01.475541
2022-11-25 16:34:01.475664
2022-11-25 16:34:01.475776
2022-11-25 16:34:01.508730
2022-11-25 16:34:01.508997
2022-11-25 16:34:01.509170
2022-11-25 16:34:01.541948
2022-11-25 16:34:01.542209
2022-11-25 16:34:01.542380
2022-11-25 16:34:01.542538
2022-11-25 16:34:01.575203
2022-11-25 16:34:01.575316
2022-11-25 16:34:01.575396
2022-11-25 16:34:01.608510
2022-11-25 16:34:01.608687
2022-11-25 16:34:01.608781
2022-11-25 16:34:01.608863
2022-11-25 16:34:01.641872
2022-11-25 16:34:01.642065
2022-11-25 16:34:01.642203
2022-11-25 16:34:01.642320
2022-11-25 16:34:01.675232
2022-11-25 16:34:01.675478
2022-11-25 16:34:01.675642
2022-11-25 16:34:01.708487
2022-11-25 16:34:01.708724
2022-11-25 16:34:01.708888
2022-11-25 16:34:01.709050
2022-11-25 16:34:01.741807
2022-11-25 16:34:01.742002
2022-11-25 16:34:01.742125
2022-11-25 16:34:01.775072
2022-11-25 16:34:01.775333
2022-11-25 16:34:01.775514
2022-11-25 16:34:01.775669
2022-11-25 16:34:01.808422
2022-11-25 16:34:01.808668
2022-11-25 16:34:01.808828
2022-11-25 16:34:01.841642
2022-11-25 16:34:01.841913
2022-11-25 16:34:01.842087
2022-11-25 16:34:01.842247
2022-11-25 16:34:01.875000
2022-11-25 16:34:01.875256
2022-11-25 16:34:01.875419
2022-11-25 16:34:01.908222
2022-11-25 16:34:01.908441
2022-11-25 16:34:01.908569
2022-11-25 16:34:01.908692
2022-11-25 16:34:01.941570
2022-11-25 16:34:01.941806
2022-11-25 16:34:01.941966
2022-11-25 16:34:01.942121
2022-11-25 16:34:01.974945
2022-11-25 16:34:01.975189
2022-11-25 16:34:01.975352
2022-11-25 16:34:02.008186
2022-11-25 16:34:02.008388
2022-11-25 16:34:02.008516
2022-11-25 16:34:02.008630
2022-11-25 16:34:02.041547
2022-11-25 16:34:02.041808
2022-11-25 16:34:02.041980
2022-11-25 16:34:02.074754
2022-11-25 16:34:02.074964
2022-11-25 16:34:02.075089
2022-11-25 16:34:02.075216
2022-11-25 16:34:02.108093
2022-11-25 16:34:02.108297
2022-11-25 16:34:02.108427
2022-11-25 16:34:02.141372
2022-11-25 16:34:02.141625
2022-11-25 16:34:02.141799
2022-11-25 16:34:02.141960
2022-11-25 16:34:02.174716
2022-11-25 16:34:02.174909
2022-11-25 16:34:02.175030
2022-11-25 16:34:02.207934
2022-11-25 16:34:02.208211
2022-11-25 16:34:02.208403
2022-11-25 16:34:02.208562
2022-11-25 16:34:02.241298
2022-11-25 16:34:02.241503
2022-11-25 16:34:02.241623
2022-11-25 16:34:02.241747
2022-11-25 16:34:02.274594
2022-11-25 16:34:02.274773
2022-11-25 16:34:02.274889
2022-11-25 16:34:02.307905
2022-11-25 16:34:02.308173
2022-11-25 16:34:02.308350
2022-11-25 16:34:02.308510
2022-11-25 16:34:02.341246
2022-11-25 16:34:02.341494
2022-11-25 16:34:02.341656
2022-11-25 16:34:02.374493
2022-11-25 16:34:02.374757
2022-11-25 16:34:02.374932
2022-11-25 16:34:02.375095
2022-11-25 16:34:02.407857
2022-11-25 16:34:02.408118
2022-11-25 16:34:02.408291
2022-11-25 16:34:02.441073
2022-11-25 16:34:02.441331
2022-11-25 16:34:02.441496
2022-11-25 16:34:02.441653
2022-11-25 16:34:02.474459
2022-11-25 16:34:02.474715
2022-11-25 16:34:02.474884
2022-11-25 16:34:02.507663
2022-11-25 16:34:02.507957
2022-11-25 16:34:02.508140
2022-11-25 16:34:02.508301
2022-11-25 16:34:02.540986
2022-11-25 16:34:02.541157
2022-11-25 16:34:02.541246
2022-11-25 16:34:02.541331
2022-11-25 16:34:02.574308
2022-11-25 16:34:02.574473
2022-11-25 16:34:02.574564
2022-11-25 16:34:02.607592
2022-11-25 16:34:02.607838
2022-11-25 16:34:02.608012
2022-11-25 16:34:02.608173
2022-11-25 16:34:02.640989
2022-11-25 16:34:02.641249
2022-11-25 16:34:02.641422
2022-11-25 16:34:02.674199
2022-11-25 16:34:02.674460
2022-11-25 16:34:02.674626
2022-11-25 16:34:02.674788
2022-11-25 16:34:02.707544
2022-11-25 16:34:02.707747
2022-11-25 16:34:02.707880
2022-11-25 16:34:02.740820
2022-11-25 16:34:02.741077
2022-11-25 16:34:02.741242
2022-11-25 16:34:02.741401
2022-11-25 16:34:02.774127
2022-11-25 16:34:02.774332
2022-11-25 16:34:02.774459
2022-11-25 16:34:02.807352
2022-11-25 16:34:02.807632
2022-11-25 16:34:02.807812
2022-11-25 16:34:02.807975
2022-11-25 16:34:02.840696
2022-11-25 16:34:02.840898
2022-11-25 16:34:02.841024
2022-11-25 16:34:02.841140
2022-11-25 16:34:02.874093
2022-11-25 16:34:02.874353
2022-11-25 16:34:02.874523
2022-11-25 16:34:02.907301
2022-11-25 16:34:02.907504
2022-11-25 16:34:02.907624
2022-11-25 16:34:02.907739
2022-11-25 16:34:02.940639
2022-11-25 16:34:02.940830
2022-11-25 16:34:02.940948
2022-11-25 16:34:02.973924
2022-11-25 16:34:02.974170
2022-11-25 16:34:02.974407
2022-11-25 16:34:02.974673
2022-11-25 16:34:03.007120
2022-11-25 16:34:03.007287
2022-11-25 16:34:03.007379
2022-11-25 16:34:03.040497
2022-11-25 16:34:03.040754
2022-11-25 16:34:03.040921
2022-11-25 16:34:03.041085
2022-11-25 16:34:03.073718
2022-11-25 16:34:03.073820
2022-11-25 16:34:03.073899
2022-11-25 16:34:03.107035
2022-11-25 16:34:03.107199
2022-11-25 16:34:03.107295
2022-11-25 16:34:03.107383
2022-11-25 16:34:03.140404
2022-11-25 16:34:03.140589
2022-11-25 16:34:03.140711
2022-11-25 16:34:03.140822
2022-11-25 16:34:03.173745
2022-11-25 16:34:03.173998
2022-11-25 16:34:03.174177
2022-11-25 16:34:03.207017
2022-11-25 16:34:03.207179
2022-11-25 16:34:03.207271
2022-11-25 16:34:03.207360
2022-11-25 16:34:03.240341
2022-11-25 16:34:03.240533
2022-11-25 16:34:03.240652
2022-11-25 16:34:03.273602
2022-11-25 16:34:03.273804
2022-11-25 16:34:03.273925
2022-11-25 16:34:03.274040
2022-11-25 16:34:03.306975
2022-11-25 16:34:03.307222
2022-11-25 16:34:03.307385
2022-11-25 16:34:03.340196
2022-11-25 16:34:03.340457
2022-11-25 16:34:03.340630
2022-11-25 16:34:03.340795
2022-11-25 16:34:03.373516
2022-11-25 16:34:03.373716
2022-11-25 16:34:03.373837
2022-11-25 16:34:03.406773
2022-11-25 16:34:03.406998
2022-11-25 16:34:03.407127
2022-11-25 16:34:03.407244
2022-11-25 16:34:03.440137
2022-11-25 16:34:03.440333
2022-11-25 16:34:03.440461
2022-11-25 16:34:03.440648
2022-11-25 16:34:03.473518
2022-11-25 16:34:03.473720
2022-11-25 16:34:03.473844
2022-11-25 16:34:03.506714
2022-11-25 16:34:03.506915
2022-11-25 16:34:03.507037
2022-11-25 16:34:03.507162
2022-11-25 16:34:03.540052
2022-11-25 16:34:03.540235
2022-11-25 16:34:03.540357
2022-11-25 16:34:03.573312
2022-11-25 16:34:03.573472
2022-11-25 16:34:03.573564
2022-11-25 16:34:03.573649
2022-11-25 16:34:03.606610
2022-11-25 16:34:03.606752
2022-11-25 16:34:03.606837
2022-11-25 16:34:03.639899
2022-11-25 16:34:03.640089
2022-11-25 16:34:03.640206
2022-11-25 16:34:03.640317
2022-11-25 16:34:03.673227
2022-11-25 16:34:03.673414
2022-11-25 16:34:03.673530
2022-11-25 16:34:03.706483
2022-11-25 16:34:03.706752
2022-11-25 16:34:03.706918
2022-11-25 16:34:03.707075
2022-11-25 16:34:03.739820
2022-11-25 16:34:03.739992
2022-11-25 16:34:03.740107
2022-11-25 16:34:03.740218
2022-11-25 16:34:03.773143
2022-11-25 16:34:03.773325
2022-11-25 16:34:03.773440
2022-11-25 16:34:03.806461
2022-11-25 16:34:03.806639
2022-11-25 16:34:03.806756
2022-11-25 16:34:03.806866
2022-11-25 16:34:03.839743
2022-11-25 16:34:03.839916
2022-11-25 16:34:03.840032
2022-11-25 16:34:03.873036
2022-11-25 16:34:03.873261
2022-11-25 16:34:03.873426
2022-11-25 16:34:03.873582
2022-11-25 16:34:03.906332
2022-11-25 16:34:03.906489
2022-11-25 16:34:03.906581
2022-11-25 16:34:03.939597
2022-11-25 16:34:03.939800
2022-11-25 16:34:03.939924
2022-11-25 16:34:03.940041
2022-11-25 16:34:03.972929
2022-11-25 16:34:03.973093
2022-11-25 16:34:03.973183
2022-11-25 16:34:04.006184
2022-11-25 16:34:04.006454
2022-11-25 16:34:04.006625
2022-11-25 16:34:04.006785
2022-11-25 16:34:04.039576
2022-11-25 16:34:04.039845
2022-11-25 16:34:04.040017
2022-11-25 16:34:04.040181
2022-11-25 16:34:04.072893
2022-11-25 16:34:04.073093
2022-11-25 16:34:04.073219
2022-11-25 16:34:04.106084
2022-11-25 16:34:04.106278
2022-11-25 16:34:04.106401
2022-11-25 16:34:04.106514
2022-11-25 16:34:04.139511
2022-11-25 16:34:04.139738
2022-11-25 16:34:04.139898
2022-11-25 16:34:04.172690
2022-11-25 16:34:04.172890
2022-11-25 16:34:04.173008
2022-11-25 16:34:04.173126
2022-11-25 16:34:04.206057
2022-11-25 16:34:04.206216
2022-11-25 16:34:04.206307
2022-11-25 16:34:04.239291
2022-11-25 16:34:04.239474
2022-11-25 16:34:04.239593
2022-11-25 16:34:04.239709
2022-11-25 16:34:04.272557
2022-11-25 16:34:04.272748
2022-11-25 16:34:04.272874
2022-11-25 16:34:04.305855
2022-11-25 16:34:04.306073
2022-11-25 16:34:04.306199
2022-11-25 16:34:04.306312
2022-11-25 16:34:04.339146
2022-11-25 16:34:04.339298
2022-11-25 16:34:04.339391
2022-11-25 16:34:04.339476
2022-11-25 16:34:04.372599
2022-11-25 16:34:04.372780
2022-11-25 16:34:04.372900
2022-11-25 16:34:04.405856
2022-11-25 16:34:04.406090
2022-11-25 16:34:04.406248
2022-11-25 16:34:04.406418
2022-11-25 16:34:04.439133
2022-11-25 16:34:04.439330
2022-11-25 16:34:04.439456
2022-11-25 16:34:04.472405
2022-11-25 16:34:04.472603
2022-11-25 16:34:04.472731
2022-11-25 16:34:04.472848
2022-11-25 16:34:04.505766
2022-11-25 16:34:04.505961
2022-11-25 16:34:04.506081
2022-11-25 16:34:04.538979
2022-11-25 16:34:04.539166
2022-11-25 16:34:04.539294
2022-11-25 16:34:04.539403
2022-11-25 16:34:04.572296
2022-11-25 16:34:04.572458
2022-11-25 16:34:04.572549
2022-11-25 16:34:04.605501
2022-11-25 16:34:04.605668
2022-11-25 16:34:04.605756
2022-11-25 16:34:04.605837
2022-11-25 16:34:04.638917
2022-11-25 16:34:04.639103
2022-11-25 16:34:04.639224
2022-11-25 16:34:04.639340
2022-11-25 16:34:04.672359
2022-11-25 16:34:04.672603
2022-11-25 16:34:04.672765
2022-11-25 16:34:04.705609
2022-11-25 16:34:04.705871
2022-11-25 16:34:04.706046
2022-11-25 16:34:04.706204
2022-11-25 16:34:04.738855
2022-11-25 16:34:04.739042
2022-11-25 16:34:04.739160
2022-11-25 16:34:04.772150
2022-11-25 16:34:04.772385
2022-11-25 16:34:04.772560
2022-11-25 16:34:04.772725
2022-11-25 16:34:04.805436
2022-11-25 16:34:04.805636
2022-11-25 16:34:04.805755
2022-11-25 16:34:04.838679
2022-11-25 16:34:04.838879
2022-11-25 16:34:04.839005
2022-11-25 16:34:04.839116
2022-11-25 16:34:04.872024
2022-11-25 16:34:04.872217
2022-11-25 16:34:04.872341
2022-11-25 16:34:04.905242
2022-11-25 16:34:04.905454
2022-11-25 16:34:04.905577
2022-11-25 16:34:04.905693
2022-11-25 16:34:04.938693
2022-11-25 16:34:04.938939
2022-11-25 16:34:04.939114
2022-11-25 16:34:04.939275
2022-11-25 16:34:04.972044
2022-11-25 16:34:04.972296
2022-11-25 16:34:04.972469
2022-11-25 16:34:05.005164
2022-11-25 16:34:05.005330
2022-11-25 16:34:05.005422
2022-11-25 16:34:05.005507
2022-11-25 16:34:05.038655
2022-11-25 16:34:05.038920
2022-11-25 16:34:05.039099
2022-11-25 16:34:05.071763
2022-11-25 16:34:05.071925
2022-11-25 16:34:05.072025
2022-11-25 16:34:05.072132
2022-11-25 16:34:05.105113
2022-11-25 16:34:05.105264
2022-11-25 16:34:05.105353
2022-11-25 16:34:05.138405
2022-11-25 16:34:05.138602
2022-11-25 16:34:05.138728
2022-11-25 16:34:05.138854
2022-11-25 16:34:05.171878
2022-11-25 16:34:05.172136
2022-11-25 16:34:05.172310
2022-11-25 16:34:05.204983
2022-11-25 16:34:05.205198
2022-11-25 16:34:05.205327
2022-11-25 16:34:05.205446
2022-11-25 16:34:05.238342
2022-11-25 16:34:05.238529
2022-11-25 16:34:05.238646
2022-11-25 16:34:05.238757
2022-11-25 16:34:05.271716
2022-11-25 16:34:05.271915
2022-11-25 16:34:05.272040
2022-11-25 16:34:05.304940
2022-11-25 16:34:05.305097
2022-11-25 16:34:05.305188
2022-11-25 16:34:05.305276
2022-11-25 16:34:05.338303
2022-11-25 16:34:05.338480
2022-11-25 16:34:05.338596
2022-11-25 16:34:05.371618
2022-11-25 16:34:05.371878
2022-11-25 16:34:05.372048
2022-11-25 16:34:05.372210
2022-11-25 16:34:05.404950
2022-11-25 16:34:05.405143
2022-11-25 16:34:05.405268
2022-11-25 16:34:05.438189
2022-11-25 16:34:05.438447
2022-11-25 16:34:05.438614
2022-11-25 16:34:05.438773
2022-11-25 16:34:05.471491
2022-11-25 16:34:05.471648
2022-11-25 16:34:05.471738
2022-11-25 16:34:05.504722
2022-11-25 16:34:05.504933
2022-11-25 16:34:05.505057
2022-11-25 16:34:05.505172
2022-11-25 16:34:05.538084
2022-11-25 16:34:05.538275
2022-11-25 16:34:05.538401
2022-11-25 16:34:05.538513
2022-11-25 16:34:05.571401
2022-11-25 16:34:05.571556
2022-11-25 16:34:05.571649
2022-11-25 16:34:05.604727
2022-11-25 16:34:05.604890
2022-11-25 16:34:05.604978
2022-11-25 16:34:05.605059
2022-11-25 16:34:05.638044
2022-11-25 16:34:05.638249
2022-11-25 16:34:05.638369
2022-11-25 16:34:05.671179
2022-11-25 16:34:05.671328
2022-11-25 16:34:05.671415
2022-11-25 16:34:05.671499
2022-11-25 16:34:05.704611
2022-11-25 16:34:05.704809
2022-11-25 16:34:05.704932
2022-11-25 16:34:05.737896
2022-11-25 16:34:05.738097
2022-11-25 16:34:05.738221
2022-11-25 16:34:05.738331
2022-11-25 16:34:05.771254
2022-11-25 16:34:05.771504
2022-11-25 16:34:05.771667
2022-11-25 16:34:05.804457
2022-11-25 16:34:05.804621
2022-11-25 16:34:05.804710
2022-11-25 16:34:05.804797
2022-11-25 16:34:05.837856
2022-11-25 16:34:05.838113
2022-11-25 16:34:05.838285
2022-11-25 16:34:05.838444
2022-11-25 16:34:05.871123
2022-11-25 16:34:05.871271
2022-11-25 16:34:05.871360
2022-11-25 16:34:05.904420
2022-11-25 16:34:05.904678
2022-11-25 16:34:05.904846
2022-11-25 16:34:05.905005
2022-11-25 16:34:05.937770
2022-11-25 16:34:05.938010
2022-11-25 16:34:05.938178
2022-11-25 16:34:05.971004
2022-11-25 16:34:05.971218
2022-11-25 16:34:05.971343
2022-11-25 16:34:05.971456
2022-11-25 16:34:06.004374
2022-11-25 16:34:06.004630
2022-11-25 16:34:06.004796
2022-11-25 16:34:06.037585
2022-11-25 16:34:06.037750
2022-11-25 16:34:06.037841
2022-11-25 16:34:06.037932
2022-11-25 16:34:06.070910
2022-11-25 16:34:06.071071
2022-11-25 16:34:06.071158
2022-11-25 16:34:06.104149
2022-11-25 16:34:06.104357
2022-11-25 16:34:06.104481
2022-11-25 16:34:06.104594
2022-11-25 16:34:06.137517
2022-11-25 16:34:06.137737
2022-11-25 16:34:06.137903
2022-11-25 16:34:06.138058
2022-11-25 16:34:06.170905
2022-11-25 16:34:06.171159
2022-11-25 16:34:06.171331
2022-11-25 16:34:06.204153
2022-11-25 16:34:06.204415
2022-11-25 16:34:06.204586
2022-11-25 16:34:06.204746
2022-11-25 16:34:06.237549
2022-11-25 16:34:06.237801
2022-11-25 16:34:06.237969
2022-11-25 16:34:06.270707
2022-11-25 16:34:06.270875
2022-11-25 16:34:06.270962
2022-11-25 16:34:06.271047
2022-11-25 16:34:06.304070
2022-11-25 16:34:06.304331
2022-11-25 16:34:06.304504
2022-11-25 16:34:06.337289
2022-11-25 16:34:06.337446
2022-11-25 16:34:06.337534
2022-11-25 16:34:06.337761
2022-11-25 16:34:06.370686
2022-11-25 16:34:06.370936
2022-11-25 16:34:06.371106
2022-11-25 16:34:06.403874
2022-11-25 16:34:06.404136
2022-11-25 16:34:06.404305
2022-11-25 16:34:06.404464
2022-11-25 16:34:06.437232
2022-11-25 16:34:06.437476
2022-11-25 16:34:06.437648
2022-11-25 16:34:06.437807
2022-11-25 16:34:06.470539
2022-11-25 16:34:06.470722
2022-11-25 16:34:06.470834
2022-11-25 16:34:06.503804
2022-11-25 16:34:06.504053
2022-11-25 16:34:06.504222
2022-11-25 16:34:06.504381
2022-11-25 16:34:06.537177
2022-11-25 16:34:06.537411
2022-11-25 16:34:06.537570
2022-11-25 16:34:06.570459
2022-11-25 16:34:06.570607
2022-11-25 16:34:06.570688
2022-11-25 16:34:06.570767
2022-11-25 16:34:06.603745
2022-11-25 16:34:06.603929
2022-11-25 16:34:06.604046
2022-11-25 16:34:06.637000
2022-11-25 16:34:06.637171
2022-11-25 16:34:06.637262
2022-11-25 16:34:06.637348
2022-11-25 16:34:06.670382
2022-11-25 16:34:06.670622
2022-11-25 16:34:06.670794
2022-11-25 16:34:06.703569
2022-11-25 16:34:06.703827
2022-11-25 16:34:06.703996
2022-11-25 16:34:06.704149
2022-11-25 16:34:06.736939
2022-11-25 16:34:06.737179
2022-11-25 16:34:06.737339
2022-11-25 16:34:06.737497
2022-11-25 16:34:06.770248
2022-11-25 16:34:06.770406
2022-11-25 16:34:06.770498
2022-11-25 16:34:06.803576
2022-11-25 16:34:06.803835
2022-11-25 16:34:06.804009
2022-11-25 16:34:06.804166
2022-11-25 16:34:06.836844
2022-11-25 16:34:06.837007
2022-11-25 16:34:06.837096
2022-11-25 16:34:06.870139
2022-11-25 16:34:06.870394
2022-11-25 16:34:06.870565
2022-11-25 16:34:06.870726
2022-11-25 16:34:06.903551
2022-11-25 16:34:06.903804
2022-11-25 16:34:06.903978
2022-11-25 16:34:06.936733
2022-11-25 16:34:06.936989
2022-11-25 16:34:06.937155
2022-11-25 16:34:06.937324
2022-11-25 16:34:06.970075
2022-11-25 16:34:06.970313
2022-11-25 16:34:06.970482
2022-11-25 16:34:07.003307
2022-11-25 16:34:07.003588
2022-11-25 16:34:07.003774
2022-11-25 16:34:07.003936
2022-11-25 16:34:07.036678
2022-11-25 16:34:07.036923
2022-11-25 16:34:07.037096
2022-11-25 16:34:07.037253
2022-11-25 16:34:07.069989
2022-11-25 16:34:07.070154
2022-11-25 16:34:07.070248
2022-11-25 16:34:07.103290
2022-11-25 16:34:07.103529
2022-11-25 16:34:07.103689
2022-11-25 16:34:07.103848
2022-11-25 16:34:07.136552
2022-11-25 16:34:07.136701
2022-11-25 16:34:07.136785
2022-11-25 16:34:07.169851
2022-11-25 16:34:07.170104
2022-11-25 16:34:07.170267
2022-11-25 16:34:07.170427
2022-11-25 16:34:07.203194
2022-11-25 16:34:07.203394
2022-11-25 16:34:07.203512
2022-11-25 16:34:07.236438
2022-11-25 16:34:07.236699
2022-11-25 16:34:07.236868
2022-11-25 16:34:07.237036
2022-11-25 16:34:07.269847
2022-11-25 16:34:07.270105
2022-11-25 16:34:07.270271
2022-11-25 16:34:07.302994
2022-11-25 16:34:07.303273
2022-11-25 16:34:07.303441
2022-11-25 16:34:07.303599
2022-11-25 16:34:07.336331
2022-11-25 16:34:07.336482
2022-11-25 16:34:07.336573
2022-11-25 16:34:07.336660
2022-11-25 16:34:07.369744
2022-11-25 16:34:07.369983
2022-11-25 16:34:07.370150
2022-11-25 16:34:07.402969
2022-11-25 16:34:07.403167
2022-11-25 16:34:07.403287
2022-11-25 16:34:07.403401
2022-11-25 16:34:07.436310
2022-11-25 16:34:07.436584
2022-11-25 16:34:07.436755
2022-11-25 16:34:07.469554
2022-11-25 16:34:07.469717
2022-11-25 16:34:07.469806
2022-11-25 16:34:07.469895
2022-11-25 16:34:07.502886
2022-11-25 16:34:07.503138
2022-11-25 16:34:07.503310
2022-11-25 16:34:07.536122
2022-11-25 16:34:07.536283
2022-11-25 16:34:07.536373
2022-11-25 16:34:07.536464
2022-11-25 16:34:07.569457
2022-11-25 16:34:07.569620
2022-11-25 16:34:07.569710
2022-11-25 16:34:07.602700
2022-11-25 16:34:07.602879
2022-11-25 16:34:07.602977
2022-11-25 16:34:07.603062
2022-11-25 16:34:07.636095
2022-11-25 16:34:07.636356
2022-11-25 16:34:07.636530
2022-11-25 16:34:07.636690
2022-11-25 16:34:07.669401
2022-11-25 16:34:07.669553
2022-11-25 16:34:07.669637
2022-11-25 16:34:07.702674
2022-11-25 16:34:07.702914
2022-11-25 16:34:07.703075
2022-11-25 16:34:07.703231
2022-11-25 16:34:07.735999
2022-11-25 16:34:07.736163
2022-11-25 16:34:07.736255
2022-11-25 16:34:07.769273
2022-11-25 16:34:07.769527
2022-11-25 16:34:07.769687
2022-11-25 16:34:07.769849
2022-11-25 16:34:07.802651
2022-11-25 16:34:07.802907
2022-11-25 16:34:07.803083
2022-11-25 16:34:07.835833
2022-11-25 16:34:07.836081
2022-11-25 16:34:07.836248
2022-11-25 16:34:07.836406
2022-11-25 16:34:07.869164
2022-11-25 16:34:07.869365
2022-11-25 16:34:07.869484
2022-11-25 16:34:07.902443
2022-11-25 16:34:07.902717
2022-11-25 16:34:07.902899
2022-11-25 16:34:07.903064
2022-11-25 16:34:07.935789
2022-11-25 16:34:07.936023
2022-11-25 16:34:07.936189
2022-11-25 16:34:07.936348
2022-11-25 16:34:07.969134
2022-11-25 16:34:07.969367
2022-11-25 16:34:07.969532
2022-11-25 16:34:08.002355
2022-11-25 16:34:08.002536
2022-11-25 16:34:08.002655
2022-11-25 16:34:08.002769
2022-11-25 16:34:08.035755
2022-11-25 16:34:08.036017
2022-11-25 16:34:08.036190
2022-11-25 16:34:08.068953
2022-11-25 16:34:08.069116
2022-11-25 16:34:08.069209
2022-11-25 16:34:08.069338
2022-11-25 16:34:08.102363
2022-11-25 16:34:08.102628
2022-11-25 16:34:08.102794
2022-11-25 16:34:08.135551
2022-11-25 16:34:08.135716
2022-11-25 16:34:08.135808
2022-11-25 16:34:08.135890
2022-11-25 16:34:08.168948
2022-11-25 16:34:08.169210
2022-11-25 16:34:08.169378
2022-11-25 16:34:08.202130
2022-11-25 16:34:08.202315
2022-11-25 16:34:08.202409
2022-11-25 16:34:08.202493
2022-11-25 16:34:08.235531
2022-11-25 16:34:08.235785
2022-11-25 16:34:08.235953
2022-11-25 16:34:08.236122
2022-11-25 16:34:08.268820
2022-11-25 16:34:08.269034
2022-11-25 16:34:08.269153
2022-11-25 16:34:08.302103
2022-11-25 16:34:08.302358
2022-11-25 16:34:08.302531
2022-11-25 16:34:08.302707
2022-11-25 16:34:08.335419
2022-11-25 16:34:08.335602
2022-11-25 16:34:08.335720
2022-11-25 16:34:08.368687
2022-11-25 16:34:08.368935
2022-11-25 16:34:08.369101
2022-11-25 16:34:08.369264
2022-11-25 16:34:08.402003
2022-11-25 16:34:08.402211
2022-11-25 16:34:08.402331
2022-11-25 16:34:08.435263
2022-11-25 16:34:08.435526
2022-11-25 16:34:08.435688
2022-11-25 16:34:08.435843
2022-11-25 16:34:08.468594
2022-11-25 16:34:08.468745
2022-11-25 16:34:08.468935
2022-11-25 16:34:08.501823
2022-11-25 16:34:08.502084
2022-11-25 16:34:08.502248
2022-11-25 16:34:08.502403
2022-11-25 16:34:08.535173
2022-11-25 16:34:08.535345
2022-11-25 16:34:08.535461
2022-11-25 16:34:08.535577
2022-11-25 16:34:08.568535
2022-11-25 16:34:08.568702
2022-11-25 16:34:08.568793
2022-11-25 16:34:08.601795
2022-11-25 16:34:08.601981
2022-11-25 16:34:08.602097
2022-11-25 16:34:08.602211
2022-11-25 16:34:08.635155
2022-11-25 16:34:08.635385
2022-11-25 16:34:08.635550
2022-11-25 16:34:08.668376
2022-11-25 16:34:08.668526
2022-11-25 16:34:08.668615
2022-11-25 16:34:08.668696
2022-11-25 16:34:08.701729
2022-11-25 16:34:08.701980
2022-11-25 16:34:08.702142
2022-11-25 16:34:08.734969
2022-11-25 16:34:08.735168
2022-11-25 16:34:08.735295
2022-11-25 16:34:08.735409
2022-11-25 16:34:08.768305
2022-11-25 16:34:08.768549
2022-11-25 16:34:08.768774
2022-11-25 16:34:08.801516
2022-11-25 16:34:08.801802
2022-11-25 16:34:08.801978
2022-11-25 16:34:08.802137
2022-11-25 16:34:08.834772
2022-11-25 16:34:08.834908
2022-11-25 16:34:08.834975
2022-11-25 16:34:08.835038
2022-11-25 16:34:08.868239
2022-11-25 16:34:08.868407
2022-11-25 16:34:08.868498
2022-11-25 16:34:08.901497
2022-11-25 16:34:08.901734
2022-11-25 16:34:08.901894
2022-11-25 16:34:08.902058
2022-11-25 16:34:08.934830
2022-11-25 16:34:08.935022
2022-11-25 16:34:08.935141
2022-11-25 16:34:08.968113
2022-11-25 16:34:08.968352
2022-11-25 16:34:08.968515
2022-11-25 16:34:08.968669
2022-11-25 16:34:09.001427
2022-11-25 16:34:09.001595
2022-11-25 16:34:09.001686
2022-11-25 16:34:09.034719
2022-11-25 16:34:09.034981
2022-11-25 16:34:09.035149
2022-11-25 16:34:09.035313
2022-11-25 16:34:09.068026
2022-11-25 16:34:09.068175
2022-11-25 16:34:09.068256
2022-11-25 16:34:09.101257
2022-11-25 16:34:09.101437
2022-11-25 16:34:09.101530
2022-11-25 16:34:09.101615
2022-11-25 16:34:09.134620
2022-11-25 16:34:09.134775
2022-11-25 16:34:09.134863
2022-11-25 16:34:09.134947
2022-11-25 16:34:09.168009
2022-11-25 16:34:09.168248
2022-11-25 16:34:09.168416
2022-11-25 16:34:09.201226
2022-11-25 16:34:09.201389
2022-11-25 16:34:09.201478
2022-11-25 16:34:09.201561
2022-11-25 16:34:09.234569
2022-11-25 16:34:09.234822
2022-11-25 16:34:09.234986
2022-11-25 16:34:09.267792
2022-11-25 16:34:09.267941
2022-11-25 16:34:09.268027
2022-11-25 16:34:09.268110
2022-11-25 16:34:09.301171
2022-11-25 16:34:09.301411
2022-11-25 16:34:09.301570
2022-11-25 16:34:09.334435
2022-11-25 16:34:09.334598
2022-11-25 16:34:09.334688
2022-11-25 16:34:09.334775
2022-11-25 16:34:09.367754
2022-11-25 16:34:09.368014
2022-11-25 16:34:09.368180
2022-11-25 16:34:09.400967
2022-11-25 16:34:09.401189
2022-11-25 16:34:09.401315
2022-11-25 16:34:09.401434
2022-11-25 16:34:09.434360
2022-11-25 16:34:09.434604
2022-11-25 16:34:09.434770
2022-11-25 16:34:09.434929
2022-11-25 16:34:09.467678
2022-11-25 16:34:09.467852
2022-11-25 16:34:09.467942
2022-11-25 16:34:09.500954
2022-11-25 16:34:09.501219
2022-11-25 16:34:09.501392
2022-11-25 16:34:09.501557
2022-11-25 16:34:09.534238
2022-11-25 16:34:09.534410
2022-11-25 16:34:09.534504
2022-11-25 16:34:09.567402
2022-11-25 16:34:09.567556
2022-11-25 16:34:09.567638
2022-11-25 16:34:09.567711
2022-11-25 16:34:09.600809
2022-11-25 16:34:09.600957
2022-11-25 16:34:09.601054
2022-11-25 16:34:09.634114
2022-11-25 16:34:09.634365
2022-11-25 16:34:09.634536
2022-11-25 16:34:09.634691
2022-11-25 16:34:09.667465
2022-11-25 16:34:09.667656
2022-11-25 16:34:09.667777
2022-11-25 16:34:09.700628
2022-11-25 16:34:09.700889
2022-11-25 16:34:09.701063
2022-11-25 16:34:09.701218
2022-11-25 16:34:09.733980
2022-11-25 16:34:09.734133
2022-11-25 16:34:09.734221
2022-11-25 16:34:09.734306
2022-11-25 16:34:09.767415
2022-11-25 16:34:09.767658
2022-11-25 16:34:09.767836
2022-11-25 16:34:09.800544
2022-11-25 16:34:09.800723
2022-11-25 16:34:09.800815
2022-11-25 16:34:09.800900
2022-11-25 16:34:09.834005
2022-11-25 16:34:09.834250
2022-11-25 16:34:09.834423
2022-11-25 16:34:09.867157
2022-11-25 16:34:09.867318
2022-11-25 16:34:09.867412
2022-11-25 16:34:09.867497
2022-11-25 16:34:09.900626
2022-11-25 16:34:09.900876
2022-11-25 16:34:09.901045
2022-11-25 16:34:09.933783
2022-11-25 16:34:09.934033
2022-11-25 16:34:09.934202
2022-11-25 16:34:09.934368
2022-11-25 16:34:09.967213
2022-11-25 16:34:09.967473
2022-11-25 16:34:09.967654
2022-11-25 16:34:10.000257
2022-11-25 16:34:10.000451
2022-11-25 16:34:10.000521
2022-11-25 16:34:10.000664
2022-11-25 16:34:10.033769
2022-11-25 16:34:10.033968
2022-11-25 16:34:10.034091
2022-11-25 16:34:10.034209
2022-11-25 16:34:10.066932
2022-11-25 16:34:10.067090
2022-11-25 16:34:10.067180
2022-11-25 16:34:10.100391
2022-11-25 16:34:10.100653
2022-11-25 16:34:10.100827
2022-11-25 16:34:10.100993
2022-11-25 16:34:10.133684
2022-11-25 16:34:10.133877
2022-11-25 16:34:10.134001
2022-11-25 16:34:10.166958
2022-11-25 16:34:10.167218
2022-11-25 16:34:10.167387
2022-11-25 16:34:10.167552
2022-11-25 16:34:10.200225
2022-11-25 16:34:10.200408
2022-11-25 16:34:10.200528
2022-11-25 16:34:10.233549
2022-11-25 16:34:10.233818
2022-11-25 16:34:10.233996
2022-11-25 16:34:10.234158
2022-11-25 16:34:10.266812
2022-11-25 16:34:10.266964
2022-11-25 16:34:10.267051
2022-11-25 16:34:10.300095
2022-11-25 16:34:10.300369
2022-11-25 16:34:10.300534
2022-11-25 16:34:10.300695
2022-11-25 16:34:10.333432
2022-11-25 16:34:10.333621
2022-11-25 16:34:10.333738
2022-11-25 16:34:10.333850
2022-11-25 16:34:10.366835
2022-11-25 16:34:10.367072
2022-11-25 16:34:10.367231
2022-11-25 16:34:10.400008
2022-11-25 16:34:10.400183
2022-11-25 16:34:10.400301
2022-11-25 16:34:10.400411
2022-11-25 16:34:10.433437
2022-11-25 16:34:10.433685
2022-11-25 16:34:10.433850
2022-11-25 16:34:10.466604
2022-11-25 16:34:10.466795
2022-11-25 16:34:10.466924
2022-11-25 16:34:10.467039
2022-11-25 16:34:10.500045
2022-11-25 16:34:10.500291
2022-11-25 16:34:10.500457
2022-11-25 16:34:10.533178
2022-11-25 16:34:10.533335
2022-11-25 16:34:10.533423
2022-11-25 16:34:10.533512
2022-11-25 16:34:10.566440
2022-11-25 16:34:10.566586
2022-11-25 16:34:10.566665
2022-11-25 16:34:10.599796
2022-11-25 16:34:10.599954
2022-11-25 16:34:10.600114
2022-11-25 16:34:10.600206
2022-11-25 16:34:10.633197
2022-11-25 16:34:10.633464
2022-11-25 16:34:10.633635
2022-11-25 16:34:10.633798
2022-11-25 16:34:10.666410
2022-11-25 16:34:10.666551
2022-11-25 16:34:10.666632
2022-11-25 16:34:10.699752
2022-11-25 16:34:10.699943
2022-11-25 16:34:10.700060
2022-11-25 16:34:10.700178
2022-11-25 16:34:10.733027
2022-11-25 16:34:10.733170
2022-11-25 16:34:10.733263
2022-11-25 16:34:10.766371
2022-11-25 16:34:10.766639
2022-11-25 16:34:10.766809
2022-11-25 16:34:10.766969
2022-11-25 16:34:10.799568
2022-11-25 16:34:10.799716
2022-11-25 16:34:10.799806
2022-11-25 16:34:10.832971
2022-11-25 16:34:10.833290
2022-11-25 16:34:10.833474
2022-11-25 16:34:10.833638
2022-11-25 16:34:10.866277
2022-11-25 16:34:10.866432
2022-11-25 16:34:10.866521
2022-11-25 16:34:10.899534
2022-11-25 16:34:10.899842
2022-11-25 16:34:10.900018
2022-11-25 16:34:10.900181
2022-11-25 16:34:10.932832
2022-11-25 16:34:10.932977
2022-11-25 16:34:10.933075
2022-11-25 16:34:10.933159
2022-11-25 16:34:10.966249
2022-11-25 16:34:10.966490
2022-11-25 16:34:10.966660
2022-11-25 16:34:10.999440
2022-11-25 16:34:10.999622
2022-11-25 16:34:10.999746
2022-11-25 16:34:10.999870
2022-11-25 16:34:11.032858
2022-11-25 16:34:11.033103
2022-11-25 16:34:11.033266
2022-11-25 16:34:11.065911
2022-11-25 16:34:11.066062
2022-11-25 16:34:11.066154
2022-11-25 16:34:11.066256
2022-11-25 16:34:11.099474
2022-11-25 16:34:11.099740
2022-11-25 16:34:11.099913
2022-11-25 16:34:11.132657
2022-11-25 16:34:11.132819
2022-11-25 16:34:11.132911
2022-11-25 16:34:11.132998
2022-11-25 16:34:11.166038
2022-11-25 16:34:11.166296
2022-11-25 16:34:11.166465
2022-11-25 16:34:11.199160
2022-11-25 16:34:11.199323
2022-11-25 16:34:11.199494
2022-11-25 16:34:11.199644
2022-11-25 16:34:11.232626
2022-11-25 16:34:11.232886
2022-11-25 16:34:11.233054
2022-11-25 16:34:11.233219
2022-11-25 16:34:11.265899
2022-11-25 16:34:11.266050
2022-11-25 16:34:11.266139
2022-11-25 16:34:11.299213
2022-11-25 16:34:11.299470
2022-11-25 16:34:11.299657
2022-11-25 16:34:11.299826
2022-11-25 16:34:11.332459
2022-11-25 16:34:11.332609
2022-11-25 16:34:11.332700
2022-11-25 16:34:11.365823
2022-11-25 16:34:11.366080
2022-11-25 16:34:11.366250
2022-11-25 16:34:11.366409
2022-11-25 16:34:11.399030
2022-11-25 16:34:11.399299
2022-11-25 16:34:11.399443
2022-11-25 16:34:11.432378
2022-11-25 16:34:11.432639
2022-11-25 16:34:11.432813
2022-11-25 16:34:11.432974
2022-11-25 16:34:11.465616
2022-11-25 16:34:11.465837
2022-11-25 16:34:11.465933
2022-11-25 16:34:11.498928
2022-11-25 16:34:11.499197
2022-11-25 16:34:11.499372
2022-11-25 16:34:11.499549
2022-11-25 16:34:11.532212
2022-11-25 16:34:11.532461
2022-11-25 16:34:11.532593
2022-11-25 16:34:11.532710
2022-11-25 16:34:11.565679
2022-11-25 16:34:11.565970
2022-11-25 16:34:11.566148
2022-11-25 16:34:11.598810
2022-11-25 16:34:11.599000
2022-11-25 16:34:11.599129
2022-11-25 16:34:11.599255
2022-11-25 16:34:11.632277
2022-11-25 16:34:11.632524
2022-11-25 16:34:11.632694
2022-11-25 16:34:11.665392
2022-11-25 16:34:11.665534
2022-11-25 16:34:11.665627
2022-11-25 16:34:11.665741
2022-11-25 16:34:11.698860
2022-11-25 16:34:11.699120
2022-11-25 16:34:11.699292
2022-11-25 16:34:11.731998
2022-11-25 16:34:11.732191
2022-11-25 16:34:11.732328
2022-11-25 16:34:11.732422
2022-11-25 16:34:11.765521
2022-11-25 16:34:11.765778
2022-11-25 16:34:11.765947
2022-11-25 16:34:11.798564
2022-11-25 16:34:11.798753
2022-11-25 16:34:11.798879
2022-11-25 16:34:11.799081
2022-11-25 16:34:11.832053
2022-11-25 16:34:11.832309
2022-11-25 16:34:11.832474
2022-11-25 16:34:11.832638
2022-11-25 16:34:11.865228
2022-11-25 16:34:11.865374
2022-11-25 16:34:11.865466
2022-11-25 16:34:11.898633
2022-11-25 16:34:11.898899
2022-11-25 16:34:11.899076
2022-11-25 16:34:11.899238
2022-11-25 16:34:11.931982
2022-11-25 16:34:11.932233
2022-11-25 16:34:11.932400
2022-11-25 16:34:11.965112
2022-11-25 16:34:11.965284
2022-11-25 16:34:11.965413
2022-11-25 16:34:11.965528
2022-11-25 16:34:11.998571
2022-11-25 16:34:11.998838
2022-11-25 16:34:11.999013
2022-11-25 16:34:12.031797
2022-11-25 16:34:12.032058
2022-11-25 16:34:12.032229
2022-11-25 16:34:12.032397
2022-11-25 16:34:12.065025
2022-11-25 16:34:12.065172
2022-11-25 16:34:12.065266
2022-11-25 16:34:12.098442
2022-11-25 16:34:12.098727
2022-11-25 16:34:12.098904
2022-11-25 16:34:12.099066
2022-11-25 16:34:12.131755
2022-11-25 16:34:12.132011
2022-11-25 16:34:12.132178
2022-11-25 16:34:12.132342
2022-11-25 16:34:12.164961
2022-11-25 16:34:12.165114
2022-11-25 16:34:12.165208
2022-11-25 16:34:12.198369
2022-11-25 16:34:12.198621
2022-11-25 16:34:12.198793
2022-11-25 16:34:12.198951
2022-11-25 16:34:12.231611
2022-11-25 16:34:12.231793
2022-11-25 16:34:12.231908
2022-11-25 16:34:12.264902
2022-11-25 16:34:12.265158
2022-11-25 16:34:12.265326
2022-11-25 16:34:12.265484
2022-11-25 16:34:12.298252
2022-11-25 16:34:12.298454
2022-11-25 16:34:12.298575
2022-11-25 16:34:12.331515
2022-11-25 16:34:12.331767
2022-11-25 16:34:12.331942
2022-11-25 16:34:12.332101
2022-11-25 16:34:12.364852
2022-11-25 16:34:12.365119
2022-11-25 16:34:12.365294
2022-11-25 16:34:12.398069
2022-11-25 16:34:12.398349
2022-11-25 16:34:12.398517
2022-11-25 16:34:12.398686
2022-11-25 16:34:12.431505
2022-11-25 16:34:12.431760
2022-11-25 16:34:12.431927
2022-11-25 16:34:12.432088
2022-11-25 16:34:12.464828
2022-11-25 16:34:12.465087
2022-11-25 16:34:12.465252
2022-11-25 16:34:12.498043
2022-11-25 16:34:12.498298
2022-11-25 16:34:12.498474
2022-11-25 16:34:12.498635
2022-11-25 16:34:12.531392
2022-11-25 16:34:12.531645
2022-11-25 16:34:12.531824
2022-11-25 16:34:12.564661
2022-11-25 16:34:12.564924
2022-11-25 16:34:12.565098
2022-11-25 16:34:12.565256
2022-11-25 16:34:12.597964
2022-11-25 16:34:12.598153
2022-11-25 16:34:12.598274
2022-11-25 16:34:12.631209
2022-11-25 16:34:12.631458
2022-11-25 16:34:12.631622
2022-11-25 16:34:12.631781
2022-11-25 16:34:12.664575
2022-11-25 16:34:12.664819
2022-11-25 16:34:12.665001
2022-11-25 16:34:12.697794
2022-11-25 16:34:12.698063
2022-11-25 16:34:12.698240
2022-11-25 16:34:12.698401
2022-11-25 16:34:12.731160
2022-11-25 16:34:12.731544
2022-11-25 16:34:12.731722
2022-11-25 16:34:12.731886
2022-11-25 16:34:12.764560
2022-11-25 16:34:12.764804
2022-11-25 16:34:12.764971
2022-11-25 16:34:12.797748
2022-11-25 16:34:12.798002
2022-11-25 16:34:12.798175
2022-11-25 16:34:12.798340
2022-11-25 16:34:12.831105
2022-11-25 16:34:12.831366
2022-11-25 16:34:12.831537
2022-11-25 16:34:12.864339
2022-11-25 16:34:12.864593
2022-11-25 16:34:12.864764
2022-11-25 16:34:12.864925
2022-11-25 16:34:12.897679
2022-11-25 16:34:12.897939
2022-11-25 16:34:12.898113
2022-11-25 16:34:12.930934
2022-11-25 16:34:12.931187
2022-11-25 16:34:12.931356
2022-11-25 16:34:12.931521
2022-11-25 16:34:12.964284
2022-11-25 16:34:12.964524
2022-11-25 16:34:12.964706
2022-11-25 16:34:12.997484
2022-11-25 16:34:12.997780
2022-11-25 16:34:12.997961
2022-11-25 16:34:12.998124
2022-11-25 16:34:13.030891
2022-11-25 16:34:13.031147
2022-11-25 16:34:13.031315
2022-11-25 16:34:13.031475
2022-11-25 16:34:13.064173
2022-11-25 16:34:13.064370
2022-11-25 16:34:13.064493
2022-11-25 16:34:13.097396
2022-11-25 16:34:13.097583
2022-11-25 16:34:13.097709
2022-11-25 16:34:13.097825
2022-11-25 16:34:13.130798
2022-11-25 16:34:13.131060
2022-11-25 16:34:13.131231
2022-11-25 16:34:13.164045
2022-11-25 16:34:13.164301
2022-11-25 16:34:13.164475
2022-11-25 16:34:13.164632
2022-11-25 16:34:13.197428
2022-11-25 16:34:13.197677
2022-11-25 16:34:13.197839
2022-11-25 16:34:13.230634
2022-11-25 16:34:13.230843
2022-11-25 16:34:13.230965
2022-11-25 16:34:13.231083
2022-11-25 16:34:13.264011
2022-11-25 16:34:13.264252
2022-11-25 16:34:13.264419
2022-11-25 16:34:13.297213
2022-11-25 16:34:13.297482
2022-11-25 16:34:13.297650
2022-11-25 16:34:13.297808
2022-11-25 16:34:13.330592
2022-11-25 16:34:13.330861
2022-11-25 16:34:13.331031
2022-11-25 16:34:13.331196
2022-11-25 16:34:13.363932
2022-11-25 16:34:13.364188
2022-11-25 16:34:13.364358
2022-11-25 16:34:13.397118
2022-11-25 16:34:13.397286
2022-11-25 16:34:13.397373
2022-11-25 16:34:13.397455
2022-11-25 16:34:13.430530
2022-11-25 16:34:13.430794
2022-11-25 16:34:13.430966
2022-11-25 16:34:13.463757
2022-11-25 16:34:13.464015
2022-11-25 16:34:13.464183
2022-11-25 16:34:13.464337
2022-11-25 16:34:13.497134
2022-11-25 16:34:13.497393
2022-11-25 16:34:13.497569
2022-11-25 16:34:13.530348
2022-11-25 16:34:13.530610
2022-11-25 16:34:13.530783
2022-11-25 16:34:13.531038
2022-11-25 16:34:13.563693
2022-11-25 16:34:13.563933
2022-11-25 16:34:13.564097
2022-11-25 16:34:13.596926
2022-11-25 16:34:13.597193
2022-11-25 16:34:13.597357
2022-11-25 16:34:13.597519
2022-11-25 16:34:13.630323
2022-11-25 16:34:13.630588
2022-11-25 16:34:13.630762
2022-11-25 16:34:13.630924
2022-11-25 16:34:13.663621
2022-11-25 16:34:13.663867
2022-11-25 16:34:13.664032
2022-11-25 16:34:13.696862
2022-11-25 16:34:13.697099
2022-11-25 16:34:13.697258
2022-11-25 16:34:13.697420
2022-11-25 16:34:13.730225
2022-11-25 16:34:13.730473
2022-11-25 16:34:13.730646
2022-11-25 16:34:13.763482
2022-11-25 16:34:13.763724
2022-11-25 16:34:13.763882
2022-11-25 16:34:13.764044
2022-11-25 16:34:13.796819
2022-11-25 16:34:13.797066
2022-11-25 16:34:13.797229
2022-11-25 16:34:13.830040
2022-11-25 16:34:13.830286
2022-11-25 16:34:13.830450
2022-11-25 16:34:13.830613
2022-11-25 16:34:13.863354
2022-11-25 16:34:13.863544
2022-11-25 16:34:13.863663
2022-11-25 16:34:13.896597
2022-11-25 16:34:13.896851
2022-11-25 16:34:13.897014
2022-11-25 16:34:13.897166
2022-11-25 16:34:13.929975
2022-11-25 16:34:13.930210
2022-11-25 16:34:13.930369
2022-11-25 16:34:13.930533
2022-11-25 16:34:13.963353
2022-11-25 16:34:13.963605
2022-11-25 16:34:13.963771
2022-11-25 16:34:13.996573
2022-11-25 16:34:13.996826
2022-11-25 16:34:13.996992
2022-11-25 16:34:13.997164
2022-11-25 16:34:14.029961
2022-11-25 16:34:14.030225
2022-11-25 16:34:14.030396
2022-11-25 16:34:14.063181
2022-11-25 16:34:14.063432
2022-11-25 16:34:14.063596
2022-11-25 16:34:14.063752
2022-11-25 16:34:14.096330
2022-11-25 16:34:14.096545
2022-11-25 16:34:14.096648
2022-11-25 16:34:14.129718
2022-11-25 16:34:14.129985
2022-11-25 16:34:14.130160
2022-11-25 16:34:14.130327
2022-11-25 16:34:14.163129
2022-11-25 16:34:14.163393
2022-11-25 16:34:14.163562
2022-11-25 16:34:14.196318
2022-11-25 16:34:14.196531
2022-11-25 16:34:14.196660
2022-11-25 16:34:14.196774
2022-11-25 16:34:14.229652
2022-11-25 16:34:14.229889
2022-11-25 16:34:14.230053
2022-11-25 16:34:14.230212
2022-11-25 16:34:14.263052
2022-11-25 16:34:14.263286
2022-11-25 16:34:14.263454
2022-11-25 16:34:14.296297
2022-11-25 16:34:14.296533
2022-11-25 16:34:14.296698
2022-11-25 16:34:14.296868
2022-11-25 16:34:14.329639
2022-11-25 16:34:14.329861
2022-11-25 16:34:14.330030
2022-11-25 16:34:14.362891
2022-11-25 16:34:14.363137
2022-11-25 16:34:14.363304
2022-11-25 16:34:14.363465
2022-11-25 16:34:14.396222
2022-11-25 16:34:14.396447
2022-11-25 16:34:14.396609
2022-11-25 16:34:14.429465
2022-11-25 16:34:14.429695
2022-11-25 16:34:14.429851
2022-11-25 16:34:14.430007
2022-11-25 16:34:14.462813
2022-11-25 16:34:14.463049
2022-11-25 16:34:14.463214
2022-11-25 16:34:14.496034
2022-11-25 16:34:14.496319
2022-11-25 16:34:14.496497
2022-11-25 16:34:14.496664
2022-11-25 16:34:14.529400
2022-11-25 16:34:14.529633
2022-11-25 16:34:14.529795
2022-11-25 16:34:14.529951
2022-11-25 16:34:14.562753
2022-11-25 16:34:14.562981
2022-11-25 16:34:14.563143
2022-11-25 16:34:14.595949
2022-11-25 16:34:14.596115
2022-11-25 16:34:14.596208
2022-11-25 16:34:14.596294
2022-11-25 16:34:14.629369
2022-11-25 16:34:14.629619
2022-11-25 16:34:14.629792
2022-11-25 16:34:14.662592
2022-11-25 16:34:14.662829
2022-11-25 16:34:14.662999
2022-11-25 16:34:14.663155
2022-11-25 16:34:14.695932
2022-11-25 16:34:14.696160
2022-11-25 16:34:14.696330
2022-11-25 16:34:14.729161
2022-11-25 16:34:14.729381
2022-11-25 16:34:14.729543
2022-11-25 16:34:14.729710
2022-11-25 16:34:14.762502
2022-11-25 16:34:14.762729
2022-11-25 16:34:14.762883
2022-11-25 16:34:14.795739
2022-11-25 16:34:14.795993
2022-11-25 16:34:14.796160
2022-11-25 16:34:14.796325
2022-11-25 16:34:14.829107
2022-11-25 16:34:14.829337
2022-11-25 16:34:14.829504
2022-11-25 16:34:14.829658
2022-11-25 16:34:14.862543
2022-11-25 16:34:14.862784
2022-11-25 16:34:14.862963
2022-11-25 16:34:14.895702
2022-11-25 16:34:14.895950
2022-11-25 16:34:14.896121
2022-11-25 16:34:14.896276
2022-11-25 16:34:14.929080
2022-11-25 16:34:14.929335
2022-11-25 16:34:14.929504
2022-11-25 16:34:14.962306
2022-11-25 16:34:14.962550
2022-11-25 16:34:14.962719
2022-11-25 16:34:14.962876
2022-11-25 16:34:14.995714
2022-11-25 16:34:14.995984
2022-11-25 16:34:14.996156
2022-11-25 16:34:15.028877
2022-11-25 16:34:15.029134
2022-11-25 16:34:15.029300
2022-11-25 16:34:15.029464
2022-11-25 16:34:15.062238
2022-11-25 16:34:15.062476
2022-11-25 16:34:15.062640
2022-11-25 16:34:15.095427
2022-11-25 16:34:15.095580
2022-11-25 16:34:15.095763
2022-11-25 16:34:15.095861
2022-11-25 16:34:15.128852
2022-11-25 16:34:15.129115
2022-11-25 16:34:15.129287
2022-11-25 16:34:15.129442
2022-11-25 16:34:15.162204
2022-11-25 16:34:15.162464
2022-11-25 16:34:15.162629
2022-11-25 16:34:15.195469
2022-11-25 16:34:15.195703
2022-11-25 16:34:15.195868
2022-11-25 16:34:15.196022
2022-11-25 16:34:15.228718
2022-11-25 16:34:15.228957
2022-11-25 16:34:15.229122
2022-11-25 16:34:15.262016
2022-11-25 16:34:15.262257
2022-11-25 16:34:15.262422
2022-11-25 16:34:15.262588
2022-11-25 16:34:15.295323
2022-11-25 16:34:15.295509
2022-11-25 16:34:15.295632
2022-11-25 16:34:15.328551
2022-11-25 16:34:15.328786
2022-11-25 16:34:15.328953
2022-11-25 16:34:15.329103
2022-11-25 16:34:15.361967
2022-11-25 16:34:15.362212
2022-11-25 16:34:15.362378
2022-11-25 16:34:15.395151
2022-11-25 16:34:15.395426
2022-11-25 16:34:15.395602
2022-11-25 16:34:15.395761
2022-11-25 16:34:15.428542
2022-11-25 16:34:15.428802
2022-11-25 16:34:15.428970
2022-11-25 16:34:15.429130
2022-11-25 16:34:15.461884
2022-11-25 16:34:15.462146
2022-11-25 16:34:15.462326
2022-11-25 16:34:15.495147
2022-11-25 16:34:15.495410
2022-11-25 16:34:15.495584
2022-11-25 16:34:15.495753
2022-11-25 16:34:15.528503
2022-11-25 16:34:15.528761
2022-11-25 16:34:15.528928
2022-11-25 16:34:15.561705
2022-11-25 16:34:15.561966
2022-11-25 16:34:15.562138
2022-11-25 16:34:15.562297
2022-11-25 16:34:15.595005
2022-11-25 16:34:15.595167
2022-11-25 16:34:15.595254
2022-11-25 16:34:15.628306
2022-11-25 16:34:15.628559
2022-11-25 16:34:15.628735
2022-11-25 16:34:15.628890
2022-11-25 16:34:15.661690
2022-11-25 16:34:15.661949
2022-11-25 16:34:15.662118
2022-11-25 16:34:15.694888
2022-11-25 16:34:15.695160
2022-11-25 16:34:15.695349
2022-11-25 16:34:15.695509
2022-11-25 16:34:15.728245
2022-11-25 16:34:15.728497
2022-11-25 16:34:15.728668
2022-11-25 16:34:15.728826
2022-11-25 16:34:15.761627
2022-11-25 16:34:15.761879
2022-11-25 16:34:15.762045
2022-11-25 16:34:15.794848
2022-11-25 16:34:15.795113
2022-11-25 16:34:15.795283
2022-11-25 16:34:15.795442
2022-11-25 16:34:15.828213
2022-11-25 16:34:15.828474
2022-11-25 16:34:15.828662
2022-11-25 16:34:15.861490
2022-11-25 16:34:15.861759
2022-11-25 16:34:15.861942
2022-11-25 16:34:15.862107
2022-11-25 16:34:15.894826
2022-11-25 16:34:15.895074
2022-11-25 16:34:15.895238
2022-11-25 16:34:15.928080
2022-11-25 16:34:15.928371
2022-11-25 16:34:15.928552
2022-11-25 16:34:15.928716
2022-11-25 16:34:15.961396
2022-11-25 16:34:15.961657
2022-11-25 16:34:15.961824
2022-11-25 16:34:15.994599
2022-11-25 16:34:15.994928
2022-11-25 16:34:15.995115
2022-11-25 16:34:15.995279
2022-11-25 16:34:16.028018
2022-11-25 16:34:16.028319
2022-11-25 16:34:16.028500
2022-11-25 16:34:16.028672
2022-11-25 16:34:16.061360
2022-11-25 16:34:16.061617
2022-11-25 16:34:16.061790
2022-11-25 16:34:16.094451
2022-11-25 16:34:16.094533
2022-11-25 16:34:16.094595
2022-11-25 16:34:16.094657
2022-11-25 16:34:16.127792
2022-11-25 16:34:16.127995
2022-11-25 16:34:16.128093
2022-11-25 16:34:16.161155
2022-11-25 16:34:16.161521
2022-11-25 16:34:16.161703
2022-11-25 16:34:16.161861
2022-11-25 16:34:16.194514
2022-11-25 16:34:16.194850
2022-11-25 16:34:16.195054
2022-11-25 16:34:16.227693
2022-11-25 16:34:16.228091
2022-11-25 16:34:16.228311
2022-11-25 16:34:16.228485
2022-11-25 16:34:16.261105
2022-11-25 16:34:16.261464
2022-11-25 16:34:16.261670
2022-11-25 16:34:16.294305
2022-11-25 16:34:16.294616
2022-11-25 16:34:16.294880
2022-11-25 16:34:16.295075
2022-11-25 16:34:16.327623
2022-11-25 16:34:16.327864
2022-11-25 16:34:16.328213
2022-11-25 16:34:16.328413
2022-11-25 16:34:16.361015
2022-11-25 16:34:16.361212
2022-11-25 16:34:16.361472
2022-11-25 16:34:16.394235
2022-11-25 16:34:16.394420
2022-11-25 16:34:16.394542
2022-11-25 16:34:16.394700
2022-11-25 16:34:16.427573
2022-11-25 16:34:16.427817
2022-11-25 16:34:16.428156
2022-11-25 16:34:16.460846
2022-11-25 16:34:16.461091
2022-11-25 16:34:16.461307
2022-11-25 16:34:16.461564
2022-11-25 16:34:16.494206
2022-11-25 16:34:16.494456
2022-11-25 16:34:16.494762
2022-11-25 16:34:16.527434
2022-11-25 16:34:16.527691
2022-11-25 16:34:16.527865
2022-11-25 16:34:16.528191
2022-11-25 16:34:16.560824
2022-11-25 16:34:16.561085
2022-11-25 16:34:16.561352
2022-11-25 16:34:16.594021
2022-11-25 16:34:16.594242
2022-11-25 16:34:16.594366
2022-11-25 16:34:16.594482
2022-11-25 16:34:16.627389
2022-11-25 16:34:16.627625
2022-11-25 16:34:16.627793
2022-11-25 16:34:16.628060
2022-11-25 16:34:16.660752
2022-11-25 16:34:16.660993
2022-11-25 16:34:16.661155
2022-11-25 16:34:16.693975
2022-11-25 16:34:16.694208
2022-11-25 16:34:16.694387
2022-11-25 16:34:16.694563
2022-11-25 16:34:16.727317
2022-11-25 16:34:16.727572
2022-11-25 16:34:16.727747
2022-11-25 16:34:16.760560
2022-11-25 16:34:16.760753
2022-11-25 16:34:16.760870
2022-11-25 16:34:16.760984
2022-11-25 16:34:16.793911
2022-11-25 16:34:16.794145
2022-11-25 16:34:16.794315
2022-11-25 16:34:16.827173
2022-11-25 16:34:16.827443
2022-11-25 16:34:16.827616
2022-11-25 16:34:16.827775
2022-11-25 16:34:16.860513
2022-11-25 16:34:16.860766
2022-11-25 16:34:16.861205
2022-11-25 16:34:16.893712
2022-11-25 16:34:16.894005
2022-11-25 16:34:16.894189
2022-11-25 16:34:16.894353
2022-11-25 16:34:16.927078
2022-11-25 16:34:16.927321
2022-11-25 16:34:16.927483
2022-11-25 16:34:16.927647
2022-11-25 16:34:16.960463
2022-11-25 16:34:16.960725
2022-11-25 16:34:16.960898
2022-11-25 16:34:16.993687
2022-11-25 16:34:16.993930
2022-11-25 16:34:16.994095
2022-11-25 16:34:16.994256
2022-11-25 16:34:17.027050
2022-11-25 16:34:17.027311
2022-11-25 16:34:17.027501
2022-11-25 16:34:17.060290
2022-11-25 16:34:17.060553
2022-11-25 16:34:17.060722
2022-11-25 16:34:17.060886
2022-11-25 16:34:17.093614
2022-11-25 16:34:17.093772
2022-11-25 16:34:17.093864
2022-11-25 16:34:17.126878
2022-11-25 16:34:17.127128
2022-11-25 16:34:17.127300
2022-11-25 16:34:17.127458
2022-11-25 16:34:17.160209
2022-11-25 16:34:17.160460
2022-11-25 16:34:17.160631
2022-11-25 16:34:17.193415
2022-11-25 16:34:17.193680
2022-11-25 16:34:17.193853
2022-11-25 16:34:17.194021
2022-11-25 16:34:17.226809
2022-11-25 16:34:17.227070
2022-11-25 16:34:17.227242
2022-11-25 16:34:17.227414
2022-11-25 16:34:17.260184
2022-11-25 16:34:17.260430
2022-11-25 16:34:17.260592
2022-11-25 16:34:17.293412
2022-11-25 16:34:17.293671
2022-11-25 16:34:17.293835
2022-11-25 16:34:17.294008
2022-11-25 16:34:17.326775
2022-11-25 16:34:17.327029
2022-11-25 16:34:17.327205
2022-11-25 16:34:17.360012
2022-11-25 16:34:17.360272
2022-11-25 16:34:17.360443
2022-11-25 16:34:17.360605
2022-11-25 16:34:17.393353
2022-11-25 16:34:17.393612
2022-11-25 16:34:17.393789
2022-11-25 16:34:17.426535
2022-11-25 16:34:17.426730
2022-11-25 16:34:17.426858
2022-11-25 16:34:17.427038
2022-11-25 16:34:17.459936
2022-11-25 16:34:17.460186
2022-11-25 16:34:17.460354
2022-11-25 16:34:17.493155
2022-11-25 16:34:17.493415
2022-11-25 16:34:17.493584
2022-11-25 16:34:17.493743
2022-11-25 16:34:17.526530
2022-11-25 16:34:17.526779
2022-11-25 16:34:17.526950
2022-11-25 16:34:17.527113
2022-11-25 16:34:17.559893
2022-11-25 16:34:17.560145
2022-11-25 16:34:17.560316
2022-11-25 16:34:17.593119
2022-11-25 16:34:17.593293
2022-11-25 16:34:17.593383
2022-11-25 16:34:17.593473
2022-11-25 16:34:17.626544
2022-11-25 16:34:17.626833
2022-11-25 16:34:17.627005
2022-11-25 16:34:17.659720
2022-11-25 16:34:17.659970
2022-11-25 16:34:17.660142
2022-11-25 16:34:17.660306
2022-11-25 16:34:17.693099
2022-11-25 16:34:17.693362
2022-11-25 16:34:17.693528
2022-11-25 16:34:17.726299
2022-11-25 16:34:17.726567
2022-11-25 16:34:17.726746
2022-11-25 16:34:17.726906
2022-11-25 16:34:17.759638
2022-11-25 16:34:17.759877
2022-11-25 16:34:17.760042
2022-11-25 16:34:17.792858
2022-11-25 16:34:17.793128
2022-11-25 16:34:17.793301
2022-11-25 16:34:17.793457
2022-11-25 16:34:17.826246
2022-11-25 16:34:17.826505
2022-11-25 16:34:17.826683
2022-11-25 16:34:17.826848
2022-11-25 16:34:17.859596
2022-11-25 16:34:17.859847
2022-11-25 16:34:17.860014
2022-11-25 16:34:17.892848
2022-11-25 16:34:17.893114
2022-11-25 16:34:17.893291
2022-11-25 16:34:17.893457
2022-11-25 16:34:17.926205
2022-11-25 16:34:17.926448
2022-11-25 16:34:17.926619
2022-11-25 16:34:17.959456
2022-11-25 16:34:17.959702
2022-11-25 16:34:17.959878
2022-11-25 16:34:17.960034
2022-11-25 16:34:17.992769
2022-11-25 16:34:17.993022
2022-11-25 16:34:17.993184
2022-11-25 16:34:18.026040
2022-11-25 16:34:18.026303
2022-11-25 16:34:18.026472
2022-11-25 16:34:18.026632
2022-11-25 16:34:18.059353
2022-11-25 16:34:18.059605
2022-11-25 16:34:18.059776
2022-11-25 16:34:18.092590
2022-11-25 16:34:18.092767
2022-11-25 16:34:18.092863
2022-11-25 16:34:18.092949
2022-11-25 16:34:18.125984
2022-11-25 16:34:18.126238
2022-11-25 16:34:18.126406
2022-11-25 16:34:18.126566
2022-11-25 16:34:18.159328
2022-11-25 16:34:18.159575
2022-11-25 16:34:18.159745
2022-11-25 16:34:18.192534
2022-11-25 16:34:18.192799
2022-11-25 16:34:18.192972
2022-11-25 16:34:18.193130
2022-11-25 16:34:18.225908
2022-11-25 16:34:18.226162
2022-11-25 16:34:18.226330
2022-11-25 16:34:18.259124
2022-11-25 16:34:18.259365
2022-11-25 16:34:18.259535
2022-11-25 16:34:18.259693
2022-11-25 16:34:18.292490
2022-11-25 16:34:18.292736
2022-11-25 16:34:18.292901
2022-11-25 16:34:18.325726
2022-11-25 16:34:18.325984
2022-11-25 16:34:18.326164
2022-11-25 16:34:18.326327
2022-11-25 16:34:18.359053
2022-11-25 16:34:18.359308
2022-11-25 16:34:18.359482
2022-11-25 16:34:18.392287
2022-11-25 16:34:18.392565
2022-11-25 16:34:18.392732
2022-11-25 16:34:18.392892
2022-11-25 16:34:18.425632
2022-11-25 16:34:18.425832
2022-11-25 16:34:18.425956
2022-11-25 16:34:18.426068
2022-11-25 16:34:18.459035
2022-11-25 16:34:18.459304
2022-11-25 16:34:18.459478
2022-11-25 16:34:18.492233
2022-11-25 16:34:18.492478
2022-11-25 16:34:18.492642
2022-11-25 16:34:18.492795
2022-11-25 16:34:18.525599
2022-11-25 16:34:18.525849
2022-11-25 16:34:18.526018
2022-11-25 16:34:18.558823
2022-11-25 16:34:18.559063
2022-11-25 16:34:18.559230
2022-11-25 16:34:18.559384
2022-11-25 16:34:18.592141
2022-11-25 16:34:18.592303
2022-11-25 16:34:18.592391
2022-11-25 16:34:18.625452
2022-11-25 16:34:18.625667
2022-11-25 16:34:18.625801
2022-11-25 16:34:18.625921
2022-11-25 16:34:18.658792
2022-11-25 16:34:18.659053
2022-11-25 16:34:18.659218
2022-11-25 16:34:18.691979
2022-11-25 16:34:18.692186
2022-11-25 16:34:18.692306
2022-11-25 16:34:18.692423
2022-11-25 16:34:18.725365
2022-11-25 16:34:18.725616
2022-11-25 16:34:18.725791
2022-11-25 16:34:18.725950
2022-11-25 16:34:18.758736
2022-11-25 16:34:18.758990
2022-11-25 16:34:18.759166
2022-11-25 16:34:18.791958
2022-11-25 16:34:18.792197
2022-11-25 16:34:18.792367
2022-11-25 16:34:18.792522
2022-11-25 16:34:18.825285
2022-11-25 16:34:18.825533
2022-11-25 16:34:18.825705
2022-11-25 16:34:18.858515
2022-11-25 16:34:18.858722
2022-11-25 16:34:18.858851
2022-11-25 16:34:18.858968
2022-11-25 16:34:18.891932
2022-11-25 16:34:18.892203
2022-11-25 16:34:18.892381
2022-11-25 16:34:18.925130
2022-11-25 16:34:18.925404
2022-11-25 16:34:18.925579
2022-11-25 16:34:18.925735
2022-11-25 16:34:18.958515
2022-11-25 16:34:18.958777
2022-11-25 16:34:18.958953
2022-11-25 16:34:18.991713
2022-11-25 16:34:18.991978
2022-11-25 16:34:18.992150
2022-11-25 16:34:18.992311
2022-11-25 16:34:19.025031
2022-11-25 16:34:19.025230
2022-11-25 16:34:19.025356
2022-11-25 16:34:19.025470
2022-11-25 16:34:19.058384
2022-11-25 16:34:19.058569
2022-11-25 16:34:19.058693
2022-11-25 16:34:19.091642
2022-11-25 16:34:19.091805
2022-11-25 16:34:19.091893
2022-11-25 16:34:19.092076
2022-11-25 16:34:19.125019
2022-11-25 16:34:19.125274
2022-11-25 16:34:19.125448
2022-11-25 16:34:19.158230
2022-11-25 16:34:19.158481
2022-11-25 16:34:19.158653
2022-11-25 16:34:19.158806
2022-11-25 16:34:19.191600
2022-11-25 16:34:19.191843
2022-11-25 16:34:19.192021
2022-11-25 16:34:19.224831
2022-11-25 16:34:19.225103
2022-11-25 16:34:19.225279
2022-11-25 16:34:19.225447
2022-11-25 16:34:19.258174
2022-11-25 16:34:19.258374
2022-11-25 16:34:19.258496
2022-11-25 16:34:19.291425
2022-11-25 16:34:19.291706
2022-11-25 16:34:19.291878
2022-11-25 16:34:19.292040
2022-11-25 16:34:19.324776
2022-11-25 16:34:19.325022
2022-11-25 16:34:19.325185
2022-11-25 16:34:19.325336
2022-11-25 16:34:19.358100
2022-11-25 16:34:19.358286
2022-11-25 16:34:19.358407
2022-11-25 16:34:19.391387
2022-11-25 16:34:19.391644
2022-11-25 16:34:19.391817
2022-11-25 16:34:19.391986
2022-11-25 16:34:19.424723
2022-11-25 16:34:19.424981
2022-11-25 16:34:19.425156
2022-11-25 16:34:19.457967
2022-11-25 16:34:19.458222
2022-11-25 16:34:19.458398
2022-11-25 16:34:19.458562
2022-11-25 16:34:19.491328
2022-11-25 16:34:19.491580
2022-11-25 16:34:19.491755
2022-11-25 16:34:19.524536
2022-11-25 16:34:19.524795
2022-11-25 16:34:19.524968
2022-11-25 16:34:19.525132
2022-11-25 16:34:19.557895
2022-11-25 16:34:19.558138
2022-11-25 16:34:19.558311
2022-11-25 16:34:19.591093
2022-11-25 16:34:19.591277
2022-11-25 16:34:19.591372
2022-11-25 16:34:19.591461
2022-11-25 16:34:19.624500
2022-11-25 16:34:19.624755
2022-11-25 16:34:19.624925
2022-11-25 16:34:19.625083
2022-11-25 16:34:19.657823
2022-11-25 16:34:19.658018
2022-11-25 16:34:19.658141
2022-11-25 16:34:19.691099
2022-11-25 16:34:19.691347
2022-11-25 16:34:19.691514
2022-11-25 16:34:19.691678
2022-11-25 16:34:19.724413
2022-11-25 16:34:19.724666
2022-11-25 16:34:19.724842
2022-11-25 16:34:19.757642
2022-11-25 16:34:19.757896
2022-11-25 16:34:19.758066
2022-11-25 16:34:19.758226
2022-11-25 16:34:19.790997
2022-11-25 16:34:19.791239
2022-11-25 16:34:19.791407
2022-11-25 16:34:19.824261
2022-11-25 16:34:19.824517
2022-11-25 16:34:19.824686
2022-11-25 16:34:19.824849
2022-11-25 16:34:19.857635
2022-11-25 16:34:19.857898
2022-11-25 16:34:19.858075
2022-11-25 16:34:19.890814
2022-11-25 16:34:19.891081
2022-11-25 16:34:19.891255
2022-11-25 16:34:19.891416
2022-11-25 16:34:19.924196
2022-11-25 16:34:19.924450
2022-11-25 16:34:19.924621
2022-11-25 16:34:19.924785
2022-11-25 16:34:19.957594
2022-11-25 16:34:19.957855
2022-11-25 16:34:19.958036
2022-11-25 16:34:19.990809
2022-11-25 16:34:19.991067
2022-11-25 16:34:19.991238
2022-11-25 16:34:19.991400
2022-11-25 16:34:20.024187
2022-11-25 16:34:20.024444
2022-11-25 16:34:20.024616
2022-11-25 16:34:20.057387
2022-11-25 16:34:20.057630
2022-11-25 16:34:20.057791
2022-11-25 16:34:20.057944
2022-11-25 16:34:20.090692
2022-11-25 16:34:20.090861
2022-11-25 16:34:20.090957
2022-11-25 16:34:20.123969
2022-11-25 16:34:20.124234
2022-11-25 16:34:20.124407
2022-11-25 16:34:20.124565
2022-11-25 16:34:20.157305
2022-11-25 16:34:20.157463
2022-11-25 16:34:20.157550
2022-11-25 16:34:20.190540
2022-11-25 16:34:20.190768
2022-11-25 16:34:20.190894
2022-11-25 16:34:20.191008
2022-11-25 16:34:20.223947
2022-11-25 16:34:20.224208
2022-11-25 16:34:20.224377
2022-11-25 16:34:20.224533
2022-11-25 16:34:20.257257
2022-11-25 16:34:20.257515
2022-11-25 16:34:20.257691
2022-11-25 16:34:20.290509
2022-11-25 16:34:20.290755
2022-11-25 16:34:20.290932
2022-11-25 16:34:20.291092
2022-11-25 16:34:20.323891
2022-11-25 16:34:20.324154
2022-11-25 16:34:20.324324
2022-11-25 16:34:20.357107
2022-11-25 16:34:20.357372
2022-11-25 16:34:20.357548
2022-11-25 16:34:20.357711
2022-11-25 16:34:20.390509
2022-11-25 16:34:20.390763
2022-11-25 16:34:20.390931
2022-11-25 16:34:20.423681
2022-11-25 16:34:20.423843
2022-11-25 16:34:20.423933
2022-11-25 16:34:20.424021
2022-11-25 16:34:20.457028
2022-11-25 16:34:20.457282
2022-11-25 16:34:20.457455
2022-11-25 16:34:20.490225
2022-11-25 16:34:20.490380
2022-11-25 16:34:20.490463
2022-11-25 16:34:20.490538
2022-11-25 16:34:20.523659
2022-11-25 16:34:20.523924
2022-11-25 16:34:20.524096
2022-11-25 16:34:20.524264
2022-11-25 16:34:20.556912
2022-11-25 16:34:20.557072
2022-11-25 16:34:20.557162
2022-11-25 16:34:20.590196
2022-11-25 16:34:20.590358
2022-11-25 16:34:20.590448
2022-11-25 16:34:20.590531
2022-11-25 16:34:20.623565
2022-11-25 16:34:20.623814
2022-11-25 16:34:20.623989
2022-11-25 16:34:20.656778
2022-11-25 16:34:20.656974
2022-11-25 16:34:20.657096
2022-11-25 16:34:20.657217
2022-11-25 16:34:20.690130
2022-11-25 16:34:20.690329
2022-11-25 16:34:20.690451
2022-11-25 16:34:20.723427
2022-11-25 16:34:20.723665
2022-11-25 16:34:20.723831
2022-11-25 16:34:20.723988
2022-11-25 16:34:20.756716
2022-11-25 16:34:20.756939
2022-11-25 16:34:20.757104
2022-11-25 16:34:20.789942
2022-11-25 16:34:20.790218
2022-11-25 16:34:20.790386
2022-11-25 16:34:20.790555
2022-11-25 16:34:20.823335
2022-11-25 16:34:20.823571
2022-11-25 16:34:20.824008
2022-11-25 16:34:20.824194
2022-11-25 16:34:20.856648
2022-11-25 16:34:20.856889
2022-11-25 16:34:20.857047
2022-11-25 16:34:20.889960
2022-11-25 16:34:20.890230
2022-11-25 16:34:20.890402
2022-11-25 16:34:20.890565
2022-11-25 16:34:20.923257
2022-11-25 16:34:20.923503
2022-11-25 16:34:20.923664
2022-11-25 16:34:20.956502
2022-11-25 16:34:20.956744
2022-11-25 16:34:20.956906
2022-11-25 16:34:20.957063
2022-11-25 16:34:20.989871
2022-11-25 16:34:20.990113
2022-11-25 16:34:20.990287
2022-11-25 16:34:21.023094
2022-11-25 16:34:21.023281
2022-11-25 16:34:21.023395
2022-11-25 16:34:21.023510
2022-11-25 16:34:21.056494
2022-11-25 16:34:21.056727
2022-11-25 16:34:21.056894
2022-11-25 16:34:21.089642
2022-11-25 16:34:21.089838
2022-11-25 16:34:21.089947
2022-11-25 16:34:21.090026
2022-11-25 16:34:21.123031
2022-11-25 16:34:21.123186
2022-11-25 16:34:21.123275
2022-11-25 16:34:21.123358
2022-11-25 16:34:21.156396
2022-11-25 16:34:21.156636
2022-11-25 16:34:21.156795
2022-11-25 16:34:21.189630
2022-11-25 16:34:21.189870
2022-11-25 16:34:21.190039
2022-11-25 16:34:21.190196
2022-11-25 16:34:21.223008
2022-11-25 16:34:21.223242
2022-11-25 16:34:21.223539
2022-11-25 16:34:21.256205
2022-11-25 16:34:21.256437
2022-11-25 16:34:21.256596
2022-11-25 16:34:21.256758
2022-11-25 16:34:21.289558
2022-11-25 16:34:21.289790
2022-11-25 16:34:21.289954
2022-11-25 16:34:21.322793
2022-11-25 16:34:21.323019
2022-11-25 16:34:21.323184
2022-11-25 16:34:21.323340
2022-11-25 16:34:21.356202
2022-11-25 16:34:21.356449
2022-11-25 16:34:21.356621
2022-11-25 16:34:21.389395
2022-11-25 16:34:21.389668
2022-11-25 16:34:21.389836
2022-11-25 16:34:21.389992
2022-11-25 16:34:21.422753
2022-11-25 16:34:21.422988
2022-11-25 16:34:21.423156
2022-11-25 16:34:21.423315
2022-11-25 16:34:21.456106
2022-11-25 16:34:21.456364
2022-11-25 16:34:21.456531
2022-11-25 16:34:21.489278
2022-11-25 16:34:21.489423
2022-11-25 16:34:21.489510
2022-11-25 16:34:21.489597
2022-11-25 16:34:21.522644
2022-11-25 16:34:21.522793
2022-11-25 16:34:21.522878
2022-11-25 16:34:21.555941
2022-11-25 16:34:21.556204
2022-11-25 16:34:21.556378
2022-11-25 16:34:21.556533
2022-11-25 16:34:21.589134
2022-11-25 16:34:21.589275
2022-11-25 16:34:21.589359
2022-11-25 16:34:21.622541
2022-11-25 16:34:21.622807
2022-11-25 16:34:21.622981
2022-11-25 16:34:21.623138
2022-11-25 16:34:21.655876
2022-11-25 16:34:21.656122
2022-11-25 16:34:21.656291
2022-11-25 16:34:21.689106
2022-11-25 16:34:21.689324
2022-11-25 16:34:21.689452
2022-11-25 16:34:21.689569
2022-11-25 16:34:21.722499
2022-11-25 16:34:21.722754
2022-11-25 16:34:21.722928
2022-11-25 16:34:21.723093
2022-11-25 16:34:21.755834
2022-11-25 16:34:21.756083
2022-11-25 16:34:21.756256
2022-11-25 16:34:21.789052
2022-11-25 16:34:21.789297
2022-11-25 16:34:21.789471
2022-11-25 16:34:21.789628
2022-11-25 16:34:21.822415
2022-11-25 16:34:21.822650
2022-11-25 16:34:21.822821
2022-11-25 16:34:21.855585
2022-11-25 16:34:21.855797
2022-11-25 16:34:21.855920
2022-11-25 16:34:21.856037
2022-11-25 16:34:21.889021
2022-11-25 16:34:21.889275
2022-11-25 16:34:21.889443
2022-11-25 16:34:21.922201
2022-11-25 16:34:21.922477
2022-11-25 16:34:21.922647
2022-11-25 16:34:21.922805
2022-11-25 16:34:21.955518
2022-11-25 16:34:21.955680
2022-11-25 16:34:21.955773
2022-11-25 16:34:21.988817
2022-11-25 16:34:21.989048
2022-11-25 16:34:21.989172
2022-11-25 16:34:21.989292
2022-11-25 16:34:22.022080
2022-11-25 16:34:22.022285
2022-11-25 16:34:22.022415
2022-11-25 16:34:22.022533
2022-11-25 16:34:22.055549
2022-11-25 16:34:22.055803
2022-11-25 16:34:22.055969
2022-11-25 16:34:22.088643
2022-11-25 16:34:22.088807
2022-11-25 16:34:22.088899
2022-11-25 16:34:22.088983
2022-11-25 16:34:22.122040
2022-11-25 16:34:22.122212
2022-11-25 16:34:22.122308
2022-11-25 16:34:22.155213
2022-11-25 16:34:22.155354
2022-11-25 16:34:22.155424
2022-11-25 16:34:22.155489
2022-11-25 16:34:22.188722
2022-11-25 16:34:22.188978
2022-11-25 16:34:22.189156
2022-11-25 16:34:22.221949
2022-11-25 16:34:22.222206
2022-11-25 16:34:22.222378
2022-11-25 16:34:22.222543
2022-11-25 16:34:22.255284
2022-11-25 16:34:22.255474
2022-11-25 16:34:22.255593
2022-11-25 16:34:22.288486
2022-11-25 16:34:22.288759
2022-11-25 16:34:22.288934
2022-11-25 16:34:22.289105
2022-11-25 16:34:22.321902
2022-11-25 16:34:22.322167
2022-11-25 16:34:22.322335
2022-11-25 16:34:22.322496
2022-11-25 16:34:22.355207
2022-11-25 16:34:22.355393
2022-11-25 16:34:22.355509
2022-11-25 16:34:22.388460
2022-11-25 16:34:22.388670
2022-11-25 16:34:22.388796
2022-11-25 16:34:22.388913
2022-11-25 16:34:22.421857
2022-11-25 16:34:22.422122
2022-11-25 16:34:22.422302
2022-11-25 16:34:22.455060
2022-11-25 16:34:22.455332
2022-11-25 16:34:22.455502
2022-11-25 16:34:22.455662
2022-11-25 16:34:22.488380
2022-11-25 16:34:22.488585
2022-11-25 16:34:22.488716
2022-11-25 16:34:22.521658
2022-11-25 16:34:22.521869
2022-11-25 16:34:22.521999
2022-11-25 16:34:22.522119
2022-11-25 16:34:22.554971
2022-11-25 16:34:22.555143
2022-11-25 16:34:22.555233
2022-11-25 16:34:22.588113
2022-11-25 16:34:22.588288
2022-11-25 16:34:22.588379
2022-11-25 16:34:22.588465
2022-11-25 16:34:22.621617
2022-11-25 16:34:22.621878
2022-11-25 16:34:22.622069
2022-11-25 16:34:22.622227
2022-11-25 16:34:22.654971
2022-11-25 16:34:22.655226
2022-11-25 16:34:22.655398
2022-11-25 16:34:22.688179
2022-11-25 16:34:22.688434
2022-11-25 16:34:22.688607
2022-11-25 16:34:22.688774
2022-11-25 16:34:22.721523
2022-11-25 16:34:22.721769
2022-11-25 16:34:22.721942
2022-11-25 16:34:22.754778
2022-11-25 16:34:22.755032
2022-11-25 16:34:22.755203
2022-11-25 16:34:22.755366
2022-11-25 16:34:22.788134
2022-11-25 16:34:22.788396
2022-11-25 16:34:22.788567
2022-11-25 16:34:22.821345
2022-11-25 16:34:22.821504
2022-11-25 16:34:22.821597
2022-11-25 16:34:22.821680
2022-11-25 16:34:22.854733
2022-11-25 16:34:22.854985
2022-11-25 16:34:22.855162
2022-11-25 16:34:22.887937
2022-11-25 16:34:22.888233
2022-11-25 16:34:22.888409
2022-11-25 16:34:22.888577
2022-11-25 16:34:22.921256
2022-11-25 16:34:22.921456
2022-11-25 16:34:22.921579
2022-11-25 16:34:22.921693
2022-11-25 16:34:22.954585
2022-11-25 16:34:22.954841
2022-11-25 16:34:22.955012
2022-11-25 16:34:22.987930
2022-11-25 16:34:22.988190
2022-11-25 16:34:22.988361
2022-11-25 16:34:22.988525
2022-11-25 16:34:23.021210
2022-11-25 16:34:23.021415
2022-11-25 16:34:23.021537
2022-11-25 16:34:23.054416
2022-11-25 16:34:23.054673
2022-11-25 16:34:23.054839
2022-11-25 16:34:23.054996
2022-11-25 16:34:23.087670
2022-11-25 16:34:23.087823
2022-11-25 16:34:23.087914
2022-11-25 16:34:23.121108
2022-11-25 16:34:23.121381
2022-11-25 16:34:23.121555
2022-11-25 16:34:23.121718
2022-11-25 16:34:23.154462
2022-11-25 16:34:23.154616
2022-11-25 16:34:23.154703
2022-11-25 16:34:23.187667
2022-11-25 16:34:23.187938
2022-11-25 16:34:23.188133
2022-11-25 16:34:23.188290
2022-11-25 16:34:23.220980
2022-11-25 16:34:23.221189
2022-11-25 16:34:23.221313
2022-11-25 16:34:23.221429
2022-11-25 16:34:23.254375
2022-11-25 16:34:23.254633
2022-11-25 16:34:23.254802
2022-11-25 16:34:23.287596
2022-11-25 16:34:23.287799
2022-11-25 16:34:23.287923
2022-11-25 16:34:23.288034
2022-11-25 16:34:23.320907
2022-11-25 16:34:23.321120
2022-11-25 16:34:23.321245
2022-11-25 16:34:23.354039
2022-11-25 16:34:23.354196
2022-11-25 16:34:23.354454
2022-11-25 16:34:23.354564
2022-11-25 16:34:23.387380
2022-11-25 16:34:23.387504
2022-11-25 16:34:23.387576
2022-11-25 16:34:23.420604
2022-11-25 16:34:23.420733
2022-11-25 16:34:23.420794
2022-11-25 16:34:23.420861
2022-11-25 16:34:23.453958
2022-11-25 16:34:23.454094
2022-11-25 16:34:23.454169
2022-11-25 16:34:23.487403
2022-11-25 16:34:23.487698
2022-11-25 16:34:23.487871
2022-11-25 16:34:23.488025
2022-11-25 16:34:23.520718
2022-11-25 16:34:23.520989
2022-11-25 16:34:23.521162
2022-11-25 16:34:23.521323
2022-11-25 16:34:23.553957
2022-11-25 16:34:23.554114
2022-11-25 16:34:23.554205
2022-11-25 16:34:23.587152
2022-11-25 16:34:23.587312
2022-11-25 16:34:23.587403
2022-11-25 16:34:23.587485
2022-11-25 16:34:23.620623
2022-11-25 16:34:23.620833
2022-11-25 16:34:23.620963
2022-11-25 16:34:23.653838
2022-11-25 16:34:23.654034
2022-11-25 16:34:23.654155
2022-11-25 16:34:23.654272
2022-11-25 16:34:23.687179
2022-11-25 16:34:23.687368
2022-11-25 16:34:23.687491
2022-11-25 16:34:23.720443
2022-11-25 16:34:23.720702
2022-11-25 16:34:23.720873
2022-11-25 16:34:23.721029
2022-11-25 16:34:23.753805
2022-11-25 16:34:23.754046
2022-11-25 16:34:23.754221
2022-11-25 16:34:23.787002
2022-11-25 16:34:23.787260
2022-11-25 16:34:23.787428
2022-11-25 16:34:23.787582
2022-11-25 16:34:23.820420
2022-11-25 16:34:23.820605
2022-11-25 16:34:23.820722
2022-11-25 16:34:23.820830
2022-11-25 16:34:23.853723
2022-11-25 16:34:23.853924
2022-11-25 16:34:23.854056
2022-11-25 16:34:23.886969
2022-11-25 16:34:23.887223
2022-11-25 16:34:23.887388
2022-11-25 16:34:23.887547
2022-11-25 16:34:23.920317
2022-11-25 16:34:23.920511
2022-11-25 16:34:23.920635
2022-11-25 16:34:23.953566
2022-11-25 16:34:23.953822
2022-11-25 16:34:23.954009
2022-11-25 16:34:23.954168
2022-11-25 16:34:23.986894
2022-11-25 16:34:23.987085
2022-11-25 16:34:23.987209
2022-11-25 16:34:24.020140
2022-11-25 16:34:24.020408
2022-11-25 16:34:24.020569
2022-11-25 16:34:24.020661
2022-11-25 16:34:24.053535
2022-11-25 16:34:24.053785
2022-11-25 16:34:24.053950
2022-11-25 16:34:24.086737
2022-11-25 16:34:24.087013
2022-11-25 16:34:24.087184
2022-11-25 16:34:24.087511
2022-11-25 16:34:24.120015
2022-11-25 16:34:24.120100
2022-11-25 16:34:24.120163
2022-11-25 16:34:24.120229
2022-11-25 16:34:24.153301
2022-11-25 16:34:24.153443
2022-11-25 16:34:24.153534
2022-11-25 16:34:24.186680
2022-11-25 16:34:24.186876
2022-11-25 16:34:24.187002
2022-11-25 16:34:24.187112
2022-11-25 16:34:24.220016
2022-11-25 16:34:24.220205
2022-11-25 16:34:24.220325
2022-11-25 16:34:24.253286
2022-11-25 16:34:24.253536
2022-11-25 16:34:24.253706
2022-11-25 16:34:24.253870
2022-11-25 16:34:24.286663
2022-11-25 16:34:24.286918
2022-11-25 16:34:24.287086
2022-11-25 16:34:24.319881
2022-11-25 16:34:24.320134
2022-11-25 16:34:24.320302
2022-11-25 16:34:24.320458
2022-11-25 16:34:24.353179
2022-11-25 16:34:24.353334
2022-11-25 16:34:24.353421
2022-11-25 16:34:24.386415
2022-11-25 16:34:24.386675
2022-11-25 16:34:24.386857
2022-11-25 16:34:24.387015
2022-11-25 16:34:24.419786
2022-11-25 16:34:24.419979
2022-11-25 16:34:24.420098
2022-11-25 16:34:24.420218
2022-11-25 16:34:24.453110
2022-11-25 16:34:24.453303
2022-11-25 16:34:24.453428
2022-11-25 16:34:24.486400
2022-11-25 16:34:24.486602
2022-11-25 16:34:24.486726
2022-11-25 16:34:24.486840
2022-11-25 16:34:24.519719
2022-11-25 16:34:24.519872
2022-11-25 16:34:24.519962
2022-11-25 16:34:24.552936
2022-11-25 16:34:24.553081
2022-11-25 16:34:24.553168
2022-11-25 16:34:24.553253
2022-11-25 16:34:24.586365
2022-11-25 16:34:24.586612
2022-11-25 16:34:24.586779
2022-11-25 16:34:24.619545
2022-11-25 16:34:24.619707
2022-11-25 16:34:24.619805
2022-11-25 16:34:24.619887
2022-11-25 16:34:24.652944
2022-11-25 16:34:24.653204
2022-11-25 16:34:24.653383
2022-11-25 16:34:24.686113
2022-11-25 16:34:24.686287
2022-11-25 16:34:24.686385
2022-11-25 16:34:24.686475
2022-11-25 16:34:24.719517
2022-11-25 16:34:24.719757
2022-11-25 16:34:24.719924
2022-11-25 16:34:24.720082
2022-11-25 16:34:24.752881
2022-11-25 16:34:24.753120
2022-11-25 16:34:24.753282
2022-11-25 16:34:24.786054
2022-11-25 16:34:24.786215
2022-11-25 16:34:24.786306
2022-11-25 16:34:24.786393
2022-11-25 16:34:24.819470
2022-11-25 16:34:24.819718
2022-11-25 16:34:24.819884
2022-11-25 16:34:24.852706
2022-11-25 16:34:24.852949
2022-11-25 16:34:24.853190
2022-11-25 16:34:24.853391
2022-11-25 16:34:24.885987
2022-11-25 16:34:24.886145
2022-11-25 16:34:24.886234
2022-11-25 16:34:24.919277
2022-11-25 16:34:24.919508
2022-11-25 16:34:24.919674
2022-11-25 16:34:24.919831
2022-11-25 16:34:24.952653
2022-11-25 16:34:24.952912
2022-11-25 16:34:24.953079
2022-11-25 16:34:24.985860
2022-11-25 16:34:24.986085
2022-11-25 16:34:24.986214
2022-11-25 16:34:24.986335
2022-11-25 16:34:25.019204
2022-11-25 16:34:25.019355
2022-11-25 16:34:25.019451
2022-11-25 16:34:25.019534
2022-11-25 16:34:25.052507
2022-11-25 16:34:25.052662
2022-11-25 16:34:25.052747
2022-11-25 16:34:25.085833
2022-11-25 16:34:25.086086
2022-11-25 16:34:25.086250
2022-11-25 16:34:25.086412
2022-11-25 16:34:25.119115
2022-11-25 16:34:25.119253
2022-11-25 16:34:25.119362
2022-11-25 16:34:25.152412
2022-11-25 16:34:25.152664
2022-11-25 16:34:25.152829
2022-11-25 16:34:25.152987
2022-11-25 16:34:25.185763
2022-11-25 16:34:25.186016
2022-11-25 16:34:25.186185
2022-11-25 16:34:25.218973
2022-11-25 16:34:25.219167
2022-11-25 16:34:25.219294
2022-11-25 16:34:25.219416
2022-11-25 16:34:25.252312
2022-11-25 16:34:25.252506
2022-11-25 16:34:25.252634
2022-11-25 16:34:25.285567
2022-11-25 16:34:25.285837
2022-11-25 16:34:25.286016
2022-11-25 16:34:25.286179
2022-11-25 16:34:25.318958
2022-11-25 16:34:25.319211
2022-11-25 16:34:25.319392
2022-11-25 16:34:25.319551
2022-11-25 16:34:25.352234
2022-11-25 16:34:25.352398
2022-11-25 16:34:25.352494
2022-11-25 16:34:25.385528
2022-11-25 16:34:25.385695
2022-11-25 16:34:25.385786
2022-11-25 16:34:25.385876
2022-11-25 16:34:25.418896
2022-11-25 16:34:25.419142
2022-11-25 16:34:25.419323
2022-11-25 16:34:25.452109
2022-11-25 16:34:25.452360
2022-11-25 16:34:25.452529
2022-11-25 16:34:25.452702
2022-11-25 16:34:25.485498
2022-11-25 16:34:25.485863
2022-11-25 16:34:25.486045
2022-11-25 16:34:25.518718
2022-11-25 16:34:25.518967
2022-11-25 16:34:25.519138
2022-11-25 16:34:25.519306
2022-11-25 16:34:25.552067
2022-11-25 16:34:25.552315
2022-11-25 16:34:25.552491
2022-11-25 16:34:25.585264
2022-11-25 16:34:25.585546
2022-11-25 16:34:25.585719
2022-11-25 16:34:25.585878
2022-11-25 16:34:25.618556
2022-11-25 16:34:25.618673
2022-11-25 16:34:25.618745
2022-11-25 16:34:25.618810
2022-11-25 16:34:25.651930
2022-11-25 16:34:25.652100
2022-11-25 16:34:25.652193
2022-11-25 16:34:25.685223
2022-11-25 16:34:25.685392
2022-11-25 16:34:25.685483
2022-11-25 16:34:25.685568
2022-11-25 16:34:25.718560
2022-11-25 16:34:25.718817
2022-11-25 16:34:25.718984
2022-11-25 16:34:25.751825
2022-11-25 16:34:25.752023
2022-11-25 16:34:25.752144
2022-11-25 16:34:25.752258
2022-11-25 16:34:25.785198
2022-11-25 16:34:25.785448
2022-11-25 16:34:25.785630
2022-11-25 16:34:25.818426
2022-11-25 16:34:25.818679
2022-11-25 16:34:25.818846
2022-11-25 16:34:25.819011
2022-11-25 16:34:25.851735
2022-11-25 16:34:25.851890
2022-11-25 16:34:25.851983
2022-11-25 16:34:25.884992
2022-11-25 16:34:25.885208
2022-11-25 16:34:25.885332
2022-11-25 16:34:25.885445
2022-11-25 16:34:25.918426
2022-11-25 16:34:25.918678
2022-11-25 16:34:25.918852
2022-11-25 16:34:25.919008
2022-11-25 16:34:25.951685
2022-11-25 16:34:25.951877
2022-11-25 16:34:25.952002
2022-11-25 16:34:25.984966
2022-11-25 16:34:25.985216
2022-11-25 16:34:25.985381
2022-11-25 16:34:25.985545
2022-11-25 16:34:26.018338
2022-11-25 16:34:26.018685
2022-11-25 16:34:26.018862
2022-11-25 16:34:26.051534
2022-11-25 16:34:26.051732
2022-11-25 16:34:26.051850
2022-11-25 16:34:26.051964
2022-11-25 16:34:26.084847
2022-11-25 16:34:26.085022
2022-11-25 16:34:26.085111
2022-11-25 16:34:26.118122
2022-11-25 16:34:26.118381
2022-11-25 16:34:26.118552
2022-11-25 16:34:26.118712
2022-11-25 16:34:26.151461
2022-11-25 16:34:26.151654
2022-11-25 16:34:26.151780
2022-11-25 16:34:26.184708
2022-11-25 16:34:26.184886
2022-11-25 16:34:26.184977
2022-11-25 16:34:26.185068
2022-11-25 16:34:26.218042
2022-11-25 16:34:26.218195
2022-11-25 16:34:26.218284
2022-11-25 16:34:26.218367
2022-11-25 16:34:26.251497
2022-11-25 16:34:26.251745
2022-11-25 16:34:26.251912
2022-11-25 16:34:26.284675
2022-11-25 16:34:26.284935
2022-11-25 16:34:26.285112
2022-11-25 16:34:26.285271
2022-11-25 16:34:26.318002
2022-11-25 16:34:26.318233
2022-11-25 16:34:26.318391
2022-11-25 16:34:26.351258
2022-11-25 16:34:26.351518
2022-11-25 16:34:26.351694
2022-11-25 16:34:26.351853
2022-11-25 16:34:26.384583
2022-11-25 16:34:26.384777
2022-11-25 16:34:26.384900
2022-11-25 16:34:26.417803
2022-11-25 16:34:26.417963
2022-11-25 16:34:26.418051
2022-11-25 16:34:26.418132
2022-11-25 16:34:26.451217
2022-11-25 16:34:26.451477
2022-11-25 16:34:26.451649
2022-11-25 16:34:26.484369
2022-11-25 16:34:26.484577
2022-11-25 16:34:26.484701
2022-11-25 16:34:26.484817
2022-11-25 16:34:26.517757
2022-11-25 16:34:26.517920
2022-11-25 16:34:26.518010
2022-11-25 16:34:26.518097
2022-11-25 16:34:26.551079
2022-11-25 16:34:26.551237
2022-11-25 16:34:26.551335
2022-11-25 16:34:26.584379
2022-11-25 16:34:26.584621
2022-11-25 16:34:26.584787
2022-11-25 16:34:26.584943
2022-11-25 16:34:26.617655
2022-11-25 16:34:26.617813
2022-11-25 16:34:26.617902
2022-11-25 16:34:26.650948
2022-11-25 16:34:26.651146
2022-11-25 16:34:26.651274
2022-11-25 16:34:26.651389
2022-11-25 16:34:26.684211
2022-11-25 16:34:26.684376
2022-11-25 16:34:26.684467
