2022-11-25 16:33:45.091266, 1.72043
2022-11-25 16:33:45.091528, 1.71554
2022-11-25 16:33:45.091697, 1.72532
2022-11-25 16:33:45.124450, 1.72043
2022-11-25 16:33:45.124628, 1.72532
2022-11-25 16:33:45.124725, 1.72043
2022-11-25 16:33:45.124807, 1.72532
2022-11-25 16:33:45.157782, 1.73509
2022-11-25 16:33:45.157981, 1.72532
2022-11-25 16:33:45.158102, 1.72532
2022-11-25 16:33:45.158219, 1.73021
2022-11-25 16:33:45.191145, 1.72043
2022-11-25 16:33:45.191338, 1.71554
2022-11-25 16:33:45.191463, 1.73998
2022-11-25 16:33:45.224433, 1.70577
2022-11-25 16:33:45.224639, 1.70577
2022-11-25 16:33:45.224766, 1.71554
2022-11-25 16:33:45.224879, 1.70088
2022-11-25 16:33:45.257696, 1.69599
2022-11-25 16:33:45.257853, 1.69110
2022-11-25 16:33:45.257948, 1.69599
2022-11-25 16:33:45.290989, 1.68622
2022-11-25 16:33:45.291153, 1.68622
2022-11-25 16:33:45.291244, 1.71554
2022-11-25 16:33:45.291336, 1.68133
2022-11-25 16:33:45.324366, 1.68133
2022-11-25 16:33:45.324605, 1.71065
2022-11-25 16:33:45.324767, 1.68622
2022-11-25 16:33:45.357611, 1.67644
2022-11-25 16:33:45.357873, 1.67644
2022-11-25 16:33:45.358045, 1.68133
2022-11-25 16:33:45.358206, 1.67155
2022-11-25 16:33:45.390886, 1.67644
2022-11-25 16:33:45.391089, 1.67644
2022-11-25 16:33:45.391209, 1.71554
2022-11-25 16:33:45.424169, 1.67155
2022-11-25 16:33:45.424370, 1.67155
2022-11-25 16:33:45.424490, 1.66667
2022-11-25 16:33:45.424599, 1.66178
2022-11-25 16:33:45.457538, 1.66178
2022-11-25 16:33:45.457738, 1.66667
2022-11-25 16:33:45.457865, 1.67155
2022-11-25 16:33:45.457979, 1.66178
2022-11-25 16:33:45.490866, 1.65689
2022-11-25 16:33:45.491125, 1.66178
2022-11-25 16:33:45.491299, 1.67155
2022-11-25 16:33:45.524124, 1.65200
2022-11-25 16:33:45.524370, 1.65689
2022-11-25 16:33:45.524531, 1.65200
2022-11-25 16:33:45.524686, 1.68622
2022-11-25 16:33:45.557433, 1.65689
2022-11-25 16:33:45.557591, 1.65200
2022-11-25 16:33:45.557677, 1.66667
2022-11-25 16:33:45.590714, 1.67644
2022-11-25 16:33:45.590979, 1.70088
2022-11-25 16:33:45.591149, 1.71065
2022-11-25 16:33:45.591310, 1.73509
2022-11-25 16:33:45.624074, 1.75953
2022-11-25 16:33:45.624331, 1.76442
2022-11-25 16:33:45.624503, 1.78397
2022-11-25 16:33:45.657318, 1.78397
2022-11-25 16:33:45.657584, 1.78886
2022-11-25 16:33:45.657753, 1.78397
2022-11-25 16:33:45.657914, 1.80841
2022-11-25 16:33:45.690617, 1.77419
2022-11-25 16:33:45.690801, 1.76931
2022-11-25 16:33:45.690888, 1.76931
2022-11-25 16:33:45.723864, 1.76931
2022-11-25 16:33:45.724027, 1.76931
2022-11-25 16:33:45.724113, 1.80352
2022-11-25 16:33:45.724203, 1.76931
2022-11-25 16:33:45.757311, 1.76442
2022-11-25 16:33:45.757572, 1.79863
2022-11-25 16:33:45.757744, 1.77419
2022-11-25 16:33:45.757905, 1.77419
2022-11-25 16:33:45.790500, 1.77908
2022-11-25 16:33:45.790654, 1.79863
2022-11-25 16:33:45.790746, 1.76931
2022-11-25 16:33:45.823842, 1.76931
2022-11-25 16:33:45.824095, 1.77419
2022-11-25 16:33:45.824265, 1.75953
2022-11-25 16:33:45.824423, 1.75464
2022-11-25 16:33:45.857164, 1.74976
2022-11-25 16:33:45.857395, 1.76931
2022-11-25 16:33:45.857557, 1.75464
2022-11-25 16:33:45.890374, 1.75464
2022-11-25 16:33:45.890519, 1.75464
2022-11-25 16:33:45.890609, 1.75464
2022-11-25 16:33:45.890696, 1.75464
2022-11-25 16:33:45.923777, 1.75464
2022-11-25 16:33:45.924035, 1.76931
2022-11-25 16:33:45.924206, 1.75464
2022-11-25 16:33:45.956951, 1.75464
2022-11-25 16:33:45.957118, 1.75464
2022-11-25 16:33:45.957208, 1.74976
2022-11-25 16:33:45.957296, 1.74487
2022-11-25 16:33:45.990356, 1.74976
2022-11-25 16:33:45.990550, 1.73998
2022-11-25 16:33:45.990666, 1.73509
2022-11-25 16:33:46.023519, 1.73509
2022-11-25 16:33:46.023736, 1.73509
2022-11-25 16:33:46.023862, 1.72043
2022-11-25 16:33:46.023974, 1.71554
2022-11-25 16:33:46.056930, 1.75464
2022-11-25 16:33:46.057092, 1.71554
2022-11-25 16:33:46.057188, 1.71065
2022-11-25 16:33:46.057277, 1.71554
2022-11-25 16:33:46.090332, 1.73509
2022-11-25 16:33:46.090580, 1.70577
2022-11-25 16:33:46.090751, 1.70577
2022-11-25 16:33:46.123542, 1.72043
2022-11-25 16:33:46.123741, 1.70577
2022-11-25 16:33:46.123868, 1.69599
2022-11-25 16:33:46.123986, 1.69599
2022-11-25 16:33:46.156888, 1.72532
2022-11-25 16:33:46.157092, 1.69599
2022-11-25 16:33:46.157213, 1.69599
2022-11-25 16:33:46.190113, 1.69110
2022-11-25 16:33:46.190269, 1.73021
2022-11-25 16:33:46.190359, 1.69110
2022-11-25 16:33:46.190449, 1.69110
2022-11-25 16:33:46.223514, 1.68622
2022-11-25 16:33:46.223698, 1.69110
2022-11-25 16:33:46.223815, 1.68133
2022-11-25 16:33:46.256715, 1.67644
2022-11-25 16:33:46.256894, 1.68133
2022-11-25 16:33:46.257007, 1.67644
2022-11-25 16:33:46.257118, 1.68133
2022-11-25 16:33:46.290063, 1.67644
2022-11-25 16:33:46.290274, 1.67155
2022-11-25 16:33:46.290396, 1.67155
2022-11-25 16:33:46.323288, 1.67644
2022-11-25 16:33:46.323512, 1.66667
2022-11-25 16:33:46.323643, 1.66667
2022-11-25 16:33:46.323757, 1.66667
2022-11-25 16:33:46.356681, 1.66667
2022-11-25 16:33:46.356927, 1.70088
2022-11-25 16:33:46.357095, 1.67644
2022-11-25 16:33:46.357256, 1.68133
2022-11-25 16:33:46.389967, 1.69599
2022-11-25 16:33:46.390148, 1.70577
2022-11-25 16:33:46.390270, 1.73021
2022-11-25 16:33:46.423213, 1.75464
2022-11-25 16:33:46.423374, 1.76931
2022-11-25 16:33:46.423462, 1.78886
2022-11-25 16:33:46.423549, 1.79863
2022-11-25 16:33:46.456553, 1.80352
2022-11-25 16:33:46.456742, 1.80352
2022-11-25 16:33:46.456860, 1.80841
2022-11-25 16:33:46.489848, 1.79863
2022-11-25 16:33:46.490048, 1.79863
2022-11-25 16:33:46.490167, 1.81818
2022-11-25 16:33:46.490283, 1.79374
2022-11-25 16:33:46.523182, 1.79863
2022-11-25 16:33:46.523382, 1.78886
2022-11-25 16:33:46.523510, 1.80352
2022-11-25 16:33:46.556383, 1.80841
2022-11-25 16:33:46.556467, 1.79863
2022-11-25 16:33:46.556531, 1.79863
2022-11-25 16:33:46.556592, 1.80841
2022-11-25 16:33:46.589704, 1.80352
2022-11-25 16:33:46.589832, 1.80352
2022-11-25 16:33:46.589911, 1.80841
2022-11-25 16:33:46.622973, 1.81329
2022-11-25 16:33:46.623190, 1.79863
2022-11-25 16:33:46.623315, 1.79374
2022-11-25 16:33:46.623434, 1.79863
2022-11-25 16:33:46.656318, 1.78397
2022-11-25 16:33:46.656504, 1.77908
2022-11-25 16:33:46.656622, 1.77419
2022-11-25 16:33:46.656736, 1.76931
2022-11-25 16:33:46.689657, 1.76931
2022-11-25 16:33:46.689813, 1.76442
2022-11-25 16:33:46.689911, 1.77419
2022-11-25 16:33:46.722926, 1.76442
2022-11-25 16:33:46.723125, 1.76442
2022-11-25 16:33:46.723252, 1.76931
2022-11-25 16:33:46.723367, 1.76931
2022-11-25 16:33:46.756265, 1.77419
2022-11-25 16:33:46.756447, 1.76442
2022-11-25 16:33:46.756563, 1.77419
2022-11-25 16:33:46.789508, 1.75953
2022-11-25 16:33:46.789660, 1.75464
2022-11-25 16:33:46.789748, 1.74976
2022-11-25 16:33:46.789842, 1.75464
2022-11-25 16:33:46.822919, 1.73998
2022-11-25 16:33:46.823176, 1.73509
2022-11-25 16:33:46.823344, 1.76442
2022-11-25 16:33:46.856095, 1.73021
2022-11-25 16:33:46.856281, 1.72532
2022-11-25 16:33:46.856397, 1.72532
2022-11-25 16:33:46.856510, 1.73021
2022-11-25 16:33:46.889530, 1.72532
2022-11-25 16:33:46.889720, 1.71554
2022-11-25 16:33:46.889842, 1.71554
2022-11-25 16:33:46.922722, 1.72532
2022-11-25 16:33:46.922995, 1.70577
2022-11-25 16:33:46.923168, 1.71065
2022-11-25 16:33:46.923332, 1.71065
2022-11-25 16:33:46.956038, 1.73021
2022-11-25 16:33:46.956234, 1.70577
2022-11-25 16:33:46.956357, 1.70088
2022-11-25 16:33:46.956470, 1.70088
2022-11-25 16:33:46.989462, 1.70088
2022-11-25 16:33:46.989703, 1.70577
2022-11-25 16:33:46.989866, 1.69599
2022-11-25 16:33:47.022606, 1.69599
2022-11-25 16:33:47.022802, 1.69599
2022-11-25 16:33:47.022927, 1.72532
2022-11-25 16:33:47.023044, 1.69599
2022-11-25 16:33:47.055928, 1.68622
2022-11-25 16:33:47.056010, 1.67644
2022-11-25 16:33:47.056070, 1.68133
2022-11-25 16:33:47.089127, 1.67644
2022-11-25 16:33:47.089268, 1.68133
2022-11-25 16:33:47.089357, 1.66667
2022-11-25 16:33:47.089442, 1.67155
2022-11-25 16:33:47.122540, 1.66667
2022-11-25 16:33:47.122734, 1.67644
2022-11-25 16:33:47.122852, 1.66178
2022-11-25 16:33:47.155780, 1.70577
2022-11-25 16:33:47.155980, 1.68133
2022-11-25 16:33:47.156102, 1.67155
2022-11-25 16:33:47.156221, 1.66667
2022-11-25 16:33:47.189076, 1.66178
2022-11-25 16:33:47.189225, 1.65689
2022-11-25 16:33:47.189312, 1.66178
2022-11-25 16:33:47.222338, 1.66667
2022-11-25 16:33:47.222712, 1.65689
2022-11-25 16:33:47.222812, 1.66667
2022-11-25 16:33:47.222897, 1.71554
2022-11-25 16:33:47.255769, 1.70577
2022-11-25 16:33:47.256010, 1.71065
2022-11-25 16:33:47.256173, 1.73021
2022-11-25 16:33:47.256332, 1.75464
2022-11-25 16:33:47.289000, 1.80352
2022-11-25 16:33:47.289149, 1.78397
2022-11-25 16:33:47.289237, 1.79863
2022-11-25 16:33:47.322377, 1.80841
2022-11-25 16:33:47.322614, 1.80352
2022-11-25 16:33:47.322780, 1.79863
2022-11-25 16:33:47.322936, 1.79863
2022-11-25 16:33:47.355645, 1.79374
2022-11-25 16:33:47.355829, 1.79374
2022-11-25 16:33:47.355945, 1.79374
2022-11-25 16:33:47.388846, 1.79374
2022-11-25 16:33:47.388996, 1.79374
2022-11-25 16:33:47.389087, 1.79863
2022-11-25 16:33:47.389170, 1.83773
2022-11-25 16:33:47.422180, 1.80352
2022-11-25 16:33:47.422329, 1.81329
2022-11-25 16:33:47.422418, 1.81329
2022-11-25 16:33:47.455484, 1.81329
2022-11-25 16:33:47.455690, 1.81329
2022-11-25 16:33:47.455817, 1.81818
2022-11-25 16:33:47.455935, 1.81818
2022-11-25 16:33:47.488863, 1.81329
2022-11-25 16:33:47.489059, 1.81329
2022-11-25 16:33:47.489184, 1.80352
2022-11-25 16:33:47.522065, 1.80352
2022-11-25 16:33:47.522281, 1.80352
2022-11-25 16:33:47.522409, 1.83284
2022-11-25 16:33:47.522524, 1.79374
2022-11-25 16:33:47.555370, 1.78886
2022-11-25 16:33:47.555454, 1.80352
2022-11-25 16:33:47.555516, 1.82307
2022-11-25 16:33:47.555578, 1.79374
2022-11-25 16:33:47.588645, 1.79863
2022-11-25 16:33:47.588772, 1.79863
2022-11-25 16:33:47.588851, 1.80841
2022-11-25 16:33:47.622048, 1.80352
2022-11-25 16:33:47.622232, 1.79863
2022-11-25 16:33:47.622352, 1.78886
2022-11-25 16:33:47.622468, 1.78886
2022-11-25 16:33:47.655454, 1.77908
2022-11-25 16:33:47.655702, 1.80352
2022-11-25 16:33:47.655872, 1.76931
2022-11-25 16:33:47.688557, 1.77419
2022-11-25 16:33:47.688707, 1.76442
2022-11-25 16:33:47.688792, 1.74976
2022-11-25 16:33:47.688879, 1.74976
2022-11-25 16:33:47.721946, 1.73998
2022-11-25 16:33:47.722139, 1.74976
2022-11-25 16:33:47.722257, 1.73021
2022-11-25 16:33:47.755165, 1.72532
2022-11-25 16:33:47.755327, 1.72532
2022-11-25 16:33:47.755416, 1.72043
2022-11-25 16:33:47.755498, 1.72532
2022-11-25 16:33:47.788511, 1.72043
2022-11-25 16:33:47.788692, 1.71554
2022-11-25 16:33:47.788813, 1.71065
2022-11-25 16:33:47.821831, 1.70577
2022-11-25 16:33:47.822163, 1.70577
2022-11-25 16:33:47.822344, 1.71065
2022-11-25 16:33:47.822504, 1.70577
2022-11-25 16:33:47.855140, 1.70088
2022-11-25 16:33:47.855335, 1.70577
2022-11-25 16:33:47.855463, 1.70577
2022-11-25 16:33:47.855575, 1.70577
2022-11-25 16:33:47.888482, 1.74976
2022-11-25 16:33:47.888672, 1.72043
2022-11-25 16:33:47.888788, 1.71065
2022-11-25 16:33:47.921716, 1.70088
2022-11-25 16:33:47.921902, 1.70088
2022-11-25 16:33:47.922021, 1.69599
2022-11-25 16:33:47.922134, 1.69110
2022-11-25 16:33:47.955089, 1.69110
2022-11-25 16:33:47.955272, 1.72043
2022-11-25 16:33:47.955399, 1.71554
2022-11-25 16:33:47.988319, 1.68622
2022-11-25 16:33:47.988471, 1.68133
2022-11-25 16:33:47.988561, 1.67644
2022-11-25 16:33:47.988653, 1.67155
2022-11-25 16:33:48.021654, 1.66667
2022-11-25 16:33:48.021816, 1.66667
2022-11-25 16:33:48.021905, 1.66667
2022-11-25 16:33:48.054925, 1.68622
2022-11-25 16:33:48.055095, 1.67644
2022-11-25 16:33:48.055186, 1.69110
2022-11-25 16:33:48.055291, 1.71065
2022-11-25 16:33:48.088369, 1.73021
2022-11-25 16:33:48.088628, 1.74976
2022-11-25 16:33:48.088806, 1.76931
2022-11-25 16:33:48.121501, 1.77908
2022-11-25 16:33:48.121678, 1.79374
2022-11-25 16:33:48.121772, 1.83773
2022-11-25 16:33:48.121860, 1.84262
2022-11-25 16:33:48.154902, 1.80352
2022-11-25 16:33:48.155091, 1.80352
2022-11-25 16:33:48.155214, 1.80352
2022-11-25 16:33:48.155334, 1.80352
2022-11-25 16:33:48.188236, 1.79374
2022-11-25 16:33:48.188391, 1.79863
2022-11-25 16:33:48.188479, 1.79863
2022-11-25 16:33:48.221495, 1.79374
2022-11-25 16:33:48.221691, 1.79863
2022-11-25 16:33:48.221824, 1.82307
2022-11-25 16:33:48.221941, 1.80352
2022-11-25 16:33:48.254830, 1.80352
2022-11-25 16:33:48.255008, 1.81818
2022-11-25 16:33:48.255127, 1.80352
2022-11-25 16:33:48.288134, 1.80352
2022-11-25 16:33:48.288297, 1.79863
2022-11-25 16:33:48.288389, 1.78886
2022-11-25 16:33:48.288472, 1.78397
2022-11-25 16:33:48.321453, 1.77419
2022-11-25 16:33:48.321597, 1.77419
2022-11-25 16:33:48.321689, 1.76442
2022-11-25 16:33:48.354716, 1.76442
2022-11-25 16:33:48.354916, 1.76931
2022-11-25 16:33:48.355037, 1.75464
2022-11-25 16:33:48.355157, 1.75464
2022-11-25 16:33:48.388038, 1.74976
2022-11-25 16:33:48.388220, 1.75464
2022-11-25 16:33:48.388344, 1.74976
2022-11-25 16:33:48.421250, 1.74976
2022-11-25 16:33:48.421460, 1.75464
2022-11-25 16:33:48.421585, 1.74487
2022-11-25 16:33:48.421696, 1.74487
2022-11-25 16:33:48.454616, 1.74487
2022-11-25 16:33:48.454778, 1.74487
2022-11-25 16:33:48.454869, 1.73509
2022-11-25 16:33:48.454952, 1.73021
2022-11-25 16:33:48.487942, 1.73021
2022-11-25 16:33:48.488103, 1.72043
2022-11-25 16:33:48.488193, 1.71065
2022-11-25 16:33:48.521220, 1.71065
2022-11-25 16:33:48.521466, 1.71554
2022-11-25 16:33:48.521622, 1.69599
2022-11-25 16:33:48.521745, 1.70088
2022-11-25 16:33:48.554560, 1.69599
2022-11-25 16:33:48.554739, 1.72532
2022-11-25 16:33:48.554830, 1.69110
2022-11-25 16:33:48.587810, 1.68133
2022-11-25 16:33:48.588000, 1.68622
2022-11-25 16:33:48.588123, 1.68622
2022-11-25 16:33:48.588237, 1.68133
2022-11-25 16:33:48.621161, 1.68133
2022-11-25 16:33:48.621359, 1.68622
2022-11-25 16:33:48.621476, 1.68133
2022-11-25 16:33:48.654407, 1.68133
2022-11-25 16:33:48.654602, 1.72532
2022-11-25 16:33:48.654783, 1.71554
2022-11-25 16:33:48.654935, 1.70088
2022-11-25 16:33:48.687744, 1.69599
2022-11-25 16:33:48.687937, 1.68133
2022-11-25 16:33:48.688055, 1.68133
2022-11-25 16:33:48.720959, 1.68133
2022-11-25 16:33:48.721129, 1.67644
2022-11-25 16:33:48.721218, 1.68133
2022-11-25 16:33:48.721300, 1.68133
2022-11-25 16:33:48.754319, 1.71554
2022-11-25 16:33:48.754538, 1.68133
2022-11-25 16:33:48.754699, 1.67644
2022-11-25 16:33:48.754867, 1.67155
2022-11-25 16:33:48.787575, 1.67644
2022-11-25 16:33:48.787823, 1.67155
2022-11-25 16:33:48.787952, 1.68622
2022-11-25 16:33:48.820896, 1.67155
2022-11-25 16:33:48.821041, 1.66178
2022-11-25 16:33:48.821132, 1.65689
2022-11-25 16:33:48.821213, 1.65689
2022-11-25 16:33:48.854286, 1.65689
2022-11-25 16:33:48.854488, 1.66178
2022-11-25 16:33:48.854610, 1.69599
2022-11-25 16:33:48.887551, 1.67155
2022-11-25 16:33:48.887809, 1.68622
2022-11-25 16:33:48.887982, 1.70088
2022-11-25 16:33:48.888142, 1.72532
2022-11-25 16:33:48.920866, 1.76931
2022-11-25 16:33:48.921058, 1.75953
2022-11-25 16:33:48.921180, 1.76931
2022-11-25 16:33:48.954141, 1.77419
2022-11-25 16:33:48.954395, 1.76931
2022-11-25 16:33:48.954585, 1.77419
2022-11-25 16:33:48.954738, 1.76931
2022-11-25 16:33:48.987502, 1.79374
2022-11-25 16:33:48.987660, 1.75464
2022-11-25 16:33:48.987750, 1.73998
2022-11-25 16:33:49.020694, 1.77419
2022-11-25 16:33:49.020974, 1.72532
2022-11-25 16:33:49.021151, 1.72043
2022-11-25 16:33:49.021314, 1.73021
2022-11-25 16:33:49.054070, 1.69599
2022-11-25 16:33:49.054324, 1.71554
2022-11-25 16:33:49.054497, 1.67155
2022-11-25 16:33:49.054652, 1.67155
2022-11-25 16:33:49.087236, 1.67155
2022-11-25 16:33:49.087391, 1.67155
2022-11-25 16:33:49.087468, 1.66667
2022-11-25 16:33:49.120672, 1.67644
2022-11-25 16:33:49.120869, 1.67644
2022-11-25 16:33:49.120990, 1.66667
2022-11-25 16:33:49.121108, 1.66667
2022-11-25 16:33:49.154032, 1.66178
2022-11-25 16:33:49.154282, 1.65689
2022-11-25 16:33:49.154453, 1.64712
2022-11-25 16:33:49.187268, 1.64712
2022-11-25 16:33:49.187508, 1.64712
2022-11-25 16:33:49.187672, 1.67644
2022-11-25 16:33:49.187824, 1.67155
2022-11-25 16:33:49.220579, 1.66178
2022-11-25 16:33:49.220775, 1.67644
2022-11-25 16:33:49.220895, 1.69110
2022-11-25 16:33:49.253814, 1.70577
2022-11-25 16:33:49.254054, 1.69599
2022-11-25 16:33:49.254218, 1.70088
2022-11-25 16:33:49.254377, 1.69599
2022-11-25 16:33:49.287132, 1.71065
2022-11-25 16:33:49.287313, 1.70088
2022-11-25 16:33:49.287432, 1.69599
2022-11-25 16:33:49.320427, 1.69599
2022-11-25 16:33:49.320678, 1.73509
2022-11-25 16:33:49.320840, 1.70088
2022-11-25 16:33:49.320992, 1.70577
2022-11-25 16:33:49.353785, 1.72043
2022-11-25 16:33:49.354029, 1.70577
2022-11-25 16:33:49.354197, 1.70088
2022-11-25 16:33:49.354353, 1.72532
2022-11-25 16:33:49.387134, 1.68622
2022-11-25 16:33:49.387375, 1.68622
2022-11-25 16:33:49.387541, 1.69110
2022-11-25 16:33:49.420365, 1.68133
2022-11-25 16:33:49.420607, 1.67644
2022-11-25 16:33:49.420772, 1.68133
2022-11-25 16:33:49.420931, 1.69110
2022-11-25 16:33:49.453722, 1.68622
2022-11-25 16:33:49.453978, 1.68622
2022-11-25 16:33:49.454150, 1.68622
2022-11-25 16:33:49.486949, 1.68622
2022-11-25 16:33:49.487202, 1.67644
2022-11-25 16:33:49.487382, 1.67155
2022-11-25 16:33:49.487549, 1.67155
2022-11-25 16:33:49.520280, 1.65200
2022-11-25 16:33:49.520485, 1.64712
2022-11-25 16:33:49.520607, 1.66667
2022-11-25 16:33:49.553546, 1.63245
2022-11-25 16:33:49.553788, 1.63734
2022-11-25 16:33:49.553958, 1.62757
2022-11-25 16:33:49.554112, 1.65200
2022-11-25 16:33:49.586890, 1.63245
2022-11-25 16:33:49.587120, 1.63734
2022-11-25 16:33:49.587283, 1.63734
2022-11-25 16:33:49.620105, 1.64223
2022-11-25 16:33:49.620360, 1.65200
2022-11-25 16:33:49.620540, 1.65200
2022-11-25 16:33:49.620704, 1.65200
2022-11-25 16:33:49.653505, 1.65200
2022-11-25 16:33:49.653669, 1.65689
2022-11-25 16:33:49.653761, 1.65200
2022-11-25 16:33:49.653846, 1.67155
2022-11-25 16:33:49.686847, 1.66178
2022-11-25 16:33:49.687089, 1.66178
2022-11-25 16:33:49.687260, 1.66178
2022-11-25 16:33:49.720079, 1.66667
2022-11-25 16:33:49.720326, 1.66178
2022-11-25 16:33:49.720491, 1.66178
2022-11-25 16:33:49.720659, 1.66667
2022-11-25 16:33:49.753423, 1.65200
2022-11-25 16:33:49.753664, 1.65200
2022-11-25 16:33:49.753831, 1.68622
2022-11-25 16:33:49.786636, 1.66178
2022-11-25 16:33:49.786864, 1.65689
2022-11-25 16:33:49.787025, 1.66667
2022-11-25 16:33:49.787180, 1.68133
2022-11-25 16:33:49.819952, 1.68133
2022-11-25 16:33:49.820202, 1.68622
2022-11-25 16:33:49.820374, 1.69110
2022-11-25 16:33:49.853240, 1.70577
2022-11-25 16:33:49.853480, 1.70577
2022-11-25 16:33:49.853646, 1.70577
2022-11-25 16:33:49.853807, 1.70577
2022-11-25 16:33:49.886598, 1.70577
2022-11-25 16:33:49.886846, 1.72532
2022-11-25 16:33:49.887014, 1.73021
2022-11-25 16:33:49.919781, 1.73998
2022-11-25 16:33:49.920056, 1.74976
2022-11-25 16:33:49.920224, 1.78886
2022-11-25 16:33:49.920379, 1.76931
2022-11-25 16:33:49.953212, 1.77908
2022-11-25 16:33:49.953466, 1.83284
2022-11-25 16:33:49.953647, 1.81329
2022-11-25 16:33:49.953806, 1.82796
2022-11-25 16:33:49.986539, 1.83773
2022-11-25 16:33:49.986784, 1.84262
2022-11-25 16:33:49.986948, 1.85239
2022-11-25 16:33:50.019797, 1.84262
2022-11-25 16:33:50.020060, 1.83284
2022-11-25 16:33:50.020233, 1.82796
2022-11-25 16:33:50.020395, 1.81818
2022-11-25 16:33:50.053151, 1.80841
2022-11-25 16:33:50.053400, 1.81818
2022-11-25 16:33:50.053560, 1.78886
2022-11-25 16:33:50.086379, 1.77908
2022-11-25 16:33:50.086627, 1.78397
2022-11-25 16:33:50.086802, 1.77419
2022-11-25 16:33:50.086957, 1.77908
2022-11-25 16:33:50.119744, 1.77908
2022-11-25 16:33:50.119986, 1.78886
2022-11-25 16:33:50.120154, 1.79374
2022-11-25 16:33:50.152963, 1.79863
2022-11-25 16:33:50.153224, 1.79374
2022-11-25 16:33:50.153399, 1.79863
2022-11-25 16:33:50.153558, 1.83284
2022-11-25 16:33:50.186301, 1.79863
2022-11-25 16:33:50.186543, 1.80352
2022-11-25 16:33:50.186711, 1.80352
2022-11-25 16:33:50.219536, 1.82796
2022-11-25 16:33:50.219787, 1.78397
2022-11-25 16:33:50.219959, 1.77419
2022-11-25 16:33:50.220121, 1.76931
2022-11-25 16:33:50.252937, 1.76931
2022-11-25 16:33:50.253196, 1.75953
2022-11-25 16:33:50.253368, 1.74976
2022-11-25 16:33:50.253531, 1.74487
2022-11-25 16:33:50.286257, 1.73998
2022-11-25 16:33:50.286509, 1.72532
2022-11-25 16:33:50.286683, 1.71065
2022-11-25 16:33:50.319501, 1.73509
2022-11-25 16:33:50.319758, 1.68133
2022-11-25 16:33:50.319930, 1.67155
2022-11-25 16:33:50.320088, 1.67644
2022-11-25 16:33:50.352870, 1.67644
2022-11-25 16:33:50.353130, 1.68622
2022-11-25 16:33:50.353303, 1.69110
2022-11-25 16:33:50.386067, 1.67644
2022-11-25 16:33:50.386321, 1.68622
2022-11-25 16:33:50.386487, 1.69110
2022-11-25 16:33:50.386659, 1.69110
2022-11-25 16:33:50.419441, 1.68622
2022-11-25 16:33:50.419700, 1.68133
2022-11-25 16:33:50.419869, 1.69110
2022-11-25 16:33:50.452669, 1.69599
2022-11-25 16:33:50.452925, 1.67644
2022-11-25 16:33:50.453095, 1.67644
2022-11-25 16:33:50.453253, 1.67644
2022-11-25 16:33:50.486024, 1.67155
2022-11-25 16:33:50.486259, 1.67644
2022-11-25 16:33:50.486419, 1.65689
2022-11-25 16:33:50.519234, 1.65689
2022-11-25 16:33:50.519512, 1.65200
2022-11-25 16:33:50.519681, 1.64712
2022-11-25 16:33:50.519838, 1.65200
2022-11-25 16:33:50.552587, 1.68133
2022-11-25 16:33:50.552741, 1.65200
2022-11-25 16:33:50.552829, 1.64712
2022-11-25 16:33:50.552915, 1.64712
2022-11-25 16:33:50.585965, 1.65200
2022-11-25 16:33:50.586192, 1.65200
2022-11-25 16:33:50.586365, 1.64712
2022-11-25 16:33:50.619226, 1.68133
2022-11-25 16:33:50.619474, 1.64712
2022-11-25 16:33:50.619649, 1.64223
2022-11-25 16:33:50.619807, 1.63734
2022-11-25 16:33:50.652539, 1.63245
2022-11-25 16:33:50.652781, 1.63245
2022-11-25 16:33:50.652943, 1.63245
2022-11-25 16:33:50.685805, 1.63734
2022-11-25 16:33:50.686062, 1.67155
2022-11-25 16:33:50.686234, 1.64223
2022-11-25 16:33:50.686397, 1.63734
2022-11-25 16:33:50.719182, 1.66667
2022-11-25 16:33:50.719437, 1.68133
2022-11-25 16:33:50.719603, 1.71065
2022-11-25 16:33:50.752375, 1.75464
2022-11-25 16:33:50.752641, 1.74487
2022-11-25 16:33:50.752828, 1.74976
2022-11-25 16:33:50.752990, 1.75464
2022-11-25 16:33:50.785745, 1.75953
2022-11-25 16:33:50.785993, 1.77419
2022-11-25 16:33:50.786164, 1.76442
2022-11-25 16:33:50.818945, 1.76931
2022-11-25 16:33:50.819209, 1.79863
2022-11-25 16:33:50.819378, 1.76442
2022-11-25 16:33:50.819538, 1.75953
2022-11-25 16:33:50.852340, 1.80352
2022-11-25 16:33:50.852601, 1.76931
2022-11-25 16:33:50.852782, 1.76442
2022-11-25 16:33:50.852947, 1.79863
2022-11-25 16:33:50.885699, 1.77419
2022-11-25 16:33:50.885948, 1.77908
2022-11-25 16:33:50.886122, 1.77908
2022-11-25 16:33:50.918859, 1.78397
2022-11-25 16:33:50.919110, 1.78886
2022-11-25 16:33:50.919277, 1.78886
2022-11-25 16:33:50.919435, 1.82307
2022-11-25 16:33:50.952271, 1.78397
2022-11-25 16:33:50.952534, 1.76931
2022-11-25 16:33:50.952709, 1.78397
2022-11-25 16:33:50.985495, 1.75464
2022-11-25 16:33:50.985742, 1.74976
2022-11-25 16:33:50.985911, 1.74976
2022-11-25 16:33:50.986075, 1.78397
2022-11-25 16:33:51.018805, 1.74976
2022-11-25 16:33:51.019047, 1.74976
2022-11-25 16:33:51.019211, 1.74487
2022-11-25 16:33:51.052109, 1.77419
2022-11-25 16:33:51.052313, 1.75464
2022-11-25 16:33:51.052431, 1.75464
2022-11-25 16:33:51.052572, 1.78886
2022-11-25 16:33:51.085464, 1.75953
2022-11-25 16:33:51.085723, 1.74976
2022-11-25 16:33:51.085896, 1.76442
2022-11-25 16:33:51.118675, 1.74487
2022-11-25 16:33:51.118955, 1.73998
2022-11-25 16:33:51.119125, 1.77419
2022-11-25 16:33:51.119285, 1.73021
2022-11-25 16:33:51.152021, 1.73021
2022-11-25 16:33:51.152260, 1.72043
2022-11-25 16:33:51.152425, 1.72043
2022-11-25 16:33:51.152577, 1.71554
2022-11-25 16:33:51.185389, 1.71065
2022-11-25 16:33:51.185637, 1.72532
2022-11-25 16:33:51.185811, 1.71554
2022-11-25 16:33:51.218634, 1.71554
2022-11-25 16:33:51.218889, 1.71554
2022-11-25 16:33:51.219060, 1.72532
2022-11-25 16:33:51.219230, 1.70088
2022-11-25 16:33:51.251987, 1.69599
2022-11-25 16:33:51.252244, 1.69599
2022-11-25 16:33:51.252414, 1.72532
2022-11-25 16:33:51.285236, 1.69110
2022-11-25 16:33:51.285491, 1.67155
2022-11-25 16:33:51.285663, 1.66667
2022-11-25 16:33:51.285823, 1.65200
2022-11-25 16:33:51.318573, 1.69110
2022-11-25 16:33:51.318829, 1.65200
2022-11-25 16:33:51.318992, 1.62757
2022-11-25 16:33:51.351790, 1.62757
2022-11-25 16:33:51.352051, 1.60313
2022-11-25 16:33:51.352219, 1.59824
2022-11-25 16:33:51.352374, 1.60313
2022-11-25 16:33:51.385141, 1.60802
2022-11-25 16:33:51.385383, 1.60313
2022-11-25 16:33:51.385551, 1.61290
2022-11-25 16:33:51.418357, 1.62268
2022-11-25 16:33:51.418610, 1.63245
2022-11-25 16:33:51.418788, 1.63734
2022-11-25 16:33:51.418944, 1.61290
2022-11-25 16:33:51.451733, 1.60802
2022-11-25 16:33:51.451981, 1.59824
2022-11-25 16:33:51.452149, 1.59335
2022-11-25 16:33:51.452503, 1.59335
2022-11-25 16:33:51.485088, 1.58847
2022-11-25 16:33:51.485321, 1.62268
2022-11-25 16:33:51.485484, 1.62268
2022-11-25 16:33:51.518338, 1.58847
2022-11-25 16:33:51.518600, 1.59335
2022-11-25 16:33:51.518766, 1.58847
2022-11-25 16:33:51.518927, 1.59335
2022-11-25 16:33:51.551640, 1.60313
2022-11-25 16:33:51.551834, 1.61290
2022-11-25 16:33:51.551953, 1.59824
2022-11-25 16:33:51.584925, 1.60313
2022-11-25 16:33:51.585187, 1.60313
2022-11-25 16:33:51.585376, 1.60802
2022-11-25 16:33:51.585539, 1.61779
2022-11-25 16:33:51.618258, 1.62757
2022-11-25 16:33:51.618514, 1.64712
2022-11-25 16:33:51.618678, 1.67644
2022-11-25 16:33:51.651516, 1.72532
2022-11-25 16:33:51.651773, 1.71065
2022-11-25 16:33:51.651946, 1.72043
2022-11-25 16:33:51.652102, 1.72532
2022-11-25 16:33:51.684863, 1.73021
2022-11-25 16:33:51.685105, 1.73509
2022-11-25 16:33:51.685286, 1.73021
2022-11-25 16:33:51.718069, 1.73021
2022-11-25 16:33:51.718340, 1.72043
2022-11-25 16:33:51.718509, 1.73021
2022-11-25 16:33:51.718664, 1.73509
2022-11-25 16:33:51.751457, 1.71065
2022-11-25 16:33:51.751693, 1.71554
2022-11-25 16:33:51.751858, 1.71065
2022-11-25 16:33:51.752024, 1.72043
2022-11-25 16:33:51.784835, 1.75464
2022-11-25 16:33:51.785072, 1.72532
2022-11-25 16:33:51.785238, 1.73021
2022-11-25 16:33:51.818094, 1.76442
2022-11-25 16:33:51.818354, 1.73509
2022-11-25 16:33:51.818528, 1.73998
2022-11-25 16:33:51.818684, 1.75464
2022-11-25 16:33:51.851410, 1.73998
2022-11-25 16:33:51.851664, 1.73509
2022-11-25 16:33:51.851838, 1.74487
2022-11-25 16:33:51.884641, 1.73509
2022-11-25 16:33:51.884894, 1.73509
2022-11-25 16:33:51.885066, 1.73998
2022-11-25 16:33:51.885225, 1.73021
2022-11-25 16:33:51.917988, 1.72532
2022-11-25 16:33:51.918229, 1.73509
2022-11-25 16:33:51.918388, 1.73021
2022-11-25 16:33:51.951255, 1.73021
2022-11-25 16:33:51.951514, 1.73998
2022-11-25 16:33:51.951695, 1.75953
2022-11-25 16:33:51.951852, 1.73021
2022-11-25 16:33:51.984585, 1.72532
2022-11-25 16:33:51.984841, 1.73021
2022-11-25 16:33:51.985015, 1.72532
2022-11-25 16:33:52.017745, 1.72532
2022-11-25 16:33:52.018024, 1.71065
2022-11-25 16:33:52.018201, 1.71554
2022-11-25 16:33:52.018367, 1.70577
2022-11-25 16:33:52.051137, 1.71065
2022-11-25 16:33:52.051317, 1.73509
2022-11-25 16:33:52.051438, 1.69599
2022-11-25 16:33:52.051554, 1.67644
2022-11-25 16:33:52.084526, 1.68133
2022-11-25 16:33:52.084688, 1.68622
2022-11-25 16:33:52.084780, 1.67155
2022-11-25 16:33:52.117784, 1.67644
2022-11-25 16:33:52.118084, 1.69599
2022-11-25 16:33:52.118258, 1.66667
2022-11-25 16:33:52.118420, 1.67155
2022-11-25 16:33:52.151119, 1.66667
2022-11-25 16:33:52.151376, 1.67155
2022-11-25 16:33:52.151542, 1.66667
2022-11-25 16:33:52.184364, 1.66667
2022-11-25 16:33:52.184620, 1.67155
2022-11-25 16:33:52.184791, 1.66178
2022-11-25 16:33:52.184949, 1.66178
2022-11-25 16:33:52.217713, 1.68622
2022-11-25 16:33:52.217968, 1.66178
2022-11-25 16:33:52.218136, 1.65200
2022-11-25 16:33:52.250918, 1.65200
2022-11-25 16:33:52.251167, 1.64712
2022-11-25 16:33:52.251336, 1.64712
2022-11-25 16:33:52.251495, 1.64223
2022-11-25 16:33:52.284248, 1.64223
2022-11-25 16:33:52.284438, 1.64223
2022-11-25 16:33:52.284558, 1.64223
2022-11-25 16:33:52.317487, 1.64712
2022-11-25 16:33:52.317768, 1.64223
2022-11-25 16:33:52.317944, 1.63734
2022-11-25 16:33:52.318113, 1.63245
2022-11-25 16:33:52.350887, 1.63245
2022-11-25 16:33:52.351137, 1.65689
2022-11-25 16:33:52.351308, 1.64223
2022-11-25 16:33:52.351466, 1.64223
2022-11-25 16:33:52.384213, 1.65200
2022-11-25 16:33:52.384448, 1.66178
2022-11-25 16:33:52.384628, 1.68133
2022-11-25 16:33:52.417518, 1.67155
2022-11-25 16:33:52.417765, 1.68133
2022-11-25 16:33:52.417933, 1.70088
2022-11-25 16:33:52.418087, 1.71065
2022-11-25 16:33:52.450810, 1.73998
2022-11-25 16:33:52.451035, 1.73998
2022-11-25 16:33:52.451195, 1.74976
2022-11-25 16:33:52.484075, 1.76442
2022-11-25 16:33:52.484381, 1.76931
2022-11-25 16:33:52.484558, 1.76442
2022-11-25 16:33:52.484720, 1.75953
2022-11-25 16:33:52.517438, 1.77908
2022-11-25 16:33:52.517695, 1.76442
2022-11-25 16:33:52.517887, 1.75953
2022-11-25 16:33:52.550629, 1.78397
2022-11-25 16:33:52.550816, 1.75464
2022-11-25 16:33:52.550936, 1.75953
2022-11-25 16:33:52.551051, 1.76442
2022-11-25 16:33:52.584004, 1.75464
2022-11-25 16:33:52.584248, 1.76442
2022-11-25 16:33:52.584408, 1.75464
2022-11-25 16:33:52.617195, 1.77908
2022-11-25 16:33:52.617477, 1.75953
2022-11-25 16:33:52.617652, 1.76442
2022-11-25 16:33:52.617806, 1.78397
2022-11-25 16:33:52.650561, 1.75464
2022-11-25 16:33:52.650797, 1.74976
2022-11-25 16:33:52.650979, 1.74976
2022-11-25 16:33:52.651144, 1.76931
2022-11-25 16:33:52.683959, 1.72532
2022-11-25 16:33:52.684206, 1.72043
2022-11-25 16:33:52.684371, 1.70577
2022-11-25 16:33:52.717182, 1.70088
2022-11-25 16:33:52.717421, 1.70088
2022-11-25 16:33:52.717586, 1.69110
2022-11-25 16:33:52.717748, 1.69110
2022-11-25 16:33:52.750550, 1.69599
2022-11-25 16:33:52.750778, 1.69599
2022-11-25 16:33:52.750938, 1.68133
2022-11-25 16:33:52.783768, 1.68133
2022-11-25 16:33:52.784015, 1.68133
2022-11-25 16:33:52.784177, 1.69110
2022-11-25 16:33:52.784328, 1.67644
2022-11-25 16:33:52.817148, 1.67644
2022-11-25 16:33:52.817399, 1.67155
2022-11-25 16:33:52.817570, 1.68133
2022-11-25 16:33:52.850367, 1.66667
2022-11-25 16:33:52.850580, 1.66178
2022-11-25 16:33:52.850711, 1.65689
2022-11-25 16:33:52.850825, 1.69110
2022-11-25 16:33:52.883746, 1.65200
2022-11-25 16:33:52.884007, 1.63734
2022-11-25 16:33:52.884172, 1.63734
2022-11-25 16:33:52.916899, 1.63734
2022-11-25 16:33:52.917157, 1.62757
2022-11-25 16:33:52.917333, 1.67155
2022-11-25 16:33:52.917489, 1.66667
2022-11-25 16:33:52.950297, 1.65689
2022-11-25 16:33:52.950556, 1.62757
2022-11-25 16:33:52.950760, 1.63245
2022-11-25 16:33:52.950927, 1.63245
2022-11-25 16:33:52.983639, 1.62757
2022-11-25 16:33:52.983878, 1.63734
2022-11-25 16:33:52.984042, 1.66667
2022-11-25 16:33:53.016797, 1.64712
2022-11-25 16:33:53.016965, 1.62757
2022-11-25 16:33:53.017061, 1.63245
2022-11-25 16:33:53.017144, 1.61779
2022-11-25 16:33:53.050160, 1.66178
2022-11-25 16:33:53.050309, 1.63734
2022-11-25 16:33:53.050394, 1.63734
2022-11-25 16:33:53.083455, 1.63245
2022-11-25 16:33:53.083703, 1.62757
2022-11-25 16:33:53.083866, 1.62757
2022-11-25 16:33:53.084023, 1.62268
2022-11-25 16:33:53.116806, 1.62268
2022-11-25 16:33:53.117046, 1.62757
2022-11-25 16:33:53.117207, 1.66178
2022-11-25 16:33:53.150035, 1.65200
2022-11-25 16:33:53.150283, 1.63245
2022-11-25 16:33:53.150450, 1.62757
2022-11-25 16:33:53.150603, 1.62757
2022-11-25 16:33:53.183399, 1.62757
2022-11-25 16:33:53.183640, 1.63245
2022-11-25 16:33:53.183805, 1.62757
2022-11-25 16:33:53.216645, 1.62268
2022-11-25 16:33:53.216849, 1.61779
2022-11-25 16:33:53.216975, 1.65689
2022-11-25 16:33:53.217089, 1.62268
2022-11-25 16:33:53.249999, 1.62757
2022-11-25 16:33:53.250254, 1.62757
2022-11-25 16:33:53.250420, 1.63245
2022-11-25 16:33:53.250585, 1.67155
2022-11-25 16:33:53.283356, 1.66667
2022-11-25 16:33:53.283605, 1.68133
2022-11-25 16:33:53.283774, 1.70577
2022-11-25 16:33:53.316613, 1.75953
2022-11-25 16:33:53.316877, 1.74976
2022-11-25 16:33:53.317056, 1.76931
2022-11-25 16:33:53.317215, 1.77419
2022-11-25 16:33:53.349938, 1.77908
2022-11-25 16:33:53.350183, 1.78397
2022-11-25 16:33:53.350360, 1.76931
2022-11-25 16:33:53.383176, 1.76931
2022-11-25 16:33:53.383417, 1.76931
2022-11-25 16:33:53.383581, 1.75953
2022-11-25 16:33:53.383738, 1.74487
2022-11-25 16:33:53.416530, 1.78397
2022-11-25 16:33:53.416775, 1.74976
2022-11-25 16:33:53.416939, 1.74976
2022-11-25 16:33:53.449720, 1.74976
2022-11-25 16:33:53.449906, 1.74487
2022-11-25 16:33:53.450032, 1.75464
2022-11-25 16:33:53.450147, 1.78397
2022-11-25 16:33:53.483135, 1.74976
2022-11-25 16:33:53.483370, 1.74976
2022-11-25 16:33:53.483531, 1.75464
2022-11-25 16:33:53.516350, 1.73998
2022-11-25 16:33:53.516621, 1.73509
2022-11-25 16:33:53.516795, 1.74487
2022-11-25 16:33:53.516960, 1.73509
2022-11-25 16:33:53.549589, 1.73509
2022-11-25 16:33:53.549742, 1.73509
2022-11-25 16:33:53.549834, 1.73509
2022-11-25 16:33:53.549920, 1.76931
2022-11-25 16:33:53.583082, 1.73509
2022-11-25 16:33:53.583324, 1.73998
2022-11-25 16:33:53.583655, 1.73998
2022-11-25 16:33:53.616303, 1.76442
2022-11-25 16:33:53.616560, 1.73509
2022-11-25 16:33:53.616728, 1.73998
2022-11-25 16:33:53.616896, 1.73509
2022-11-25 16:33:53.649658, 1.73509
2022-11-25 16:33:53.649890, 1.73021
2022-11-25 16:33:53.650056, 1.74487
2022-11-25 16:33:53.682892, 1.72532
2022-11-25 16:33:53.683145, 1.71554
2022-11-25 16:33:53.683318, 1.71554
2022-11-25 16:33:53.683481, 1.70577
2022-11-25 16:33:53.716205, 1.70577
2022-11-25 16:33:53.716397, 1.73998
2022-11-25 16:33:53.716519, 1.69110
2022-11-25 16:33:53.749449, 1.69110
2022-11-25 16:33:53.749696, 1.69110
2022-11-25 16:33:53.749864, 1.69110
2022-11-25 16:33:53.750016, 1.68622
2022-11-25 16:33:53.782787, 1.68622
2022-11-25 16:33:53.783014, 1.68133
2022-11-25 16:33:53.783176, 1.67155
2022-11-25 16:33:53.816023, 1.67644
2022-11-25 16:33:53.816296, 1.67155
2022-11-25 16:33:53.816471, 1.67644
2022-11-25 16:33:53.816628, 1.66178
2022-11-25 16:33:53.849426, 1.66667
2022-11-25 16:33:53.849663, 1.66667
2022-11-25 16:33:53.849823, 1.67644
2022-11-25 16:33:53.849980, 1.66178
2022-11-25 16:33:53.882771, 1.65689
2022-11-25 16:33:53.883020, 1.65200
2022-11-25 16:33:53.883192, 1.65200
2022-11-25 16:33:53.916008, 1.65200
2022-11-25 16:33:53.916242, 1.64223
2022-11-25 16:33:53.916411, 1.64223
2022-11-25 16:33:53.916568, 1.63734
2022-11-25 16:33:53.949378, 1.63245
2022-11-25 16:33:53.949619, 1.67644
2022-11-25 16:33:53.949781, 1.63245
2022-11-25 16:33:53.982600, 1.62268
2022-11-25 16:33:53.982852, 1.61779
2022-11-25 16:33:53.983029, 1.61779
2022-11-25 16:33:53.983189, 1.61779
2022-11-25 16:33:54.015897, 1.61779
2022-11-25 16:33:54.016093, 1.61779
2022-11-25 16:33:54.016218, 1.61779
2022-11-25 16:33:54.049186, 1.65200
2022-11-25 16:33:54.049350, 1.64223
2022-11-25 16:33:54.049437, 1.62757
2022-11-25 16:33:54.049520, 1.61779
2022-11-25 16:33:54.082477, 1.61290
2022-11-25 16:33:54.082634, 1.61290
2022-11-25 16:33:54.082729, 1.62757
2022-11-25 16:33:54.115785, 1.64223
2022-11-25 16:33:54.116057, 1.65689
2022-11-25 16:33:54.116229, 1.68133
2022-11-25 16:33:54.116385, 1.70577
2022-11-25 16:33:54.149139, 1.71554
2022-11-25 16:33:54.149378, 1.73021
2022-11-25 16:33:54.149541, 1.73509
2022-11-25 16:33:54.149697, 1.74976
2022-11-25 16:33:54.182499, 1.74976
2022-11-25 16:33:54.182749, 1.73998
2022-11-25 16:33:54.182969, 1.73509
2022-11-25 16:33:54.215734, 1.77419
2022-11-25 16:33:54.215941, 1.73021
2022-11-25 16:33:54.216065, 1.72532
2022-11-25 16:33:54.216180, 1.72532
2022-11-25 16:33:54.249050, 1.72043
2022-11-25 16:33:54.249290, 1.72043
2022-11-25 16:33:54.249470, 1.72043
2022-11-25 16:33:54.282285, 1.73021
2022-11-25 16:33:54.282523, 1.72043
2022-11-25 16:33:54.282693, 1.73021
2022-11-25 16:33:54.282853, 1.73021
2022-11-25 16:33:54.315680, 1.74487
2022-11-25 16:33:54.315918, 1.73509
2022-11-25 16:33:54.316085, 1.73021
2022-11-25 16:33:54.348901, 1.75464
2022-11-25 16:33:54.349173, 1.72532
2022-11-25 16:33:54.349354, 1.72043
2022-11-25 16:33:54.349551, 1.71554
2022-11-25 16:33:54.382227, 1.72532
2022-11-25 16:33:54.382418, 1.70577
2022-11-25 16:33:54.382548, 1.70577
2022-11-25 16:33:54.415466, 1.70577
2022-11-25 16:33:54.415718, 1.70088
2022-11-25 16:33:54.415890, 1.69599
2022-11-25 16:33:54.416047, 1.71065
2022-11-25 16:33:54.448837, 1.71065
2022-11-25 16:33:54.449080, 1.70088
2022-11-25 16:33:54.449253, 1.74487
2022-11-25 16:33:54.449422, 1.70577
2022-11-25 16:33:54.482194, 1.70577
2022-11-25 16:33:54.482448, 1.70088
2022-11-25 16:33:54.482618, 1.70088
2022-11-25 16:33:54.515419, 1.70088
2022-11-25 16:33:54.515666, 1.73509
2022-11-25 16:33:54.515829, 1.69599
2022-11-25 16:33:54.515986, 1.68622
2022-11-25 16:33:54.548742, 1.69110
2022-11-25 16:33:54.548904, 1.69110
2022-11-25 16:33:54.549002, 1.68133
2022-11-25 16:33:54.582032, 1.67155
2022-11-25 16:33:54.582296, 1.67155
2022-11-25 16:33:54.582468, 1.67644
2022-11-25 16:33:54.582639, 1.67644
2022-11-25 16:33:54.615370, 1.66667
2022-11-25 16:33:54.615613, 1.66667
2022-11-25 16:33:54.615777, 1.66667
2022-11-25 16:33:54.648589, 1.66667
2022-11-25 16:33:54.648860, 1.65689
2022-11-25 16:33:54.649030, 1.66178
2022-11-25 16:33:54.649194, 1.66667
2022-11-25 16:33:54.681985, 1.67644
2022-11-25 16:33:54.682231, 1.65689
2022-11-25 16:33:54.682401, 1.69599
2022-11-25 16:33:54.715163, 1.65689
2022-11-25 16:33:54.715320, 1.65200
2022-11-25 16:33:54.715407, 1.68622
2022-11-25 16:33:54.715490, 1.65200
2022-11-25 16:33:54.748575, 1.65200
2022-11-25 16:33:54.748836, 1.65200
2022-11-25 16:33:54.749018, 1.65200
2022-11-25 16:33:54.749181, 1.65200
2022-11-25 16:33:54.781906, 1.64712
2022-11-25 16:33:54.782142, 1.63734
2022-11-25 16:33:54.782313, 1.65200
2022-11-25 16:33:54.815114, 1.64223
2022-11-25 16:33:54.815371, 1.64223
2022-11-25 16:33:54.815539, 1.66667
2022-11-25 16:33:54.815695, 1.64223
2022-11-25 16:33:54.848565, 1.64223
2022-11-25 16:33:54.848821, 1.63734
2022-11-25 16:33:54.848987, 1.63734
2022-11-25 16:33:54.881756, 1.65200
2022-11-25 16:33:54.882010, 1.63734
2022-11-25 16:33:54.882175, 1.64223
2022-11-25 16:33:54.882344, 1.66178
2022-11-25 16:33:54.915133, 1.64712
2022-11-25 16:33:54.915403, 1.65200
2022-11-25 16:33:54.915575, 1.67155
2022-11-25 16:33:54.948279, 1.71065
2022-11-25 16:33:54.948470, 1.70088
2022-11-25 16:33:54.948590, 1.72043
2022-11-25 16:33:54.948705, 1.73998
2022-11-25 16:33:54.981680, 1.74976
2022-11-25 16:33:54.981924, 1.78397
2022-11-25 16:33:54.982089, 1.74976
2022-11-25 16:33:55.014895, 1.73509
2022-11-25 16:33:55.015147, 1.75953
2022-11-25 16:33:55.015307, 1.73998
2022-11-25 16:33:55.015466, 1.73509
2022-11-25 16:33:55.048217, 1.74487
2022-11-25 16:33:55.048360, 1.73021
2022-11-25 16:33:55.048448, 1.73021
2022-11-25 16:33:55.048529, 1.72532
2022-11-25 16:33:55.081482, 1.73021
2022-11-25 16:33:55.081614, 1.72043
2022-11-25 16:33:55.081707, 1.72532
2022-11-25 16:33:55.114852, 1.73509
2022-11-25 16:33:55.115117, 1.73021
2022-11-25 16:33:55.115291, 1.73021
2022-11-25 16:33:55.115448, 1.73021
2022-11-25 16:33:55.148204, 1.76442
2022-11-25 16:33:55.148461, 1.72532
2022-11-25 16:33:55.148634, 1.72532
2022-11-25 16:33:55.181500, 1.72043
2022-11-25 16:33:55.181766, 1.71554
2022-11-25 16:33:55.181934, 1.73509
2022-11-25 16:33:55.182092, 1.70577
2022-11-25 16:33:55.214823, 1.70577
2022-11-25 16:33:55.215073, 1.70577
2022-11-25 16:33:55.215237, 1.74487
2022-11-25 16:33:55.248026, 1.70088
2022-11-25 16:33:55.248279, 1.71065
2022-11-25 16:33:55.248451, 1.73998
2022-11-25 16:33:55.248611, 1.70577
2022-11-25 16:33:55.281426, 1.71065
2022-11-25 16:33:55.281680, 1.71554
2022-11-25 16:33:55.281857, 1.70577
2022-11-25 16:33:55.314589, 1.70088
2022-11-25 16:33:55.314878, 1.73021
2022-11-25 16:33:55.315053, 1.70088
2022-11-25 16:33:55.315215, 1.69110
2022-11-25 16:33:55.347953, 1.71554
2022-11-25 16:33:55.348198, 1.69110
2022-11-25 16:33:55.348368, 1.69110
2022-11-25 16:33:55.348526, 1.69599
2022-11-25 16:33:55.381351, 1.68133
2022-11-25 16:33:55.381599, 1.68133
2022-11-25 16:33:55.381763, 1.67644
2022-11-25 16:33:55.414585, 1.68133
2022-11-25 16:33:55.414832, 1.66667
2022-11-25 16:33:55.414999, 1.66667
2022-11-25 16:33:55.415152, 1.70577
2022-11-25 16:33:55.447874, 1.66178
2022-11-25 16:33:55.448124, 1.66667
2022-11-25 16:33:55.448303, 1.66178
2022-11-25 16:33:55.481141, 1.67155
2022-11-25 16:33:55.481397, 1.66178
2022-11-25 16:33:55.481567, 1.66667
2022-11-25 16:33:55.481726, 1.68622
2022-11-25 16:33:55.514550, 1.66178
2022-11-25 16:33:55.514799, 1.65689
2022-11-25 16:33:55.514971, 1.65689
2022-11-25 16:33:55.547714, 1.67644
2022-11-25 16:33:55.547876, 1.65689
2022-11-25 16:33:55.547966, 1.65200
2022-11-25 16:33:55.548050, 1.65200
2022-11-25 16:33:55.581123, 1.66667
2022-11-25 16:33:55.581385, 1.64712
2022-11-25 16:33:55.581556, 1.65200
2022-11-25 16:33:55.614319, 1.67644
2022-11-25 16:33:55.614597, 1.65200
2022-11-25 16:33:55.614774, 1.64712
2022-11-25 16:33:55.614935, 1.64223
2022-11-25 16:33:55.647693, 1.67644
2022-11-25 16:33:55.647948, 1.64223
2022-11-25 16:33:55.648120, 1.64223
2022-11-25 16:33:55.648277, 1.63734
2022-11-25 16:33:55.681044, 1.64712
2022-11-25 16:33:55.681296, 1.63245
2022-11-25 16:33:55.681464, 1.63734
2022-11-25 16:33:55.714234, 1.66178
2022-11-25 16:33:55.714397, 1.63734
2022-11-25 16:33:55.714638, 1.63734
2022-11-25 16:33:55.714728, 1.63245
2022-11-25 16:33:55.747659, 1.62757
2022-11-25 16:33:55.747953, 1.62757
2022-11-25 16:33:55.748125, 1.62757
2022-11-25 16:33:55.780872, 1.63245
2022-11-25 16:33:55.781128, 1.63245
2022-11-25 16:33:55.781302, 1.66178
2022-11-25 16:33:55.781460, 1.63734
2022-11-25 16:33:55.814188, 1.66178
2022-11-25 16:33:55.814426, 1.67155
2022-11-25 16:33:55.814598, 1.69110
2022-11-25 16:33:55.847481, 1.71554
2022-11-25 16:33:55.847743, 1.73509
2022-11-25 16:33:55.847918, 1.74976
2022-11-25 16:33:55.848083, 1.74976
2022-11-25 16:33:55.880835, 1.76931
2022-11-25 16:33:55.881083, 1.75464
2022-11-25 16:33:55.881260, 1.75464
2022-11-25 16:33:55.914026, 1.78886
2022-11-25 16:33:55.914303, 1.74487
2022-11-25 16:33:55.914477, 1.73509
2022-11-25 16:33:55.914633, 1.73998
2022-11-25 16:33:55.947422, 1.73021
2022-11-25 16:33:55.947671, 1.72043
2022-11-25 16:33:55.947839, 1.73998
2022-11-25 16:33:55.948005, 1.72043
2022-11-25 16:33:55.980771, 1.72043
2022-11-25 16:33:55.981024, 1.74487
2022-11-25 16:33:55.981194, 1.72532
2022-11-25 16:33:56.013968, 1.72532
2022-11-25 16:33:56.014159, 1.72532
2022-11-25 16:33:56.014278, 1.76442
2022-11-25 16:33:56.014387, 1.72532
2022-11-25 16:33:56.047270, 1.72532
2022-11-25 16:33:56.047399, 1.72532
2022-11-25 16:33:56.047463, 1.72043
2022-11-25 16:33:56.080486, 1.71065
2022-11-25 16:33:56.080639, 1.71554
2022-11-25 16:33:56.080735, 1.71065
2022-11-25 16:33:56.080822, 1.73998
2022-11-25 16:33:56.113937, 1.72532
2022-11-25 16:33:56.114173, 1.70088
2022-11-25 16:33:56.114337, 1.70577
2022-11-25 16:33:56.147162, 1.73021
2022-11-25 16:33:56.147427, 1.70088
2022-11-25 16:33:56.147608, 1.69599
2022-11-25 16:33:56.147769, 1.73998
2022-11-25 16:33:56.180539, 1.70577
2022-11-25 16:33:56.180782, 1.71065
2022-11-25 16:33:56.180944, 1.72532
2022-11-25 16:33:56.213744, 1.70088
2022-11-25 16:33:56.214023, 1.70088
2022-11-25 16:33:56.214195, 1.69599
2022-11-25 16:33:56.214355, 1.69599
2022-11-25 16:33:56.247096, 1.69599
2022-11-25 16:33:56.247353, 1.69599
2022-11-25 16:33:56.247536, 1.68622
2022-11-25 16:33:56.247707, 1.69599
2022-11-25 16:33:56.280467, 1.68133
2022-11-25 16:33:56.280721, 1.67155
2022-11-25 16:33:56.280895, 1.67155
2022-11-25 16:33:56.313675, 1.67644
2022-11-25 16:33:56.313913, 1.66178
2022-11-25 16:33:56.314082, 1.66178
2022-11-25 16:33:56.314239, 1.66667
2022-11-25 16:33:56.347021, 1.65689
2022-11-25 16:33:56.347211, 1.66178
2022-11-25 16:33:56.347327, 1.69599
2022-11-25 16:33:56.380278, 1.65200
2022-11-25 16:33:56.380522, 1.65689
2022-11-25 16:33:56.380692, 1.65200
2022-11-25 16:33:56.380847, 1.65689
2022-11-25 16:33:56.413645, 1.64712
2022-11-25 16:33:56.413890, 1.64712
2022-11-25 16:33:56.414058, 1.64712
2022-11-25 16:33:56.446827, 1.65200
2022-11-25 16:33:56.447078, 1.64712
2022-11-25 16:33:56.447250, 1.63734
2022-11-25 16:33:56.447406, 1.64223
2022-11-25 16:33:56.480235, 1.64712
2022-11-25 16:33:56.480500, 1.64223
2022-11-25 16:33:56.480669, 1.63734
2022-11-25 16:33:56.513447, 1.66178
2022-11-25 16:33:56.513720, 1.64223
2022-11-25 16:33:56.513891, 1.62757
2022-11-25 16:33:56.514049, 1.63734
2022-11-25 16:33:56.546758, 1.65200
2022-11-25 16:33:56.546897, 1.63245
2022-11-25 16:33:56.546966, 1.64223
2022-11-25 16:33:56.547030, 1.63245
2022-11-25 16:33:56.580123, 1.63734
2022-11-25 16:33:56.580283, 1.64223
2022-11-25 16:33:56.580383, 1.63245
2022-11-25 16:33:56.613422, 1.62757
2022-11-25 16:33:56.613673, 1.62757
2022-11-25 16:33:56.613842, 1.62757
2022-11-25 16:33:56.613998, 1.62268
2022-11-25 16:33:56.646726, 1.62757
2022-11-25 16:33:56.646923, 1.62757
2022-11-25 16:33:56.647044, 1.65689
2022-11-25 16:33:56.679989, 1.63245
2022-11-25 16:33:56.680239, 1.62268
2022-11-25 16:33:56.680402, 1.63245
2022-11-25 16:33:56.680561, 1.67155
2022-11-25 16:33:56.713365, 1.64223
2022-11-25 16:33:56.713625, 1.65200
2022-11-25 16:33:56.713800, 1.67644
2022-11-25 16:33:56.746596, 1.69599
2022-11-25 16:33:56.746854, 1.71554
2022-11-25 16:33:56.747017, 1.73509
2022-11-25 16:33:56.747179, 1.74976
2022-11-25 16:33:56.779942, 1.75464
2022-11-25 16:33:56.780206, 1.76931
2022-11-25 16:33:56.780379, 1.75953
2022-11-25 16:33:56.813141, 1.74976
2022-11-25 16:33:56.813414, 1.73998
2022-11-25 16:33:56.813586, 1.74976
2022-11-25 16:33:56.813752, 1.71065
2022-11-25 16:33:56.846526, 1.70577
2022-11-25 16:33:56.846786, 1.70577
2022-11-25 16:33:56.846955, 1.69110
2022-11-25 16:33:56.847115, 1.68622
2022-11-25 16:33:56.879904, 1.70088
2022-11-25 16:33:56.880161, 1.69599
2022-11-25 16:33:56.880332, 1.69599
2022-11-25 16:33:56.913097, 1.70577
2022-11-25 16:33:56.913262, 1.73021
2022-11-25 16:33:56.913352, 1.71554
2022-11-25 16:33:56.913439, 1.71554
2022-11-25 16:33:56.946501, 1.72043
2022-11-25 16:33:56.946761, 1.75464
2022-11-25 16:33:56.946935, 1.71554
2022-11-25 16:33:56.979705, 1.71065
2022-11-25 16:33:56.979969, 1.72532
2022-11-25 16:33:56.980144, 1.71065
2022-11-25 16:33:56.980310, 1.70577
2022-11-25 16:33:57.013085, 1.70088
2022-11-25 16:33:57.013349, 1.70577
2022-11-25 16:33:57.013522, 1.70088
2022-11-25 16:33:57.046281, 1.70577
2022-11-25 16:33:57.046457, 1.70577
2022-11-25 16:33:57.046554, 1.70577
2022-11-25 16:33:57.046637, 1.70088
2022-11-25 16:33:57.079545, 1.72043
2022-11-25 16:33:57.079737, 1.70088
2022-11-25 16:33:57.079972, 1.71065
2022-11-25 16:33:57.112870, 1.70577
2022-11-25 16:33:57.113092, 1.70577
2022-11-25 16:33:57.113220, 1.69599
2022-11-25 16:33:57.113340, 1.70577
2022-11-25 16:33:57.146201, 1.70088
2022-11-25 16:33:57.146367, 1.70088
2022-11-25 16:33:57.146459, 1.70577
2022-11-25 16:33:57.146543, 1.71065
2022-11-25 16:33:57.179616, 1.71554
2022-11-25 16:33:57.179864, 1.71554
2022-11-25 16:33:57.180027, 1.72532
2022-11-25 16:33:57.212833, 1.72043
2022-11-25 16:33:57.213036, 1.72043
2022-11-25 16:33:57.213157, 1.74487
2022-11-25 16:33:57.213275, 1.70577
2022-11-25 16:33:57.246150, 1.70088
2022-11-25 16:33:57.246351, 1.69599
2022-11-25 16:33:57.246476, 1.73509
2022-11-25 16:33:57.279400, 1.69110
2022-11-25 16:33:57.279734, 1.69110
2022-11-25 16:33:57.279935, 1.72043
2022-11-25 16:33:57.280103, 1.68622
2022-11-25 16:33:57.312763, 1.69110
2022-11-25 16:33:57.313014, 1.72043
2022-11-25 16:33:57.313193, 1.68622
2022-11-25 16:33:57.345980, 1.68622
2022-11-25 16:33:57.346169, 1.68622
2022-11-25 16:33:57.346289, 1.68622
2022-11-25 16:33:57.346410, 1.68622
2022-11-25 16:33:57.379311, 1.67644
2022-11-25 16:33:57.379505, 1.70577
2022-11-25 16:33:57.379742, 1.67155
2022-11-25 16:33:57.412574, 1.66667
2022-11-25 16:33:57.412852, 1.69110
2022-11-25 16:33:57.413020, 1.65689
2022-11-25 16:33:57.413179, 1.65689
2022-11-25 16:33:57.445916, 1.69110
2022-11-25 16:33:57.446115, 1.65689
2022-11-25 16:33:57.446240, 1.64712
2022-11-25 16:33:57.446358, 1.64712
2022-11-25 16:33:57.479277, 1.67644
2022-11-25 16:33:57.479502, 1.64223
2022-11-25 16:33:57.479659, 1.64223
2022-11-25 16:33:57.512557, 1.64223
2022-11-25 16:33:57.512803, 1.64223
2022-11-25 16:33:57.512964, 1.63734
2022-11-25 16:33:57.513132, 1.63734
2022-11-25 16:33:57.545731, 1.66667
2022-11-25 16:33:57.545875, 1.63245
2022-11-25 16:33:57.545953, 1.63245
2022-11-25 16:33:57.579060, 1.63245
2022-11-25 16:33:57.579262, 1.64223
2022-11-25 16:33:57.579385, 1.68133
2022-11-25 16:33:57.579499, 1.66178
2022-11-25 16:33:57.612539, 1.67155
2022-11-25 16:33:57.612779, 1.69110
2022-11-25 16:33:57.612942, 1.71065
2022-11-25 16:33:57.645642, 1.72532
2022-11-25 16:33:57.645914, 1.77419
2022-11-25 16:33:57.646087, 1.74487
2022-11-25 16:33:57.646249, 1.74976
2022-11-25 16:33:57.678991, 1.79374
2022-11-25 16:33:57.679219, 1.75464
2022-11-25 16:33:57.679389, 1.75953
2022-11-25 16:33:57.712257, 1.77908
2022-11-25 16:33:57.712536, 1.74487
2022-11-25 16:33:57.712710, 1.74487
2022-11-25 16:33:57.712870, 1.73998
2022-11-25 16:33:57.745655, 1.73021
2022-11-25 16:33:57.745901, 1.72043
2022-11-25 16:33:57.746069, 1.73021
2022-11-25 16:33:57.746228, 1.72532
2022-11-25 16:33:57.778922, 1.72532
2022-11-25 16:33:57.779112, 1.72532
2022-11-25 16:33:57.779232, 1.72043
2022-11-25 16:33:57.812229, 1.72532
2022-11-25 16:33:57.812462, 1.72043
2022-11-25 16:33:57.812624, 1.75953
2022-11-25 16:33:57.812780, 1.71554
2022-11-25 16:33:57.845592, 1.72043
2022-11-25 16:33:57.846004, 1.72043
2022-11-25 16:33:57.846178, 1.71065
2022-11-25 16:33:57.878758, 1.71065
2022-11-25 16:33:57.878982, 1.71065
2022-11-25 16:33:57.879144, 1.70577
2022-11-25 16:33:57.879303, 1.71554
2022-11-25 16:33:57.912159, 1.74487
2022-11-25 16:33:57.912435, 1.70088
2022-11-25 16:33:57.912603, 1.71065
2022-11-25 16:33:57.945462, 1.73998
2022-11-25 16:33:57.945719, 1.70577
2022-11-25 16:33:57.945892, 1.71065
2022-11-25 16:33:57.946051, 1.71554
2022-11-25 16:33:57.978782, 1.70577
2022-11-25 16:33:57.979037, 1.70577
2022-11-25 16:33:57.979208, 1.72043
2022-11-25 16:33:58.011994, 1.69110
2022-11-25 16:33:58.012266, 1.69110
2022-11-25 16:33:58.012439, 1.68133
2022-11-25 16:33:58.012602, 1.68133
2022-11-25 16:33:58.045229, 1.68133
2022-11-25 16:33:58.045398, 1.67155
2022-11-25 16:33:58.045492, 1.67644
2022-11-25 16:33:58.045676, 1.66667
2022-11-25 16:33:58.078664, 1.66667
2022-11-25 16:33:58.078910, 1.69599
2022-11-25 16:33:58.079130, 1.66178
2022-11-25 16:33:58.111852, 1.66178
2022-11-25 16:33:58.112049, 1.66667
2022-11-25 16:33:58.112176, 1.66178
2022-11-25 16:33:58.112291, 1.64712
2022-11-25 16:33:58.145326, 1.65689
2022-11-25 16:33:58.145584, 1.64712
2022-11-25 16:33:58.145753, 1.65689
2022-11-25 16:33:58.178517, 1.65689
2022-11-25 16:33:58.178770, 1.64712
2022-11-25 16:33:58.178942, 1.64712
2022-11-25 16:33:58.179106, 1.66667
2022-11-25 16:33:58.211835, 1.65200
2022-11-25 16:33:58.212030, 1.64223
2022-11-25 16:33:58.212161, 1.64712
2022-11-25 16:33:58.245130, 1.64223
2022-11-25 16:33:58.245405, 1.64712
2022-11-25 16:33:58.245580, 1.63734
2022-11-25 16:33:58.245740, 1.63245
2022-11-25 16:33:58.278541, 1.63734
2022-11-25 16:33:58.278786, 1.67155
2022-11-25 16:33:58.278949, 1.63734
2022-11-25 16:33:58.311697, 1.62757
2022-11-25 16:33:58.311968, 1.63245
2022-11-25 16:33:58.312144, 1.66667
2022-11-25 16:33:58.312298, 1.63245
2022-11-25 16:33:58.345079, 1.62757
2022-11-25 16:33:58.345346, 1.62268
2022-11-25 16:33:58.345519, 1.62757
2022-11-25 16:33:58.345679, 1.63734
2022-11-25 16:33:58.378410, 1.64223
2022-11-25 16:33:58.378656, 1.66178
2022-11-25 16:33:58.378823, 1.67644
2022-11-25 16:33:58.411683, 1.71065
2022-11-25 16:33:58.411946, 1.70088
2022-11-25 16:33:58.412119, 1.72532
2022-11-25 16:33:58.412281, 1.73021
2022-11-25 16:33:58.445038, 1.73998
2022-11-25 16:33:58.445351, 1.73998
2022-11-25 16:33:58.445525, 1.77419
2022-11-25 16:33:58.478288, 1.73021
2022-11-25 16:33:58.478549, 1.72043
2022-11-25 16:33:58.478721, 1.74487
2022-11-25 16:33:58.478885, 1.71554
2022-11-25 16:33:58.511612, 1.72043
2022-11-25 16:33:58.511861, 1.71554
2022-11-25 16:33:58.512038, 1.73998
2022-11-25 16:33:58.544745, 1.70577
2022-11-25 16:33:58.544898, 1.71065
2022-11-25 16:33:58.544968, 1.70577
2022-11-25 16:33:58.545035, 1.71065
2022-11-25 16:33:58.578198, 1.71554
2022-11-25 16:33:58.578367, 1.74976
2022-11-25 16:33:58.578459, 1.71065
2022-11-25 16:33:58.611444, 1.70577
2022-11-25 16:33:58.611726, 1.72043
2022-11-25 16:33:58.611909, 1.69599
2022-11-25 16:33:58.612068, 1.71065
2022-11-25 16:33:58.644848, 1.71554
2022-11-25 16:33:58.645107, 1.71065
2022-11-25 16:33:58.645284, 1.73021
2022-11-25 16:33:58.645453, 1.71065
2022-11-25 16:33:58.678185, 1.70577
2022-11-25 16:33:58.678446, 1.70577
2022-11-25 16:33:58.678624, 1.71065
2022-11-25 16:33:58.711419, 1.72532
2022-11-25 16:33:58.711701, 1.71065
2022-11-25 16:33:58.711879, 1.71554
2022-11-25 16:33:58.712038, 1.71065
2022-11-25 16:33:58.744819, 1.70088
2022-11-25 16:33:58.745085, 1.72043
2022-11-25 16:33:58.745253, 1.70577
2022-11-25 16:33:58.777996, 1.69599
2022-11-25 16:33:58.778301, 1.69110
2022-11-25 16:33:58.778483, 1.69110
2022-11-25 16:33:58.778643, 1.71554
2022-11-25 16:33:58.811359, 1.68133
2022-11-25 16:33:58.811593, 1.67644
2022-11-25 16:33:58.811721, 1.71554
2022-11-25 16:33:58.844547, 1.66667
2022-11-25 16:33:58.844916, 1.66667
2022-11-25 16:33:58.845117, 1.68622
2022-11-25 16:33:58.845283, 1.66178
2022-11-25 16:33:58.877938, 1.66178
2022-11-25 16:33:58.878267, 1.66667
2022-11-25 16:33:58.878477, 1.66667
2022-11-25 16:33:58.911095, 1.66178
2022-11-25 16:33:58.911404, 1.65689
2022-11-25 16:33:58.911544, 1.66667
2022-11-25 16:33:58.911661, 1.66178
2022-11-25 16:33:58.944519, 1.65689
2022-11-25 16:33:58.944861, 1.64712
2022-11-25 16:33:58.945066, 1.65689
2022-11-25 16:33:58.945232, 1.65689
2022-11-25 16:33:58.977889, 1.66178
2022-11-25 16:33:58.978229, 1.68622
2022-11-25 16:33:58.978430, 1.65200
2022-11-25 16:33:59.011105, 1.65200
2022-11-25 16:33:59.011555, 1.65200
2022-11-25 16:33:59.011766, 1.65200
2022-11-25 16:33:59.011936, 1.64712
2022-11-25 16:33:59.044447, 1.64712
2022-11-25 16:33:59.044894, 1.65200
2022-11-25 16:33:59.045103, 1.64712
2022-11-25 16:33:59.077625, 1.63734
2022-11-25 16:33:59.077768, 1.63734
2022-11-25 16:33:59.077855, 1.64223
2022-11-25 16:33:59.077938, 1.63245
2022-11-25 16:33:59.110999, 1.63245
2022-11-25 16:33:59.111188, 1.63245
2022-11-25 16:33:59.111331, 1.64223
2022-11-25 16:33:59.144248, 1.63734
2022-11-25 16:33:59.144495, 1.64712
2022-11-25 16:33:59.144720, 1.66667
2022-11-25 16:33:59.144933, 1.67644
2022-11-25 16:33:59.177620, 1.69599
2022-11-25 16:33:59.177813, 1.72043
2022-11-25 16:33:59.177934, 1.73509
2022-11-25 16:33:59.210834, 1.74976
2022-11-25 16:33:59.211084, 1.75464
2022-11-25 16:33:59.211250, 1.75953
2022-11-25 16:33:59.211502, 1.78397
2022-11-25 16:33:59.244190, 1.75953
2022-11-25 16:33:59.244437, 1.75953
2022-11-25 16:33:59.244621, 1.75464
2022-11-25 16:33:59.244808, 1.74487
2022-11-25 16:33:59.277557, 1.75464
2022-11-25 16:33:59.277808, 1.73509
2022-11-25 16:33:59.278130, 1.73998
2022-11-25 16:33:59.310795, 1.74487
2022-11-25 16:33:59.311096, 1.73998
2022-11-25 16:33:59.311418, 1.74487
2022-11-25 16:33:59.311612, 1.74976
2022-11-25 16:33:59.344178, 1.74976
2022-11-25 16:33:59.344422, 1.74976
2022-11-25 16:33:59.344587, 1.75953
2022-11-25 16:33:59.377374, 1.75464
2022-11-25 16:33:59.377620, 1.75464
2022-11-25 16:33:59.377786, 1.75464
2022-11-25 16:33:59.377952, 1.74487
2022-11-25 16:33:59.410747, 1.74487
2022-11-25 16:33:59.410946, 1.73998
2022-11-25 16:33:59.411073, 1.76931
2022-11-25 16:33:59.444002, 1.72532
2022-11-25 16:33:59.444265, 1.72532
2022-11-25 16:33:59.444502, 1.72043
2022-11-25 16:33:59.444910, 1.72532
2022-11-25 16:33:59.477338, 1.72532
2022-11-25 16:33:59.477591, 1.72043
2022-11-25 16:33:59.477778, 1.73021
2022-11-25 16:33:59.510538, 1.72043
2022-11-25 16:33:59.510814, 1.73509
2022-11-25 16:33:59.510994, 1.72532
2022-11-25 16:33:59.511171, 1.72532
2022-11-25 16:33:59.543923, 1.71554
2022-11-25 16:33:59.544188, 1.73998
2022-11-25 16:33:59.544371, 1.71554
2022-11-25 16:33:59.544534, 1.71065
2022-11-25 16:33:59.577317, 1.73021
2022-11-25 16:33:59.577577, 1.70088
2022-11-25 16:33:59.577747, 1.69599
2022-11-25 16:33:59.610464, 1.69599
2022-11-25 16:33:59.610661, 1.70577
2022-11-25 16:33:59.610781, 1.69110
2022-11-25 16:33:59.610897, 1.69110
2022-11-25 16:33:59.643891, 1.70577
2022-11-25 16:33:59.644156, 1.68133
2022-11-25 16:33:59.644341, 1.69110
2022-11-25 16:33:59.677090, 1.71065
2022-11-25 16:33:59.677336, 1.68622
2022-11-25 16:33:59.677506, 1.67644
2022-11-25 16:33:59.677675, 1.67644
2022-11-25 16:33:59.710465, 1.70577
2022-11-25 16:33:59.710717, 1.68133
2022-11-25 16:33:59.710897, 1.67644
2022-11-25 16:33:59.743687, 1.71554
2022-11-25 16:33:59.743947, 1.68133
2022-11-25 16:33:59.744112, 1.67155
2022-11-25 16:33:59.744263, 1.67155
2022-11-25 16:33:59.777054, 1.71065
2022-11-25 16:33:59.777303, 1.66667
2022-11-25 16:33:59.777471, 1.66667
2022-11-25 16:33:59.810255, 1.65689
2022-11-25 16:33:59.810540, 1.68622
2022-11-25 16:33:59.810717, 1.66178
2022-11-25 16:33:59.810877, 1.66178
2022-11-25 16:33:59.843590, 1.65689
2022-11-25 16:33:59.843785, 1.68133
2022-11-25 16:33:59.843904, 1.65689
2022-11-25 16:33:59.844018, 1.65200
2022-11-25 16:33:59.876935, 1.65689
2022-11-25 16:33:59.877092, 1.67644
2022-11-25 16:33:59.877180, 1.65689
2022-11-25 16:33:59.910229, 1.64712
2022-11-25 16:33:59.910487, 1.65200
2022-11-25 16:33:59.910661, 1.65200
2022-11-25 16:33:59.910817, 1.65689
2022-11-25 16:33:59.943513, 1.66178
2022-11-25 16:33:59.943689, 1.66178
2022-11-25 16:33:59.943801, 1.67155
2022-11-25 16:33:59.976810, 1.72043
2022-11-25 16:33:59.977264, 1.71065
2022-11-25 16:33:59.977439, 1.72532
2022-11-25 16:33:59.977601, 1.74976
2022-11-25 16:34:00.010179, 1.75953
2022-11-25 16:34:00.010433, 1.77419
2022-11-25 16:34:00.010599, 1.78886
2022-11-25 16:34:00.043358, 1.77908
2022-11-25 16:34:00.043589, 1.77419
2022-11-25 16:34:00.043751, 1.76931
2022-11-25 16:34:00.043940, 1.76931
2022-11-25 16:34:00.076665, 1.75953
2022-11-25 16:34:00.076805, 1.76442
2022-11-25 16:34:00.076882, 1.75464
2022-11-25 16:34:00.109965, 1.76931
2022-11-25 16:34:00.110134, 1.76442
2022-11-25 16:34:00.110222, 1.75953
2022-11-25 16:34:00.110304, 1.76442
2022-11-25 16:34:00.143336, 1.76442
2022-11-25 16:34:00.143568, 1.79374
2022-11-25 16:34:00.143728, 1.76931
2022-11-25 16:34:00.143879, 1.76931
2022-11-25 16:34:00.176662, 1.76931
2022-11-25 16:34:00.176871, 1.78886
2022-11-25 16:34:00.176992, 1.77419
2022-11-25 16:34:00.209880, 1.76442
2022-11-25 16:34:00.210044, 1.76931
2022-11-25 16:34:00.210134, 1.76442
2022-11-25 16:34:00.210217, 1.75464
2022-11-25 16:34:00.243289, 1.75464
2022-11-25 16:34:00.243530, 1.76931
2022-11-25 16:34:00.243697, 1.73998
2022-11-25 16:34:00.276483, 1.73509
2022-11-25 16:34:00.276648, 1.73998
2022-11-25 16:34:00.276739, 1.77419
2022-11-25 16:34:00.276827, 1.73998
2022-11-25 16:34:00.309886, 1.74487
2022-11-25 16:34:00.310138, 1.76931
2022-11-25 16:34:00.310307, 1.73998
2022-11-25 16:34:00.343126, 1.73998
2022-11-25 16:34:00.343389, 1.73998
2022-11-25 16:34:00.343561, 1.73998
2022-11-25 16:34:00.343721, 1.73509
2022-11-25 16:34:00.376507, 1.73998
2022-11-25 16:34:00.376714, 1.72532
2022-11-25 16:34:00.376838, 1.70088
2022-11-25 16:34:00.409657, 1.72043
2022-11-25 16:34:00.409869, 1.71554
2022-11-25 16:34:00.409988, 1.70088
2022-11-25 16:34:00.410107, 1.74487
2022-11-25 16:34:00.443045, 1.70088
2022-11-25 16:34:00.443305, 1.69599
2022-11-25 16:34:00.443477, 1.69599
2022-11-25 16:34:00.443640, 1.73021
2022-11-25 16:34:00.476430, 1.69599
2022-11-25 16:34:00.476699, 1.69599
2022-11-25 16:34:00.476873, 1.69110
2022-11-25 16:34:00.509643, 1.68622
2022-11-25 16:34:00.509874, 1.68622
2022-11-25 16:34:00.510032, 1.68133
2022-11-25 16:34:00.510184, 1.68133
2022-11-25 16:34:00.542997, 1.68622
2022-11-25 16:34:00.543234, 1.67644
2022-11-25 16:34:00.543396, 1.67155
2022-11-25 16:34:00.576227, 1.68133
2022-11-25 16:34:00.576392, 1.69110
2022-11-25 16:34:00.576487, 1.67155
2022-11-25 16:34:00.576572, 1.67155
2022-11-25 16:34:00.609607, 1.66667
2022-11-25 16:34:00.609863, 1.69110
2022-11-25 16:34:00.610034, 1.67155
2022-11-25 16:34:00.642823, 1.66178
2022-11-25 16:34:00.643078, 1.66667
2022-11-25 16:34:00.643246, 1.66178
2022-11-25 16:34:00.643408, 1.70088
2022-11-25 16:34:00.676118, 1.66667
2022-11-25 16:34:00.676273, 1.66667
2022-11-25 16:34:00.676362, 1.65689
2022-11-25 16:34:00.709412, 1.68622
2022-11-25 16:34:00.709655, 1.65200
2022-11-25 16:34:00.709824, 1.65689
2022-11-25 16:34:00.709981, 1.65689
2022-11-25 16:34:00.742721, 1.65689
2022-11-25 16:34:00.742949, 1.68133
2022-11-25 16:34:00.743106, 1.66178
2022-11-25 16:34:00.743259, 1.65689
2022-11-25 16:34:00.776144, 1.66178
2022-11-25 16:34:00.776411, 1.66178
2022-11-25 16:34:00.776583, 1.70577
2022-11-25 16:34:00.809368, 1.68622
2022-11-25 16:34:00.809628, 1.70577
2022-11-25 16:34:00.809802, 1.71554
2022-11-25 16:34:00.809962, 1.77908
2022-11-25 16:34:00.842694, 1.75953
2022-11-25 16:34:00.842940, 1.77419
2022-11-25 16:34:00.843107, 1.78397
2022-11-25 16:34:00.875952, 1.78397
2022-11-25 16:34:00.876154, 1.78886
2022-11-25 16:34:00.876272, 1.82796
2022-11-25 16:34:00.876391, 1.78886
2022-11-25 16:34:00.909261, 1.78397
2022-11-25 16:34:00.909450, 1.80352
2022-11-25 16:34:00.909571, 1.77419
2022-11-25 16:34:00.942502, 1.76931
2022-11-25 16:34:00.942738, 1.80841
2022-11-25 16:34:00.942902, 1.77419
2022-11-25 16:34:00.943055, 1.77419
2022-11-25 16:34:00.975908, 1.80352
2022-11-25 16:34:00.976161, 1.78397
2022-11-25 16:34:00.976335, 1.78886
2022-11-25 16:34:01.009093, 1.78886
2022-11-25 16:34:01.009355, 1.82307
2022-11-25 16:34:01.009536, 1.79374
2022-11-25 16:34:01.009691, 1.79863
2022-11-25 16:34:01.042525, 1.79863
2022-11-25 16:34:01.042785, 1.82796
2022-11-25 16:34:01.042962, 1.78886
2022-11-25 16:34:01.043120, 1.78397
2022-11-25 16:34:01.075802, 1.81818
2022-11-25 16:34:01.075994, 1.78397
2022-11-25 16:34:01.076117, 1.77908
2022-11-25 16:34:01.109029, 1.79863
2022-11-25 16:34:01.109228, 1.77419
2022-11-25 16:34:01.109350, 1.77419
2022-11-25 16:34:01.109463, 1.77908
2022-11-25 16:34:01.142399, 1.78397
2022-11-25 16:34:01.142588, 1.79374
2022-11-25 16:34:01.142707, 1.77908
2022-11-25 16:34:01.175651, 1.76931
2022-11-25 16:34:01.175918, 1.77419
2022-11-25 16:34:01.176092, 1.76931
2022-11-25 16:34:01.176254, 1.77419
2022-11-25 16:34:01.209037, 1.76442
2022-11-25 16:34:01.209285, 1.75953
2022-11-25 16:34:01.209465, 1.75953
2022-11-25 16:34:01.242232, 1.75464
2022-11-25 16:34:01.242476, 1.74487
2022-11-25 16:34:01.242642, 1.74487
2022-11-25 16:34:01.242803, 1.73998
2022-11-25 16:34:01.275591, 1.73509
2022-11-25 16:34:01.275800, 1.77419
2022-11-25 16:34:01.275935, 1.73509
2022-11-25 16:34:01.308821, 1.72532
2022-11-25 16:34:01.309101, 1.72043
2022-11-25 16:34:01.309278, 1.72532
2022-11-25 16:34:01.309443, 1.72043
2022-11-25 16:34:01.342201, 1.71554
2022-11-25 16:34:01.342444, 1.72532
2022-11-25 16:34:01.342607, 1.71554
2022-11-25 16:34:01.342768, 1.72043
2022-11-25 16:34:01.375572, 1.71554
2022-11-25 16:34:01.375833, 1.71554
2022-11-25 16:34:01.376007, 1.71554
2022-11-25 16:34:01.408763, 1.72043
2022-11-25 16:34:01.409020, 1.71065
2022-11-25 16:34:01.409188, 1.70577
2022-11-25 16:34:01.409342, 1.70088
2022-11-25 16:34:01.442069, 1.73509
2022-11-25 16:34:01.442236, 1.70088
2022-11-25 16:34:01.442323, 1.69599
2022-11-25 16:34:01.475346, 1.70088
2022-11-25 16:34:01.475541, 1.69599
2022-11-25 16:34:01.475664, 1.68133
2022-11-25 16:34:01.475776, 1.69599
2022-11-25 16:34:01.508730, 1.68133
2022-11-25 16:34:01.508997, 1.68622
2022-11-25 16:34:01.509170, 1.69110
2022-11-25 16:34:01.541948, 1.69599
2022-11-25 16:34:01.542209, 1.69110
2022-11-25 16:34:01.542380, 1.67155
2022-11-25 16:34:01.542538, 1.67644
2022-11-25 16:34:01.575203, 1.67155
2022-11-25 16:34:01.575316, 1.67155
2022-11-25 16:34:01.575396, 1.72043
2022-11-25 16:34:01.608510, 1.68133
2022-11-25 16:34:01.608687, 1.68622
2022-11-25 16:34:01.608781, 1.69110
2022-11-25 16:34:01.608863, 1.72043
2022-11-25 16:34:01.641872, 1.75464
2022-11-25 16:34:01.642065, 1.75464
2022-11-25 16:34:01.642203, 1.76931
2022-11-25 16:34:01.642320, 1.77908
2022-11-25 16:34:01.675232, 1.78886
2022-11-25 16:34:01.675478, 1.79863
2022-11-25 16:34:01.675642, 1.82796
2022-11-25 16:34:01.708487, 1.79374
2022-11-25 16:34:01.708724, 1.79374
2022-11-25 16:34:01.708888, 1.79863
2022-11-25 16:34:01.709050, 1.78886
2022-11-25 16:34:01.741807, 1.78397
2022-11-25 16:34:01.742002, 1.78886
2022-11-25 16:34:01.742125, 1.78397
2022-11-25 16:34:01.775072, 1.78397
2022-11-25 16:34:01.775333, 1.79374
2022-11-25 16:34:01.775514, 1.78886
2022-11-25 16:34:01.775669, 1.79374
2022-11-25 16:34:01.808422, 1.79374
2022-11-25 16:34:01.808668, 1.79863
2022-11-25 16:34:01.808828, 1.79374
2022-11-25 16:34:01.841642, 1.79374
2022-11-25 16:34:01.841913, 1.80352
2022-11-25 16:34:01.842087, 1.77908
2022-11-25 16:34:01.842247, 1.77908
2022-11-25 16:34:01.875000, 1.76931
2022-11-25 16:34:01.875256, 1.77419
2022-11-25 16:34:01.875419, 1.78397
2022-11-25 16:34:01.908222, 1.76442
2022-11-25 16:34:01.908441, 1.75464
2022-11-25 16:34:01.908569, 1.77419
2022-11-25 16:34:01.908692, 1.76931
2022-11-25 16:34:01.941570, 1.76442
2022-11-25 16:34:01.941806, 1.80841
2022-11-25 16:34:01.941966, 1.76931
2022-11-25 16:34:01.942121, 1.76931
2022-11-25 16:34:01.974945, 1.80352
2022-11-25 16:34:01.975189, 1.76442
2022-11-25 16:34:01.975352, 1.76442
2022-11-25 16:34:02.008186, 1.77419
2022-11-25 16:34:02.008388, 1.75464
2022-11-25 16:34:02.008516, 1.74487
2022-11-25 16:34:02.008630, 1.74487
2022-11-25 16:34:02.041547, 1.77419
2022-11-25 16:34:02.041808, 1.73998
2022-11-25 16:34:02.041980, 1.73021
2022-11-25 16:34:02.074754, 1.73021
2022-11-25 16:34:02.074964, 1.73021
2022-11-25 16:34:02.075089, 1.72532
2022-11-25 16:34:02.075216, 1.72532
2022-11-25 16:34:02.108093, 1.73021
2022-11-25 16:34:02.108297, 1.72043
2022-11-25 16:34:02.108427, 1.71554
2022-11-25 16:34:02.141372, 1.74976
2022-11-25 16:34:02.141625, 1.72043
2022-11-25 16:34:02.141799, 1.71065
2022-11-25 16:34:02.141960, 1.71065
2022-11-25 16:34:02.174716, 1.72043
2022-11-25 16:34:02.174909, 1.70577
2022-11-25 16:34:02.175030, 1.69599
2022-11-25 16:34:02.207934, 1.70088
2022-11-25 16:34:02.208211, 1.69599
2022-11-25 16:34:02.208403, 1.69599
2022-11-25 16:34:02.208562, 1.69110
2022-11-25 16:34:02.241298, 1.69110
2022-11-25 16:34:02.241503, 1.69110
2022-11-25 16:34:02.241623, 1.71554
2022-11-25 16:34:02.241747, 1.68622
2022-11-25 16:34:02.274594, 1.68133
2022-11-25 16:34:02.274773, 1.68622
2022-11-25 16:34:02.274889, 1.68133
2022-11-25 16:34:02.307905, 1.70088
2022-11-25 16:34:02.308173, 1.68622
2022-11-25 16:34:02.308350, 1.67155
2022-11-25 16:34:02.308510, 1.67644
2022-11-25 16:34:02.341246, 1.67155
2022-11-25 16:34:02.341494, 1.67155
2022-11-25 16:34:02.341656, 1.71065
2022-11-25 16:34:02.374493, 1.67644
2022-11-25 16:34:02.374757, 1.68133
2022-11-25 16:34:02.374932, 1.67644
2022-11-25 16:34:02.375095, 1.68622
2022-11-25 16:34:02.407857, 1.69110
2022-11-25 16:34:02.408118, 1.70577
2022-11-25 16:34:02.408291, 1.70577
2022-11-25 16:34:02.441073, 1.74487
2022-11-25 16:34:02.441331, 1.79374
2022-11-25 16:34:02.441496, 1.77908
2022-11-25 16:34:02.441653, 1.79374
2022-11-25 16:34:02.474459, 1.80352
2022-11-25 16:34:02.474715, 1.80841
2022-11-25 16:34:02.474884, 1.80841
2022-11-25 16:34:02.507663, 1.81329
2022-11-25 16:34:02.507957, 1.80841
2022-11-25 16:34:02.508140, 1.82307
2022-11-25 16:34:02.508301, 1.80352
2022-11-25 16:34:02.540986, 1.80352
2022-11-25 16:34:02.541157, 1.81329
2022-11-25 16:34:02.541246, 1.80352
2022-11-25 16:34:02.541331, 1.80841
2022-11-25 16:34:02.574308, 1.81329
2022-11-25 16:34:02.574473, 1.80841
2022-11-25 16:34:02.574564, 1.81329
2022-11-25 16:34:02.607592, 1.81818
2022-11-25 16:34:02.607838, 1.82307
2022-11-25 16:34:02.608012, 1.81818
2022-11-25 16:34:02.608173, 1.82307
2022-11-25 16:34:02.640989, 1.82307
2022-11-25 16:34:02.641249, 1.81329
2022-11-25 16:34:02.641422, 1.80352
2022-11-25 16:34:02.674199, 1.80841
2022-11-25 16:34:02.674460, 1.80352
2022-11-25 16:34:02.674626, 1.83284
2022-11-25 16:34:02.674788, 1.79374
2022-11-25 16:34:02.707544, 1.78886
2022-11-25 16:34:02.707747, 1.78397
2022-11-25 16:34:02.707880, 1.77908
2022-11-25 16:34:02.740820, 1.78397
2022-11-25 16:34:02.741077, 1.81329
2022-11-25 16:34:02.741242, 1.77908
2022-11-25 16:34:02.741401, 1.78397
2022-11-25 16:34:02.774127, 1.81329
2022-11-25 16:34:02.774332, 1.78886
2022-11-25 16:34:02.774459, 1.78397
2022-11-25 16:34:02.807352, 1.80841
2022-11-25 16:34:02.807632, 1.77908
2022-11-25 16:34:02.807812, 1.77419
2022-11-25 16:34:02.807975, 1.80841
2022-11-25 16:34:02.840696, 1.76442
2022-11-25 16:34:02.840898, 1.76442
2022-11-25 16:34:02.841024, 1.77908
2022-11-25 16:34:02.841140, 1.75464
2022-11-25 16:34:02.874093, 1.74487
2022-11-25 16:34:02.874353, 1.78397
2022-11-25 16:34:02.874523, 1.74487
2022-11-25 16:34:02.907301, 1.74976
2022-11-25 16:34:02.907504, 1.73998
2022-11-25 16:34:02.907624, 1.73509
2022-11-25 16:34:02.907739, 1.74976
2022-11-25 16:34:02.940639, 1.73021
2022-11-25 16:34:02.940830, 1.73509
2022-11-25 16:34:02.940948, 1.72532
2022-11-25 16:34:02.973924, 1.75464
2022-11-25 16:34:02.974170, 1.73509
2022-11-25 16:34:02.974407, 1.73021
2022-11-25 16:34:02.974673, 1.72532
2022-11-25 16:34:03.007120, 1.75464
2022-11-25 16:34:03.007287, 1.72043
2022-11-25 16:34:03.007379, 1.71554
2022-11-25 16:34:03.040497, 1.72532
2022-11-25 16:34:03.040754, 1.71065
2022-11-25 16:34:03.040921, 1.74487
2022-11-25 16:34:03.041085, 1.70577
2022-11-25 16:34:03.073718, 1.70577
2022-11-25 16:34:03.073820, 1.70088
2022-11-25 16:34:03.073899, 1.69599
2022-11-25 16:34:03.107035, 1.71065
2022-11-25 16:34:03.107199, 1.70577
2022-11-25 16:34:03.107295, 1.69110
2022-11-25 16:34:03.107383, 1.69110
2022-11-25 16:34:03.140404, 1.67644
2022-11-25 16:34:03.140589, 1.68622
2022-11-25 16:34:03.140711, 1.71065
2022-11-25 16:34:03.140822, 1.68133
2022-11-25 16:34:03.173745, 1.67155
2022-11-25 16:34:03.173998, 1.66667
2022-11-25 16:34:03.174177, 1.66667
2022-11-25 16:34:03.207017, 1.66667
2022-11-25 16:34:03.207179, 1.66667
2022-11-25 16:34:03.207271, 1.66178
2022-11-25 16:34:03.207360, 1.66667
2022-11-25 16:34:03.240341, 1.66667
2022-11-25 16:34:03.240533, 1.67644
2022-11-25 16:34:03.240652, 1.68133
2022-11-25 16:34:03.273602, 1.67155
2022-11-25 16:34:03.273804, 1.70088
2022-11-25 16:34:03.273925, 1.72043
2022-11-25 16:34:03.274040, 1.71554
2022-11-25 16:34:03.306975, 1.71065
2022-11-25 16:34:03.307222, 1.73021
2022-11-25 16:34:03.307385, 1.74976
2022-11-25 16:34:03.340196, 1.78886
2022-11-25 16:34:03.340457, 1.77908
2022-11-25 16:34:03.340630, 1.78886
2022-11-25 16:34:03.340795, 1.79374
2022-11-25 16:34:03.373516, 1.79374
2022-11-25 16:34:03.373716, 1.79863
2022-11-25 16:34:03.373837, 1.81329
2022-11-25 16:34:03.406773, 1.79374
2022-11-25 16:34:03.406998, 1.78397
2022-11-25 16:34:03.407127, 1.79374
2022-11-25 16:34:03.407244, 1.82307
2022-11-25 16:34:03.440137, 1.78886
2022-11-25 16:34:03.440333, 1.79374
2022-11-25 16:34:03.440461, 1.80352
2022-11-25 16:34:03.440648, 1.80352
2022-11-25 16:34:03.473518, 1.80841
2022-11-25 16:34:03.473720, 1.82307
2022-11-25 16:34:03.473844, 1.82307
2022-11-25 16:34:03.506714, 1.81329
2022-11-25 16:34:03.506915, 1.82307
2022-11-25 16:34:03.507037, 1.85728
2022-11-25 16:34:03.507162, 1.82307
2022-11-25 16:34:03.540052, 1.81329
2022-11-25 16:34:03.540235, 1.81818
2022-11-25 16:34:03.540357, 1.80352
2022-11-25 16:34:03.573312, 1.80352
2022-11-25 16:34:03.573472, 1.79863
2022-11-25 16:34:03.573564, 1.78886
2022-11-25 16:34:03.573649, 1.78886
2022-11-25 16:34:03.606610, 1.78886
2022-11-25 16:34:03.606752, 1.78886
2022-11-25 16:34:03.606837, 1.78397
2022-11-25 16:34:03.639899, 1.78886
2022-11-25 16:34:03.640089, 1.81329
2022-11-25 16:34:03.640206, 1.78886
2022-11-25 16:34:03.640317, 1.77908
2022-11-25 16:34:03.673227, 1.77908
2022-11-25 16:34:03.673414, 1.77908
2022-11-25 16:34:03.673530, 1.76931
2022-11-25 16:34:03.706483, 1.76931
2022-11-25 16:34:03.706752, 1.76931
2022-11-25 16:34:03.706918, 1.76442
2022-11-25 16:34:03.707075, 1.74976
2022-11-25 16:34:03.739820, 1.75953
2022-11-25 16:34:03.739992, 1.75464
2022-11-25 16:34:03.740107, 1.74487
2022-11-25 16:34:03.740218, 1.74976
2022-11-25 16:34:03.773143, 1.73509
2022-11-25 16:34:03.773325, 1.73998
2022-11-25 16:34:03.773440, 1.76442
2022-11-25 16:34:03.806461, 1.72043
2022-11-25 16:34:03.806639, 1.72532
2022-11-25 16:34:03.806756, 1.72532
2022-11-25 16:34:03.806866, 1.75464
2022-11-25 16:34:03.839743, 1.71554
2022-11-25 16:34:03.839916, 1.71554
2022-11-25 16:34:03.840032, 1.71065
2022-11-25 16:34:03.873036, 1.72532
2022-11-25 16:34:03.873261, 1.71065
2022-11-25 16:34:03.873426, 1.70577
2022-11-25 16:34:03.873582, 1.70577
2022-11-25 16:34:03.906332, 1.70088
2022-11-25 16:34:03.906489, 1.73509
2022-11-25 16:34:03.906581, 1.70088
2022-11-25 16:34:03.939597, 1.69110
2022-11-25 16:34:03.939800, 1.68622
2022-11-25 16:34:03.939924, 1.68622
2022-11-25 16:34:03.940041, 1.68622
2022-11-25 16:34:03.972929, 1.68133
2022-11-25 16:34:03.973093, 1.68622
2022-11-25 16:34:03.973183, 1.68133
2022-11-25 16:34:04.006184, 1.68133
2022-11-25 16:34:04.006454, 1.70577
2022-11-25 16:34:04.006625, 1.67644
2022-11-25 16:34:04.006785, 1.67644
2022-11-25 16:34:04.039576, 1.67155
2022-11-25 16:34:04.039845, 1.67155
2022-11-25 16:34:04.040017, 1.70577
2022-11-25 16:34:04.040181, 1.67155
2022-11-25 16:34:04.072893, 1.66667
2022-11-25 16:34:04.073093, 1.66667
2022-11-25 16:34:04.073219, 1.65689
2022-11-25 16:34:04.106084, 1.66178
2022-11-25 16:34:04.106278, 1.66667
2022-11-25 16:34:04.106401, 1.66667
2022-11-25 16:34:04.106514, 1.69110
2022-11-25 16:34:04.139511, 1.65689
2022-11-25 16:34:04.139738, 1.65689
2022-11-25 16:34:04.139898, 1.65689
2022-11-25 16:34:04.172690, 1.66667
2022-11-25 16:34:04.172890, 1.67155
2022-11-25 16:34:04.173008, 1.68622
2022-11-25 16:34:04.173126, 1.70088
2022-11-25 16:34:04.206057, 1.71554
2022-11-25 16:34:04.206216, 1.75464
2022-11-25 16:34:04.206307, 1.76442
2022-11-25 16:34:04.239291, 1.76931
2022-11-25 16:34:04.239474, 1.77908
2022-11-25 16:34:04.239593, 1.80352
2022-11-25 16:34:04.239709, 1.79374
2022-11-25 16:34:04.272557, 1.77908
2022-11-25 16:34:04.272748, 1.78397
2022-11-25 16:34:04.272874, 1.77908
2022-11-25 16:34:04.305855, 1.80352
2022-11-25 16:34:04.306073, 1.77419
2022-11-25 16:34:04.306199, 1.77419
2022-11-25 16:34:04.306312, 1.77908
2022-11-25 16:34:04.339146, 1.78397
2022-11-25 16:34:04.339298, 1.77908
2022-11-25 16:34:04.339391, 1.78397
2022-11-25 16:34:04.339476, 1.81329
2022-11-25 16:34:04.372599, 1.79374
2022-11-25 16:34:04.372780, 1.79863
2022-11-25 16:34:04.372900, 1.80352
2022-11-25 16:34:04.405856, 1.80352
2022-11-25 16:34:04.406090, 1.80352
2022-11-25 16:34:04.406248, 1.80352
2022-11-25 16:34:04.406418, 1.82796
2022-11-25 16:34:04.439133, 1.78886
2022-11-25 16:34:04.439330, 1.78397
2022-11-25 16:34:04.439456, 1.80352
2022-11-25 16:34:04.472405, 1.77908
2022-11-25 16:34:04.472603, 1.77419
2022-11-25 16:34:04.472731, 1.77908
2022-11-25 16:34:04.472848, 1.76931
2022-11-25 16:34:04.505766, 1.76931
2022-11-25 16:34:04.505961, 1.77419
2022-11-25 16:34:04.506081, 1.77908
2022-11-25 16:34:04.538979, 1.77419
2022-11-25 16:34:04.539166, 1.77419
2022-11-25 16:34:04.539294, 1.78397
2022-11-25 16:34:04.539403, 1.77419
2022-11-25 16:34:04.572296, 1.77419
2022-11-25 16:34:04.572458, 1.77419
2022-11-25 16:34:04.572549, 1.76442
2022-11-25 16:34:04.605501, 1.76931
2022-11-25 16:34:04.605668, 1.75953
2022-11-25 16:34:04.605756, 1.75464
2022-11-25 16:34:04.605837, 1.75953
2022-11-25 16:34:04.638917, 1.75953
2022-11-25 16:34:04.639103, 1.74487
2022-11-25 16:34:04.639224, 1.75953
2022-11-25 16:34:04.639340, 1.74487
2022-11-25 16:34:04.672359, 1.73509
2022-11-25 16:34:04.672603, 1.75464
2022-11-25 16:34:04.672765, 1.73509
2022-11-25 16:34:04.705609, 1.73509
2022-11-25 16:34:04.705871, 1.73998
2022-11-25 16:34:04.706046, 1.72532
2022-11-25 16:34:04.706204, 1.72532
2022-11-25 16:34:04.738855, 1.72532
2022-11-25 16:34:04.739042, 1.72532
2022-11-25 16:34:04.739160, 1.71554
2022-11-25 16:34:04.772150, 1.74976
2022-11-25 16:34:04.772385, 1.71554
2022-11-25 16:34:04.772560, 1.70088
2022-11-25 16:34:04.772725, 1.69599
2022-11-25 16:34:04.805436, 1.69110
2022-11-25 16:34:04.805636, 1.69599
2022-11-25 16:34:04.805755, 1.68622
2022-11-25 16:34:04.838679, 1.68622
2022-11-25 16:34:04.838879, 1.68133
2022-11-25 16:34:04.839005, 1.70088
2022-11-25 16:34:04.839116, 1.68133
2022-11-25 16:34:04.872024, 1.67155
2022-11-25 16:34:04.872217, 1.67155
2022-11-25 16:34:04.872341, 1.66667
2022-11-25 16:34:04.905242, 1.67644
2022-11-25 16:34:04.905454, 1.66667
2022-11-25 16:34:04.905577, 1.66667
2022-11-25 16:34:04.905693, 1.67155
2022-11-25 16:34:04.938693, 1.67155
2022-11-25 16:34:04.938939, 1.67644
2022-11-25 16:34:04.939114, 1.70088
2022-11-25 16:34:04.939275, 1.66667
2022-11-25 16:34:04.972044, 1.66178
2022-11-25 16:34:04.972296, 1.66178
2022-11-25 16:34:04.972469, 1.65689
2022-11-25 16:34:05.005164, 1.66178
2022-11-25 16:34:05.005330, 1.67155
2022-11-25 16:34:05.005422, 1.67155
2022-11-25 16:34:05.005507, 1.67644
2022-11-25 16:34:05.038655, 1.69110
2022-11-25 16:34:05.038920, 1.71065
2022-11-25 16:34:05.039099, 1.74976
2022-11-25 16:34:05.071763, 1.74976
2022-11-25 16:34:05.071925, 1.75464
2022-11-25 16:34:05.072025, 1.76931
2022-11-25 16:34:05.072132, 1.77419
2022-11-25 16:34:05.105113, 1.77908
2022-11-25 16:34:05.105264, 1.77419
2022-11-25 16:34:05.105353, 1.77908
2022-11-25 16:34:05.138405, 1.78886
2022-11-25 16:34:05.138602, 1.76442
2022-11-25 16:34:05.138728, 1.76931
2022-11-25 16:34:05.138854, 1.76931
2022-11-25 16:34:05.171878, 1.77908
2022-11-25 16:34:05.172136, 1.76931
2022-11-25 16:34:05.172310, 1.76931
2022-11-25 16:34:05.204983, 1.77908
2022-11-25 16:34:05.205198, 1.80352
2022-11-25 16:34:05.205327, 1.77419
2022-11-25 16:34:05.205446, 1.76931
2022-11-25 16:34:05.238342, 1.78886
2022-11-25 16:34:05.238529, 1.77419
2022-11-25 16:34:05.238646, 1.77419
2022-11-25 16:34:05.238757, 1.75953
2022-11-25 16:34:05.271716, 1.77419
2022-11-25 16:34:05.271915, 1.76442
2022-11-25 16:34:05.272040, 1.75464
2022-11-25 16:34:05.304940, 1.75464
2022-11-25 16:34:05.305097, 1.75464
2022-11-25 16:34:05.305188, 1.74976
2022-11-25 16:34:05.305276, 1.74976
2022-11-25 16:34:05.338303, 1.74976
2022-11-25 16:34:05.338480, 1.77419
2022-11-25 16:34:05.338596, 1.74487
2022-11-25 16:34:05.371618, 1.75464
2022-11-25 16:34:05.371878, 1.74976
2022-11-25 16:34:05.372048, 1.75464
2022-11-25 16:34:05.372210, 1.74487
2022-11-25 16:34:05.404950, 1.77908
2022-11-25 16:34:05.405143, 1.75464
2022-11-25 16:34:05.405268, 1.74487
2022-11-25 16:34:05.438189, 1.74976
2022-11-25 16:34:05.438447, 1.73509
2022-11-25 16:34:05.438614, 1.73509
2022-11-25 16:34:05.438773, 1.72043
2022-11-25 16:34:05.471491, 1.72532
2022-11-25 16:34:05.471648, 1.73021
2022-11-25 16:34:05.471738, 1.72043
2022-11-25 16:34:05.504722, 1.71554
2022-11-25 16:34:05.504933, 1.71065
2022-11-25 16:34:05.505057, 1.71554
2022-11-25 16:34:05.505172, 1.70577
2022-11-25 16:34:05.538084, 1.70577
2022-11-25 16:34:05.538275, 1.70577
2022-11-25 16:34:05.538401, 1.70088
2022-11-25 16:34:05.538513, 1.69599
2022-11-25 16:34:05.571401, 1.69599
2022-11-25 16:34:05.571556, 1.69599
2022-11-25 16:34:05.571649, 1.69599
2022-11-25 16:34:05.604727, 1.69110
2022-11-25 16:34:05.604890, 1.68622
2022-11-25 16:34:05.604978, 1.72043
2022-11-25 16:34:05.605059, 1.69110
2022-11-25 16:34:05.638044, 1.68622
2022-11-25 16:34:05.638249, 1.68622
2022-11-25 16:34:05.638369, 1.71065
2022-11-25 16:34:05.671179, 1.67644
2022-11-25 16:34:05.671328, 1.67644
2022-11-25 16:34:05.671415, 1.67155
2022-11-25 16:34:05.671499, 1.67155
2022-11-25 16:34:05.704611, 1.66178
2022-11-25 16:34:05.704809, 1.66178
2022-11-25 16:34:05.704932, 1.65689
2022-11-25 16:34:05.737896, 1.66178
2022-11-25 16:34:05.738097, 1.69110
2022-11-25 16:34:05.738221, 1.65200
2022-11-25 16:34:05.738331, 1.65200
2022-11-25 16:34:05.771254, 1.64223
2022-11-25 16:34:05.771504, 1.65689
2022-11-25 16:34:05.771667, 1.64712
2022-11-25 16:34:05.804457, 1.67644
2022-11-25 16:34:05.804621, 1.64223
2022-11-25 16:34:05.804710, 1.64223
2022-11-25 16:34:05.804797, 1.64223
2022-11-25 16:34:05.837856, 1.64223
2022-11-25 16:34:05.838113, 1.64223
2022-11-25 16:34:05.838285, 1.65689
2022-11-25 16:34:05.838444, 1.70088
2022-11-25 16:34:05.871123, 1.69110
2022-11-25 16:34:05.871271, 1.71065
2022-11-25 16:34:05.871360, 1.72532
2022-11-25 16:34:05.904420, 1.73998
2022-11-25 16:34:05.904678, 1.75464
2022-11-25 16:34:05.904846, 1.75464
2022-11-25 16:34:05.905005, 1.75464
2022-11-25 16:34:05.937770, 1.75953
2022-11-25 16:34:05.938010, 1.75953
2022-11-25 16:34:05.938178, 1.75464
2022-11-25 16:34:05.971004, 1.79374
2022-11-25 16:34:05.971218, 1.74976
2022-11-25 16:34:05.971343, 1.75464
2022-11-25 16:34:05.971456, 1.75464
2022-11-25 16:34:06.004374, 1.74976
2022-11-25 16:34:06.004630, 1.75464
2022-11-25 16:34:06.004796, 1.74976
2022-11-25 16:34:06.037585, 1.76931
2022-11-25 16:34:06.037750, 1.75464
2022-11-25 16:34:06.037841, 1.75464
2022-11-25 16:34:06.037932, 1.76931
2022-11-25 16:34:06.070910, 1.75464
2022-11-25 16:34:06.071071, 1.75464
2022-11-25 16:34:06.071158, 1.74976
2022-11-25 16:34:06.104149, 1.76442
2022-11-25 16:34:06.104357, 1.74487
2022-11-25 16:34:06.104481, 1.73998
2022-11-25 16:34:06.104594, 1.73509
2022-11-25 16:34:06.137517, 1.75464
2022-11-25 16:34:06.137737, 1.73021
2022-11-25 16:34:06.137903, 1.73021
2022-11-25 16:34:06.138058, 1.73021
2022-11-25 16:34:06.170905, 1.73998
2022-11-25 16:34:06.171159, 1.73509
2022-11-25 16:34:06.171331, 1.76931
2022-11-25 16:34:06.204153, 1.73509
2022-11-25 16:34:06.204415, 1.73509
2022-11-25 16:34:06.204586, 1.73021
2022-11-25 16:34:06.204746, 1.74487
2022-11-25 16:34:06.237549, 1.72532
2022-11-25 16:34:06.237801, 1.72532
2022-11-25 16:34:06.237969, 1.73021
2022-11-25 16:34:06.270707, 1.72043
2022-11-25 16:34:06.270875, 1.71554
2022-11-25 16:34:06.270962, 1.71554
2022-11-25 16:34:06.271047, 1.71065
2022-11-25 16:34:06.304070, 1.70577
2022-11-25 16:34:06.304331, 1.70088
2022-11-25 16:34:06.304504, 1.69599
2022-11-25 16:34:06.337289, 1.69599
2022-11-25 16:34:06.337446, 1.69110
2022-11-25 16:34:06.337534, 1.69599
2022-11-25 16:34:06.337761, 1.68622
2022-11-25 16:34:06.370686, 1.69110
2022-11-25 16:34:06.370936, 1.68622
2022-11-25 16:34:06.371106, 1.70577
2022-11-25 16:34:06.403874, 1.68622
2022-11-25 16:34:06.404136, 1.67644
2022-11-25 16:34:06.404305, 1.68133
2022-11-25 16:34:06.404464, 1.71065
2022-11-25 16:34:06.437232, 1.69599
2022-11-25 16:34:06.437476, 1.67155
2022-11-25 16:34:06.437648, 1.66667
2022-11-25 16:34:06.437807, 1.66667
2022-11-25 16:34:06.470539, 1.67155
2022-11-25 16:34:06.470722, 1.66178
2022-11-25 16:34:06.470834, 1.65689
2022-11-25 16:34:06.503804, 1.65689
2022-11-25 16:34:06.504053, 1.69110
2022-11-25 16:34:06.504222, 1.65200
2022-11-25 16:34:06.504381, 1.65689
2022-11-25 16:34:06.537177, 1.65200
2022-11-25 16:34:06.537411, 1.69599
2022-11-25 16:34:06.537570, 1.65200
2022-11-25 16:34:06.570459, 1.64712
2022-11-25 16:34:06.570607, 1.64712
2022-11-25 16:34:06.570688, 1.64712
2022-11-25 16:34:06.570767, 1.65689
2022-11-25 16:34:06.603745, 1.64223
2022-11-25 16:34:06.603929, 1.64223
2022-11-25 16:34:06.604046, 1.62757
2022-11-25 16:34:06.637000, 1.67155
2022-11-25 16:34:06.637171, 1.63734
2022-11-25 16:34:06.637262, 1.63734
2022-11-25 16:34:06.637348, 1.63734
2022-11-25 16:34:06.670382, 1.64223
2022-11-25 16:34:06.670622, 1.64712
2022-11-25 16:34:06.670794, 1.63245
2022-11-25 16:34:06.703569, 1.64223
2022-11-25 16:34:06.703827, 1.65200
2022-11-25 16:34:06.703996, 1.67644
2022-11-25 16:34:06.704149, 1.68133
2022-11-25 16:34:06.736939, 1.71065
2022-11-25 16:34:06.737179, 1.72532
2022-11-25 16:34:06.737339, 1.74487
2022-11-25 16:34:06.737497, 1.74976
2022-11-25 16:34:06.770248, 1.75464
2022-11-25 16:34:06.770406, 1.76442
2022-11-25 16:34:06.770498, 1.75464
2022-11-25 16:34:06.803576, 1.75953
2022-11-25 16:34:06.803835, 1.75953
2022-11-25 16:34:06.804009, 1.74976
2022-11-25 16:34:06.804166, 1.73509
2022-11-25 16:34:06.836844, 1.74976
2022-11-25 16:34:06.837007, 1.74487
2022-11-25 16:34:06.837096, 1.74487
2022-11-25 16:34:06.870139, 1.75464
2022-11-25 16:34:06.870394, 1.77419
2022-11-25 16:34:06.870565, 1.75464
2022-11-25 16:34:06.870726, 1.74976
2022-11-25 16:34:06.903551, 1.76931
2022-11-25 16:34:06.903804, 1.75464
2022-11-25 16:34:06.903978, 1.75464
2022-11-25 16:34:06.936733, 1.75464
2022-11-25 16:34:06.936989, 1.78397
2022-11-25 16:34:06.937155, 1.74976
2022-11-25 16:34:06.937324, 1.74487
2022-11-25 16:34:06.970075, 1.75953
2022-11-25 16:34:06.970313, 1.73998
2022-11-25 16:34:06.970482, 1.73509
2022-11-25 16:34:07.003307, 1.73021
2022-11-25 16:34:07.003588, 1.74487
2022-11-25 16:34:07.003774, 1.72532
2022-11-25 16:34:07.003936, 1.73021
2022-11-25 16:34:07.036678, 1.74976
2022-11-25 16:34:07.036923, 1.72532
2022-11-25 16:34:07.037096, 1.73021
2022-11-25 16:34:07.037253, 1.76442
2022-11-25 16:34:07.069989, 1.73021
2022-11-25 16:34:07.070154, 1.73021
2022-11-25 16:34:07.070248, 1.73021
2022-11-25 16:34:07.103290, 1.72532
2022-11-25 16:34:07.103529, 1.71554
2022-11-25 16:34:07.103689, 1.73998
2022-11-25 16:34:07.103848, 1.71065
2022-11-25 16:34:07.136552, 1.71065
2022-11-25 16:34:07.136701, 1.74976
2022-11-25 16:34:07.136785, 1.70088
2022-11-25 16:34:07.169851, 1.69599
2022-11-25 16:34:07.170104, 1.73021
2022-11-25 16:34:07.170267, 1.69110
2022-11-25 16:34:07.170427, 1.67644
2022-11-25 16:34:07.203194, 1.68133
2022-11-25 16:34:07.203394, 1.68622
2022-11-25 16:34:07.203512, 1.67644
2022-11-25 16:34:07.236438, 1.67155
2022-11-25 16:34:07.236699, 1.67155
2022-11-25 16:34:07.236868, 1.68133
2022-11-25 16:34:07.237036, 1.66667
2022-11-25 16:34:07.269847, 1.66667
2022-11-25 16:34:07.270105, 1.66667
2022-11-25 16:34:07.270271, 1.66667
2022-11-25 16:34:07.302994, 1.70577
2022-11-25 16:34:07.303273, 1.66178
2022-11-25 16:34:07.303441, 1.66178
2022-11-25 16:34:07.303599, 1.66178
2022-11-25 16:34:07.336331, 1.67644
2022-11-25 16:34:07.336482, 1.65200
2022-11-25 16:34:07.336573, 1.64712
2022-11-25 16:34:07.336660, 1.64712
2022-11-25 16:34:07.369744, 1.64223
2022-11-25 16:34:07.369983, 1.63734
2022-11-25 16:34:07.370150, 1.63734
2022-11-25 16:34:07.402969, 1.63245
2022-11-25 16:34:07.403167, 1.62757
2022-11-25 16:34:07.403287, 1.63245
2022-11-25 16:34:07.403401, 1.63245
2022-11-25 16:34:07.436310, 1.63734
2022-11-25 16:34:07.436584, 1.62757
2022-11-25 16:34:07.436755, 1.63245
2022-11-25 16:34:07.469554, 1.61779
2022-11-25 16:34:07.469717, 1.62268
2022-11-25 16:34:07.469806, 1.62268
2022-11-25 16:34:07.469895, 1.62268
2022-11-25 16:34:07.502886, 1.62268
2022-11-25 16:34:07.503138, 1.66178
2022-11-25 16:34:07.503310, 1.63245
2022-11-25 16:34:07.536122, 1.62757
2022-11-25 16:34:07.536283, 1.62757
2022-11-25 16:34:07.536373, 1.62757
2022-11-25 16:34:07.536464, 1.62268
2022-11-25 16:34:07.569457, 1.66667
2022-11-25 16:34:07.569620, 1.63245
2022-11-25 16:34:07.569710, 1.62757
2022-11-25 16:34:07.602700, 1.63734
2022-11-25 16:34:07.602879, 1.65200
2022-11-25 16:34:07.602977, 1.67155
2022-11-25 16:34:07.603062, 1.68133
2022-11-25 16:34:07.636095, 1.70577
2022-11-25 16:34:07.636356, 1.74976
2022-11-25 16:34:07.636530, 1.73998
2022-11-25 16:34:07.636690, 1.74976
2022-11-25 16:34:07.669401, 1.78397
2022-11-25 16:34:07.669553, 1.76442
2022-11-25 16:34:07.669637, 1.75953
2022-11-25 16:34:07.702674, 1.76442
2022-11-25 16:34:07.702914, 1.75464
2022-11-25 16:34:07.703075, 1.75953
2022-11-25 16:34:07.703231, 1.78397
2022-11-25 16:34:07.735999, 1.74976
2022-11-25 16:34:07.736163, 1.74487
2022-11-25 16:34:07.736255, 1.78397
2022-11-25 16:34:07.769273, 1.74976
2022-11-25 16:34:07.769527, 1.74487
2022-11-25 16:34:07.769687, 1.78886
2022-11-25 16:34:07.769849, 1.75464
2022-11-25 16:34:07.802651, 1.75953
2022-11-25 16:34:07.802907, 1.78886
2022-11-25 16:34:07.803083, 1.75464
2022-11-25 16:34:07.835833, 1.76442
2022-11-25 16:34:07.836081, 1.76931
2022-11-25 16:34:07.836248, 1.75953
2022-11-25 16:34:07.836406, 1.75464
2022-11-25 16:34:07.869164, 1.75464
2022-11-25 16:34:07.869365, 1.78397
2022-11-25 16:34:07.869484, 1.73998
2022-11-25 16:34:07.902443, 1.73509
2022-11-25 16:34:07.902717, 1.73509
2022-11-25 16:34:07.902899, 1.74976
2022-11-25 16:34:07.903064, 1.72532
2022-11-25 16:34:07.935789, 1.73021
2022-11-25 16:34:07.936023, 1.73509
2022-11-25 16:34:07.936189, 1.73021
2022-11-25 16:34:07.936348, 1.73998
2022-11-25 16:34:07.969134, 1.73021
2022-11-25 16:34:07.969367, 1.72043
2022-11-25 16:34:07.969532, 1.72532
2022-11-25 16:34:08.002355, 1.74976
2022-11-25 16:34:08.002536, 1.72043
2022-11-25 16:34:08.002655, 1.72043
2022-11-25 16:34:08.002769, 1.73509
2022-11-25 16:34:08.035755, 1.71065
2022-11-25 16:34:08.036017, 1.71554
2022-11-25 16:34:08.036190, 1.71065
2022-11-25 16:34:08.068953, 1.71065
2022-11-25 16:34:08.069116, 1.70577
2022-11-25 16:34:08.069209, 1.70577
2022-11-25 16:34:08.069338, 1.70577
2022-11-25 16:34:08.102363, 1.69599
2022-11-25 16:34:08.102628, 1.69599
2022-11-25 16:34:08.102794, 1.70088
2022-11-25 16:34:08.135551, 1.69110
2022-11-25 16:34:08.135716, 1.68622
2022-11-25 16:34:08.135808, 1.71554
2022-11-25 16:34:08.135890, 1.68133
2022-11-25 16:34:08.168948, 1.68622
2022-11-25 16:34:08.169210, 1.72043
2022-11-25 16:34:08.169378, 1.68133
2022-11-25 16:34:08.202130, 1.67644
2022-11-25 16:34:08.202315, 1.68622
2022-11-25 16:34:08.202409, 1.71065
2022-11-25 16:34:08.202493, 1.67155
2022-11-25 16:34:08.235531, 1.67644
2022-11-25 16:34:08.235785, 1.67155
2022-11-25 16:34:08.235953, 1.69110
2022-11-25 16:34:08.236122, 1.67155
2022-11-25 16:34:08.268820, 1.66667
2022-11-25 16:34:08.269034, 1.66178
2022-11-25 16:34:08.269153, 1.66667
2022-11-25 16:34:08.302103, 1.65689
2022-11-25 16:34:08.302358, 1.65689
2022-11-25 16:34:08.302531, 1.65689
2022-11-25 16:34:08.302707, 1.65689
2022-11-25 16:34:08.335419, 1.64712
2022-11-25 16:34:08.335602, 1.64712
2022-11-25 16:34:08.335720, 1.64223
2022-11-25 16:34:08.368687, 1.68133
2022-11-25 16:34:08.368935, 1.64223
2022-11-25 16:34:08.369101, 1.63734
2022-11-25 16:34:08.369264, 1.63245
2022-11-25 16:34:08.402003, 1.63734
2022-11-25 16:34:08.402211, 1.66178
2022-11-25 16:34:08.402331, 1.63245
2022-11-25 16:34:08.435263, 1.65200
2022-11-25 16:34:08.435526, 1.64712
2022-11-25 16:34:08.435688, 1.67644
2022-11-25 16:34:08.435843, 1.69599
2022-11-25 16:34:08.468594, 1.70577
2022-11-25 16:34:08.468745, 1.72532
2022-11-25 16:34:08.468935, 1.74487
2022-11-25 16:34:08.501823, 1.74976
2022-11-25 16:34:08.502084, 1.75953
2022-11-25 16:34:08.502248, 1.76931
2022-11-25 16:34:08.502403, 1.77419
2022-11-25 16:34:08.535173, 1.76931
2022-11-25 16:34:08.535345, 1.75953
2022-11-25 16:34:08.535461, 1.75953
2022-11-25 16:34:08.535577, 1.75464
2022-11-25 16:34:08.568535, 1.75464
2022-11-25 16:34:08.568702, 1.75464
2022-11-25 16:34:08.568793, 1.74487
2022-11-25 16:34:08.601795, 1.74487
2022-11-25 16:34:08.601981, 1.73998
2022-11-25 16:34:08.602097, 1.77908
2022-11-25 16:34:08.602211, 1.73998
2022-11-25 16:34:08.635155, 1.73998
2022-11-25 16:34:08.635385, 1.74487
2022-11-25 16:34:08.635550, 1.74487
2022-11-25 16:34:08.668376, 1.73998
2022-11-25 16:34:08.668526, 1.73509
2022-11-25 16:34:08.668615, 1.73509
2022-11-25 16:34:08.668696, 1.75953
2022-11-25 16:34:08.701729, 1.72043
2022-11-25 16:34:08.701980, 1.72043
2022-11-25 16:34:08.702142, 1.71554
2022-11-25 16:34:08.734969, 1.71554
2022-11-25 16:34:08.735168, 1.72043
2022-11-25 16:34:08.735295, 1.71554
2022-11-25 16:34:08.735409, 1.71554
2022-11-25 16:34:08.768305, 1.73021
2022-11-25 16:34:08.768549, 1.71065
2022-11-25 16:34:08.768774, 1.71554
2022-11-25 16:34:08.801516, 1.73998
2022-11-25 16:34:08.801802, 1.71065
2022-11-25 16:34:08.801978, 1.71065
2022-11-25 16:34:08.802137, 1.70088
2022-11-25 16:34:08.834772, 1.70577
2022-11-25 16:34:08.834908, 1.69599
2022-11-25 16:34:08.834975, 1.69110
2022-11-25 16:34:08.835038, 1.70088
2022-11-25 16:34:08.868239, 1.69110
2022-11-25 16:34:08.868407, 1.67644
2022-11-25 16:34:08.868498, 1.67644
2022-11-25 16:34:08.901497, 1.67644
2022-11-25 16:34:08.901734, 1.66667
2022-11-25 16:34:08.901894, 1.66667
2022-11-25 16:34:08.902058, 1.66667
2022-11-25 16:34:08.934830, 1.65689
2022-11-25 16:34:08.935022, 1.65200
2022-11-25 16:34:08.935141, 1.65689
2022-11-25 16:34:08.968113, 1.65689
2022-11-25 16:34:08.968352, 1.65689
2022-11-25 16:34:08.968515, 1.65689
2022-11-25 16:34:08.968669, 1.65689
2022-11-25 16:34:09.001427, 1.67644
2022-11-25 16:34:09.001595, 1.65200
2022-11-25 16:34:09.001686, 1.66178
2022-11-25 16:34:09.034719, 1.65689
2022-11-25 16:34:09.034981, 1.64712
2022-11-25 16:34:09.035149, 1.65689
2022-11-25 16:34:09.035313, 1.64223
2022-11-25 16:34:09.068026, 1.64223
2022-11-25 16:34:09.068175, 1.63734
2022-11-25 16:34:09.068256, 1.66667
2022-11-25 16:34:09.101257, 1.64223
2022-11-25 16:34:09.101437, 1.63734
2022-11-25 16:34:09.101530, 1.63734
2022-11-25 16:34:09.101615, 1.67644
2022-11-25 16:34:09.134620, 1.64223
2022-11-25 16:34:09.134775, 1.63245
2022-11-25 16:34:09.134863, 1.63245
2022-11-25 16:34:09.134947, 1.62757
2022-11-25 16:34:09.168009, 1.64223
2022-11-25 16:34:09.168248, 1.63245
2022-11-25 16:34:09.168416, 1.62757
2022-11-25 16:34:09.201226, 1.62757
2022-11-25 16:34:09.201389, 1.66178
2022-11-25 16:34:09.201478, 1.63245
2022-11-25 16:34:09.201561, 1.63734
2022-11-25 16:34:09.234569, 1.64712
2022-11-25 16:34:09.234822, 1.66178
2022-11-25 16:34:09.234986, 1.70088
2022-11-25 16:34:09.267792, 1.70088
2022-11-25 16:34:09.267941, 1.72043
2022-11-25 16:34:09.268027, 1.77419
2022-11-25 16:34:09.268110, 1.74976
2022-11-25 16:34:09.301171, 1.75464
2022-11-25 16:34:09.301411, 1.75953
2022-11-25 16:34:09.301570, 1.76931
2022-11-25 16:34:09.334435, 1.75953
2022-11-25 16:34:09.334598, 1.74976
2022-11-25 16:34:09.334688, 1.74976
2022-11-25 16:34:09.334775, 1.76442
2022-11-25 16:34:09.367754, 1.74976
2022-11-25 16:34:09.368014, 1.74976
2022-11-25 16:34:09.368180, 1.74487
2022-11-25 16:34:09.400967, 1.76931
2022-11-25 16:34:09.401189, 1.74487
2022-11-25 16:34:09.401315, 1.74487
2022-11-25 16:34:09.401434, 1.74976
2022-11-25 16:34:09.434360, 1.78886
2022-11-25 16:34:09.434604, 1.74487
2022-11-25 16:34:09.434770, 1.74976
2022-11-25 16:34:09.434929, 1.78397
2022-11-25 16:34:09.467678, 1.74976
2022-11-25 16:34:09.467852, 1.73998
2022-11-25 16:34:09.467942, 1.74976
2022-11-25 16:34:09.500954, 1.73998
2022-11-25 16:34:09.501219, 1.73509
2022-11-25 16:34:09.501392, 1.72532
2022-11-25 16:34:09.501557, 1.73021
2022-11-25 16:34:09.534238, 1.73509
2022-11-25 16:34:09.534410, 1.72532
2022-11-25 16:34:09.534504, 1.72532
2022-11-25 16:34:09.567402, 1.72532
2022-11-25 16:34:09.567556, 1.73021
2022-11-25 16:34:09.567638, 1.72532
2022-11-25 16:34:09.567711, 1.72532
2022-11-25 16:34:09.600809, 1.75464
2022-11-25 16:34:09.600957, 1.71554
2022-11-25 16:34:09.601054, 1.71554
2022-11-25 16:34:09.634114, 1.72532
2022-11-25 16:34:09.634365, 1.71065
2022-11-25 16:34:09.634536, 1.71065
2022-11-25 16:34:09.634691, 1.73021
2022-11-25 16:34:09.667465, 1.70088
2022-11-25 16:34:09.667656, 1.69599
2022-11-25 16:34:09.667777, 1.73021
2022-11-25 16:34:09.700628, 1.69110
2022-11-25 16:34:09.700889, 1.70088
2022-11-25 16:34:09.701063, 1.68622
2022-11-25 16:34:09.701218, 1.68622
2022-11-25 16:34:09.733980, 1.68622
2022-11-25 16:34:09.734133, 1.68133
2022-11-25 16:34:09.734221, 1.69110
2022-11-25 16:34:09.734306, 1.67155
2022-11-25 16:34:09.767415, 1.67644
2022-11-25 16:34:09.767658, 1.71065
2022-11-25 16:34:09.767836, 1.67155
2022-11-25 16:34:09.800544, 1.67644
2022-11-25 16:34:09.800723, 1.66667
2022-11-25 16:34:09.800815, 1.67644
2022-11-25 16:34:09.800900, 1.66178
2022-11-25 16:34:09.834005, 1.66667
2022-11-25 16:34:09.834250, 1.66667
2022-11-25 16:34:09.834423, 1.66178
2022-11-25 16:34:09.867157, 1.65689
2022-11-25 16:34:09.867318, 1.65689
2022-11-25 16:34:09.867412, 1.65689
2022-11-25 16:34:09.867497, 1.65200
2022-11-25 16:34:09.900626, 1.64223
2022-11-25 16:34:09.900876, 1.64712
2022-11-25 16:34:09.901045, 1.64223
2022-11-25 16:34:09.933783, 1.65200
2022-11-25 16:34:09.934033, 1.64223
2022-11-25 16:34:09.934202, 1.63734
2022-11-25 16:34:09.934368, 1.63734
2022-11-25 16:34:09.967213, 1.63734
2022-11-25 16:34:09.967473, 1.63734
2022-11-25 16:34:09.967654, 1.63245
2022-11-25 16:34:10.000257, 1.63245
2022-11-25 16:34:10.000451, 1.63245
2022-11-25 16:34:10.000521, 1.64223
2022-11-25 16:34:10.000664, 1.62757
2022-11-25 16:34:10.033769, 1.63245
2022-11-25 16:34:10.033968, 1.62268
2022-11-25 16:34:10.034091, 1.66178
2022-11-25 16:34:10.034209, 1.63245
2022-11-25 16:34:10.066932, 1.62757
2022-11-25 16:34:10.067090, 1.63734
2022-11-25 16:34:10.067180, 1.64712
2022-11-25 16:34:10.100391, 1.66178
2022-11-25 16:34:10.100653, 1.68133
2022-11-25 16:34:10.100827, 1.70088
2022-11-25 16:34:10.100993, 1.72532
2022-11-25 16:34:10.133684, 1.76931
2022-11-25 16:34:10.133877, 1.74976
2022-11-25 16:34:10.134001, 1.75953
2022-11-25 16:34:10.166958, 1.76442
2022-11-25 16:34:10.167218, 1.76442
2022-11-25 16:34:10.167387, 1.76442
2022-11-25 16:34:10.167552, 1.75464
2022-11-25 16:34:10.200225, 1.75464
2022-11-25 16:34:10.200408, 1.74487
2022-11-25 16:34:10.200528, 1.75464
2022-11-25 16:34:10.233549, 1.74487
2022-11-25 16:34:10.233818, 1.74487
2022-11-25 16:34:10.233996, 1.74487
2022-11-25 16:34:10.234158, 1.75953
2022-11-25 16:34:10.266812, 1.74976
2022-11-25 16:34:10.266964, 1.74976
2022-11-25 16:34:10.267051, 1.75464
2022-11-25 16:34:10.300095, 1.75464
2022-11-25 16:34:10.300369, 1.75953
2022-11-25 16:34:10.300534, 1.75464
2022-11-25 16:34:10.300695, 1.75464
2022-11-25 16:34:10.333432, 1.75464
2022-11-25 16:34:10.333621, 1.75464
2022-11-25 16:34:10.333738, 1.74976
2022-11-25 16:34:10.333850, 1.74487
2022-11-25 16:34:10.366835, 1.74487
2022-11-25 16:34:10.367072, 1.76442
2022-11-25 16:34:10.367231, 1.73509
2022-11-25 16:34:10.400008, 1.73509
2022-11-25 16:34:10.400183, 1.73998
2022-11-25 16:34:10.400301, 1.77419
2022-11-25 16:34:10.400411, 1.73509
2022-11-25 16:34:10.433437, 1.74487
2022-11-25 16:34:10.433685, 1.75464
2022-11-25 16:34:10.433850, 1.73998
2022-11-25 16:34:10.466604, 1.73509
2022-11-25 16:34:10.466795, 1.75464
2022-11-25 16:34:10.466924, 1.73509
2022-11-25 16:34:10.467039, 1.73021
2022-11-25 16:34:10.500045, 1.72532
2022-11-25 16:34:10.500291, 1.73509
2022-11-25 16:34:10.500457, 1.72043
2022-11-25 16:34:10.533178, 1.71065
2022-11-25 16:34:10.533335, 1.72043
2022-11-25 16:34:10.533423, 1.70577
2022-11-25 16:34:10.533512, 1.70088
2022-11-25 16:34:10.566440, 1.70577
2022-11-25 16:34:10.566586, 1.69599
2022-11-25 16:34:10.566665, 1.69599
2022-11-25 16:34:10.599796, 1.69599
2022-11-25 16:34:10.599954, 1.69110
2022-11-25 16:34:10.600114, 1.67644
2022-11-25 16:34:10.600206, 1.68133
2022-11-25 16:34:10.633197, 1.68622
2022-11-25 16:34:10.633464, 1.67644
2022-11-25 16:34:10.633635, 1.67644
2022-11-25 16:34:10.633798, 1.67644
2022-11-25 16:34:10.666410, 1.71065
2022-11-25 16:34:10.666551, 1.67644
2022-11-25 16:34:10.666632, 1.67155
2022-11-25 16:34:10.699752, 1.66667
2022-11-25 16:34:10.699943, 1.70088
2022-11-25 16:34:10.700060, 1.67644
2022-11-25 16:34:10.700178, 1.66178
2022-11-25 16:34:10.733027, 1.65689
2022-11-25 16:34:10.733170, 1.65689
2022-11-25 16:34:10.733263, 1.65689
2022-11-25 16:34:10.766371, 1.68622
2022-11-25 16:34:10.766639, 1.65200
2022-11-25 16:34:10.766809, 1.65200
2022-11-25 16:34:10.766969, 1.64712
2022-11-25 16:34:10.799568, 1.64712
2022-11-25 16:34:10.799716, 1.64712
2022-11-25 16:34:10.799806, 1.64712
2022-11-25 16:34:10.832971, 1.64223
2022-11-25 16:34:10.833290, 1.64223
2022-11-25 16:34:10.833474, 1.63734
2022-11-25 16:34:10.833638, 1.63734
2022-11-25 16:34:10.866277, 1.64223
2022-11-25 16:34:10.866432, 1.64223
2022-11-25 16:34:10.866521, 1.64223
2022-11-25 16:34:10.899534, 1.63734
2022-11-25 16:34:10.899842, 1.63734
2022-11-25 16:34:10.900018, 1.63734
2022-11-25 16:34:10.900181, 1.64223
2022-11-25 16:34:10.932832, 1.63245
2022-11-25 16:34:10.932977, 1.63734
2022-11-25 16:34:10.933075, 1.63245
2022-11-25 16:34:10.933159, 1.64712
2022-11-25 16:34:10.966249, 1.68622
2022-11-25 16:34:10.966490, 1.68133
2022-11-25 16:34:10.966660, 1.69599
2022-11-25 16:34:10.999440, 1.71554
2022-11-25 16:34:10.999622, 1.73998
2022-11-25 16:34:10.999746, 1.74487
2022-11-25 16:34:10.999870, 1.75464
2022-11-25 16:34:11.032858, 1.78886
2022-11-25 16:34:11.033103, 1.76442
2022-11-25 16:34:11.033266, 1.76931
2022-11-25 16:34:11.065911, 1.78397
2022-11-25 16:34:11.066062, 1.75464
2022-11-25 16:34:11.066154, 1.75464
2022-11-25 16:34:11.066256, 1.78886
2022-11-25 16:34:11.099474, 1.74976
2022-11-25 16:34:11.099740, 1.75464
2022-11-25 16:34:11.099913, 1.74976
2022-11-25 16:34:11.132657, 1.74487
2022-11-25 16:34:11.132819, 1.74976
2022-11-25 16:34:11.132911, 1.74976
2022-11-25 16:34:11.132998, 1.77419
2022-11-25 16:34:11.166038, 1.76442
2022-11-25 16:34:11.166296, 1.75953
2022-11-25 16:34:11.166465, 1.77908
2022-11-25 16:34:11.199160, 1.76442
2022-11-25 16:34:11.199323, 1.75953
2022-11-25 16:34:11.199494, 1.76442
2022-11-25 16:34:11.199644, 1.75464
2022-11-25 16:34:11.232626, 1.74976
2022-11-25 16:34:11.232886, 1.73998
2022-11-25 16:34:11.233054, 1.74487
2022-11-25 16:34:11.233219, 1.73998
2022-11-25 16:34:11.265899, 1.73509
2022-11-25 16:34:11.266050, 1.74487
2022-11-25 16:34:11.266139, 1.73509
2022-11-25 16:34:11.299213, 1.73509
2022-11-25 16:34:11.299470, 1.74487
2022-11-25 16:34:11.299657, 1.77419
2022-11-25 16:34:11.299826, 1.73998
2022-11-25 16:34:11.332459, 1.73998
2022-11-25 16:34:11.332609, 1.77419
2022-11-25 16:34:11.332700, 1.73998
2022-11-25 16:34:11.365823, 1.73021
2022-11-25 16:34:11.366080, 1.76931
2022-11-25 16:34:11.366250, 1.73021
2022-11-25 16:34:11.366409, 1.72532
2022-11-25 16:34:11.399030, 1.74487
2022-11-25 16:34:11.399299, 1.72043
2022-11-25 16:34:11.399443, 1.71554
2022-11-25 16:34:11.432378, 1.72043
2022-11-25 16:34:11.432639, 1.71065
2022-11-25 16:34:11.432813, 1.71065
2022-11-25 16:34:11.432974, 1.73021
2022-11-25 16:34:11.465616, 1.70577
2022-11-25 16:34:11.465837, 1.70088
2022-11-25 16:34:11.465933, 1.70577
2022-11-25 16:34:11.498928, 1.69110
2022-11-25 16:34:11.499197, 1.69599
2022-11-25 16:34:11.499372, 1.69599
2022-11-25 16:34:11.499549, 1.68622
2022-11-25 16:34:11.532212, 1.68622
2022-11-25 16:34:11.532461, 1.69110
2022-11-25 16:34:11.532593, 1.68622
2022-11-25 16:34:11.532710, 1.68133
2022-11-25 16:34:11.565679, 1.72043
2022-11-25 16:34:11.565970, 1.67155
2022-11-25 16:34:11.566148, 1.67644
2022-11-25 16:34:11.598810, 1.68133
2022-11-25 16:34:11.599000, 1.71554
2022-11-25 16:34:11.599129, 1.69599
2022-11-25 16:34:11.599255, 1.67644
2022-11-25 16:34:11.632277, 1.67644
2022-11-25 16:34:11.632524, 1.66667
2022-11-25 16:34:11.632694, 1.70577
2022-11-25 16:34:11.665392, 1.66667
2022-11-25 16:34:11.665534, 1.66178
2022-11-25 16:34:11.665627, 1.66178
2022-11-25 16:34:11.665741, 1.67155
2022-11-25 16:34:11.698860, 1.66178
2022-11-25 16:34:11.699120, 1.65689
2022-11-25 16:34:11.699292, 1.65689
2022-11-25 16:34:11.731998, 1.68622
2022-11-25 16:34:11.732191, 1.66178
2022-11-25 16:34:11.732328, 1.65200
2022-11-25 16:34:11.732422, 1.64712
2022-11-25 16:34:11.765521, 1.65200
2022-11-25 16:34:11.765778, 1.65689
2022-11-25 16:34:11.765947, 1.70088
2022-11-25 16:34:11.798564, 1.67644
2022-11-25 16:34:11.798753, 1.69110
2022-11-25 16:34:11.798879, 1.70577
2022-11-25 16:34:11.799081, 1.75953
2022-11-25 16:34:11.832053, 1.73998
2022-11-25 16:34:11.832309, 1.75464
2022-11-25 16:34:11.832474, 1.76442
2022-11-25 16:34:11.832638, 1.77419
2022-11-25 16:34:11.865228, 1.77419
2022-11-25 16:34:11.865374, 1.77419
2022-11-25 16:34:11.865466, 1.78886
2022-11-25 16:34:11.898633, 1.77419
2022-11-25 16:34:11.898899, 1.76442
2022-11-25 16:34:11.899076, 1.76442
2022-11-25 16:34:11.899238, 1.78886
2022-11-25 16:34:11.931982, 1.75953
2022-11-25 16:34:11.932233, 1.75953
2022-11-25 16:34:11.932400, 1.76931
2022-11-25 16:34:11.965112, 1.75464
2022-11-25 16:34:11.965284, 1.75953
2022-11-25 16:34:11.965413, 1.77908
2022-11-25 16:34:11.965528, 1.75953
2022-11-25 16:34:11.998571, 1.76442
2022-11-25 16:34:11.998838, 1.76931
2022-11-25 16:34:11.999013, 1.76442
2022-11-25 16:34:12.031797, 1.75953
2022-11-25 16:34:12.032058, 1.75464
2022-11-25 16:34:12.032229, 1.76931
2022-11-25 16:34:12.032397, 1.74976
2022-11-25 16:34:12.065025, 1.73509
2022-11-25 16:34:12.065172, 1.74487
2022-11-25 16:34:12.065266, 1.74976
2022-11-25 16:34:12.098442, 1.77908
2022-11-25 16:34:12.098727, 1.73998
2022-11-25 16:34:12.098904, 1.74487
2022-11-25 16:34:12.099066, 1.74976
2022-11-25 16:34:12.131755, 1.74487
2022-11-25 16:34:12.132011, 1.74487
2022-11-25 16:34:12.132178, 1.77908
2022-11-25 16:34:12.132342, 1.73998
2022-11-25 16:34:12.164961, 1.73509
2022-11-25 16:34:12.165114, 1.73998
2022-11-25 16:34:12.165208, 1.73021
2022-11-25 16:34:12.198369, 1.72532
2022-11-25 16:34:12.198621, 1.72532
2022-11-25 16:34:12.198793, 1.71554
2022-11-25 16:34:12.198951, 1.71065
2022-11-25 16:34:12.231611, 1.71065
2022-11-25 16:34:12.231793, 1.71554
2022-11-25 16:34:12.231908, 1.70577
2022-11-25 16:34:12.264902, 1.70577
2022-11-25 16:34:12.265158, 1.72043
2022-11-25 16:34:12.265326, 1.69599
2022-11-25 16:34:12.265484, 1.68622
2022-11-25 16:34:12.298252, 1.68622
2022-11-25 16:34:12.298454, 1.69110
2022-11-25 16:34:12.298575, 1.68622
2022-11-25 16:34:12.331515, 1.67644
2022-11-25 16:34:12.331767, 1.68622
2022-11-25 16:34:12.331942, 1.67644
2022-11-25 16:34:12.332101, 1.67644
2022-11-25 16:34:12.364852, 1.67155
2022-11-25 16:34:12.365119, 1.69599
2022-11-25 16:34:12.365294, 1.67155
2022-11-25 16:34:12.398069, 1.66667
2022-11-25 16:34:12.398349, 1.66667
2022-11-25 16:34:12.398517, 1.66178
2022-11-25 16:34:12.398686, 1.69599
2022-11-25 16:34:12.431505, 1.66178
2022-11-25 16:34:12.431760, 1.65200
2022-11-25 16:34:12.431927, 1.65200
2022-11-25 16:34:12.432088, 1.64712
2022-11-25 16:34:12.464828, 1.66178
2022-11-25 16:34:12.465087, 1.64223
2022-11-25 16:34:12.465252, 1.64712
2022-11-25 16:34:12.498043, 1.64712
2022-11-25 16:34:12.498298, 1.67155
2022-11-25 16:34:12.498474, 1.68133
2022-11-25 16:34:12.498635, 1.65200
2022-11-25 16:34:12.531392, 1.64712
2022-11-25 16:34:12.531645, 1.64223
2022-11-25 16:34:12.531824, 1.65689
2022-11-25 16:34:12.564661, 1.66178
2022-11-25 16:34:12.564924, 1.71065
2022-11-25 16:34:12.565098, 1.69599
2022-11-25 16:34:12.565256, 1.70577
2022-11-25 16:34:12.597964, 1.73021
2022-11-25 16:34:12.598153, 1.74487
2022-11-25 16:34:12.598274, 1.75464
2022-11-25 16:34:12.631209, 1.75464
2022-11-25 16:34:12.631458, 1.76442
2022-11-25 16:34:12.631622, 1.75953
2022-11-25 16:34:12.631781, 1.76442
2022-11-25 16:34:12.664575, 1.75953
2022-11-25 16:34:12.664819, 1.75464
2022-11-25 16:34:12.665001, 1.75464
2022-11-25 16:34:12.697794, 1.73998
2022-11-25 16:34:12.698063, 1.74487
2022-11-25 16:34:12.698240, 1.73998
2022-11-25 16:34:12.698401, 1.73998
2022-11-25 16:34:12.731160, 1.75464
2022-11-25 16:34:12.731544, 1.73998
2022-11-25 16:34:12.731722, 1.74487
2022-11-25 16:34:12.731886, 1.74487
2022-11-25 16:34:12.764560, 1.75953
2022-11-25 16:34:12.764804, 1.74976
2022-11-25 16:34:12.764971, 1.74487
2022-11-25 16:34:12.797748, 1.74487
2022-11-25 16:34:12.798002, 1.74487
2022-11-25 16:34:12.798175, 1.73509
2022-11-25 16:34:12.798340, 1.73021
2022-11-25 16:34:12.831105, 1.73021
2022-11-25 16:34:12.831366, 1.73021
2022-11-25 16:34:12.831537, 1.75464
2022-11-25 16:34:12.864339, 1.72532
2022-11-25 16:34:12.864593, 1.73021
2022-11-25 16:34:12.864764, 1.72043
2022-11-25 16:34:12.864925, 1.72043
2022-11-25 16:34:12.897679, 1.74976
2022-11-25 16:34:12.897939, 1.72043
2022-11-25 16:34:12.898113, 1.72043
2022-11-25 16:34:12.930934, 1.72043
2022-11-25 16:34:12.931187, 1.71554
2022-11-25 16:34:12.931356, 1.71554
2022-11-25 16:34:12.931521, 1.71065
2022-11-25 16:34:12.964284, 1.70577
2022-11-25 16:34:12.964524, 1.69599
2022-11-25 16:34:12.964706, 1.70088
2022-11-25 16:34:12.997484, 1.69110
2022-11-25 16:34:12.997780, 1.69110
2022-11-25 16:34:12.997961, 1.71554
2022-11-25 16:34:12.998124, 1.68133
2022-11-25 16:34:13.030891, 1.68133
2022-11-25 16:34:13.031147, 1.71065
2022-11-25 16:34:13.031315, 1.67155
2022-11-25 16:34:13.031475, 1.67644
2022-11-25 16:34:13.064173, 1.67155
2022-11-25 16:34:13.064370, 1.68622
2022-11-25 16:34:13.064493, 1.67155
2022-11-25 16:34:13.097396, 1.66667
2022-11-25 16:34:13.097583, 1.68133
2022-11-25 16:34:13.097709, 1.67155
2022-11-25 16:34:13.097825, 1.66667
2022-11-25 16:34:13.130798, 1.66178
2022-11-25 16:34:13.131060, 1.66178
2022-11-25 16:34:13.131231, 1.66667
2022-11-25 16:34:13.164045, 1.66178
2022-11-25 16:34:13.164301, 1.66178
2022-11-25 16:34:13.164475, 1.65689
2022-11-25 16:34:13.164632, 1.67155
2022-11-25 16:34:13.197428, 1.65689
2022-11-25 16:34:13.197677, 1.65689
2022-11-25 16:34:13.197839, 1.68133
2022-11-25 16:34:13.230634, 1.65200
2022-11-25 16:34:13.230843, 1.64712
2022-11-25 16:34:13.230965, 1.64712
2022-11-25 16:34:13.231083, 1.65689
2022-11-25 16:34:13.264011, 1.64223
2022-11-25 16:34:13.264252, 1.63734
2022-11-25 16:34:13.264419, 1.64223
2022-11-25 16:34:13.297213, 1.66667
2022-11-25 16:34:13.297482, 1.64223
2022-11-25 16:34:13.297650, 1.63734
2022-11-25 16:34:13.297808, 1.63734
2022-11-25 16:34:13.330592, 1.63245
2022-11-25 16:34:13.330861, 1.65689
2022-11-25 16:34:13.331031, 1.64223
2022-11-25 16:34:13.331196, 1.64712
2022-11-25 16:34:13.363932, 1.66178
2022-11-25 16:34:13.364188, 1.70088
2022-11-25 16:34:13.364358, 1.70577
2022-11-25 16:34:13.397118, 1.72043
2022-11-25 16:34:13.397286, 1.77419
2022-11-25 16:34:13.397373, 1.75953
2022-11-25 16:34:13.397455, 1.76442
2022-11-25 16:34:13.430530, 1.76442
2022-11-25 16:34:13.430794, 1.78886
2022-11-25 16:34:13.430966, 1.77419
2022-11-25 16:34:13.463757, 1.77419
2022-11-25 16:34:13.464015, 1.77908
2022-11-25 16:34:13.464183, 1.76931
2022-11-25 16:34:13.464337, 1.76442
2022-11-25 16:34:13.497134, 1.76442
2022-11-25 16:34:13.497393, 1.79863
2022-11-25 16:34:13.497569, 1.76442
2022-11-25 16:34:13.530348, 1.77419
2022-11-25 16:34:13.530610, 1.79863
2022-11-25 16:34:13.530783, 1.77908
2022-11-25 16:34:13.531038, 1.78397
2022-11-25 16:34:13.563693, 1.82307
2022-11-25 16:34:13.563933, 1.78886
2022-11-25 16:34:13.564097, 1.79374
2022-11-25 16:34:13.596926, 1.81329
2022-11-25 16:34:13.597193, 1.79374
2022-11-25 16:34:13.597357, 1.78886
2022-11-25 16:34:13.597519, 1.78397
2022-11-25 16:34:13.630323, 1.77908
2022-11-25 16:34:13.630588, 1.77908
2022-11-25 16:34:13.630762, 1.76442
2022-11-25 16:34:13.630924, 1.76442
2022-11-25 16:34:13.663621, 1.76442
2022-11-25 16:34:13.663867, 1.76442
2022-11-25 16:34:13.664032, 1.80841
2022-11-25 16:34:13.696862, 1.76442
2022-11-25 16:34:13.697099, 1.76931
2022-11-25 16:34:13.697258, 1.76442
2022-11-25 16:34:13.697420, 1.76442
2022-11-25 16:34:13.730225, 1.76442
2022-11-25 16:34:13.730473, 1.77419
2022-11-25 16:34:13.730646, 1.76442
2022-11-25 16:34:13.763482, 1.75464
2022-11-25 16:34:13.763724, 1.76442
2022-11-25 16:34:13.763882, 1.74487
2022-11-25 16:34:13.764044, 1.74976
2022-11-25 16:34:13.796819, 1.74487
2022-11-25 16:34:13.797066, 1.73021
2022-11-25 16:34:13.797229, 1.73509
2022-11-25 16:34:13.830040, 1.73509
2022-11-25 16:34:13.830286, 1.72532
2022-11-25 16:34:13.830450, 1.72043
2022-11-25 16:34:13.830613, 1.72532
2022-11-25 16:34:13.863354, 1.71554
2022-11-25 16:34:13.863544, 1.71065
2022-11-25 16:34:13.863663, 1.71065
2022-11-25 16:34:13.896597, 1.73021
2022-11-25 16:34:13.896851, 1.70577
2022-11-25 16:34:13.897014, 1.70088
2022-11-25 16:34:13.897166, 1.70088
2022-11-25 16:34:13.929975, 1.72532
2022-11-25 16:34:13.930210, 1.70088
2022-11-25 16:34:13.930369, 1.68622
2022-11-25 16:34:13.930533, 1.69110
2022-11-25 16:34:13.963353, 1.69110
2022-11-25 16:34:13.963605, 1.70577
2022-11-25 16:34:13.963771, 1.68133
2022-11-25 16:34:13.996573, 1.67644
2022-11-25 16:34:13.996826, 1.68133
2022-11-25 16:34:13.996992, 1.71554
2022-11-25 16:34:13.997164, 1.68133
2022-11-25 16:34:14.029961, 1.67644
2022-11-25 16:34:14.030225, 1.67644
2022-11-25 16:34:14.030396, 1.67644
2022-11-25 16:34:14.063181, 1.67155
2022-11-25 16:34:14.063432, 1.69110
2022-11-25 16:34:14.063596, 1.66667
2022-11-25 16:34:14.063752, 1.66667
2022-11-25 16:34:14.096330, 1.66178
2022-11-25 16:34:14.096545, 1.69599
2022-11-25 16:34:14.096648, 1.67155
2022-11-25 16:34:14.129718, 1.66178
2022-11-25 16:34:14.129985, 1.64712
2022-11-25 16:34:14.130160, 1.65689
2022-11-25 16:34:14.130327, 1.65689
2022-11-25 16:34:14.163129, 1.65689
2022-11-25 16:34:14.163393, 1.65689
2022-11-25 16:34:14.163562, 1.66667
2022-11-25 16:34:14.196318, 1.68622
2022-11-25 16:34:14.196531, 1.69110
2022-11-25 16:34:14.196660, 1.70577
2022-11-25 16:34:14.196774, 1.73021
2022-11-25 16:34:14.229652, 1.74487
2022-11-25 16:34:14.229889, 1.75953
2022-11-25 16:34:14.230053, 1.77419
2022-11-25 16:34:14.230212, 1.78397
2022-11-25 16:34:14.263052, 1.78397
2022-11-25 16:34:14.263286, 1.78397
2022-11-25 16:34:14.263454, 1.78397
2022-11-25 16:34:14.296297, 1.79863
2022-11-25 16:34:14.296533, 1.78397
2022-11-25 16:34:14.296698, 1.77908
2022-11-25 16:34:14.296868, 1.78397
2022-11-25 16:34:14.329639, 1.77908
2022-11-25 16:34:14.329861, 1.77908
2022-11-25 16:34:14.330030, 1.78886
2022-11-25 16:34:14.362891, 1.78886
2022-11-25 16:34:14.363137, 1.79374
2022-11-25 16:34:14.363304, 1.79863
2022-11-25 16:34:14.363465, 1.80841
2022-11-25 16:34:14.396222, 1.82796
2022-11-25 16:34:14.396447, 1.80841
2022-11-25 16:34:14.396609, 1.80841
2022-11-25 16:34:14.429465, 1.82796
2022-11-25 16:34:14.429695, 1.79863
2022-11-25 16:34:14.429851, 1.78886
2022-11-25 16:34:14.430007, 1.80352
2022-11-25 16:34:14.462813, 1.77908
2022-11-25 16:34:14.463049, 1.78397
2022-11-25 16:34:14.463214, 1.76931
2022-11-25 16:34:14.496034, 1.77419
2022-11-25 16:34:14.496319, 1.78886
2022-11-25 16:34:14.496497, 1.76931
2022-11-25 16:34:14.496664, 1.77419
2022-11-25 16:34:14.529400, 1.77419
2022-11-25 16:34:14.529633, 1.77419
2022-11-25 16:34:14.529795, 1.77419
2022-11-25 16:34:14.529951, 1.78397
2022-11-25 16:34:14.562753, 1.77419
2022-11-25 16:34:14.562981, 1.76442
2022-11-25 16:34:14.563143, 1.76442
2022-11-25 16:34:14.595949, 1.76931
2022-11-25 16:34:14.596115, 1.75953
2022-11-25 16:34:14.596208, 1.78886
2022-11-25 16:34:14.596294, 1.74976
2022-11-25 16:34:14.629369, 1.75464
2022-11-25 16:34:14.629619, 1.78886
2022-11-25 16:34:14.629792, 1.74487
2022-11-25 16:34:14.662592, 1.73509
2022-11-25 16:34:14.662829, 1.73509
2022-11-25 16:34:14.662999, 1.76442
2022-11-25 16:34:14.663155, 1.73021
2022-11-25 16:34:14.695932, 1.73021
2022-11-25 16:34:14.696160, 1.74976
2022-11-25 16:34:14.696330, 1.72532
2022-11-25 16:34:14.729161, 1.71065
2022-11-25 16:34:14.729381, 1.71554
2022-11-25 16:34:14.729543, 1.71065
2022-11-25 16:34:14.729710, 1.73509
2022-11-25 16:34:14.762502, 1.71065
2022-11-25 16:34:14.762729, 1.70088
2022-11-25 16:34:14.762883, 1.70088
2022-11-25 16:34:14.795739, 1.73509
2022-11-25 16:34:14.795993, 1.70088
2022-11-25 16:34:14.796160, 1.69599
2022-11-25 16:34:14.796325, 1.69110
2022-11-25 16:34:14.829107, 1.69599
2022-11-25 16:34:14.829337, 1.70088
2022-11-25 16:34:14.829504, 1.68622
2022-11-25 16:34:14.829658, 1.68133
2022-11-25 16:34:14.862543, 1.67155
2022-11-25 16:34:14.862784, 1.67644
2022-11-25 16:34:14.862963, 1.67644
2022-11-25 16:34:14.895702, 1.67155
2022-11-25 16:34:14.895950, 1.70577
2022-11-25 16:34:14.896121, 1.67155
2022-11-25 16:34:14.896276, 1.66667
2022-11-25 16:34:14.929080, 1.65689
2022-11-25 16:34:14.929335, 1.65689
2022-11-25 16:34:14.929504, 1.65689
2022-11-25 16:34:14.962306, 1.65689
2022-11-25 16:34:14.962550, 1.65689
2022-11-25 16:34:14.962719, 1.66178
2022-11-25 16:34:14.962876, 1.66178
2022-11-25 16:34:14.995714, 1.67644
2022-11-25 16:34:14.995984, 1.68133
2022-11-25 16:34:14.996156, 1.69599
2022-11-25 16:34:15.028877, 1.71554
2022-11-25 16:34:15.029134, 1.74487
2022-11-25 16:34:15.029300, 1.74976
2022-11-25 16:34:15.029464, 1.76931
2022-11-25 16:34:15.062238, 1.77908
2022-11-25 16:34:15.062476, 1.78886
2022-11-25 16:34:15.062640, 1.79374
2022-11-25 16:34:15.095427, 1.82307
2022-11-25 16:34:15.095580, 1.79374
2022-11-25 16:34:15.095763, 1.78886
2022-11-25 16:34:15.095861, 1.83284
2022-11-25 16:34:15.128852, 1.78886
2022-11-25 16:34:15.129115, 1.79374
2022-11-25 16:34:15.129287, 1.80841
2022-11-25 16:34:15.129442, 1.79374
2022-11-25 16:34:15.162204, 1.79374
2022-11-25 16:34:15.162464, 1.79863
2022-11-25 16:34:15.162629, 1.81329
2022-11-25 16:34:15.195469, 1.80352
2022-11-25 16:34:15.195703, 1.80841
2022-11-25 16:34:15.195868, 1.84751
2022-11-25 16:34:15.196022, 1.81329
2022-11-25 16:34:15.228718, 1.81329
2022-11-25 16:34:15.228957, 1.81818
2022-11-25 16:34:15.229122, 1.84262
2022-11-25 16:34:15.262016, 1.80352
2022-11-25 16:34:15.262257, 1.79863
2022-11-25 16:34:15.262422, 1.79374
2022-11-25 16:34:15.262588, 1.78886
2022-11-25 16:34:15.295323, 1.78886
2022-11-25 16:34:15.295509, 1.78397
2022-11-25 16:34:15.295632, 1.80841
2022-11-25 16:34:15.328551, 1.76931
2022-11-25 16:34:15.328786, 1.78397
2022-11-25 16:34:15.328953, 1.78397
2022-11-25 16:34:15.329103, 1.79374
2022-11-25 16:34:15.361967, 1.78397
2022-11-25 16:34:15.362212, 1.77908
2022-11-25 16:34:15.362378, 1.78397
2022-11-25 16:34:15.395151, 1.76442
2022-11-25 16:34:15.395426, 1.77908
2022-11-25 16:34:15.395602, 1.76931
2022-11-25 16:34:15.395761, 1.76442
2022-11-25 16:34:15.428542, 1.75953
2022-11-25 16:34:15.428802, 1.76931
2022-11-25 16:34:15.428970, 1.75464
2022-11-25 16:34:15.429130, 1.75464
2022-11-25 16:34:15.461884, 1.74487
2022-11-25 16:34:15.462146, 1.74487
2022-11-25 16:34:15.462326, 1.73998
2022-11-25 16:34:15.495147, 1.73998
2022-11-25 16:34:15.495410, 1.73021
2022-11-25 16:34:15.495584, 1.73021
2022-11-25 16:34:15.495753, 1.72532
2022-11-25 16:34:15.528503, 1.72532
2022-11-25 16:34:15.528761, 1.72043
2022-11-25 16:34:15.528928, 1.72043
2022-11-25 16:34:15.561705, 1.71065
2022-11-25 16:34:15.561966, 1.71554
2022-11-25 16:34:15.562138, 1.71554
2022-11-25 16:34:15.562297, 1.71065
2022-11-25 16:34:15.595005, 1.71065
2022-11-25 16:34:15.595167, 1.70577
2022-11-25 16:34:15.595254, 1.69599
2022-11-25 16:34:15.628306, 1.72532
2022-11-25 16:34:15.628559, 1.69599
2022-11-25 16:34:15.628735, 1.69599
2022-11-25 16:34:15.628890, 1.68622
2022-11-25 16:34:15.661690, 1.68622
2022-11-25 16:34:15.661949, 1.68133
2022-11-25 16:34:15.662118, 1.70088
2022-11-25 16:34:15.694888, 1.70577
2022-11-25 16:34:15.695160, 1.66667
2022-11-25 16:34:15.695349, 1.66667
2022-11-25 16:34:15.695509, 1.66667
2022-11-25 16:34:15.728245, 1.66178
2022-11-25 16:34:15.728497, 1.65689
2022-11-25 16:34:15.728668, 1.65689
2022-11-25 16:34:15.728826, 1.66178
2022-11-25 16:34:15.761627, 1.67155
2022-11-25 16:34:15.761879, 1.70577
2022-11-25 16:34:15.762045, 1.67644
2022-11-25 16:34:15.794848, 1.69110
2022-11-25 16:34:15.795113, 1.70577
2022-11-25 16:34:15.795283, 1.72532
2022-11-25 16:34:15.795442, 1.73998
2022-11-25 16:34:15.828213, 1.78397
2022-11-25 16:34:15.828474, 1.75953
2022-11-25 16:34:15.828662, 1.76931
2022-11-25 16:34:15.861490, 1.77419
2022-11-25 16:34:15.861759, 1.77908
2022-11-25 16:34:15.861942, 1.77419
2022-11-25 16:34:15.862107, 1.79374
2022-11-25 16:34:15.894826, 1.76931
2022-11-25 16:34:15.895074, 1.76931
2022-11-25 16:34:15.895238, 1.77419
2022-11-25 16:34:15.928080, 1.76931
2022-11-25 16:34:15.928371, 1.76931
2022-11-25 16:34:15.928552, 1.77419
2022-11-25 16:34:15.928716, 1.77908
2022-11-25 16:34:15.961396, 1.81329
2022-11-25 16:34:15.961657, 1.77908
2022-11-25 16:34:15.961824, 1.77419
2022-11-25 16:34:15.994599, 1.78886
2022-11-25 16:34:15.994928, 1.77908
2022-11-25 16:34:15.995115, 1.77419
2022-11-25 16:34:15.995279, 1.77419
2022-11-25 16:34:16.028018, 1.77419
2022-11-25 16:34:16.028319, 1.78397
2022-11-25 16:34:16.028500, 1.75953
2022-11-25 16:34:16.028672, 1.75464
2022-11-25 16:34:16.061360, 1.75464
2022-11-25 16:34:16.061617, 1.77908
2022-11-25 16:34:16.061790, 1.75953
2022-11-25 16:34:16.094451, 1.74976
2022-11-25 16:34:16.094533, 1.75464
2022-11-25 16:34:16.094595, 1.74976
2022-11-25 16:34:16.094657, 1.75464
2022-11-25 16:34:16.127792, 1.78886
2022-11-25 16:34:16.127995, 1.74487
2022-11-25 16:34:16.128093, 1.74976
2022-11-25 16:34:16.161155, 1.77419
2022-11-25 16:34:16.161521, 1.73998
2022-11-25 16:34:16.161703, 1.73021
2022-11-25 16:34:16.161861, 1.76442
2022-11-25 16:34:16.194514, 1.72043
2022-11-25 16:34:16.194850, 1.71065
2022-11-25 16:34:16.195054, 1.73021
2022-11-25 16:34:16.227693, 1.69599
2022-11-25 16:34:16.228091, 1.70088
2022-11-25 16:34:16.228311, 1.72532
2022-11-25 16:34:16.228485, 1.69599
2022-11-25 16:34:16.261105, 1.68622
2022-11-25 16:34:16.261464, 1.69110
2022-11-25 16:34:16.261670, 1.69599
2022-11-25 16:34:16.294305, 1.68622
2022-11-25 16:34:16.294616, 1.68622
