2022-11-25 16:40:18.024720, 1.67155
2022-11-25 16:40:18.025035, 1.67155
2022-11-25 16:40:18.025215, 1.66667
2022-11-25 16:40:18.025375, 1.65200
2022-11-25 16:40:18.058022, 1.65200
2022-11-25 16:40:18.058308, 1.64223
2022-11-25 16:40:18.058471, 1.63245
2022-11-25 16:40:18.091199, 1.63245
2022-11-25 16:40:18.091539, 1.65200
2022-11-25 16:40:18.091715, 1.61290
2022-11-25 16:40:18.091875, 1.62757
2022-11-25 16:40:18.124583, 1.59824
2022-11-25 16:40:18.124884, 1.59824
2022-11-25 16:40:18.125066, 1.61779
2022-11-25 16:40:18.125232, 1.59335
2022-11-25 16:40:18.157850, 1.59335
2022-11-25 16:40:18.158130, 1.57869
2022-11-25 16:40:18.158299, 1.57869
2022-11-25 16:40:18.191168, 1.57380
2022-11-25 16:40:18.191476, 1.57380
2022-11-25 16:40:18.191648, 1.56891
2022-11-25 16:40:18.191804, 1.56403
2022-11-25 16:40:18.224513, 1.56403
2022-11-25 16:40:18.224805, 1.55425
2022-11-25 16:40:18.224981, 1.55425
2022-11-25 16:40:18.257746, 1.54448
2022-11-25 16:40:18.257954, 1.54936
2022-11-25 16:40:18.258049, 1.53959
2022-11-25 16:40:18.258137, 1.53959
2022-11-25 16:40:18.291105, 1.52981
2022-11-25 16:40:18.291406, 1.52981
2022-11-25 16:40:18.291573, 1.53470
2022-11-25 16:40:18.324310, 1.53470
2022-11-25 16:40:18.324615, 1.52493
2022-11-25 16:40:18.324790, 1.53959
2022-11-25 16:40:18.324952, 1.55425
2022-11-25 16:40:18.357701, 1.58847
2022-11-25 16:40:18.357940, 1.60313
2022-11-25 16:40:18.358069, 1.63245
2022-11-25 16:40:18.390874, 1.65689
2022-11-25 16:40:18.391256, 1.68622
2022-11-25 16:40:18.391433, 1.70577
2022-11-25 16:40:18.391595, 1.73998
2022-11-25 16:40:18.424275, 1.73998
2022-11-25 16:40:18.424571, 1.78397
2022-11-25 16:40:18.424742, 1.74976
2022-11-25 16:40:18.424912, 1.79374
2022-11-25 16:40:18.457663, 1.75953
2022-11-25 16:40:18.457954, 1.74976
2022-11-25 16:40:18.458121, 1.75953
2022-11-25 16:40:18.490871, 1.76442
2022-11-25 16:40:18.491179, 1.78397
2022-11-25 16:40:18.491361, 1.74976
2022-11-25 16:40:18.491516, 1.75464
2022-11-25 16:40:18.524248, 1.75464
2022-11-25 16:40:18.524540, 1.74976
2022-11-25 16:40:18.524714, 1.75464
2022-11-25 16:40:18.557466, 1.76442
2022-11-25 16:40:18.557760, 1.75953
2022-11-25 16:40:18.557948, 1.75464
2022-11-25 16:40:18.558107, 1.75953
2022-11-25 16:40:18.590852, 1.76442
2022-11-25 16:40:18.591154, 1.77419
2022-11-25 16:40:18.591321, 1.76931
2022-11-25 16:40:18.624056, 1.73021
2022-11-25 16:40:18.624345, 1.72532
2022-11-25 16:40:18.624535, 1.72043
2022-11-25 16:40:18.624724, 1.72043
2022-11-25 16:40:18.657410, 1.71065
2022-11-25 16:40:18.657704, 1.71554
2022-11-25 16:40:18.657897, 1.71065
2022-11-25 16:40:18.690644, 1.74976
2022-11-25 16:40:18.690962, 1.71065
2022-11-25 16:40:18.691160, 1.74487
2022-11-25 16:40:18.691326, 1.70577
2022-11-25 16:40:18.723985, 1.70088
2022-11-25 16:40:18.724274, 1.72043
2022-11-25 16:40:18.724451, 1.68133
2022-11-25 16:40:18.724614, 1.71554
2022-11-25 16:40:18.757268, 1.67155
2022-11-25 16:40:18.757478, 1.66667
2022-11-25 16:40:18.757567, 1.66178
2022-11-25 16:40:18.790589, 1.65200
2022-11-25 16:40:18.790906, 1.64712
2022-11-25 16:40:18.791092, 1.64712
2022-11-25 16:40:18.791252, 1.63245
2022-11-25 16:40:18.823932, 1.62757
2022-11-25 16:40:18.824239, 1.62268
2022-11-25 16:40:18.824434, 1.61290
2022-11-25 16:40:18.857161, 1.60802
2022-11-25 16:40:18.857459, 1.61290
2022-11-25 16:40:18.857630, 1.59824
2022-11-25 16:40:18.857792, 1.59335
2022-11-25 16:40:18.890560, 1.61290
2022-11-25 16:40:18.890863, 1.59335
2022-11-25 16:40:18.891034, 1.57380
2022-11-25 16:40:18.923766, 1.56891
2022-11-25 16:40:18.924063, 1.56891
2022-11-25 16:40:18.924229, 1.55914
2022-11-25 16:40:18.924394, 1.55914
2022-11-25 16:40:18.957154, 1.54936
2022-11-25 16:40:18.957452, 1.54936
2022-11-25 16:40:18.957623, 1.54448
2022-11-25 16:40:18.990318, 1.53959
2022-11-25 16:40:18.990660, 1.53470
2022-11-25 16:40:18.990840, 1.52981
2022-11-25 16:40:18.990997, 1.52493
2022-11-25 16:40:19.023691, 1.52981
2022-11-25 16:40:19.023988, 1.55425
2022-11-25 16:40:19.024164, 1.57869
2022-11-25 16:40:19.024323, 1.57380
2022-11-25 16:40:19.057063, 1.61290
2022-11-25 16:40:19.057366, 1.61290
2022-11-25 16:40:19.057537, 1.64223
2022-11-25 16:40:19.090306, 1.67155
2022-11-25 16:40:19.090602, 1.70088
2022-11-25 16:40:19.090786, 1.71554
2022-11-25 16:40:19.090949, 1.73998
2022-11-25 16:40:19.123663, 1.74976
2022-11-25 16:40:19.123939, 1.75464
2022-11-25 16:40:19.124107, 1.75953
2022-11-25 16:40:19.156892, 1.75953
2022-11-25 16:40:19.157196, 1.76931
2022-11-25 16:40:19.157373, 1.76442
2022-11-25 16:40:19.157532, 1.76442
2022-11-25 16:40:19.190255, 1.80352
2022-11-25 16:40:19.190560, 1.76931
2022-11-25 16:40:19.190733, 1.76931
2022-11-25 16:40:19.223433, 1.76442
2022-11-25 16:40:19.223665, 1.77908
2022-11-25 16:40:19.223792, 1.77908
2022-11-25 16:40:19.223907, 1.78397
2022-11-25 16:40:19.256782, 1.78886
2022-11-25 16:40:19.256993, 1.80352
2022-11-25 16:40:19.257089, 1.82307
2022-11-25 16:40:19.290012, 1.80841
2022-11-25 16:40:19.290328, 1.78397
2022-11-25 16:40:19.290499, 1.76931
2022-11-25 16:40:19.290658, 1.76442
2022-11-25 16:40:19.323358, 1.75464
2022-11-25 16:40:19.323569, 1.74487
2022-11-25 16:40:19.323683, 1.74487
2022-11-25 16:40:19.323795, 1.73998
2022-11-25 16:40:19.356759, 1.74487
2022-11-25 16:40:19.357111, 1.76931
2022-11-25 16:40:19.357318, 1.74487
2022-11-25 16:40:19.389983, 1.73021
2022-11-25 16:40:19.390226, 1.73021
2022-11-25 16:40:19.390353, 1.72532
2022-11-25 16:40:19.390468, 1.72532
2022-11-25 16:40:19.423332, 1.72043
2022-11-25 16:40:19.423610, 1.71065
2022-11-25 16:40:19.423774, 1.74487
2022-11-25 16:40:19.456583, 1.69599
2022-11-25 16:40:19.456866, 1.72532
2022-11-25 16:40:19.457034, 1.68622
2022-11-25 16:40:19.457189, 1.72043
2022-11-25 16:40:19.489978, 1.66667
2022-11-25 16:40:19.490284, 1.66667
2022-11-25 16:40:19.490460, 1.65200
2022-11-25 16:40:19.523185, 1.65200
2022-11-25 16:40:19.523490, 1.64712
2022-11-25 16:40:19.523661, 1.63245
2022-11-25 16:40:19.523828, 1.62757
2022-11-25 16:40:19.556557, 1.62268
2022-11-25 16:40:19.556864, 1.64712
2022-11-25 16:40:19.557035, 1.62757
2022-11-25 16:40:19.589728, 1.60802
2022-11-25 16:40:19.590047, 1.60802
2022-11-25 16:40:19.590221, 1.59824
2022-11-25 16:40:19.590379, 1.58847
2022-11-25 16:40:19.623133, 1.57869
2022-11-25 16:40:19.623418, 1.57869
2022-11-25 16:40:19.623594, 1.57380
2022-11-25 16:40:19.623762, 1.56891
2022-11-25 16:40:19.656496, 1.56403
2022-11-25 16:40:19.656783, 1.55914
2022-11-25 16:40:19.656944, 1.55914
2022-11-25 16:40:19.689707, 1.54936
2022-11-25 16:40:19.690003, 1.56891
2022-11-25 16:40:19.690170, 1.57380
2022-11-25 16:40:19.690329, 1.53470
2022-11-25 16:40:19.723078, 1.53470
2022-11-25 16:40:19.723375, 1.52493
2022-11-25 16:40:19.723551, 1.52004
2022-11-25 16:40:19.756277, 1.53959
2022-11-25 16:40:19.756491, 1.54936
2022-11-25 16:40:19.756584, 1.56891
2022-11-25 16:40:19.756665, 1.59824
2022-11-25 16:40:19.789635, 1.61779
2022-11-25 16:40:19.789937, 1.67644
2022-11-25 16:40:19.790108, 1.70088
2022-11-25 16:40:19.822859, 1.70088
2022-11-25 16:40:19.823163, 1.72532
2022-11-25 16:40:19.823341, 1.74487
2022-11-25 16:40:19.823504, 1.75464
2022-11-25 16:40:19.856227, 1.79863
2022-11-25 16:40:19.856464, 1.76442
2022-11-25 16:40:19.856588, 1.77908
2022-11-25 16:40:19.889432, 1.76442
2022-11-25 16:40:19.889751, 1.77419
2022-11-25 16:40:19.889927, 1.76931
2022-11-25 16:40:19.890091, 1.76931
2022-11-25 16:40:19.922800, 1.77419
2022-11-25 16:40:19.923094, 1.77419
2022-11-25 16:40:19.923270, 1.78397
2022-11-25 16:40:19.923432, 1.78886
2022-11-25 16:40:19.956183, 1.82307
2022-11-25 16:40:19.956463, 1.78886
2022-11-25 16:40:19.956628, 1.79374
2022-11-25 16:40:19.989419, 1.79374
2022-11-25 16:40:19.989721, 1.79374
2022-11-25 16:40:19.989895, 1.78886
2022-11-25 16:40:19.990055, 1.78886
2022-11-25 16:40:20.022803, 1.76931
2022-11-25 16:40:20.023097, 1.76442
2022-11-25 16:40:20.023268, 1.75464
2022-11-25 16:40:20.055992, 1.74976
2022-11-25 16:40:20.056221, 1.74487
2022-11-25 16:40:20.056341, 1.73509
2022-11-25 16:40:20.056456, 1.73509
2022-11-25 16:40:20.089344, 1.73509
2022-11-25 16:40:20.089631, 1.73998
2022-11-25 16:40:20.089798, 1.73021
2022-11-25 16:40:20.122607, 1.72043
2022-11-25 16:40:20.122923, 1.72532
2022-11-25 16:40:20.123101, 1.74487
2022-11-25 16:40:20.123266, 1.71065
2022-11-25 16:40:20.155950, 1.71554
2022-11-25 16:40:20.156241, 1.69599
2022-11-25 16:40:20.156403, 1.72532
2022-11-25 16:40:20.189156, 1.68622
2022-11-25 16:40:20.189497, 1.71554
2022-11-25 16:40:20.189670, 1.66667
2022-11-25 16:40:20.189840, 1.67155
2022-11-25 16:40:20.222503, 1.66178
2022-11-25 16:40:20.222739, 1.65200
2022-11-25 16:40:20.222862, 1.64712
2022-11-25 16:40:20.222980, 1.63245
2022-11-25 16:40:20.255859, 1.63245
2022-11-25 16:40:20.256088, 1.62757
2022-11-25 16:40:20.256207, 1.63245
2022-11-25 16:40:20.289128, 1.61290
2022-11-25 16:40:20.289427, 1.60802
2022-11-25 16:40:20.289604, 1.60313
2022-11-25 16:40:20.289763, 1.60802
2022-11-25 16:40:20.322462, 1.59335
2022-11-25 16:40:20.322708, 1.59335
2022-11-25 16:40:20.322830, 1.59335
2022-11-25 16:40:20.355712, 1.58358
2022-11-25 16:40:20.356001, 1.57869
2022-11-25 16:40:20.356171, 1.57380
2022-11-25 16:40:20.356341, 1.58847
2022-11-25 16:40:20.389098, 1.56891
2022-11-25 16:40:20.389402, 1.56403
2022-11-25 16:40:20.389578, 1.56403
2022-11-25 16:40:20.422271, 1.54448
2022-11-25 16:40:20.422519, 1.55914
2022-11-25 16:40:20.422639, 1.53959
2022-11-25 16:40:20.422752, 1.53959
2022-11-25 16:40:20.455636, 1.53959
2022-11-25 16:40:20.455920, 1.52981
2022-11-25 16:40:20.456098, 1.52493
2022-11-25 16:40:20.488862, 1.56403
2022-11-25 16:40:20.489185, 1.53959
2022-11-25 16:40:20.489371, 1.55914
2022-11-25 16:40:20.489534, 1.52493
2022-11-25 16:40:20.522270, 1.52981
2022-11-25 16:40:20.522560, 1.54448
2022-11-25 16:40:20.522727, 1.56403
2022-11-25 16:40:20.522885, 1.59824
2022-11-25 16:40:20.555613, 1.62268
2022-11-25 16:40:20.555911, 1.64223
2022-11-25 16:40:20.556077, 1.67644
2022-11-25 16:40:20.588846, 1.69599
2022-11-25 16:40:20.589149, 1.71554
2022-11-25 16:40:20.589321, 1.73021
2022-11-25 16:40:20.589480, 1.73998
2022-11-25 16:40:20.622203, 1.75464
2022-11-25 16:40:20.622491, 1.75464
2022-11-25 16:40:20.622657, 1.75464
2022-11-25 16:40:20.655414, 1.75464
2022-11-25 16:40:20.655706, 1.75464
2022-11-25 16:40:20.655878, 1.75464
2022-11-25 16:40:20.656043, 1.75464
2022-11-25 16:40:20.688784, 1.75464
2022-11-25 16:40:20.689069, 1.76442
2022-11-25 16:40:20.689234, 1.76442
2022-11-25 16:40:20.722021, 1.76931
2022-11-25 16:40:20.722321, 1.77908
2022-11-25 16:40:20.722499, 1.77908
2022-11-25 16:40:20.722655, 1.79374
2022-11-25 16:40:20.755363, 1.81818
2022-11-25 16:40:20.755597, 1.80841
2022-11-25 16:40:20.755734, 1.76931
2022-11-25 16:40:20.788631, 1.76442
2022-11-25 16:40:20.788899, 1.76442
2022-11-25 16:40:20.789022, 1.75464
2022-11-25 16:40:20.789133, 1.75464
2022-11-25 16:40:20.821985, 1.74976
2022-11-25 16:40:20.822302, 1.74976
2022-11-25 16:40:20.822470, 1.74487
2022-11-25 16:40:20.822629, 1.74487
2022-11-25 16:40:20.855317, 1.73998
2022-11-25 16:40:20.855600, 1.73509
2022-11-25 16:40:20.855773, 1.73998
2022-11-25 16:40:20.888569, 1.73021
2022-11-25 16:40:20.888864, 1.73021
2022-11-25 16:40:20.889033, 1.72043
2022-11-25 16:40:20.889196, 1.72532
2022-11-25 16:40:20.921841, 1.71554
2022-11-25 16:40:20.922124, 1.71554
2022-11-25 16:40:20.922296, 1.70577
2022-11-25 16:40:20.955122, 1.70577
2022-11-25 16:40:20.955411, 1.69110
2022-11-25 16:40:20.955581, 1.68622
2022-11-25 16:40:20.955813, 1.68133
2022-11-25 16:40:20.988504, 1.67155
2022-11-25 16:40:20.988802, 1.67155
2022-11-25 16:40:20.988978, 1.66667
2022-11-25 16:40:21.021676, 1.64712
2022-11-25 16:40:21.021977, 1.68622
2022-11-25 16:40:21.022151, 1.64223
2022-11-25 16:40:21.022310, 1.63734
2022-11-25 16:40:21.055139, 1.63734
2022-11-25 16:40:21.055441, 1.61779
2022-11-25 16:40:21.055623, 1.62268
2022-11-25 16:40:21.088253, 1.61779
2022-11-25 16:40:21.088517, 1.61290
2022-11-25 16:40:21.088645, 1.60802
2022-11-25 16:40:21.088764, 1.60802
2022-11-25 16:40:21.121733, 1.59824
2022-11-25 16:40:21.122015, 1.59824
2022-11-25 16:40:21.122189, 1.58847
2022-11-25 16:40:21.122352, 1.61290
2022-11-25 16:40:21.155044, 1.62757
2022-11-25 16:40:21.155338, 1.59824
2022-11-25 16:40:21.155503, 1.57869
2022-11-25 16:40:21.188249, 1.56891
2022-11-25 16:40:21.188547, 1.56891
2022-11-25 16:40:21.188715, 1.56403
2022-11-25 16:40:21.188873, 1.55914
2022-11-25 16:40:21.221570, 1.55425
2022-11-25 16:40:21.221810, 1.57380
2022-11-25 16:40:21.221934, 1.55914
2022-11-25 16:40:21.254830, 1.55425
2022-11-25 16:40:21.255033, 1.52004
2022-11-25 16:40:21.255129, 1.53959
2022-11-25 16:40:21.255212, 1.54448
2022-11-25 16:40:21.288173, 1.54448
2022-11-25 16:40:21.288455, 1.56403
2022-11-25 16:40:21.288631, 1.58358
2022-11-25 16:40:21.321434, 1.59824
2022-11-25 16:40:21.321713, 1.63734
2022-11-25 16:40:21.321881, 1.66178
2022-11-25 16:40:21.322036, 1.68133
2022-11-25 16:40:21.354748, 1.70088
2022-11-25 16:40:21.354970, 1.73021
2022-11-25 16:40:21.355091, 1.73021
2022-11-25 16:40:21.387962, 1.77419
2022-11-25 16:40:21.388261, 1.74487
2022-11-25 16:40:21.388436, 1.74976
2022-11-25 16:40:21.388587, 1.74487
2022-11-25 16:40:21.421338, 1.73998
2022-11-25 16:40:21.421633, 1.73998
2022-11-25 16:40:21.421805, 1.73998
2022-11-25 16:40:21.421962, 1.76931
2022-11-25 16:40:21.454701, 1.73509
2022-11-25 16:40:21.454932, 1.73998
2022-11-25 16:40:21.455062, 1.73509
2022-11-25 16:40:21.487944, 1.73998
2022-11-25 16:40:21.488234, 1.73509
2022-11-25 16:40:21.488411, 1.73509
2022-11-25 16:40:21.488572, 1.73021
2022-11-25 16:40:21.521325, 1.73021
2022-11-25 16:40:21.521636, 1.73998
2022-11-25 16:40:21.521807, 1.70577
2022-11-25 16:40:21.554544, 1.71554
2022-11-25 16:40:21.554823, 1.71065
2022-11-25 16:40:21.554985, 1.70577
2022-11-25 16:40:21.555137, 1.70088
2022-11-25 16:40:21.587887, 1.69599
2022-11-25 16:40:21.588181, 1.70577
2022-11-25 16:40:21.588353, 1.73509
2022-11-25 16:40:21.621150, 1.69599
2022-11-25 16:40:21.621450, 1.71554
2022-11-25 16:40:21.621625, 1.69110
2022-11-25 16:40:21.621784, 1.71554
2022-11-25 16:40:21.654507, 1.68622
2022-11-25 16:40:21.654800, 1.69110
2022-11-25 16:40:21.654968, 1.68133
2022-11-25 16:40:21.687701, 1.67644
2022-11-25 16:40:21.688008, 1.66667
2022-11-25 16:40:21.688188, 1.65200
2022-11-25 16:40:21.688341, 1.65200
2022-11-25 16:40:21.721076, 1.65200
2022-11-25 16:40:21.721324, 1.64223
2022-11-25 16:40:21.721442, 1.63734
2022-11-25 16:40:21.721552, 1.63245
2022-11-25 16:40:21.754387, 1.63734
2022-11-25 16:40:21.754578, 1.62757
2022-11-25 16:40:21.754669, 1.64712
2022-11-25 16:40:21.787716, 1.60313
2022-11-25 16:40:21.788016, 1.60313
2022-11-25 16:40:21.788191, 1.62268
2022-11-25 16:40:21.788348, 1.58847
2022-11-25 16:40:21.821003, 1.58847
2022-11-25 16:40:21.821230, 1.59824
2022-11-25 16:40:21.821348, 1.57380
2022-11-25 16:40:21.854272, 1.57380
2022-11-25 16:40:21.854567, 1.56891
2022-11-25 16:40:21.854741, 1.60802
2022-11-25 16:40:21.854905, 1.56891
2022-11-25 16:40:21.887618, 1.55425
2022-11-25 16:40:21.887924, 1.55425
2022-11-25 16:40:21.888097, 1.54936
2022-11-25 16:40:21.920832, 1.58358
2022-11-25 16:40:21.921109, 1.54448
2022-11-25 16:40:21.921277, 1.53470
2022-11-25 16:40:21.921433, 1.52981
2022-11-25 16:40:21.954187, 1.55914
2022-11-25 16:40:21.954452, 1.52493
2022-11-25 16:40:21.954625, 1.52004
2022-11-25 16:40:21.987392, 1.55425
2022-11-25 16:40:21.987700, 1.51515
2022-11-25 16:40:21.987871, 1.51026
2022-11-25 16:40:21.988025, 1.50049
2022-11-25 16:40:22.020766, 1.51515
2022-11-25 16:40:22.021063, 1.49560
2022-11-25 16:40:22.021239, 1.49560
2022-11-25 16:40:22.021661, 1.51026
2022-11-25 16:40:22.054179, 1.52004
2022-11-25 16:40:22.054472, 1.57380
2022-11-25 16:40:22.054650, 1.56403
2022-11-25 16:40:22.087377, 1.58847
2022-11-25 16:40:22.087657, 1.63245
2022-11-25 16:40:22.087823, 1.65200
2022-11-25 16:40:22.087977, 1.67644
2022-11-25 16:40:22.120674, 1.69110
2022-11-25 16:40:22.120954, 1.70577
2022-11-25 16:40:22.121121, 1.71065
2022-11-25 16:40:22.153975, 1.71554
2022-11-25 16:40:22.154270, 1.71065
2022-11-25 16:40:22.154438, 1.73509
2022-11-25 16:40:22.154596, 1.72043
2022-11-25 16:40:22.187276, 1.72532
2022-11-25 16:40:22.187574, 1.72532
2022-11-25 16:40:22.187750, 1.71554
2022-11-25 16:40:22.220572, 1.72532
2022-11-25 16:40:22.220859, 1.72043
2022-11-25 16:40:22.221028, 1.71554
2022-11-25 16:40:22.221207, 1.72532
2022-11-25 16:40:22.253878, 1.72043
2022-11-25 16:40:22.254059, 1.73021
2022-11-25 16:40:22.254151, 1.73021
2022-11-25 16:40:22.287124, 1.73021
2022-11-25 16:40:22.287435, 1.73998
2022-11-25 16:40:22.287604, 1.72043
2022-11-25 16:40:22.287759, 1.72043
2022-11-25 16:40:22.320496, 1.71065
2022-11-25 16:40:22.320797, 1.71065
2022-11-25 16:40:22.320973, 1.70088
2022-11-25 16:40:22.321130, 1.70577
2022-11-25 16:40:22.353851, 1.69599
2022-11-25 16:40:22.354137, 1.70088
2022-11-25 16:40:22.354309, 1.69599
2022-11-25 16:40:22.387005, 1.69599
2022-11-25 16:40:22.387251, 1.70088
2022-11-25 16:40:22.387415, 1.68133
2022-11-25 16:40:22.387573, 1.69599
2022-11-25 16:40:22.420435, 1.68133
2022-11-25 16:40:22.420714, 1.68133
2022-11-25 16:40:22.420880, 1.68622
2022-11-25 16:40:22.453684, 1.67644
2022-11-25 16:40:22.453967, 1.67155
2022-11-25 16:40:22.454139, 1.66178
2022-11-25 16:40:22.454290, 1.66178
2022-11-25 16:40:22.486996, 1.65200
2022-11-25 16:40:22.487201, 1.64712
2022-11-25 16:40:22.487298, 1.65689
2022-11-25 16:40:22.520270, 1.63734
2022-11-25 16:40:22.520573, 1.62757
2022-11-25 16:40:22.520746, 1.62757
2022-11-25 16:40:22.520906, 1.62268
2022-11-25 16:40:22.553629, 1.61779
2022-11-25 16:40:22.553924, 1.61779
2022-11-25 16:40:22.554096, 1.60802
2022-11-25 16:40:22.586805, 1.61290
2022-11-25 16:40:22.587119, 1.59335
2022-11-25 16:40:22.587296, 1.58847
2022-11-25 16:40:22.587457, 1.59335
2022-11-25 16:40:22.620228, 1.57869
2022-11-25 16:40:22.620522, 1.57380
2022-11-25 16:40:22.620694, 1.57380
2022-11-25 16:40:22.620907, 1.56891
2022-11-25 16:40:22.653585, 1.56891
2022-11-25 16:40:22.653874, 1.56403
2022-11-25 16:40:22.654048, 1.55914
2022-11-25 16:40:22.686837, 1.57380
2022-11-25 16:40:22.687132, 1.55425
2022-11-25 16:40:22.687303, 1.54448
2022-11-25 16:40:22.687461, 1.54448
2022-11-25 16:40:22.720158, 1.54448
2022-11-25 16:40:22.720434, 1.53959
2022-11-25 16:40:22.720601, 1.55425
2022-11-25 16:40:22.753377, 1.52981
2022-11-25 16:40:22.753564, 1.52981
2022-11-25 16:40:22.753652, 1.52493
2022-11-25 16:40:22.753727, 1.51515
2022-11-25 16:40:22.786686, 1.54448
2022-11-25 16:40:22.786882, 1.51026
2022-11-25 16:40:22.786971, 1.51026
2022-11-25 16:40:22.819970, 1.50538
2022-11-25 16:40:22.820256, 1.51026
2022-11-25 16:40:22.820426, 1.52981
2022-11-25 16:40:22.820590, 1.54448
2022-11-25 16:40:22.853328, 1.56891
2022-11-25 16:40:22.853630, 1.59335
2022-11-25 16:40:22.853805, 1.62268
2022-11-25 16:40:22.886559, 1.66178
2022-11-25 16:40:22.886773, 1.67644
2022-11-25 16:40:22.886867, 1.74976
2022-11-25 16:40:22.886953, 1.72043
2022-11-25 16:40:22.919944, 1.75464
2022-11-25 16:40:22.920238, 1.73509
2022-11-25 16:40:22.920407, 1.73509
2022-11-25 16:40:22.920574, 1.73998
2022-11-25 16:40:22.953308, 1.74487
2022-11-25 16:40:22.953607, 1.74487
2022-11-25 16:40:22.953782, 1.74487
2022-11-25 16:40:22.986504, 1.74487
2022-11-25 16:40:22.986736, 1.74976
2022-11-25 16:40:22.986859, 1.74487
2022-11-25 16:40:22.986976, 1.74976
2022-11-25 16:40:23.019744, 1.75464
2022-11-25 16:40:23.019954, 1.78397
2022-11-25 16:40:23.020053, 1.75953
2022-11-25 16:40:23.053111, 1.76442
2022-11-25 16:40:23.053413, 1.76442
2022-11-25 16:40:23.053592, 1.75464
2022-11-25 16:40:23.053751, 1.75953
2022-11-25 16:40:23.086481, 1.75464
2022-11-25 16:40:23.086777, 1.75464
2022-11-25 16:40:23.086948, 1.78397
2022-11-25 16:40:23.119621, 1.75464
2022-11-25 16:40:23.119933, 1.74487
2022-11-25 16:40:23.120104, 1.73509
2022-11-25 16:40:23.120262, 1.73021
2022-11-25 16:40:23.153031, 1.73021
2022-11-25 16:40:23.153319, 1.72532
2022-11-25 16:40:23.153504, 1.72532
2022-11-25 16:40:23.186264, 1.71554
2022-11-25 16:40:23.186589, 1.71065
2022-11-25 16:40:23.186766, 1.71554
2022-11-25 16:40:23.186932, 1.70577
2022-11-25 16:40:23.219542, 1.70577
2022-11-25 16:40:23.219754, 1.71065
2022-11-25 16:40:23.219846, 1.69599
2022-11-25 16:40:23.219938, 1.69599
2022-11-25 16:40:23.252923, 1.68622
2022-11-25 16:40:23.253124, 1.68622
2022-11-25 16:40:23.253224, 1.67644
2022-11-25 16:40:23.286221, 1.66667
2022-11-25 16:40:23.286525, 1.66178
2022-11-25 16:40:23.286697, 1.65689
2022-11-25 16:40:23.286863, 1.65200
2022-11-25 16:40:23.319574, 1.65200
2022-11-25 16:40:23.319801, 1.63734
2022-11-25 16:40:23.319922, 1.65200
2022-11-25 16:40:23.352836, 1.62757
2022-11-25 16:40:23.353133, 1.62268
2022-11-25 16:40:23.353305, 1.62268
2022-11-25 16:40:23.353471, 1.61290
2022-11-25 16:40:23.386163, 1.60802
2022-11-25 16:40:23.386448, 1.60802
2022-11-25 16:40:23.386611, 1.59824
2022-11-25 16:40:23.419391, 1.62268
2022-11-25 16:40:23.419698, 1.61290
2022-11-25 16:40:23.419869, 1.60802
2022-11-25 16:40:23.420025, 1.59335
2022-11-25 16:40:23.452733, 1.59335
2022-11-25 16:40:23.453005, 1.58358
2022-11-25 16:40:23.453172, 1.57380
2022-11-25 16:40:23.485984, 1.57380
2022-11-25 16:40:23.486212, 1.56891
2022-11-25 16:40:23.486309, 1.56891
2022-11-25 16:40:23.486394, 1.56891
2022-11-25 16:40:23.519312, 1.55425
2022-11-25 16:40:23.519519, 1.55914
2022-11-25 16:40:23.519614, 1.55914
2022-11-25 16:40:23.519705, 1.59335
2022-11-25 16:40:23.552788, 1.55914
2022-11-25 16:40:23.553076, 1.54448
2022-11-25 16:40:23.553248, 1.54936
2022-11-25 16:40:23.585933, 1.54448
2022-11-25 16:40:23.586230, 1.56891
2022-11-25 16:40:23.586404, 1.54448
2022-11-25 16:40:23.586561, 1.55425
2022-11-25 16:40:23.619251, 1.56403
2022-11-25 16:40:23.619481, 1.58847
2022-11-25 16:40:23.619601, 1.63734
2022-11-25 16:40:23.652493, 1.64712
2022-11-25 16:40:23.652726, 1.67644
2022-11-25 16:40:23.652850, 1.69599
2022-11-25 16:40:23.652972, 1.72043
2022-11-25 16:40:23.685871, 1.73021
2022-11-25 16:40:23.686158, 1.74976
2022-11-25 16:40:23.686336, 1.74976
2022-11-25 16:40:23.719125, 1.75953
2022-11-25 16:40:23.719413, 1.75464
2022-11-25 16:40:23.719587, 1.76442
2022-11-25 16:40:23.719741, 1.79374
2022-11-25 16:40:23.752287, 1.75464
2022-11-25 16:40:23.752465, 1.75953
2022-11-25 16:40:23.752556, 1.75464
2022-11-25 16:40:23.785689, 1.75953
2022-11-25 16:40:23.786018, 1.75464
2022-11-25 16:40:23.786191, 1.76442
2022-11-25 16:40:23.786352, 1.76442
2022-11-25 16:40:23.819062, 1.77419
2022-11-25 16:40:23.819338, 1.79374
2022-11-25 16:40:23.819498, 1.76931
2022-11-25 16:40:23.819654, 1.76931
2022-11-25 16:40:23.852408, 1.76442
2022-11-25 16:40:23.852681, 1.76442
2022-11-25 16:40:23.852847, 1.75464
2022-11-25 16:40:23.885696, 1.74976
2022-11-25 16:40:23.885982, 1.74976
2022-11-25 16:40:23.886157, 1.74976
2022-11-25 16:40:23.886319, 1.75953
2022-11-25 16:40:23.919031, 1.75464
2022-11-25 16:40:23.919335, 1.75953
2022-11-25 16:40:23.919512, 1.77419
2022-11-25 16:40:23.952216, 1.74976
2022-11-25 16:40:23.952419, 1.77419
2022-11-25 16:40:23.952509, 1.75953
2022-11-25 16:40:23.952594, 1.77908
2022-11-25 16:40:23.985593, 1.76442
2022-11-25 16:40:23.985887, 1.77908
2022-11-25 16:40:23.986056, 1.76931
2022-11-25 16:40:24.018832, 1.73021
2022-11-25 16:40:24.019119, 1.73021
2022-11-25 16:40:24.019280, 1.71554
2022-11-25 16:40:24.019432, 1.72043
2022-11-25 16:40:24.052189, 1.69599
2022-11-25 16:40:24.052435, 1.70088
2022-11-25 16:40:24.052566, 1.69110
2022-11-25 16:40:24.085377, 1.69110
2022-11-25 16:40:24.085591, 1.68133
2022-11-25 16:40:24.085686, 1.68133
2022-11-25 16:40:24.085772, 1.66667
2022-11-25 16:40:24.118787, 1.66178
2022-11-25 16:40:24.119077, 1.66178
2022-11-25 16:40:24.119247, 1.64712
2022-11-25 16:40:24.119417, 1.65200
2022-11-25 16:40:24.152116, 1.66178
2022-11-25 16:40:24.152353, 1.64223
2022-11-25 16:40:24.152630, 1.63734
2022-11-25 16:40:24.185392, 1.63734
2022-11-25 16:40:24.185689, 1.64712
2022-11-25 16:40:24.185860, 1.63245
2022-11-25 16:40:24.186022, 1.62757
2022-11-25 16:40:24.218679, 1.62268
2022-11-25 16:40:24.218974, 1.61779
2022-11-25 16:40:24.219141, 1.61290
2022-11-25 16:40:24.251830, 1.61290
2022-11-25 16:40:24.252030, 1.60802
2022-11-25 16:40:24.252125, 1.60802
2022-11-25 16:40:24.252207, 1.59824
2022-11-25 16:40:24.285311, 1.58358
2022-11-25 16:40:24.285593, 1.59335
2022-11-25 16:40:24.285758, 1.58358
2022-11-25 16:40:24.318510, 1.58358
2022-11-25 16:40:24.318784, 1.61290
2022-11-25 16:40:24.318947, 1.57869
2022-11-25 16:40:24.319105, 1.57380
2022-11-25 16:40:24.351897, 1.57380
2022-11-25 16:40:24.352202, 1.57380
2022-11-25 16:40:24.352379, 1.58847
2022-11-25 16:40:24.385109, 1.60313
2022-11-25 16:40:24.385444, 1.66667
2022-11-25 16:40:24.385630, 1.65689
2022-11-25 16:40:24.385794, 1.68133
2022-11-25 16:40:24.418453, 1.70088
2022-11-25 16:40:24.418758, 1.71554
2022-11-25 16:40:24.418937, 1.73021
2022-11-25 16:40:24.419097, 1.74487
2022-11-25 16:40:24.451846, 1.75464
2022-11-25 16:40:24.452160, 1.76442
2022-11-25 16:40:24.452335, 1.77908
2022-11-25 16:40:24.485062, 1.76442
2022-11-25 16:40:24.485361, 1.75953
2022-11-25 16:40:24.485552, 1.75464
2022-11-25 16:40:24.485711, 1.75464
2022-11-25 16:40:24.518421, 1.74976
2022-11-25 16:40:24.518708, 1.75464
2022-11-25 16:40:24.518874, 1.76442
2022-11-25 16:40:24.551657, 1.78397
2022-11-25 16:40:24.551870, 1.73998
2022-11-25 16:40:24.551967, 1.73998
2022-11-25 16:40:24.552057, 1.73998
2022-11-25 16:40:24.585028, 1.73509
2022-11-25 16:40:24.585318, 1.73509
2022-11-25 16:40:24.585492, 1.73021
2022-11-25 16:40:24.618223, 1.73021
2022-11-25 16:40:24.618502, 1.72532
2022-11-25 16:40:24.618675, 1.72532
2022-11-25 16:40:24.618831, 1.72532
2022-11-25 16:40:24.651575, 1.72043
2022-11-25 16:40:24.651814, 1.72532
2022-11-25 16:40:24.651936, 1.71554
2022-11-25 16:40:24.684809, 1.71554
2022-11-25 16:40:24.685147, 1.71065
2022-11-25 16:40:24.685321, 1.71554
2022-11-25 16:40:24.685481, 1.71065
2022-11-25 16:40:24.718204, 1.71065
2022-11-25 16:40:24.718498, 1.71065
2022-11-25 16:40:24.718676, 1.70577
2022-11-25 16:40:24.718839, 1.71065
2022-11-25 16:40:24.751376, 1.69599
2022-11-25 16:40:24.751586, 1.69110
2022-11-25 16:40:24.751689, 1.68622
2022-11-25 16:40:24.784758, 1.68133
2022-11-25 16:40:24.784967, 1.67155
2022-11-25 16:40:24.785063, 1.67155
2022-11-25 16:40:24.785151, 1.66178
2022-11-25 16:40:24.818146, 1.65200
2022-11-25 16:40:24.818452, 1.65200
2022-11-25 16:40:24.818622, 1.64223
2022-11-25 16:40:24.851320, 1.63734
2022-11-25 16:40:24.851574, 1.63245
2022-11-25 16:40:24.851704, 1.63245
2022-11-25 16:40:24.851821, 1.63734
2022-11-25 16:40:24.884766, 1.62268
2022-11-25 16:40:24.885071, 1.62268
2022-11-25 16:40:24.885243, 1.61290
2022-11-25 16:40:24.917965, 1.60802
2022-11-25 16:40:24.918266, 1.61779
2022-11-25 16:40:24.918448, 1.60313
2022-11-25 16:40:24.918604, 1.59335
2022-11-25 16:40:24.951318, 1.58847
2022-11-25 16:40:24.951601, 1.58847
2022-11-25 16:40:24.951773, 1.58847
2022-11-25 16:40:24.984516, 1.57869
2022-11-25 16:40:24.984830, 1.57380
2022-11-25 16:40:24.985005, 1.57380
2022-11-25 16:40:24.985158, 1.57380
2022-11-25 16:40:25.017940, 1.59824
2022-11-25 16:40:25.018257, 1.56403
2022-11-25 16:40:25.018437, 1.59335
2022-11-25 16:40:25.018597, 1.58358
2022-11-25 16:40:25.051283, 1.55425
2022-11-25 16:40:25.051598, 1.54936
2022-11-25 16:40:25.051771, 1.54448
2022-11-25 16:40:25.084461, 1.53959
2022-11-25 16:40:25.084697, 1.54936
2022-11-25 16:40:25.084815, 1.53959
2022-11-25 16:40:25.084929, 1.54448
2022-11-25 16:40:25.117865, 1.55914
2022-11-25 16:40:25.118180, 1.57869
2022-11-25 16:40:25.118359, 1.60802
2022-11-25 16:40:25.151106, 1.61779
2022-11-25 16:40:25.151420, 1.64712
2022-11-25 16:40:25.151591, 1.68622
2022-11-25 16:40:25.151757, 1.69599
2022-11-25 16:40:25.184383, 1.71065
2022-11-25 16:40:25.184583, 1.73998
2022-11-25 16:40:25.184674, 1.73998
2022-11-25 16:40:25.217644, 1.75464
2022-11-25 16:40:25.217849, 1.74976
2022-11-25 16:40:25.217954, 1.75953
2022-11-25 16:40:25.218053, 1.75953
2022-11-25 16:40:25.250863, 1.75953
2022-11-25 16:40:25.251058, 1.75464
2022-11-25 16:40:25.251156, 1.75464
2022-11-25 16:40:25.284226, 1.75953
2022-11-25 16:40:25.284577, 1.77908
2022-11-25 16:40:25.284770, 1.79374
2022-11-25 16:40:25.284925, 1.75464
2022-11-25 16:40:25.317578, 1.75464
2022-11-25 16:40:25.317824, 1.75464
2022-11-25 16:40:25.317954, 1.75464
2022-11-25 16:40:25.318071, 1.75464
2022-11-25 16:40:25.350984, 1.74976
2022-11-25 16:40:25.351284, 1.75953
2022-11-25 16:40:25.351465, 1.76931
2022-11-25 16:40:25.384217, 1.73998
2022-11-25 16:40:25.384510, 1.73998
2022-11-25 16:40:25.384692, 1.73998
2022-11-25 16:40:25.384857, 1.73509
2022-11-25 16:40:25.417564, 1.72532
2022-11-25 16:40:25.417866, 1.73998
2022-11-25 16:40:25.418049, 1.73021
2022-11-25 16:40:25.450793, 1.73021
2022-11-25 16:40:25.451071, 1.73509
2022-11-25 16:40:25.451234, 1.73509
2022-11-25 16:40:25.451395, 1.73509
2022-11-25 16:40:25.484175, 1.73021
2022-11-25 16:40:25.484481, 1.72532
2022-11-25 16:40:25.484657, 1.71554
2022-11-25 16:40:25.517387, 1.72043
2022-11-25 16:40:25.517632, 1.74976
2022-11-25 16:40:25.517759, 1.71065
2022-11-25 16:40:25.517878, 1.71554
2022-11-25 16:40:25.550701, 1.69599
2022-11-25 16:40:25.550940, 1.69599
2022-11-25 16:40:25.551063, 1.68622
2022-11-25 16:40:25.583936, 1.68133
2022-11-25 16:40:25.584167, 1.67155
2022-11-25 16:40:25.584259, 1.67155
2022-11-25 16:40:25.584345, 1.66178
2022-11-25 16:40:25.617314, 1.67155
2022-11-25 16:40:25.617557, 1.65689
2022-11-25 16:40:25.617681, 1.67155
2022-11-25 16:40:25.617798, 1.64712
2022-11-25 16:40:25.650591, 1.65689
2022-11-25 16:40:25.650787, 1.64223
2022-11-25 16:40:25.650876, 1.63245
2022-11-25 16:40:25.683932, 1.64712
2022-11-25 16:40:25.684231, 1.62757
2022-11-25 16:40:25.684405, 1.62268
2022-11-25 16:40:25.684566, 1.65200
2022-11-25 16:40:25.717230, 1.61779
2022-11-25 16:40:25.717448, 1.61290
2022-11-25 16:40:25.717570, 1.60802
2022-11-25 16:40:25.750471, 1.60802
2022-11-25 16:40:25.750753, 1.60313
2022-11-25 16:40:25.750918, 1.59824
2022-11-25 16:40:25.751085, 1.60313
2022-11-25 16:40:25.783873, 1.59824
2022-11-25 16:40:25.784178, 1.59335
2022-11-25 16:40:25.784348, 1.58847
2022-11-25 16:40:25.817081, 1.58358
2022-11-25 16:40:25.817285, 1.57380
2022-11-25 16:40:25.817376, 1.57869
2022-11-25 16:40:25.817458, 1.57380
2022-11-25 16:40:25.850451, 1.58847
2022-11-25 16:40:25.850750, 1.57869
2022-11-25 16:40:25.850928, 1.59335
2022-11-25 16:40:25.883662, 1.64223
2022-11-25 16:40:25.883990, 1.63734
2022-11-25 16:40:25.884162, 1.65689
2022-11-25 16:40:25.884320, 1.68133
2022-11-25 16:40:25.917039, 1.70577
2022-11-25 16:40:25.917335, 1.73021
2022-11-25 16:40:25.917508, 1.74487
2022-11-25 16:40:25.917662, 1.78397
2022-11-25 16:40:25.950391, 1.77419
2022-11-25 16:40:25.950684, 1.79374
2022-11-25 16:40:25.950854, 1.78397
2022-11-25 16:40:25.983600, 1.78886
2022-11-25 16:40:25.983898, 1.78886
2022-11-25 16:40:25.984080, 1.79374
2022-11-25 16:40:25.984236, 1.78886
2022-11-25 16:40:26.016988, 1.79863
2022-11-25 16:40:26.017288, 1.80841
2022-11-25 16:40:26.017463, 1.81818
2022-11-25 16:40:26.050190, 1.79374
2022-11-25 16:40:26.050424, 1.79374
2022-11-25 16:40:26.050542, 1.79863
2022-11-25 16:40:26.050654, 1.80841
2022-11-25 16:40:26.083566, 1.80352
2022-11-25 16:40:26.083870, 1.80841
2022-11-25 16:40:26.084049, 1.78886
2022-11-25 16:40:26.116787, 1.81329
2022-11-25 16:40:26.117082, 1.79863
2022-11-25 16:40:26.117260, 1.78886
2022-11-25 16:40:26.117425, 1.79374
2022-11-25 16:40:26.150097, 1.78886
2022-11-25 16:40:26.150296, 1.78397
2022-11-25 16:40:26.150394, 1.78397
2022-11-25 16:40:26.183320, 1.78397
2022-11-25 16:40:26.183582, 1.77419
2022-11-25 16:40:26.183713, 1.77419
2022-11-25 16:40:26.183825, 1.77419
2022-11-25 16:40:26.216749, 1.77419
2022-11-25 16:40:26.217038, 1.76931
2022-11-25 16:40:26.217230, 1.76931
2022-11-25 16:40:26.217397, 1.76442
2022-11-25 16:40:26.250096, 1.75953
2022-11-25 16:40:26.250395, 1.79863
2022-11-25 16:40:26.250564, 1.75464
2022-11-25 16:40:26.283303, 1.77908
2022-11-25 16:40:26.283545, 1.74487
2022-11-25 16:40:26.283829, 1.75464
2022-11-25 16:40:26.283951, 1.73021
2022-11-25 16:40:26.316769, 1.73509
2022-11-25 16:40:26.317072, 1.72532
2022-11-25 16:40:26.317249, 1.72043
2022-11-25 16:40:26.349897, 1.70577
2022-11-25 16:40:26.350128, 1.71065
2022-11-25 16:40:26.350246, 1.69599
2022-11-25 16:40:26.350358, 1.72532
2022-11-25 16:40:26.383280, 1.68622
2022-11-25 16:40:26.383578, 1.68133
2022-11-25 16:40:26.383753, 1.68622
2022-11-25 16:40:26.416520, 1.67644
2022-11-25 16:40:26.416809, 1.67155
2022-11-25 16:40:26.416973, 1.66667
2022-11-25 16:40:26.417124, 1.66667
2022-11-25 16:40:26.449830, 1.66178
2022-11-25 16:40:26.450111, 1.68622
2022-11-25 16:40:26.450283, 1.68622
2022-11-25 16:40:26.483006, 1.65689
2022-11-25 16:40:26.483329, 1.65689
2022-11-25 16:40:26.483496, 1.64223
2022-11-25 16:40:26.483657, 1.63734
2022-11-25 16:40:26.516449, 1.64223
2022-11-25 16:40:26.516744, 1.63734
2022-11-25 16:40:26.516925, 1.62757
2022-11-25 16:40:26.517089, 1.62757
2022-11-25 16:40:26.549752, 1.62757
2022-11-25 16:40:26.549989, 1.63245
2022-11-25 16:40:26.550109, 1.62757
2022-11-25 16:40:26.583012, 1.61779
2022-11-25 16:40:26.583309, 1.61779
2022-11-25 16:40:26.583481, 1.62268
2022-11-25 16:40:26.583643, 1.65689
2022-11-25 16:40:26.616325, 1.63734
2022-11-25 16:40:26.616524, 1.65200
2022-11-25 16:40:26.616617, 1.67155
2022-11-25 16:40:26.649617, 1.68622
2022-11-25 16:40:26.649894, 1.71554
2022-11-25 16:40:26.650066, 1.73998
2022-11-25 16:40:26.650224, 1.75464
2022-11-25 16:40:26.682967, 1.77908
2022-11-25 16:40:26.683253, 1.78886
2022-11-25 16:40:26.683412, 1.79863
2022-11-25 16:40:26.716158, 1.80352
2022-11-25 16:40:26.716438, 1.80841
2022-11-25 16:40:26.716596, 1.82307
2022-11-25 16:40:26.716759, 1.81818
2022-11-25 16:40:26.749528, 1.82307
2022-11-25 16:40:26.749751, 1.82796
2022-11-25 16:40:26.749866, 1.83284
2022-11-25 16:40:26.782733, 1.83773
2022-11-25 16:40:26.783061, 1.83284
2022-11-25 16:40:26.783232, 1.83284
2022-11-25 16:40:26.783396, 1.83773
2022-11-25 16:40:26.816106, 1.84262
2022-11-25 16:40:26.816397, 1.83773
2022-11-25 16:40:26.816579, 1.85239
2022-11-25 16:40:26.816739, 1.85239
2022-11-25 16:40:26.849440, 1.85239
2022-11-25 16:40:26.849673, 1.88172
2022-11-25 16:40:26.849797, 1.83284
2022-11-25 16:40:26.882681, 1.83284
2022-11-25 16:40:26.882906, 1.82796
2022-11-25 16:40:26.883030, 1.82796
2022-11-25 16:40:26.883145, 1.82796
2022-11-25 16:40:26.915968, 1.81818
2022-11-25 16:40:26.916197, 1.81329
2022-11-25 16:40:26.916321, 1.80841
2022-11-25 16:40:26.949257, 1.80841
2022-11-25 16:40:26.949450, 1.80352
2022-11-25 16:40:26.949539, 1.83284
2022-11-25 16:40:26.949629, 1.80352
2022-11-25 16:40:26.982683, 1.80841
2022-11-25 16:40:26.982984, 1.79863
2022-11-25 16:40:26.983158, 1.80841
2022-11-25 16:40:27.015868, 1.79374
2022-11-25 16:40:27.016094, 1.79374
2022-11-25 16:40:27.016218, 1.78886
2022-11-25 16:40:27.016333, 1.77908
2022-11-25 16:40:27.049201, 1.81329
2022-11-25 16:40:27.049423, 1.76931
2022-11-25 16:40:27.049549, 1.76931
2022-11-25 16:40:27.082400, 1.76442
2022-11-25 16:40:27.082608, 1.76442
2022-11-25 16:40:27.082710, 1.74976
2022-11-25 16:40:27.082800, 1.74976
2022-11-25 16:40:27.115812, 1.73998
2022-11-25 16:40:27.116105, 1.74487
2022-11-25 16:40:27.116280, 1.73509
2022-11-25 16:40:27.116442, 1.75953
2022-11-25 16:40:27.149154, 1.71554
2022-11-25 16:40:27.149428, 1.73021
2022-11-25 16:40:27.149604, 1.70577
2022-11-25 16:40:27.182390, 1.70577
2022-11-25 16:40:27.182668, 1.70088
2022-11-25 16:40:27.182841, 1.69599
2022-11-25 16:40:27.183000, 1.69599
2022-11-25 16:40:27.215684, 1.68622
2022-11-25 16:40:27.215859, 1.72532
2022-11-25 16:40:27.215950, 1.71554
2022-11-25 16:40:27.248951, 1.70577
2022-11-25 16:40:27.249163, 1.67644
2022-11-25 16:40:27.249281, 1.66178
2022-11-25 16:40:27.249401, 1.66178
2022-11-25 16:40:27.282234, 1.65689
2022-11-25 16:40:27.282392, 1.63734
2022-11-25 16:40:27.282482, 1.64223
2022-11-25 16:40:27.315572, 1.64223
2022-11-25 16:40:27.315828, 1.63734
2022-11-25 16:40:27.315998, 1.65689
2022-11-25 16:40:27.316149, 1.63734
2022-11-25 16:40:27.348890, 1.64712
2022-11-25 16:40:27.349141, 1.65689
2022-11-25 16:40:27.349308, 1.67644
2022-11-25 16:40:27.382083, 1.69599
2022-11-25 16:40:27.382572, 1.72532
2022-11-25 16:40:27.382790, 1.75464
2022-11-25 16:40:27.382961, 1.76442
2022-11-25 16:40:27.415473, 1.77908
2022-11-25 16:40:27.415658, 1.78886
2022-11-25 16:40:27.415749, 1.81329
2022-11-25 16:40:27.415849, 1.80352
2022-11-25 16:40:27.448782, 1.84262
2022-11-25 16:40:27.448960, 1.80841
2022-11-25 16:40:27.449058, 1.80841
2022-11-25 16:40:27.482110, 1.80841
2022-11-25 16:40:27.482400, 1.80352
2022-11-25 16:40:27.482578, 1.80352
2022-11-25 16:40:27.482737, 1.79863
2022-11-25 16:40:27.515415, 1.79863
2022-11-25 16:40:27.515632, 1.80841
2022-11-25 16:40:27.515755, 1.82307
2022-11-25 16:40:27.548678, 1.82307
2022-11-25 16:40:27.548959, 1.83773
2022-11-25 16:40:27.549130, 1.84262
2022-11-25 16:40:27.549291, 1.82307
2022-11-25 16:40:27.582026, 1.79374
2022-11-25 16:40:27.582252, 1.79374
2022-11-25 16:40:27.582374, 1.77908
2022-11-25 16:40:27.615260, 1.77419
2022-11-25 16:40:27.615477, 1.77419
2022-11-25 16:40:27.615603, 1.77419
2022-11-25 16:40:27.615717, 1.77908
2022-11-25 16:40:27.648605, 1.76931
2022-11-25 16:40:27.648833, 1.78397
2022-11-25 16:40:27.648956, 1.76931
2022-11-25 16:40:27.681808, 1.77908
2022-11-25 16:40:27.682010, 1.75953
2022-11-25 16:40:27.682107, 1.76931
2022-11-25 16:40:27.682188, 1.75953
2022-11-25 16:40:27.715232, 1.76442
2022-11-25 16:40:27.715508, 1.74976
2022-11-25 16:40:27.715674, 1.74976
2022-11-25 16:40:27.715828, 1.73998
2022-11-25 16:40:27.748528, 1.73509
2022-11-25 16:40:27.748805, 1.72532
2022-11-25 16:40:27.748976, 1.73021
2022-11-25 16:40:27.781709, 1.71554
2022-11-25 16:40:27.781814, 1.72043
2022-11-25 16:40:27.781881, 1.70577
2022-11-25 16:40:27.781943, 1.73021
2022-11-25 16:40:27.815058, 1.69599
2022-11-25 16:40:27.815183, 1.68622
2022-11-25 16:40:27.815260, 1.68133
2022-11-25 16:40:27.848289, 1.67644
2022-11-25 16:40:27.848599, 1.69110
2022-11-25 16:40:27.848822, 1.70577
2022-11-25 16:40:27.848986, 1.67644
2022-11-25 16:40:27.881668, 1.68133
2022-11-25 16:40:27.881845, 1.67644
2022-11-25 16:40:27.881964, 1.64223
2022-11-25 16:40:27.914884, 1.65200
2022-11-25 16:40:27.915133, 1.65200
2022-11-25 16:40:27.915265, 1.64223
2022-11-25 16:40:27.915382, 1.64223
2022-11-25 16:40:27.948219, 1.63734
2022-11-25 16:40:27.948420, 1.63245
2022-11-25 16:40:27.948625, 1.62757
2022-11-25 16:40:27.981447, 1.62268
2022-11-25 16:40:27.981710, 1.65200
2022-11-25 16:40:27.981905, 1.63245
2022-11-25 16:40:27.982146, 1.61290
2022-11-25 16:40:28.014838, 1.60802
2022-11-25 16:40:28.015107, 1.60313
2022-11-25 16:40:28.015433, 1.60313
2022-11-25 16:40:28.015608, 1.59824
2022-11-25 16:40:28.048209, 1.59335
2022-11-25 16:40:28.048461, 1.59824
2022-11-25 16:40:28.048791, 1.62757
2022-11-25 16:40:28.081403, 1.58847
2022-11-25 16:40:28.081690, 1.58358
2022-11-25 16:40:28.081839, 1.59335
2022-11-25 16:40:28.081957, 1.59824
2022-11-25 16:40:28.114835, 1.61779
2022-11-25 16:40:28.115058, 1.63734
2022-11-25 16:40:28.115225, 1.66667
2022-11-25 16:40:28.148013, 1.69599
2022-11-25 16:40:28.148165, 1.72532
2022-11-25 16:40:28.148260, 1.77908
2022-11-25 16:40:28.148343, 1.76442
2022-11-25 16:40:28.181473, 1.77908
2022-11-25 16:40:28.181714, 1.79374
2022-11-25 16:40:28.181880, 1.79374
2022-11-25 16:40:28.214683, 1.80841
2022-11-25 16:40:28.214837, 1.79863
2022-11-25 16:40:28.214928, 1.81329
2022-11-25 16:40:28.215016, 1.80841
2022-11-25 16:40:28.248030, 1.80841
2022-11-25 16:40:28.248278, 1.80352
2022-11-25 16:40:28.248453, 1.79863
2022-11-25 16:40:28.281260, 1.81818
2022-11-25 16:40:28.281424, 1.85239
2022-11-25 16:40:28.281516, 1.81329
2022-11-25 16:40:28.281600, 1.81329
2022-11-25 16:40:28.314646, 1.82307
2022-11-25 16:40:28.314893, 1.82307
2022-11-25 16:40:28.315062, 1.82307
2022-11-25 16:40:28.315227, 1.82307
2022-11-25 16:40:28.347999, 1.81818
2022-11-25 16:40:28.348228, 1.81818
2022-11-25 16:40:28.348391, 1.81818
2022-11-25 16:40:28.381118, 1.84262
2022-11-25 16:40:28.381506, 1.79863
2022-11-25 16:40:28.381705, 1.79863
2022-11-25 16:40:28.381866, 1.79374
2022-11-25 16:40:28.414513, 1.79374
2022-11-25 16:40:28.414860, 1.78886
2022-11-25 16:40:28.414984, 1.78886
2022-11-25 16:40:28.447791, 1.78886
2022-11-25 16:40:28.448064, 1.78397
2022-11-25 16:40:28.448237, 1.78397
2022-11-25 16:40:28.448393, 1.77908
2022-11-25 16:40:28.481081, 1.77908
2022-11-25 16:40:28.481250, 1.79374
2022-11-25 16:40:28.481338, 1.77419
2022-11-25 16:40:28.514352, 1.77419
2022-11-25 16:40:28.514528, 1.75464
2022-11-25 16:40:28.514619, 1.75953
2022-11-25 16:40:28.514700, 1.74976
2022-11-25 16:40:28.547696, 1.74487
2022-11-25 16:40:28.547878, 1.73998
2022-11-25 16:40:28.548000, 1.73998
2022-11-25 16:40:28.580885, 1.73021
2022-11-25 16:40:28.581217, 1.72043
2022-11-25 16:40:28.581415, 1.71554
2022-11-25 16:40:28.581577, 1.70577
2022-11-25 16:40:28.614233, 1.70088
2022-11-25 16:40:28.614513, 1.71554
2022-11-25 16:40:28.614660, 1.68622
2022-11-25 16:40:28.614779, 1.68622
2022-11-25 16:40:28.647600, 1.71554
2022-11-25 16:40:28.647955, 1.71554
2022-11-25 16:40:28.648143, 1.69110
2022-11-25 16:40:28.680818, 1.67644
2022-11-25 16:40:28.681008, 1.67155
2022-11-25 16:40:28.681134, 1.65689
2022-11-25 16:40:28.681222, 1.65689
2022-11-25 16:40:28.714171, 1.65689
2022-11-25 16:40:28.714468, 1.65200
2022-11-25 16:40:28.714614, 1.64223
2022-11-25 16:40:28.747422, 1.64223
2022-11-25 16:40:28.747656, 1.66178
2022-11-25 16:40:28.747824, 1.65200
2022-11-25 16:40:28.748159, 1.63734
2022-11-25 16:40:28.780726, 1.62268
2022-11-25 16:40:28.780843, 1.61779
2022-11-25 16:40:28.780915, 1.62268
2022-11-25 16:40:28.813940, 1.61290
2022-11-25 16:40:28.814081, 1.60802
2022-11-25 16:40:28.814173, 1.60802
2022-11-25 16:40:28.814256, 1.60313
2022-11-25 16:40:28.847323, 1.59824
2022-11-25 16:40:28.847500, 1.60802
2022-11-25 16:40:28.847624, 1.59335
2022-11-25 16:40:28.880588, 1.59335
2022-11-25 16:40:28.880848, 1.59824
2022-11-25 16:40:28.881027, 1.60802
2022-11-25 16:40:28.881193, 1.62757
2022-11-25 16:40:28.913921, 1.65200
2022-11-25 16:40:28.914060, 1.68133
2022-11-25 16:40:28.914155, 1.70577
2022-11-25 16:40:28.914243, 1.73509
2022-11-25 16:40:28.947326, 1.74976
2022-11-25 16:40:28.947563, 1.81818
2022-11-25 16:40:28.947735, 1.78886
2022-11-25 16:40:28.980496, 1.80352
2022-11-25 16:40:28.980680, 1.80352
2022-11-25 16:40:28.980808, 1.81329
2022-11-25 16:40:28.980921, 1.80841
2022-11-25 16:40:29.013859, 1.81329
2022-11-25 16:40:29.014043, 1.81329
2022-11-25 16:40:29.014167, 1.81329
2022-11-25 16:40:29.047074, 1.81329
2022-11-25 16:40:29.047249, 1.81818
2022-11-25 16:40:29.047376, 1.82307
2022-11-25 16:40:29.047489, 1.82307
2022-11-25 16:40:29.080367, 1.83773
2022-11-25 16:40:29.080508, 1.86706
2022-11-25 16:40:29.080601, 1.84262
2022-11-25 16:40:29.113700, 1.86217
2022-11-25 16:40:29.113937, 1.83284
2022-11-25 16:40:29.114104, 1.82796
2022-11-25 16:40:29.114270, 1.82796
2022-11-25 16:40:29.147104, 1.82307
2022-11-25 16:40:29.147341, 1.81329
2022-11-25 16:40:29.147519, 1.81329
2022-11-25 16:40:29.180277, 1.80841
2022-11-25 16:40:29.180468, 1.79863
2022-11-25 16:40:29.180602, 1.80352
2022-11-25 16:40:29.180713, 1.79374
2022-11-25 16:40:29.213660, 1.79863
2022-11-25 16:40:29.213803, 1.79374
2022-11-25 16:40:29.213901, 1.79374
2022-11-25 16:40:29.213991, 1.78886
2022-11-25 16:40:29.247019, 1.78397
2022-11-25 16:40:29.247245, 1.78397
2022-11-25 16:40:29.247414, 1.78397
2022-11-25 16:40:29.280180, 1.78397
2022-11-25 16:40:29.280263, 1.76931
2022-11-25 16:40:29.280330, 1.76442
2022-11-25 16:40:29.280391, 1.76442
2022-11-25 16:40:29.313537, 1.75953
2022-11-25 16:40:29.313679, 1.75464
2022-11-25 16:40:29.313774, 1.73998
2022-11-25 16:40:29.346832, 1.74487
2022-11-25 16:40:29.347026, 1.73509
2022-11-25 16:40:29.347153, 1.73509
2022-11-25 16:40:29.347269, 1.73021
2022-11-25 16:40:29.380153, 1.72043
2022-11-25 16:40:29.380327, 1.73509
2022-11-25 16:40:29.380450, 1.71065
2022-11-25 16:40:29.413500, 1.71065
2022-11-25 16:40:29.413728, 1.70088
2022-11-25 16:40:29.413906, 1.70088
2022-11-25 16:40:29.414070, 1.73021
2022-11-25 16:40:29.446723, 1.72043
2022-11-25 16:40:29.446886, 1.71554
2022-11-25 16:40:29.447005, 1.71065
2022-11-25 16:40:29.480023, 1.67644
2022-11-25 16:40:29.480278, 1.66667
2022-11-25 16:40:29.480454, 1.65689
2022-11-25 16:40:29.480619, 1.65689
2022-11-25 16:40:29.513417, 1.65689
2022-11-25 16:40:29.513655, 1.65689
2022-11-25 16:40:29.513829, 1.65200
2022-11-25 16:40:29.513988, 1.65200
2022-11-25 16:40:29.546687, 1.64223
2022-11-25 16:40:29.546870, 1.63734
2022-11-25 16:40:29.547013, 1.63734
2022-11-25 16:40:29.579983, 1.61779
2022-11-25 16:40:29.580222, 1.62268
2022-11-25 16:40:29.580398, 1.64223
2022-11-25 16:40:29.580558, 1.61290
2022-11-25 16:40:29.613287, 1.62757
2022-11-25 16:40:29.613473, 1.61290
2022-11-25 16:40:29.613601, 1.60313
2022-11-25 16:40:29.646531, 1.59824
2022-11-25 16:40:29.646672, 1.59335
2022-11-25 16:40:29.646768, 1.59335
2022-11-25 16:40:29.646851, 1.63245
2022-11-25 16:40:29.679830, 1.59824
2022-11-25 16:40:29.679999, 1.60313
2022-11-25 16:40:29.680125, 1.61779
2022-11-25 16:40:29.713110, 1.64223
2022-11-25 16:40:29.713255, 1.66667
2022-11-25 16:40:29.713346, 1.73509
2022-11-25 16:40:29.713434, 1.74487
2022-11-25 16:40:29.746501, 1.73998
2022-11-25 16:40:29.746678, 1.75953
2022-11-25 16:40:29.746809, 1.76931
2022-11-25 16:40:29.779706, 1.77908
2022-11-25 16:40:29.779848, 1.78886
2022-11-25 16:40:29.779934, 1.78886
2022-11-25 16:40:29.780010, 1.79374
2022-11-25 16:40:29.813058, 1.79374
2022-11-25 16:40:29.813222, 1.78886
2022-11-25 16:40:29.813346, 1.79374
2022-11-25 16:40:29.813461, 1.78886
2022-11-25 16:40:29.846413, 1.78886
2022-11-25 16:40:29.846649, 1.78397
2022-11-25 16:40:29.846818, 1.79374
2022-11-25 16:40:29.879679, 1.80352
2022-11-25 16:40:29.879857, 1.79863
2022-11-25 16:40:29.879981, 1.81329
2022-11-25 16:40:29.880093, 1.81329
2022-11-25 16:40:29.912981, 1.78397
2022-11-25 16:40:29.913157, 1.77908
2022-11-25 16:40:29.913287, 1.77419
2022-11-25 16:40:29.946215, 1.76931
2022-11-25 16:40:29.946379, 1.75953
2022-11-25 16:40:29.946498, 1.76931
2022-11-25 16:40:29.946607, 1.75464
2022-11-25 16:40:29.979590, 1.75464
2022-11-25 16:40:29.979725, 1.75464
2022-11-25 16:40:29.979814, 1.75464
2022-11-25 16:40:30.012851, 1.75464
2022-11-25 16:40:30.013024, 1.74976
2022-11-25 16:40:30.013149, 1.74976
2022-11-25 16:40:30.013268, 1.75464
2022-11-25 16:40:30.046175, 1.75464
2022-11-25 16:40:30.046360, 1.74487
2022-11-25 16:40:30.046490, 1.73998
2022-11-25 16:40:30.079525, 1.73509
2022-11-25 16:40:30.079781, 1.73509
2022-11-25 16:40:30.079954, 1.73509
2022-11-25 16:40:30.080116, 1.72532
2022-11-25 16:40:30.112770, 1.71554
2022-11-25 16:40:30.112967, 1.70577
2022-11-25 16:40:30.113105, 1.71065
2022-11-25 16:40:30.113229, 1.69110
2022-11-25 16:40:30.146159, 1.70577
2022-11-25 16:40:30.146335, 1.67644
2022-11-25 16:40:30.146455, 1.68622
2022-11-25 16:40:30.179390, 1.66178
2022-11-25 16:40:30.179574, 1.65689
2022-11-25 16:40:30.179697, 1.66178
2022-11-25 16:40:30.179819, 1.64223
2022-11-25 16:40:30.212789, 1.64712
2022-11-25 16:40:30.213033, 1.64223
2022-11-25 16:40:30.213204, 1.63734
2022-11-25 16:40:30.246019, 1.63245
2022-11-25 16:40:30.246201, 1.62268
2022-11-25 16:40:30.246325, 1.63245
2022-11-25 16:40:30.246437, 1.62268
2022-11-25 16:40:30.279201, 1.62268
2022-11-25 16:40:30.279327, 1.64223
2022-11-25 16:40:30.279418, 1.61779
2022-11-25 16:40:30.312550, 1.60313
2022-11-25 16:40:30.312721, 1.60802
2022-11-25 16:40:30.312842, 1.59824
2022-11-25 16:40:30.312951, 1.58847
2022-11-25 16:40:30.345935, 1.58847
2022-11-25 16:40:30.346115, 1.58358
2022-11-25 16:40:30.346243, 1.59824
2022-11-25 16:40:30.379052, 1.58358
2022-11-25 16:40:30.379211, 1.56891
2022-11-25 16:40:30.379310, 1.56891
2022-11-25 16:40:30.379395, 1.56403
2022-11-25 16:40:30.412572, 1.56403
2022-11-25 16:40:30.412756, 1.55914
2022-11-25 16:40:30.412877, 1.55914
2022-11-25 16:40:30.412992, 1.55914
2022-11-25 16:40:30.445798, 1.61290
2022-11-25 16:40:30.445939, 1.60313
2022-11-25 16:40:30.446032, 1.61779
2022-11-25 16:40:30.479200, 1.64223
2022-11-25 16:40:30.479391, 1.66178
2022-11-25 16:40:30.479515, 1.69110
2022-11-25 16:40:30.479629, 1.71065
2022-11-25 16:40:30.512494, 1.73509
2022-11-25 16:40:30.512679, 1.74487
2022-11-25 16:40:30.512803, 1.76442
2022-11-25 16:40:30.545664, 1.76442
2022-11-25 16:40:30.545940, 1.76931
2022-11-25 16:40:30.546065, 1.76931
2022-11-25 16:40:30.546181, 1.76931
2022-11-25 16:40:30.579008, 1.76931
2022-11-25 16:40:30.579190, 1.76931
2022-11-25 16:40:30.579316, 1.77908
2022-11-25 16:40:30.612286, 1.76931
2022-11-25 16:40:30.612518, 1.76442
2022-11-25 16:40:30.612664, 1.76931
2022-11-25 16:40:30.612781, 1.76931
2022-11-25 16:40:30.645645, 1.77419
2022-11-25 16:40:30.645861, 1.77419
2022-11-25 16:40:30.646022, 1.77419
2022-11-25 16:40:30.678918, 1.77419
2022-11-25 16:40:30.679119, 1.77419
2022-11-25 16:40:30.679281, 1.76931
2022-11-25 16:40:30.679440, 1.76931
2022-11-25 16:40:30.712289, 1.76442
2022-11-25 16:40:30.712487, 1.78397
2022-11-25 16:40:30.712611, 1.75464
2022-11-25 16:40:30.712723, 1.74487
2022-11-25 16:40:30.745512, 1.74487
2022-11-25 16:40:30.745653, 1.74487
2022-11-25 16:40:30.745749, 1.74487
2022-11-25 16:40:30.778858, 1.73998
2022-11-25 16:40:30.779006, 1.73998
2022-11-25 16:40:30.779099, 1.73998
2022-11-25 16:40:30.779182, 1.73509
2022-11-25 16:40:30.812283, 1.73021
2022-11-25 16:40:30.812535, 1.73021
2022-11-25 16:40:30.812789, 1.72532
2022-11-25 16:40:30.845380, 1.73021
2022-11-25 16:40:30.845602, 1.72532
2022-11-25 16:40:30.845748, 1.72043
2022-11-25 16:40:30.845907, 1.70577
2022-11-25 16:40:30.878749, 1.70088
2022-11-25 16:40:30.878949, 1.69110
2022-11-25 16:40:30.879078, 1.68622
2022-11-25 16:40:30.912024, 1.67644
2022-11-25 16:40:30.912230, 1.67644
2022-11-25 16:40:30.912342, 1.66667
2022-11-25 16:40:30.912428, 1.65689
2022-11-25 16:40:30.945299, 1.65200
2022-11-25 16:40:30.945446, 1.66178
2022-11-25 16:40:30.945540, 1.64712
2022-11-25 16:40:30.978590, 1.64223
2022-11-25 16:40:30.978893, 1.63245
2022-11-25 16:40:30.979069, 1.62757
2022-11-25 16:40:30.979226, 1.63245
2022-11-25 16:40:31.011975, 1.63734
2022-11-25 16:40:31.012196, 1.62268
2022-11-25 16:40:31.012361, 1.61779
2022-11-25 16:40:31.012522, 1.61290
2022-11-25 16:40:31.045240, 1.62757
2022-11-25 16:40:31.045441, 1.64223
2022-11-25 16:40:31.045563, 1.61290
2022-11-25 16:40:31.078428, 1.59335
2022-11-25 16:40:31.078595, 1.59824
2022-11-25 16:40:31.078690, 1.59335
2022-11-25 16:40:31.078773, 1.59335
2022-11-25 16:40:31.111884, 1.59335
2022-11-25 16:40:31.112161, 1.58847
2022-11-25 16:40:31.112336, 1.58358
2022-11-25 16:40:31.144996, 1.57869
2022-11-25 16:40:31.145233, 1.60802
2022-11-25 16:40:31.145325, 1.60313
2022-11-25 16:40:31.145440, 1.59335
2022-11-25 16:40:31.178396, 1.57380
2022-11-25 16:40:31.178561, 1.56403
2022-11-25 16:40:31.178745, 1.55425
2022-11-25 16:40:31.211569, 1.55914
2022-11-25 16:40:31.211715, 1.55914
2022-11-25 16:40:31.211853, 1.56403
2022-11-25 16:40:31.211952, 1.57380
2022-11-25 16:40:31.244910, 1.58358
2022-11-25 16:40:31.245021, 1.60802
2022-11-25 16:40:31.245151, 1.63245
2022-11-25 16:40:31.278187, 1.65200
2022-11-25 16:40:31.278389, 1.72532
2022-11-25 16:40:31.278491, 1.73509
2022-11-25 16:40:31.278592, 1.73509
2022-11-25 16:40:31.311535, 1.75464
2022-11-25 16:40:31.311681, 1.76442
2022-11-25 16:40:31.311850, 1.79374
2022-11-25 16:40:31.311960, 1.77419
2022-11-25 16:40:31.344874, 1.77908
2022-11-25 16:40:31.345009, 1.78397
2022-11-25 16:40:31.345117, 1.78397
2022-11-25 16:40:31.378115, 1.79374
2022-11-25 16:40:31.378249, 1.78886
2022-11-25 16:40:31.378336, 1.82307
2022-11-25 16:40:31.378475, 1.78886
2022-11-25 16:40:31.411478, 1.79374
2022-11-25 16:40:31.411687, 1.79374
2022-11-25 16:40:31.411837, 1.79863
2022-11-25 16:40:31.444756, 1.79863
2022-11-25 16:40:31.444990, 1.80352
2022-11-25 16:40:31.445111, 1.80352
2022-11-25 16:40:31.445275, 1.81329
2022-11-25 16:40:31.478170, 1.81329
2022-11-25 16:40:31.478389, 1.81329
2022-11-25 16:40:31.478687, 1.80352
2022-11-25 16:40:31.511516, 1.80841
2022-11-25 16:40:31.511770, 1.80841
2022-11-25 16:40:31.511945, 1.79374
2022-11-25 16:40:31.512065, 1.78397
2022-11-25 16:40:31.544682, 1.78397
2022-11-25 16:40:31.544843, 1.77908
2022-11-25 16:40:31.545070, 1.78397
2022-11-25 16:40:31.578009, 1.77908
2022-11-25 16:40:31.578239, 1.77908
2022-11-25 16:40:31.578407, 1.77908
2022-11-25 16:40:31.578554, 1.77419
2022-11-25 16:40:31.611284, 1.78397
2022-11-25 16:40:31.611446, 1.76931
2022-11-25 16:40:31.611658, 1.80841
2022-11-25 16:40:31.611815, 1.76931
2022-11-25 16:40:31.644619, 1.76931
2022-11-25 16:40:31.644874, 1.75953
2022-11-25 16:40:31.645023, 1.75464
2022-11-25 16:40:31.677956, 1.74976
2022-11-25 16:40:31.678110, 1.73509
2022-11-25 16:40:31.678311, 1.74487
2022-11-25 16:40:31.678469, 1.72532
2022-11-25 16:40:31.711477, 1.73021
2022-11-25 16:40:31.711790, 1.71554
2022-11-25 16:40:31.712070, 1.71554
2022-11-25 16:40:31.744661, 1.70577
2022-11-25 16:40:31.744879, 1.70088
2022-11-25 16:40:31.745238, 1.69599
2022-11-25 16:40:31.745496, 1.71065
2022-11-25 16:40:31.777879, 1.68133
2022-11-25 16:40:31.778009, 1.68133
2022-11-25 16:40:31.778127, 1.68133
2022-11-25 16:40:31.811118, 1.67644
2022-11-25 16:40:31.811319, 1.67155
2022-11-25 16:40:31.811443, 1.66667
2022-11-25 16:40:31.811535, 1.66667
2022-11-25 16:40:31.844550, 1.66178
2022-11-25 16:40:31.844680, 1.65689
2022-11-25 16:40:31.844820, 1.65200
2022-11-25 16:40:31.877720, 1.65200
2022-11-25 16:40:31.877903, 1.68622
2022-11-25 16:40:31.878020, 1.65689
2022-11-25 16:40:31.878132, 1.64712
2022-11-25 16:40:31.911188, 1.64223
2022-11-25 16:40:31.911449, 1.62757
2022-11-25 16:40:31.911619, 1.62757
2022-11-25 16:40:31.911776, 1.62268
2022-11-25 16:40:31.944493, 1.61779
2022-11-25 16:40:31.944724, 1.61290
2022-11-25 16:40:31.944887, 1.62757
2022-11-25 16:40:31.977740, 1.61779
2022-11-25 16:40:31.977973, 1.61290
2022-11-25 16:40:31.978132, 1.62268
2022-11-25 16:40:31.978285, 1.63245
2022-11-25 16:40:32.011114, 1.65200
2022-11-25 16:40:32.011384, 1.67644
2022-11-25 16:40:32.011557, 1.70088
2022-11-25 16:40:32.044227, 1.73021
2022-11-25 16:40:32.044461, 1.77419
2022-11-25 16:40:32.044588, 1.76442
2022-11-25 16:40:32.044703, 1.77908
2022-11-25 16:40:32.077714, 1.79863
2022-11-25 16:40:32.077966, 1.79374
2022-11-25 16:40:32.078137, 1.80841
2022-11-25 16:40:32.110905, 1.80841
2022-11-25 16:40:32.111134, 1.83284
2022-11-25 16:40:32.111295, 1.83773
2022-11-25 16:40:32.111451, 1.80841
2022-11-25 16:40:32.144251, 1.79863
2022-11-25 16:40:32.144490, 1.79374
2022-11-25 16:40:32.144664, 1.79863
2022-11-25 16:40:32.177516, 1.79374
2022-11-25 16:40:32.177788, 1.79863
2022-11-25 16:40:32.177959, 1.80352
2022-11-25 16:40:32.178116, 1.80841
2022-11-25 16:40:32.210941, 1.78886
2022-11-25 16:40:32.211218, 1.78886
2022-11-25 16:40:32.211378, 1.79374
2022-11-25 16:40:32.211537, 1.78397
2022-11-25 16:40:32.244208, 1.78397
2022-11-25 16:40:32.244443, 1.77419
2022-11-25 16:40:32.244609, 1.77419
2022-11-25 16:40:32.277399, 1.77419
2022-11-25 16:40:32.277592, 1.78397
2022-11-25 16:40:32.277713, 1.76931
2022-11-25 16:40:32.277825, 1.76931
2022-11-25 16:40:32.310868, 1.76442
2022-11-25 16:40:32.311121, 1.79374
2022-11-25 16:40:32.311291, 1.76442
2022-11-25 16:40:32.344063, 1.75953
2022-11-25 16:40:32.344305, 1.75953
2022-11-25 16:40:32.344473, 1.75464
2022-11-25 16:40:32.344715, 1.75464
2022-11-25 16:40:32.377227, 1.73998
2022-11-25 16:40:32.377373, 1.74487
2022-11-25 16:40:32.377543, 1.76931
2022-11-25 16:40:32.410658, 1.72532
2022-11-25 16:40:32.410913, 1.72532
2022-11-25 16:40:32.411080, 1.71554
2022-11-25 16:40:32.411235, 1.71554
2022-11-25 16:40:32.444011, 1.69599
2022-11-25 16:40:32.444261, 1.70088
2022-11-25 16:40:32.444422, 1.69110
2022-11-25 16:40:32.477176, 1.69599
2022-11-25 16:40:32.477438, 1.67644
2022-11-25 16:40:32.477604, 1.66667
2022-11-25 16:40:32.477759, 1.70088
2022-11-25 16:40:32.510625, 1.67644
2022-11-25 16:40:32.510876, 1.66667
2022-11-25 16:40:32.511041, 1.65689
2022-11-25 16:40:32.511198, 1.64712
2022-11-25 16:40:32.543924, 1.65200
2022-11-25 16:40:32.544165, 1.64712
2022-11-25 16:40:32.544332, 1.64712
2022-11-25 16:40:32.577145, 1.63734
2022-11-25 16:40:32.577399, 1.63734
2022-11-25 16:40:32.577569, 1.63734
2022-11-25 16:40:32.577726, 1.63245
2022-11-25 16:40:32.610506, 1.65689
2022-11-25 16:40:32.610761, 1.62268
2022-11-25 16:40:32.610925, 1.61290
2022-11-25 16:40:32.643720, 1.60802
2022-11-25 16:40:32.643966, 1.61290
2022-11-25 16:40:32.644138, 1.60313
2022-11-25 16:40:32.644299, 1.63734
2022-11-25 16:40:32.677055, 1.63245
2022-11-25 16:40:32.677254, 1.59335
2022-11-25 16:40:32.677376, 1.58847
2022-11-25 16:40:32.710309, 1.57869
2022-11-25 16:40:32.710552, 1.58358
2022-11-25 16:40:32.710728, 1.58847
2022-11-25 16:40:32.710879, 1.59824
2022-11-25 16:40:32.743680, 1.64223
2022-11-25 16:40:32.743914, 1.63734
2022-11-25 16:40:32.744079, 1.65200
2022-11-25 16:40:32.776877, 1.67644
2022-11-25 16:40:32.777052, 1.70577
2022-11-25 16:40:32.777140, 1.72043
2022-11-25 16:40:32.777221, 1.73509
2022-11-25 16:40:32.810281, 1.79374
2022-11-25 16:40:32.810532, 1.77419
2022-11-25 16:40:32.810703, 1.82307
2022-11-25 16:40:32.810920, 1.78397
2022-11-25 16:40:32.843674, 1.80841
2022-11-25 16:40:32.843906, 1.83284
2022-11-25 16:40:32.844074, 1.79863
2022-11-25 16:40:32.876892, 1.79374
2022-11-25 16:40:32.877156, 1.80352
2022-11-25 16:40:32.877326, 1.80352
2022-11-25 16:40:32.877485, 1.80352
2022-11-25 16:40:32.910260, 1.80841
2022-11-25 16:40:32.910493, 1.80841
2022-11-25 16:40:32.910655, 1.83284
2022-11-25 16:40:32.943468, 1.85239
2022-11-25 16:40:32.943728, 1.82307
2022-11-25 16:40:32.943901, 1.82796
2022-11-25 16:40:32.944057, 1.82307
2022-11-25 16:40:32.976836, 1.81329
2022-11-25 16:40:32.977088, 1.81818
2022-11-25 16:40:32.977258, 1.80841
2022-11-25 16:40:33.009931, 1.79374
2022-11-25 16:40:33.010106, 1.80352
2022-11-25 16:40:33.010202, 1.78886
2022-11-25 16:40:33.010289, 1.78397
2022-11-25 16:40:33.043439, 1.79374
2022-11-25 16:40:33.043695, 1.79374
2022-11-25 16:40:33.043865, 1.79374
2022-11-25 16:40:33.076630, 1.78886
2022-11-25 16:40:33.076909, 1.80352
2022-11-25 16:40:33.077082, 1.76931
2022-11-25 16:40:33.077244, 1.76931
2022-11-25 16:40:33.110100, 1.76442
2022-11-25 16:40:33.110351, 1.78886
2022-11-25 16:40:33.110522, 1.74976
2022-11-25 16:40:33.110681, 1.78397
2022-11-25 16:40:33.143391, 1.73998
2022-11-25 16:40:33.143642, 1.73509
2022-11-25 16:40:33.143824, 1.73021
2022-11-25 16:40:33.176644, 1.72532
2022-11-25 16:40:33.176917, 1.71554
2022-11-25 16:40:33.177091, 1.71554
2022-11-25 16:40:33.177250, 1.70577
2022-11-25 16:40:33.210033, 1.74487
2022-11-25 16:40:33.210281, 1.69599
2022-11-25 16:40:33.210450, 1.69599
2022-11-25 16:40:33.243272, 1.69110
2022-11-25 16:40:33.243522, 1.68622
2022-11-25 16:40:33.243693, 1.68622
2022-11-25 16:40:33.243846, 1.67644
2022-11-25 16:40:33.276550, 1.67644
2022-11-25 16:40:33.276711, 1.66667
2022-11-25 16:40:33.276798, 1.70577
2022-11-25 16:40:33.309795, 1.67644
2022-11-25 16:40:33.310109, 1.66178
2022-11-25 16:40:33.310282, 1.65200
2022-11-25 16:40:33.310442, 1.66178
2022-11-25 16:40:33.343232, 1.64712
2022-11-25 16:40:33.343510, 1.65200
2022-11-25 16:40:33.343681, 1.64223
2022-11-25 16:40:33.376343, 1.63734
2022-11-25 16:40:33.376722, 1.63734
2022-11-25 16:40:33.376904, 1.63245
2022-11-25 16:40:33.377062, 1.66667
2022-11-25 16:40:33.409742, 1.63734
2022-11-25 16:40:33.410041, 1.61290
2022-11-25 16:40:33.410245, 1.61290
2022-11-25 16:40:33.410408, 1.60802
2022-11-25 16:40:33.443099, 1.60802
2022-11-25 16:40:33.443404, 1.59824
2022-11-25 16:40:33.443593, 1.59824
2022-11-25 16:40:33.476298, 1.61290
2022-11-25 16:40:33.476643, 1.59335
2022-11-25 16:40:33.476814, 1.58358
2022-11-25 16:40:33.476968, 1.58847
2022-11-25 16:40:33.509684, 1.59335
2022-11-25 16:40:33.510012, 1.60802
2022-11-25 16:40:33.510217, 1.64712
2022-11-25 16:40:33.542900, 1.65689
2022-11-25 16:40:33.543349, 1.67155
2022-11-25 16:40:33.543558, 1.69599
2022-11-25 16:40:33.543726, 1.72043
2022-11-25 16:40:33.576191, 1.74487
2022-11-25 16:40:33.576383, 1.76442
2022-11-25 16:40:33.576647, 1.78886
2022-11-25 16:40:33.609500, 1.78397
2022-11-25 16:40:33.609689, 1.80352
2022-11-25 16:40:33.609947, 1.79374
2022-11-25 16:40:33.610095, 1.79863
2022-11-25 16:40:33.642852, 1.79863
2022-11-25 16:40:33.643246, 1.77419
2022-11-25 16:40:33.643433, 1.80352
2022-11-25 16:40:33.676078, 1.80352
2022-11-25 16:40:33.676369, 1.80841
2022-11-25 16:40:33.676700, 1.80352
2022-11-25 16:40:33.676898, 1.81329
2022-11-25 16:40:33.709454, 1.81329
2022-11-25 16:40:33.709713, 1.81329
2022-11-25 16:40:33.710069, 1.82796
2022-11-25 16:40:33.710265, 1.83284
2022-11-25 16:40:33.742781, 1.84262
2022-11-25 16:40:33.743023, 1.81818
2022-11-25 16:40:33.743363, 1.82307
2022-11-25 16:40:33.776014, 1.81329
2022-11-25 16:40:33.776177, 1.81329
2022-11-25 16:40:33.776266, 1.79863
2022-11-25 16:40:33.776349, 1.79863
2022-11-25 16:40:33.809353, 1.78886
2022-11-25 16:40:33.809552, 1.78886
2022-11-25 16:40:33.809671, 1.78886
2022-11-25 16:40:33.842614, 1.78886
2022-11-25 16:40:33.842865, 1.77908
2022-11-25 16:40:33.843030, 1.78397
2022-11-25 16:40:33.843291, 1.77419
2022-11-25 16:40:33.875964, 1.80352
2022-11-25 16:40:33.876212, 1.76442
2022-11-25 16:40:33.876374, 1.76931
2022-11-25 16:40:33.909195, 1.75464
2022-11-25 16:40:33.909434, 1.75464
2022-11-25 16:40:33.909594, 1.77908
2022-11-25 16:40:33.909770, 1.74976
2022-11-25 16:40:33.942605, 1.74487
2022-11-25 16:40:33.942872, 1.73509
2022-11-25 16:40:33.943074, 1.72532
2022-11-25 16:40:33.975764, 1.72043
2022-11-25 16:40:33.975973, 1.71554
2022-11-25 16:40:33.976094, 1.70577
2022-11-25 16:40:33.976206, 1.73509
2022-11-25 16:40:34.009158, 1.68622
2022-11-25 16:40:34.009415, 1.68133
2022-11-25 16:40:34.009590, 1.68622
2022-11-25 16:40:34.009781, 1.67644
2022-11-25 16:40:34.042473, 1.67155
2022-11-25 16:40:34.042719, 1.66178
2022-11-25 16:40:34.042879, 1.65689
2022-11-25 16:40:34.075743, 1.65200
2022-11-25 16:40:34.075989, 1.63734
2022-11-25 16:40:34.076165, 1.64712
2022-11-25 16:40:34.076328, 1.64712
2022-11-25 16:40:34.109120, 1.63734
2022-11-25 16:40:34.109376, 1.63245
2022-11-25 16:40:34.109547, 1.63245
2022-11-25 16:40:34.142312, 1.62757
2022-11-25 16:40:34.142558, 1.66178
2022-11-25 16:40:34.142729, 1.62268
2022-11-25 16:40:34.142885, 1.61779
2022-11-25 16:40:34.175637, 1.61290
2022-11-25 16:40:34.175896, 1.60802
2022-11-25 16:40:34.176063, 1.59824
2022-11-25 16:40:34.208932, 1.59335
2022-11-25 16:40:34.209190, 1.59335
2022-11-25 16:40:34.209360, 1.60802
2022-11-25 16:40:34.209515, 1.58358
2022-11-25 16:40:34.242268, 1.58847
2022-11-25 16:40:34.242519, 1.57869
2022-11-25 16:40:34.242684, 1.57869
2022-11-25 16:40:34.275388, 1.56891
2022-11-25 16:40:34.275564, 1.60313
2022-11-25 16:40:34.275666, 1.56403
2022-11-25 16:40:34.275749, 1.55425
2022-11-25 16:40:34.308851, 1.54936
2022-11-25 16:40:34.309105, 1.54936
2022-11-25 16:40:34.309278, 1.55425
2022-11-25 16:40:34.309437, 1.55914
2022-11-25 16:40:34.342225, 1.57869
2022-11-25 16:40:34.342483, 1.59824
2022-11-25 16:40:34.342655, 1.64223
2022-11-25 16:40:34.375416, 1.68622
2022-11-25 16:40:34.375609, 1.68133
2022-11-25 16:40:34.375732, 1.70088
2022-11-25 16:40:34.375841, 1.71554
2022-11-25 16:40:34.408819, 1.73509
2022-11-25 16:40:34.409074, 1.73998
2022-11-25 16:40:34.409246, 1.74487
2022-11-25 16:40:34.442063, 1.74976
2022-11-25 16:40:34.442329, 1.76442
2022-11-25 16:40:34.442497, 1.75953
2022-11-25 16:40:34.442659, 1.75464
2022-11-25 16:40:34.475382, 1.76931
2022-11-25 16:40:34.475616, 1.79863
2022-11-25 16:40:34.475777, 1.80352
2022-11-25 16:40:34.508617, 1.76931
2022-11-25 16:40:34.508881, 1.77419
2022-11-25 16:40:34.509053, 1.77419
2022-11-25 16:40:34.509215, 1.77908
2022-11-25 16:40:34.541976, 1.77908
2022-11-25 16:40:34.542217, 1.78397
2022-11-25 16:40:34.542381, 1.78397
2022-11-25 16:40:34.575188, 1.77908
2022-11-25 16:40:34.575461, 1.77908
2022-11-25 16:40:34.575639, 1.78886
2022-11-25 16:40:34.575798, 1.78886
2022-11-25 16:40:34.608605, 1.79374
2022-11-25 16:40:34.608801, 1.76931
2022-11-25 16:40:34.608917, 1.75464
2022-11-25 16:40:34.609030, 1.74487
2022-11-25 16:40:34.641893, 1.75464
2022-11-25 16:40:34.642136, 1.75464
2022-11-25 16:40:34.642312, 1.74976
2022-11-25 16:40:34.675117, 1.74487
2022-11-25 16:40:34.675314, 1.74487
2022-11-25 16:40:34.675438, 1.74487
2022-11-25 16:40:34.675553, 1.78397
2022-11-25 16:40:34.708509, 1.73998
2022-11-25 16:40:34.708748, 1.75464
2022-11-25 16:40:34.708922, 1.74487
2022-11-25 16:40:34.741751, 1.73998
2022-11-25 16:40:34.741989, 1.73509
2022-11-25 16:40:34.742157, 1.73021
2022-11-25 16:40:34.742314, 1.72043
2022-11-25 16:40:34.775081, 1.71065
2022-11-25 16:40:34.775238, 1.71554
2022-11-25 16:40:34.775334, 1.70577
2022-11-25 16:40:34.808377, 1.70577
2022-11-25 16:40:34.808643, 1.70088
2022-11-25 16:40:34.808812, 1.69110
2022-11-25 16:40:34.808971, 1.68622
2022-11-25 16:40:34.841675, 1.68133
2022-11-25 16:40:34.841876, 1.68133
2022-11-25 16:40:34.842000, 1.66667
2022-11-25 16:40:34.874911, 1.67155
2022-11-25 16:40:34.875125, 1.66178
2022-11-25 16:40:34.875247, 1.65200
2022-11-25 16:40:34.875364, 1.65200
2022-11-25 16:40:34.908270, 1.64712
2022-11-25 16:40:34.908539, 1.68133
2022-11-25 16:40:34.908707, 1.67155
2022-11-25 16:40:34.908865, 1.63245
2022-11-25 16:40:34.941678, 1.62757
2022-11-25 16:40:34.941920, 1.62268
2022-11-25 16:40:34.942079, 1.61779
2022-11-25 16:40:34.974871, 1.61290
2022-11-25 16:40:34.975124, 1.61290
2022-11-25 16:40:34.975293, 1.60802
2022-11-25 16:40:34.975463, 1.64223
2022-11-25 16:40:35.008209, 1.60802
2022-11-25 16:40:35.008456, 1.60313
2022-11-25 16:40:35.008619, 1.60313
2022-11-25 16:40:35.041494, 1.58358
2022-11-25 16:40:35.041758, 1.57869
2022-11-25 16:40:35.041934, 1.58358
2022-11-25 16:40:35.042098, 1.57869
2022-11-25 16:40:35.074819, 1.56403
2022-11-25 16:40:35.075068, 1.56891
2022-11-25 16:40:35.075237, 1.61290
2022-11-25 16:40:35.108027, 1.60802
2022-11-25 16:40:35.108289, 1.60313
2022-11-25 16:40:35.108455, 1.60313
2022-11-25 16:40:35.108612, 1.61290
2022-11-25 16:40:35.141424, 1.63734
2022-11-25 16:40:35.141682, 1.64712
2022-11-25 16:40:35.141855, 1.66667
2022-11-25 16:40:35.174637, 1.69110
2022-11-25 16:40:35.174901, 1.70577
2022-11-25 16:40:35.175069, 1.71554
2022-11-25 16:40:35.175225, 1.72532
2022-11-25 16:40:35.207999, 1.74487
2022-11-25 16:40:35.208252, 1.72532
2022-11-25 16:40:35.208422, 1.73021
2022-11-25 16:40:35.208579, 1.73021
2022-11-25 16:40:35.241360, 1.72043
2022-11-25 16:40:35.241619, 1.71065
2022-11-25 16:40:35.241788, 1.71554
2022-11-25 16:40:35.274528, 1.74487
2022-11-25 16:40:35.274684, 1.71065
2022-11-25 16:40:35.274778, 1.70088
2022-11-25 16:40:35.274861, 1.71065
2022-11-25 16:40:35.307964, 1.71065
2022-11-25 16:40:35.308215, 1.70577
2022-11-25 16:40:35.308387, 1.70577
2022-11-25 16:40:35.341207, 1.70088
2022-11-25 16:40:35.341466, 1.69599
2022-11-25 16:40:35.341629, 1.69110
2022-11-25 16:40:35.341794, 1.69110
2022-11-25 16:40:35.374424, 1.69110
2022-11-25 16:40:35.374616, 1.68133
2022-11-25 16:40:35.374740, 1.72043
2022-11-25 16:40:35.407765, 1.68133
2022-11-25 16:40:35.408010, 1.72043
2022-11-25 16:40:35.408173, 1.67644
2022-11-25 16:40:35.408331, 1.71554
2022-11-25 16:40:35.441123, 1.68133
2022-11-25 16:40:35.441387, 1.71554
2022-11-25 16:40:35.441571, 1.67644
2022-11-25 16:40:35.474288, 1.68622
2022-11-25 16:40:35.474562, 1.67644
2022-11-25 16:40:35.474734, 1.66667
2022-11-25 16:40:35.474893, 1.66178
2022-11-25 16:40:35.507738, 1.66178
2022-11-25 16:40:35.507996, 1.64712
2022-11-25 16:40:35.508170, 1.64223
2022-11-25 16:40:35.508329, 1.67644
2022-11-25 16:40:35.541066, 1.62757
2022-11-25 16:40:35.541323, 1.64223
2022-11-25 16:40:35.541495, 1.62268
2022-11-25 16:40:35.574286, 1.63734
2022-11-25 16:40:35.574536, 1.60802
2022-11-25 16:40:35.574704, 1.60802
2022-11-25 16:40:35.574863, 1.59335
2022-11-25 16:40:35.607654, 1.59824
2022-11-25 16:40:35.607905, 1.63734
2022-11-25 16:40:35.608080, 1.59824
2022-11-25 16:40:35.640878, 1.58847
2022-11-25 16:40:35.641135, 1.59335
2022-11-25 16:40:35.641309, 1.58847
2022-11-25 16:40:35.641467, 1.58847
2022-11-25 16:40:35.674222, 1.58358
2022-11-25 16:40:35.674483, 1.59824
2022-11-25 16:40:35.674652, 1.57869
2022-11-25 16:40:35.707466, 1.57869
2022-11-25 16:40:35.707722, 1.56891
2022-11-25 16:40:35.707894, 1.57380
2022-11-25 16:40:35.708049, 1.56891
2022-11-25 16:40:35.740800, 1.56403
2022-11-25 16:40:35.741000, 1.55914
2022-11-25 16:40:35.741129, 1.55425
2022-11-25 16:40:35.773834, 1.55425
2022-11-25 16:40:35.773954, 1.54448
2022-11-25 16:40:35.774019, 1.53959
2022-11-25 16:40:35.774128, 1.55914
2022-11-25 16:40:35.807219, 1.53470
2022-11-25 16:40:35.807319, 1.56891
2022-11-25 16:40:35.807400, 1.53470
2022-11-25 16:40:35.807481, 1.52493
2022-11-25 16:40:35.840643, 1.52493
2022-11-25 16:40:35.840781, 1.52981
2022-11-25 16:40:35.840874, 1.57869
2022-11-25 16:40:35.873998, 1.54936
2022-11-25 16:40:35.874253, 1.60802
2022-11-25 16:40:35.874422, 1.58847
2022-11-25 16:40:35.874585, 1.61779
2022-11-25 16:40:35.907271, 1.64223
2022-11-25 16:40:35.907435, 1.65689
2022-11-25 16:40:35.907526, 1.71065
2022-11-25 16:40:35.940586, 1.68622
2022-11-25 16:40:35.940842, 1.70088
2022-11-25 16:40:35.941014, 1.69599
2022-11-25 16:40:35.941171, 1.74487
2022-11-25 16:40:35.973932, 1.70577
2022-11-25 16:40:35.974177, 1.70577
2022-11-25 16:40:35.974347, 1.70577
2022-11-25 16:40:36.007171, 1.70577
2022-11-25 16:40:36.007433, 1.71065
2022-11-25 16:40:36.007601, 1.70088
2022-11-25 16:40:36.007760, 1.70577
2022-11-25 16:40:36.040520, 1.70577
2022-11-25 16:40:36.040775, 1.70088
2022-11-25 16:40:36.040947, 1.72043
2022-11-25 16:40:36.073743, 1.71554
2022-11-25 16:40:36.074017, 1.72532
2022-11-25 16:40:36.074188, 1.72043
2022-11-25 16:40:36.074357, 1.73021
2022-11-25 16:40:36.107134, 1.73998
2022-11-25 16:40:36.107383, 1.71065
2022-11-25 16:40:36.107574, 1.71065
2022-11-25 16:40:36.107736, 1.69599
2022-11-25 16:40:36.140459, 1.69599
2022-11-25 16:40:36.140710, 1.69110
2022-11-25 16:40:36.140882, 1.68622
2022-11-25 16:40:36.173720, 1.68622
2022-11-25 16:40:36.173982, 1.68622
2022-11-25 16:40:36.174151, 1.68622
2022-11-25 16:40:36.174311, 1.68622
2022-11-25 16:40:36.207037, 1.68622
2022-11-25 16:40:36.207286, 1.67644
2022-11-25 16:40:36.207457, 1.68133
2022-11-25 16:40:36.240277, 1.67644
2022-11-25 16:40:36.240515, 1.69110
2022-11-25 16:40:36.240689, 1.67155
2022-11-25 16:40:36.240844, 1.66667
2022-11-25 16:40:36.273412, 1.66667
2022-11-25 16:40:36.273512, 1.66178
2022-11-25 16:40:36.273591, 1.66178
2022-11-25 16:40:36.306846, 1.65200
2022-11-25 16:40:36.306984, 1.69110
2022-11-25 16:40:36.307078, 1.64223
2022-11-25 16:40:36.307166, 1.66178
2022-11-25 16:40:36.340244, 1.63245
2022-11-25 16:40:36.340492, 1.61779
2022-11-25 16:40:36.340658, 1.61779
2022-11-25 16:40:36.373362, 1.63734
2022-11-25 16:40:36.373630, 1.61779
2022-11-25 16:40:36.373796, 1.63734
2022-11-25 16:40:36.373954, 1.59824
2022-11-25 16:40:36.406823, 1.60313
2022-11-25 16:40:36.407076, 1.59824
2022-11-25 16:40:36.407260, 1.59335
2022-11-25 16:40:36.407417, 1.58847
2022-11-25 16:40:36.440188, 1.58358
2022-11-25 16:40:36.440435, 1.58847
2022-11-25 16:40:36.440603, 1.59335
2022-11-25 16:40:36.473418, 1.57380
2022-11-25 16:40:36.473659, 1.60802
2022-11-25 16:40:36.473828, 1.56891
2022-11-25 16:40:36.473985, 1.57380
2022-11-25 16:40:36.506762, 1.56403
2022-11-25 16:40:36.506996, 1.55914
2022-11-25 16:40:36.507163, 1.56403
2022-11-25 16:40:36.540003, 1.54936
2022-11-25 16:40:36.540248, 1.54936
2022-11-25 16:40:36.540413, 1.54448
2022-11-25 16:40:36.540567, 1.54936
2022-11-25 16:40:36.573349, 1.53470
2022-11-25 16:40:36.573598, 1.54936
2022-11-25 16:40:36.573766, 1.52981
2022-11-25 16:40:36.606579, 1.52981
2022-11-25 16:40:36.606831, 1.52493
2022-11-25 16:40:36.606998, 1.52493
2022-11-25 16:40:36.607152, 1.53470
2022-11-25 16:40:36.639944, 1.52493
2022-11-25 16:40:36.640187, 1.57869
2022-11-25 16:40:36.640348, 1.54936
2022-11-25 16:40:36.673137, 1.57380
2022-11-25 16:40:36.673399, 1.59335
2022-11-25 16:40:36.673565, 1.61779
2022-11-25 16:40:36.673721, 1.64223
2022-11-25 16:40:36.706526, 1.65689
2022-11-25 16:40:36.706777, 1.67644
2022-11-25 16:40:36.706947, 1.68622
2022-11-25 16:40:36.707104, 1.69599
2022-11-25 16:40:36.739902, 1.70088
2022-11-25 16:40:36.740151, 1.69599
2022-11-25 16:40:36.740320, 1.70577
2022-11-25 16:40:36.772981, 1.70088
2022-11-25 16:40:36.773133, 1.72532
2022-11-25 16:40:36.773220, 1.71065
2022-11-25 16:40:36.773320, 1.72043
2022-11-25 16:40:36.806496, 1.74487
2022-11-25 16:40:36.806746, 1.70577
2022-11-25 16:40:36.806914, 1.73998
2022-11-25 16:40:36.839718, 1.71065
2022-11-25 16:40:36.839972, 1.71554
2022-11-25 16:40:36.840136, 1.72043
2022-11-25 16:40:36.840302, 1.73021
2022-11-25 16:40:36.873067, 1.73021
2022-11-25 16:40:36.873317, 1.72532
2022-11-25 16:40:36.873481, 1.72532
2022-11-25 16:40:36.906288, 1.72532
2022-11-25 16:40:36.906555, 1.72043
2022-11-25 16:40:36.906729, 1.71554
2022-11-25 16:40:36.907086, 1.72532
2022-11-25 16:40:36.939657, 1.70577
2022-11-25 16:40:36.939907, 1.70577
2022-11-25 16:40:36.940073, 1.70577
2022-11-25 16:40:36.972860, 1.70088
2022-11-25 16:40:36.973127, 1.70088
2022-11-25 16:40:36.973290, 1.70577
2022-11-25 16:40:36.973444, 1.70088
2022-11-25 16:40:37.006253, 1.69599
2022-11-25 16:40:37.006520, 1.69599
2022-11-25 16:40:37.006692, 1.69599
2022-11-25 16:40:37.006849, 1.69110
2022-11-25 16:40:37.039638, 1.69110
2022-11-25 16:40:37.039880, 1.69110
2022-11-25 16:40:37.040050, 1.70577
2022-11-25 16:40:37.072798, 1.67644
2022-11-25 16:40:37.072988, 1.68622
2022-11-25 16:40:37.073104, 1.67155
2022-11-25 16:40:37.073218, 1.68133
2022-11-25 16:40:37.106194, 1.66667
2022-11-25 16:40:37.106446, 1.66178
2022-11-25 16:40:37.106614, 1.66667
2022-11-25 16:40:37.139426, 1.65689
2022-11-25 16:40:37.139670, 1.64712
2022-11-25 16:40:37.139830, 1.64712
2022-11-25 16:40:37.139981, 1.63734
2022-11-25 16:40:37.172740, 1.63734
2022-11-25 16:40:37.172993, 1.62757
2022-11-25 16:40:37.173159, 1.63245
2022-11-25 16:40:37.206010, 1.61290
2022-11-25 16:40:37.206251, 1.62268
2022-11-25 16:40:37.206416, 1.61779
2022-11-25 16:40:37.206574, 1.62268
2022-11-25 16:40:37.239350, 1.61779
2022-11-25 16:40:37.239590, 1.61779
2022-11-25 16:40:37.239759, 1.60802
2022-11-25 16:40:37.272559, 1.62757
2022-11-25 16:40:37.272831, 1.60313
2022-11-25 16:40:37.273004, 1.59824
2022-11-25 16:40:37.273160, 1.60802
2022-11-25 16:40:37.305928, 1.59335
2022-11-25 16:40:37.306090, 1.59335
2022-11-25 16:40:37.306181, 1.58358
2022-11-25 16:40:37.306265, 1.58847
2022-11-25 16:40:37.339292, 1.59824
2022-11-25 16:40:37.339534, 1.57869
2022-11-25 16:40:37.339709, 1.56891
2022-11-25 16:40:37.372505, 1.57380
2022-11-25 16:40:37.372758, 1.57380
2022-11-25 16:40:37.372921, 1.59335
2022-11-25 16:40:37.373076, 1.55914
2022-11-25 16:40:37.405951, 1.56403
2022-11-25 16:40:37.406206, 1.55425
2022-11-25 16:40:37.406372, 1.54936
2022-11-25 16:40:37.439137, 1.56403
2022-11-25 16:40:37.439396, 1.56891
2022-11-25 16:40:37.439568, 1.60802
2022-11-25 16:40:37.439725, 1.60313
2022-11-25 16:40:37.472448, 1.62268
2022-11-25 16:40:37.472702, 1.64223
2022-11-25 16:40:37.472870, 1.65689
2022-11-25 16:40:37.505722, 1.67155
2022-11-25 16:40:37.505970, 1.70088
2022-11-25 16:40:37.506131, 1.71065
2022-11-25 16:40:37.506290, 1.75464
2022-11-25 16:40:37.539091, 1.72043
2022-11-25 16:40:37.539329, 1.73509
2022-11-25 16:40:37.539501, 1.72532
2022-11-25 16:40:37.572304, 1.73509
2022-11-25 16:40:37.572558, 1.73021
2022-11-25 16:40:37.572729, 1.72043
2022-11-25 16:40:37.572888, 1.72043
2022-11-25 16:40:37.605673, 1.73509
2022-11-25 16:40:37.605911, 1.75953
2022-11-25 16:40:37.606075, 1.75953
2022-11-25 16:40:37.606230, 1.76931
2022-11-25 16:40:37.638977, 1.74487
2022-11-25 16:40:37.639200, 1.74487
2022-11-25 16:40:37.639364, 1.73509
2022-11-25 16:40:37.672246, 1.73998
2022-11-25 16:40:37.672478, 1.74976
2022-11-25 16:40:37.672640, 1.77419
2022-11-25 16:40:37.672793, 1.73998
2022-11-25 16:40:37.705659, 1.73509
2022-11-25 16:40:37.705907, 1.73021
2022-11-25 16:40:37.706075, 1.73021
2022-11-25 16:40:37.738814, 1.72532
2022-11-25 16:40:37.739000, 1.72532
2022-11-25 16:40:37.739126, 1.72532
2022-11-25 16:40:37.739236, 1.71554
2022-11-25 16:40:37.772201, 1.72532
2022-11-25 16:40:37.772449, 1.73021
2022-11-25 16:40:37.772540, 1.72043
2022-11-25 16:40:37.805418, 1.72043
2022-11-25 16:40:37.805629, 1.72043
2022-11-25 16:40:37.805742, 1.72043
2022-11-25 16:40:37.805829, 1.72043
2022-11-25 16:40:37.838757, 1.71554
2022-11-25 16:40:37.838994, 1.71554
2022-11-25 16:40:37.839153, 1.71065
2022-11-25 16:40:37.871997, 1.70088
2022-11-25 16:40:37.872300, 1.70577
2022-11-25 16:40:37.872477, 1.73021
2022-11-25 16:40:37.872633, 1.69110
2022-11-25 16:40:37.905353, 1.69110
2022-11-25 16:40:37.905595, 1.68133
2022-11-25 16:40:37.905760, 1.68133
2022-11-25 16:40:37.905916, 1.67155
2022-11-25 16:40:37.938736, 1.66178
2022-11-25 16:40:37.938978, 1.66667
2022-11-25 16:40:37.939136, 1.65689
2022-11-25 16:40:37.971968, 1.65689
2022-11-25 16:40:37.972213, 1.65689
2022-11-25 16:40:37.972390, 1.64712
2022-11-25 16:40:37.972547, 1.65689
2022-11-25 16:40:38.005284, 1.64712
2022-11-25 16:40:38.005520, 1.64223
2022-11-25 16:40:38.005685, 1.63734
2022-11-25 16:40:38.038582, 1.66178
2022-11-25 16:40:38.038748, 1.63245
2022-11-25 16:40:38.038876, 1.64223
2022-11-25 16:40:38.038984, 1.62757
2022-11-25 16:40:38.071929, 1.62757
2022-11-25 16:40:38.072180, 1.61779
2022-11-25 16:40:38.072344, 1.61779
2022-11-25 16:40:38.105163, 1.61290
2022-11-25 16:40:38.105415, 1.60313
2022-11-25 16:40:38.105583, 1.62757
2022-11-25 16:40:38.105742, 1.59824
2022-11-25 16:40:38.138484, 1.62757
2022-11-25 16:40:38.138741, 1.59335
2022-11-25 16:40:38.138907, 1.58847
2022-11-25 16:40:38.171713, 1.61290
2022-11-25 16:40:38.171985, 1.57869
2022-11-25 16:40:38.172153, 1.57869
2022-11-25 16:40:38.172320, 1.62268
2022-11-25 16:40:38.205073, 1.59335
2022-11-25 16:40:38.205332, 1.60802
2022-11-25 16:40:38.205505, 1.62268
2022-11-25 16:40:38.205666, 1.64223
2022-11-25 16:40:38.238412, 1.66178
2022-11-25 16:40:38.238599, 1.70577
2022-11-25 16:40:38.238722, 1.70088
2022-11-25 16:40:38.271641, 1.71065
2022-11-25 16:40:38.271889, 1.72043
2022-11-25 16:40:38.272058, 1.72043
2022-11-25 16:40:38.272211, 1.72532
2022-11-25 16:40:38.304838, 1.72532
2022-11-25 16:40:38.304917, 1.72532
2022-11-25 16:40:38.304980, 1.72043
2022-11-25 16:40:38.338120, 1.71554
2022-11-25 16:40:38.338245, 1.71554
2022-11-25 16:40:38.338322, 1.71065
2022-11-25 16:40:38.338393, 1.71554
2022-11-25 16:40:38.371629, 1.71065
2022-11-25 16:40:38.371876, 1.71554
2022-11-25 16:40:38.372050, 1.71065
2022-11-25 16:40:38.404855, 1.71065
2022-11-25 16:40:38.405113, 1.71065
2022-11-25 16:40:38.405280, 1.71065
2022-11-25 16:40:38.405443, 1.71554
2022-11-25 16:40:38.438212, 1.70577
2022-11-25 16:40:38.438459, 1.71065
2022-11-25 16:40:38.438627, 1.71554
2022-11-25 16:40:38.471416, 1.70577
2022-11-25 16:40:38.471679, 1.71065
2022-11-25 16:40:38.471848, 1.69599
2022-11-25 16:40:38.472004, 1.69599
2022-11-25 16:40:38.504774, 1.70088
2022-11-25 16:40:38.505003, 1.69110
2022-11-25 16:40:38.505161, 1.69110
2022-11-25 16:40:38.505317, 1.69110
2022-11-25 16:40:38.538149, 1.72532
2022-11-25 16:40:38.538394, 1.69599
2022-11-25 16:40:38.538564, 1.69599
2022-11-25 16:40:38.571376, 1.68622
2022-11-25 16:40:38.571630, 1.69110
2022-11-25 16:40:38.571796, 1.67644
2022-11-25 16:40:38.571955, 1.67155
2022-11-25 16:40:38.604720, 1.66667
2022-11-25 16:40:38.604970, 1.66667
2022-11-25 16:40:38.605136, 1.69599
2022-11-25 16:40:38.637933, 1.65200
2022-11-25 16:40:38.638187, 1.68622
2022-11-25 16:40:38.638355, 1.64712
2022-11-25 16:40:38.638510, 1.67644
2022-11-25 16:40:38.671324, 1.63245
2022-11-25 16:40:38.671580, 1.62757
2022-11-25 16:40:38.671757, 1.62268
2022-11-25 16:40:38.704539, 1.61779
2022-11-25 16:40:38.704806, 1.61779
2022-11-25 16:40:38.704980, 1.60802
2022-11-25 16:40:38.705139, 1.61290
2022-11-25 16:40:38.737905, 1.60802
2022-11-25 16:40:38.738156, 1.61290
2022-11-25 16:40:38.738325, 1.60313
2022-11-25 16:40:38.771071, 1.60313
2022-11-25 16:40:38.771328, 1.59824
2022-11-25 16:40:38.771500, 1.62757
2022-11-25 16:40:38.771658, 1.59335
2022-11-25 16:40:38.804474, 1.59335
2022-11-25 16:40:38.804635, 1.58847
2022-11-25 16:40:38.804730, 1.59335
2022-11-25 16:40:38.804817, 1.58847
2022-11-25 16:40:38.837877, 1.58847
2022-11-25 16:40:38.838111, 1.58358
2022-11-25 16:40:38.838277, 1.57869
2022-11-25 16:40:38.871116, 1.57869
2022-11-25 16:40:38.871364, 1.57869
2022-11-25 16:40:38.871531, 1.56891
2022-11-25 16:40:38.871688, 1.57380
2022-11-25 16:40:38.904454, 1.56403
2022-11-25 16:40:38.904706, 1.56891
2022-11-25 16:40:38.904870, 1.56403
2022-11-25 16:40:38.937687, 1.57869
2022-11-25 16:40:38.937943, 1.56403
2022-11-25 16:40:38.938115, 1.57380
2022-11-25 16:40:38.938276, 1.59335
2022-11-25 16:40:38.971037, 1.61290
2022-11-25 16:40:38.971282, 1.64712
2022-11-25 16:40:38.971447, 1.66178
2022-11-25 16:40:39.004265, 1.72043
2022-11-25 16:40:39.004525, 1.69599
2022-11-25 16:40:39.004698, 1.72532
2022-11-25 16:40:39.004857, 1.72043
2022-11-25 16:40:39.037572, 1.74976
2022-11-25 16:40:39.037761, 1.73021
2022-11-25 16:40:39.038067, 1.74487
2022-11-25 16:40:39.070844, 1.76442
2022-11-25 16:40:39.071094, 1.72532
2022-11-25 16:40:39.071261, 1.72532
2022-11-25 16:40:39.071420, 1.72532
2022-11-25 16:40:39.104215, 1.72532
2022-11-25 16:40:39.104460, 1.72532
2022-11-25 16:40:39.104625, 1.72532
2022-11-25 16:40:39.104787, 1.73021
2022-11-25 16:40:39.137580, 1.73509
2022-11-25 16:40:39.137832, 1.76442
2022-11-25 16:40:39.138011, 1.76931
2022-11-25 16:40:39.170818, 1.73021
2022-11-25 16:40:39.171070, 1.73509
2022-11-25 16:40:39.171232, 1.73509
2022-11-25 16:40:39.171393, 1.73509
2022-11-25 16:40:39.204164, 1.72532
2022-11-25 16:40:39.204412, 1.72043
2022-11-25 16:40:39.204578, 1.72043
2022-11-25 16:40:39.237442, 1.72532
2022-11-25 16:40:39.237699, 1.72043
2022-11-25 16:40:39.237874, 1.73509
2022-11-25 16:40:39.238033, 1.71065
2022-11-25 16:40:39.270739, 1.71065
2022-11-25 16:40:39.270987, 1.71065
2022-11-25 16:40:39.271161, 1.71065
2022-11-25 16:40:39.303954, 1.71065
2022-11-25 16:40:39.304114, 1.71554
2022-11-25 16:40:39.304206, 1.71065
2022-11-25 16:40:39.304288, 1.72532
2022-11-25 16:40:39.337304, 1.70088
2022-11-25 16:40:39.337555, 1.69599
2022-11-25 16:40:39.337731, 1.70577
2022-11-25 16:40:39.370554, 1.69110
2022-11-25 16:40:39.370841, 1.69110
2022-11-25 16:40:39.371016, 1.68622
2022-11-25 16:40:39.371178, 1.68133
2022-11-25 16:40:39.403949, 1.67644
2022-11-25 16:40:39.404190, 1.67155
2022-11-25 16:40:39.404355, 1.66667
2022-11-25 16:40:39.404512, 1.66178
2022-11-25 16:40:39.437278, 1.69110
2022-11-25 16:40:39.437519, 1.65200
2022-11-25 16:40:39.437693, 1.68133
2022-11-25 16:40:39.470504, 1.65689
2022-11-25 16:40:39.470740, 1.67155
2022-11-25 16:40:39.470902, 1.63734
2022-11-25 16:40:39.471056, 1.63734
2022-11-25 16:40:39.503894, 1.63734
2022-11-25 16:40:39.504144, 1.63245
2022-11-25 16:40:39.504317, 1.64223
2022-11-25 16:40:39.537113, 1.61779
2022-11-25 16:40:39.537371, 1.63245
2022-11-25 16:40:39.537549, 1.61779
2022-11-25 16:40:39.537710, 1.62268
2022-11-25 16:40:39.570433, 1.61290
2022-11-25 16:40:39.570667, 1.64223
2022-11-25 16:40:39.570835, 1.60313
2022-11-25 16:40:39.603675, 1.60802
2022-11-25 16:40:39.603910, 1.63734
2022-11-25 16:40:39.604078, 1.60313
2022-11-25 16:40:39.604238, 1.63734
2022-11-25 16:40:39.637004, 1.59335
2022-11-25 16:40:39.637198, 1.58847
2022-11-25 16:40:39.637321, 1.58358
2022-11-25 16:40:39.670244, 1.58358
2022-11-25 16:40:39.670519, 1.59335
2022-11-25 16:40:39.670686, 1.58358
2022-11-25 16:40:39.670845, 1.57380
2022-11-25 16:40:39.703629, 1.58847
2022-11-25 16:40:39.703883, 1.58847
2022-11-25 16:40:39.704055, 1.59824
2022-11-25 16:40:39.704216, 1.62268
2022-11-25 16:40:39.736996, 1.64223
2022-11-25 16:40:39.737234, 1.68133
2022-11-25 16:40:39.737398, 1.68622
2022-11-25 16:40:39.770231, 1.71065
2022-11-25 16:40:39.770487, 1.72043
2022-11-25 16:40:39.770655, 1.73509
2022-11-25 16:40:39.770811, 1.73509
2022-11-25 16:40:39.803568, 1.73998
2022-11-25 16:40:39.803730, 1.73998
2022-11-25 16:40:39.803823, 1.74976
2022-11-25 16:40:39.836822, 1.74487
2022-11-25 16:40:39.837068, 1.77908
2022-11-25 16:40:39.837238, 1.74487
2022-11-25 16:40:39.837402, 1.73998
2022-11-25 16:40:39.870129, 1.73998
2022-11-25 16:40:39.870316, 1.74487
2022-11-25 16:40:39.870437, 1.74487
2022-11-25 16:40:39.903384, 1.74976
2022-11-25 16:40:39.903640, 1.78397
2022-11-25 16:40:39.903818, 1.79374
2022-11-25 16:40:39.903976, 1.79374
2022-11-25 16:40:39.936716, 1.75953
2022-11-25 16:40:39.936909, 1.76442
2022-11-25 16:40:39.937030, 1.75953
2022-11-25 16:40:39.969956, 1.75464
2022-11-25 16:40:39.970228, 1.74976
2022-11-25 16:40:39.970400, 1.75953
2022-11-25 16:40:39.970561, 1.76931
2022-11-25 16:40:40.003376, 1.77908
2022-11-25 16:40:40.003660, 1.76931
2022-11-25 16:40:40.003829, 1.76931
2022-11-25 16:40:40.003986, 1.77419
2022-11-25 16:40:40.036569, 1.73509
2022-11-25 16:40:40.036727, 1.73021
2022-11-25 16:40:40.036823, 1.73021
2022-11-25 16:40:40.069935, 1.72532
2022-11-25 16:40:40.070180, 1.73998
2022-11-25 16:40:40.070345, 1.73021
2022-11-25 16:40:40.070498, 1.74487
2022-11-25 16:40:40.103325, 1.72043
2022-11-25 16:40:40.103577, 1.72532
2022-11-25 16:40:40.103748, 1.71065
2022-11-25 16:40:40.136502, 1.71065
2022-11-25 16:40:40.136754, 1.70088
2022-11-25 16:40:40.136924, 1.69599
2022-11-25 16:40:40.137077, 1.70577
2022-11-25 16:40:40.169935, 1.69110
2022-11-25 16:40:40.170189, 1.68622
2022-11-25 16:40:40.170357, 1.68622
2022-11-25 16:40:40.203146, 1.68133
2022-11-25 16:40:40.203405, 1.67155
2022-11-25 16:40:40.203570, 1.66178
2022-11-25 16:40:40.203732, 1.67155
2022-11-25 16:40:40.236415, 1.65689
2022-11-25 16:40:40.236572, 1.65200
2022-11-25 16:40:40.236667, 1.65200
2022-11-25 16:40:40.269682, 1.64712
2022-11-25 16:40:40.269943, 1.67155
2022-11-25 16:40:40.270110, 1.63245
2022-11-25 16:40:40.270266, 1.63734
2022-11-25 16:40:40.303004, 1.63245
2022-11-25 16:40:40.303169, 1.63734
2022-11-25 16:40:40.303257, 1.65689
2022-11-25 16:40:40.303345, 1.63245
2022-11-25 16:40:40.336391, 1.62757
2022-11-25 16:40:40.336644, 1.63245
2022-11-25 16:40:40.336808, 1.61779
2022-11-25 16:40:40.369664, 1.61779
2022-11-25 16:40:40.369926, 1.62268
2022-11-25 16:40:40.370094, 1.61290
2022-11-25 16:40:40.370261, 1.63245
2022-11-25 16:40:40.403002, 1.64712
2022-11-25 16:40:40.403251, 1.60802
2022-11-25 16:40:40.403426, 1.60802
2022-11-25 16:40:40.436227, 1.59824
2022-11-25 16:40:40.436480, 1.59335
2022-11-25 16:40:40.436649, 1.58358
2022-11-25 16:40:40.436807, 1.57869
2022-11-25 16:40:40.469660, 1.56891
2022-11-25 16:40:40.469905, 1.57869
2022-11-25 16:40:40.470068, 1.57869
2022-11-25 16:40:40.502808, 1.59335
2022-11-25 16:40:40.503059, 1.61779
2022-11-25 16:40:40.503226, 1.63734
2022-11-25 16:40:40.503381, 1.65200
2022-11-25 16:40:40.536134, 1.69110
2022-11-25 16:40:40.536325, 1.70577
2022-11-25 16:40:40.536448, 1.72043
2022-11-25 16:40:40.569391, 1.73021
2022-11-25 16:40:40.569667, 1.73998
2022-11-25 16:40:40.569843, 1.74487
2022-11-25 16:40:40.570004, 1.73998
2022-11-25 16:40:40.602768, 1.73509
2022-11-25 16:40:40.603025, 1.74487
2022-11-25 16:40:40.603198, 1.73998
2022-11-25 16:40:40.603358, 1.73998
2022-11-25 16:40:40.636145, 1.73998
2022-11-25 16:40:40.636387, 1.74976
2022-11-25 16:40:40.636549, 1.74487
2022-11-25 16:40:40.669371, 1.74487
2022-11-25 16:40:40.669634, 1.75464
2022-11-25 16:40:40.669813, 1.75953
2022-11-25 16:40:40.669969, 1.76442
2022-11-25 16:40:40.702704, 1.76931
2022-11-25 16:40:40.702950, 1.78397
2022-11-25 16:40:40.703117, 1.76442
2022-11-25 16:40:40.735923, 1.75464
2022-11-25 16:40:40.736171, 1.75953
2022-11-25 16:40:40.736352, 1.74976
2022-11-25 16:40:40.736506, 1.74976
2022-11-25 16:40:40.769270, 1.74976
2022-11-25 16:40:40.769435, 1.74976
2022-11-25 16:40:40.769523, 1.74487
2022-11-25 16:40:40.802520, 1.76931
2022-11-25 16:40:40.802682, 1.74487
2022-11-25 16:40:40.802775, 1.73509
2022-11-25 16:40:40.802858, 1.73021
2022-11-25 16:40:40.835913, 1.73509
2022-11-25 16:40:40.836166, 1.73509
2022-11-25 16:40:40.836332, 1.73509
2022-11-25 16:40:40.869121, 1.73509
2022-11-25 16:40:40.869301, 1.73021
2022-11-25 16:40:40.869392, 1.73021
2022-11-25 16:40:40.869473, 1.72532
2022-11-25 16:40:40.902426, 1.72532
2022-11-25 16:40:40.902667, 1.72043
2022-11-25 16:40:40.902828, 1.71554
2022-11-25 16:40:40.902990, 1.71065
2022-11-25 16:40:40.935828, 1.71065
2022-11-25 16:40:40.936081, 1.73998
2022-11-25 16:40:40.936245, 1.70577
2022-11-25 16:40:40.969041, 1.70577
2022-11-25 16:40:40.969290, 1.69599
2022-11-25 16:40:40.969460, 1.71065
2022-11-25 16:40:40.969618, 1.69110
2022-11-25 16:40:41.002443, 1.68622
2022-11-25 16:40:41.002693, 1.67644
2022-11-25 16:40:41.002861, 1.68133
2022-11-25 16:40:41.035657, 1.67155
2022-11-25 16:40:41.035991, 1.69110
2022-11-25 16:40:41.036170, 1.66178
2022-11-25 16:40:41.036324, 1.69599
2022-11-25 16:40:41.068976, 1.65200
2022-11-25 16:40:41.069141, 1.69599
2022-11-25 16:40:41.069230, 1.65200
2022-11-25 16:40:41.102227, 1.69110
2022-11-25 16:40:41.102487, 1.64223
2022-11-25 16:40:41.102661, 1.64712
2022-11-25 16:40:41.102825, 1.65689
2022-11-25 16:40:41.135618, 1.64223
2022-11-25 16:40:41.135877, 1.67644
2022-11-25 16:40:41.136057, 1.64223
2022-11-25 16:40:41.168783, 1.64223
2022-11-25 16:40:41.168997, 1.67155
2022-11-25 16:40:41.169229, 1.63245
2022-11-25 16:40:41.169346, 1.63245
2022-11-25 16:40:41.202187, 1.62757
2022-11-25 16:40:41.202441, 1.61779
2022-11-25 16:40:41.202612, 1.62268
2022-11-25 16:40:41.202777, 1.62268
2022-11-25 16:40:41.235553, 1.61290
2022-11-25 16:40:41.235784, 1.61779
2022-11-25 16:40:41.235944, 1.60802
2022-11-25 16:40:41.268784, 1.61290
2022-11-25 16:40:41.269028, 1.61779
2022-11-25 16:40:41.269201, 1.67155
2022-11-25 16:40:41.269358, 1.64223
2022-11-25 16:40:41.302116, 1.65689
2022-11-25 16:40:41.302312, 1.68622
2022-11-25 16:40:41.302434, 1.70088
2022-11-25 16:40:41.335341, 1.72532
2022-11-25 16:40:41.335583, 1.73509
2022-11-25 16:40:41.335750, 1.77419
2022-11-25 16:40:41.335919, 1.76931
2022-11-25 16:40:41.368726, 1.76442
2022-11-25 16:40:41.368987, 1.76442
2022-11-25 16:40:41.369155, 1.75953
2022-11-25 16:40:41.401940, 1.75953
2022-11-25 16:40:41.402184, 1.74976
2022-11-25 16:40:41.402354, 1.74976
2022-11-25 16:40:41.402508, 1.75464
2022-11-25 16:40:41.435300, 1.74976
2022-11-25 16:40:41.435493, 1.74976
2022-11-25 16:40:41.435611, 1.75464
2022-11-25 16:40:41.468557, 1.75464
2022-11-25 16:40:41.468831, 1.75464
2022-11-25 16:40:41.468999, 1.76931
2022-11-25 16:40:41.469155, 1.79374
2022-11-25 16:40:41.501883, 1.74487
2022-11-25 16:40:41.502114, 1.75464
2022-11-25 16:40:41.502268, 1.74487
2022-11-25 16:40:41.502425, 1.74487
2022-11-25 16:40:41.535240, 1.73998
2022-11-25 16:40:41.535489, 1.73998
2022-11-25 16:40:41.535662, 1.73509
2022-11-25 16:40:41.568461, 1.73509
2022-11-25 16:40:41.568718, 1.73509
2022-11-25 16:40:41.568884, 1.73021
2022-11-25 16:40:41.569040, 1.73509
2022-11-25 16:40:41.601813, 1.72043
2022-11-25 16:40:41.602052, 1.73021
2022-11-25 16:40:41.602220, 1.74976
2022-11-25 16:40:41.635084, 1.72532
2022-11-25 16:40:41.635329, 1.73998
2022-11-25 16:40:41.635501, 1.72532
2022-11-25 16:40:41.635660, 1.72532
2022-11-25 16:40:41.668438, 1.71065
2022-11-25 16:40:41.668686, 1.71065
2022-11-25 16:40:41.668855, 1.70577
2022-11-25 16:40:41.701660, 1.69599
2022-11-25 16:40:41.701916, 1.69599
2022-11-25 16:40:41.702088, 1.68622
2022-11-25 16:40:41.702249, 1.68622
2022-11-25 16:40:41.735035, 1.68133
2022-11-25 16:40:41.735278, 1.67644
2022-11-25 16:40:41.735443, 1.67155
2022-11-25 16:40:41.768241, 1.66667
2022-11-25 16:40:41.768517, 1.66667
2022-11-25 16:40:41.768690, 1.67155
2022-11-25 16:40:41.768847, 1.65689
2022-11-25 16:40:41.801595, 1.68133
2022-11-25 16:40:41.801758, 1.65689
2022-11-25 16:40:41.801845, 1.64223
2022-11-25 16:40:41.801928, 1.65200
2022-11-25 16:40:41.834937, 1.64712
2022-11-25 16:40:41.835173, 1.64223
2022-11-25 16:40:41.835329, 1.65200
2022-11-25 16:40:41.868176, 1.63734
2022-11-25 16:40:41.868369, 1.65200
2022-11-25 16:40:41.868494, 1.63734
2022-11-25 16:40:41.868607, 1.62757
2022-11-25 16:40:41.901500, 1.65689
2022-11-25 16:40:41.901763, 1.61779
2022-11-25 16:40:41.901936, 1.61290
2022-11-25 16:40:41.934805, 1.61290
2022-11-25 16:40:41.935062, 1.61779
2022-11-25 16:40:41.935232, 1.60313
2022-11-25 16:40:41.935387, 1.60313
2022-11-25 16:40:41.968169, 1.59335
2022-11-25 16:40:41.968427, 1.59335
2022-11-25 16:40:41.968601, 1.58358
2022-11-25 16:40:42.001278, 1.62757
2022-11-25 16:40:42.001524, 1.61290
2022-11-25 16:40:42.001690, 1.58847
2022-11-25 16:40:42.001850, 1.58358
2022-11-25 16:40:42.034718, 1.58358
2022-11-25 16:40:42.034973, 1.60313
2022-11-25 16:40:42.035140, 1.61290
2022-11-25 16:40:42.067956, 1.63734
2022-11-25 16:40:42.068238, 1.65689
2022-11-25 16:40:42.068414, 1.68133
2022-11-25 16:40:42.068575, 1.69599
2022-11-25 16:40:42.101330, 1.70577
2022-11-25 16:40:42.101588, 1.72043
2022-11-25 16:40:42.101763, 1.72043
2022-11-25 16:40:42.101923, 1.72532
2022-11-25 16:40:42.134642, 1.75464
2022-11-25 16:40:42.134807, 1.73509
2022-11-25 16:40:42.134893, 1.74487
2022-11-25 16:40:42.167870, 1.72532
2022-11-25 16:40:42.168036, 1.72532
2022-11-25 16:40:42.168127, 1.73021
2022-11-25 16:40:42.168217, 1.73021
2022-11-25 16:40:42.201247, 1.73021
2022-11-25 16:40:42.201474, 1.73509
2022-11-25 16:40:42.201632, 1.73998
2022-11-25 16:40:42.234483, 1.74487
2022-11-25 16:40:42.234738, 1.75464
2022-11-25 16:40:42.234918, 1.73509
2022-11-25 16:40:42.235078, 1.73509
2022-11-25 16:40:42.267852, 1.73021
2022-11-25 16:40:42.268098, 1.73021
2022-11-25 16:40:42.268260, 1.72532
2022-11-25 16:40:42.301090, 1.72043
2022-11-25 16:40:42.301298, 1.72532
2022-11-25 16:40:42.301413, 1.71554
2022-11-25 16:40:42.301505, 1.74487
2022-11-25 16:40:42.334465, 1.74976
2022-11-25 16:40:42.334713, 1.70577
2022-11-25 16:40:42.334876, 1.70577
2022-11-25 16:40:42.367639, 1.70577
2022-11-25 16:40:42.367924, 1.70577
2022-11-25 16:40:42.368095, 1.72043
2022-11-25 16:40:42.368251, 1.70088
2022-11-25 16:40:42.401019, 1.69599
2022-11-25 16:40:42.401252, 1.69599
2022-11-25 16:40:42.401411, 1.69599
2022-11-25 16:40:42.401563, 1.69110
2022-11-25 16:40:42.434366, 1.68622
2022-11-25 16:40:42.434617, 1.67644
2022-11-25 16:40:42.434783, 1.67155
2022-11-25 16:40:42.467573, 1.67155
2022-11-25 16:40:42.467730, 1.66178
2022-11-25 16:40:42.467818, 1.69599
2022-11-25 16:40:42.467899, 1.65689
2022-11-25 16:40:42.500929, 1.66667
2022-11-25 16:40:42.501123, 1.64712
2022-11-25 16:40:42.501246, 1.64223
2022-11-25 16:40:42.534181, 1.64223
2022-11-25 16:40:42.534426, 1.63245
2022-11-25 16:40:42.534599, 1.62757
2022-11-25 16:40:42.534756, 1.63245
2022-11-25 16:40:42.567565, 1.62757
2022-11-25 16:40:42.567828, 1.62268
2022-11-25 16:40:42.567992, 1.64712
2022-11-25 16:40:42.600825, 1.61779
2022-11-25 16:40:42.601099, 1.60802
2022-11-25 16:40:42.601443, 1.61290
2022-11-25 16:40:42.601635, 1.61290
2022-11-25 16:40:42.634146, 1.61290
2022-11-25 16:40:42.634390, 1.61290
2022-11-25 16:40:42.634554, 1.60313
2022-11-25 16:40:42.667378, 1.61290
2022-11-25 16:40:42.667659, 1.59824
2022-11-25 16:40:42.667832, 1.60313
2022-11-25 16:40:42.667989, 1.59824
2022-11-25 16:40:42.700719, 1.58847
2022-11-25 16:40:42.700969, 1.61779
2022-11-25 16:40:42.701138, 1.59335
2022-11-25 16:40:42.701296, 1.58847
2022-11-25 16:40:42.733877, 1.59335
2022-11-25 16:40:42.734057, 1.57869
2022-11-25 16:40:42.734159, 1.57380
2022-11-25 16:40:42.767321, 1.56403
2022-11-25 16:40:42.767509, 1.56891
2022-11-25 16:40:42.767632, 1.59335
2022-11-25 16:40:42.767748, 1.56891
2022-11-25 16:40:42.800642, 1.55914
2022-11-25 16:40:42.800836, 1.57869
2022-11-25 16:40:42.800962, 1.57869
2022-11-25 16:40:42.833913, 1.64223
2022-11-25 16:40:42.834169, 1.62268
2022-11-25 16:40:42.834337, 1.64712
2022-11-25 16:40:42.834497, 1.67155
2022-11-25 16:40:42.867217, 1.68133
2022-11-25 16:40:42.867430, 1.74487
2022-11-25 16:40:42.867553, 1.72043
2022-11-25 16:40:42.900587, 1.73509
2022-11-25 16:40:42.900864, 1.73021
2022-11-25 16:40:42.901042, 1.74976
2022-11-25 16:40:42.901197, 1.72532
2022-11-25 16:40:42.933835, 1.73509
2022-11-25 16:40:42.934001, 1.73021
2022-11-25 16:40:42.934091, 1.72532
2022-11-25 16:40:42.967048, 1.73509
2022-11-25 16:40:42.967324, 1.73998
2022-11-25 16:40:42.967492, 1.74976
2022-11-25 16:40:42.967646, 1.75953
2022-11-25 16:40:43.000397, 1.78886
2022-11-25 16:40:43.000656, 1.74976
2022-11-25 16:40:43.000830, 1.75464
2022-11-25 16:40:43.000994, 1.75464
2022-11-25 16:40:43.033746, 1.75953
2022-11-25 16:40:43.033946, 1.76442
2022-11-25 16:40:43.034067, 1.75953
2022-11-25 16:40:43.067042, 1.75953
2022-11-25 16:40:43.067303, 1.75953
2022-11-25 16:40:43.067471, 1.74976
2022-11-25 16:40:43.067633, 1.75464
2022-11-25 16:40:43.100408, 1.77908
2022-11-25 16:40:43.100658, 1.77908
2022-11-25 16:40:43.100829, 1.73998
2022-11-25 16:40:43.133616, 1.73998
2022-11-25 16:40:43.133818, 1.73509
2022-11-25 16:40:43.133945, 1.73998
2022-11-25 16:40:43.134062, 1.74976
2022-11-25 16:40:43.166979, 1.73021
2022-11-25 16:40:43.167217, 1.75464
2022-11-25 16:40:43.167375, 1.73021
2022-11-25 16:40:43.200204, 1.76931
2022-11-25 16:40:43.200460, 1.76442
2022-11-25 16:40:43.200631, 1.73998
2022-11-25 16:40:43.200793, 1.71554
2022-11-25 16:40:43.233621, 1.72532
2022-11-25 16:40:43.233865, 1.71065
2022-11-25 16:40:43.234029, 1.71065
2022-11-25 16:40:43.266805, 1.70088
2022-11-25 16:40:43.267088, 1.69110
2022-11-25 16:40:43.267263, 1.69110
2022-11-25 16:40:43.267420, 1.68622
2022-11-25 16:40:43.300162, 1.70088
2022-11-25 16:40:43.300410, 1.67644
2022-11-25 16:40:43.300501, 1.67644
2022-11-25 16:40:43.300588, 1.66667
2022-11-25 16:40:43.333519, 1.66178
2022-11-25 16:40:43.333772, 1.66178
2022-11-25 16:40:43.333937, 1.65689
2022-11-25 16:40:43.366754, 1.65200
2022-11-25 16:40:43.367005, 1.65200
2022-11-25 16:40:43.367176, 1.66178
2022-11-25 16:40:43.367335, 1.64223
2022-11-25 16:40:43.400070, 1.64223
2022-11-25 16:40:43.400304, 1.64223
2022-11-25 16:40:43.400470, 1.63734
2022-11-25 16:40:43.433294, 1.63734
2022-11-25 16:40:43.433479, 1.64712
2022-11-25 16:40:43.433595, 1.63245
2022-11-25 16:40:43.433709, 1.63245
2022-11-25 16:40:43.466693, 1.66667
2022-11-25 16:40:43.466932, 1.62757
2022-11-25 16:40:43.467100, 1.62268
2022-11-25 16:40:43.499882, 1.62757
2022-11-25 16:40:43.500131, 1.61779
2022-11-25 16:40:43.500298, 1.61779
2022-11-25 16:40:43.500452, 1.60802
2022-11-25 16:40:43.533260, 1.61290
2022-11-25 16:40:43.533494, 1.61290
2022-11-25 16:40:43.533652, 1.59824
2022-11-25 16:40:43.566532, 1.59824
2022-11-25 16:40:43.566793, 1.59335
2022-11-25 16:40:43.566957, 1.63245
2022-11-25 16:40:43.567112, 1.59824
2022-11-25 16:40:43.599869, 1.58358
2022-11-25 16:40:43.600118, 1.58847
2022-11-25 16:40:43.600287, 1.58847
2022-11-25 16:40:43.600451, 1.60313
2022-11-25 16:40:43.633220, 1.61290
2022-11-25 16:40:43.633471, 1.63734
2022-11-25 16:40:43.633632, 1.68133
2022-11-25 16:40:43.666470, 1.68622
2022-11-25 16:40:43.666722, 1.70088
2022-11-25 16:40:43.666905, 1.72532
2022-11-25 16:40:43.667063, 1.73998
2022-11-25 16:40:43.699752, 1.77419
2022-11-25 16:40:43.699936, 1.75464
2022-11-25 16:40:43.700050, 1.75464
2022-11-25 16:40:43.733006, 1.74487
2022-11-25 16:40:43.733156, 1.74976
2022-11-25 16:40:43.733248, 1.74976
2022-11-25 16:40:43.733331, 1.74976
2022-11-25 16:40:43.766387, 1.74976
2022-11-25 16:40:43.766590, 1.74976
2022-11-25 16:40:43.766710, 1.74976
2022-11-25 16:40:43.799593, 1.75464
2022-11-25 16:40:43.799746, 1.75464
2022-11-25 16:40:43.799841, 1.76442
2022-11-25 16:40:43.799926, 1.77908
2022-11-25 16:40:43.832958, 1.76931
2022-11-25 16:40:43.833192, 1.77419
2022-11-25 16:40:43.833359, 1.76931
2022-11-25 16:40:43.866164, 1.77419
2022-11-25 16:40:43.866427, 1.76442
2022-11-25 16:40:43.866593, 1.76931
2022-11-25 16:40:43.866758, 1.77908
2022-11-25 16:40:43.899573, 1.79374
2022-11-25 16:40:43.899757, 1.78886
2022-11-25 16:40:43.899875, 1.78886
2022-11-25 16:40:43.899985, 1.75953
2022-11-25 16:40:43.932857, 1.75464
2022-11-25 16:40:43.933035, 1.75464
2022-11-25 16:40:43.933146, 1.75953
2022-11-25 16:40:43.966152, 1.75953
2022-11-25 16:40:43.966389, 1.75953
2022-11-25 16:40:43.966549, 1.75953
2022-11-25 16:40:43.966706, 1.75953
2022-11-25 16:40:43.999450, 1.75953
2022-11-25 16:40:43.999675, 1.75464
2022-11-25 16:40:43.999840, 1.74976
2022-11-25 16:40:44.032719, 1.74976
2022-11-25 16:40:44.032970, 1.74487
2022-11-25 16:40:44.033137, 1.73998
2022-11-25 16:40:44.033294, 1.73509
2022-11-25 16:40:44.066065, 1.73509
2022-11-25 16:40:44.066306, 1.75464
2022-11-25 16:40:44.066467, 1.72532
2022-11-25 16:40:44.099274, 1.75953
2022-11-25 16:40:44.099524, 1.72043
2022-11-25 16:40:44.099696, 1.73509
2022-11-25 16:40:44.099853, 1.70577
2022-11-25 16:40:44.132674, 1.71554
2022-11-25 16:40:44.132917, 1.71554
2022-11-25 16:40:44.133084, 1.70577
2022-11-25 16:40:44.165859, 1.70088
2022-11-25 16:40:44.166055, 1.70577
2022-11-25 16:40:44.166169, 1.69599
2022-11-25 16:40:44.166282, 1.69599
2022-11-25 16:40:44.199222, 1.70088
2022-11-25 16:40:44.199451, 1.70088
2022-11-25 16:40:44.199617, 1.69110
2022-11-25 16:40:44.199774, 1.69599
2022-11-25 16:40:44.232602, 1.67155
2022-11-25 16:40:44.232826, 1.67644
2022-11-25 16:40:44.232984, 1.66667
2022-11-25 16:40:44.265825, 1.66178
2022-11-25 16:40:44.266072, 1.66178
2022-11-25 16:40:44.266233, 1.65689
2022-11-25 16:40:44.266390, 1.69599
2022-11-25 16:40:44.299139, 1.65200
2022-11-25 16:40:44.299286, 1.64712
2022-11-25 16:40:44.299376, 1.66667
2022-11-25 16:40:44.332389, 1.64223
2022-11-25 16:40:44.332565, 1.63734
2022-11-25 16:40:44.332685, 1.62757
2022-11-25 16:40:44.332798, 1.63734
2022-11-25 16:40:44.365745, 1.63734
2022-11-25 16:40:44.365928, 1.63734
2022-11-25 16:40:44.366047, 1.64223
2022-11-25 16:40:44.398975, 1.65689
2022-11-25 16:40:44.399148, 1.66667
2022-11-25 16:40:44.399268, 1.68622
2022-11-25 16:40:44.399382, 1.70577
2022-11-25 16:40:44.432343, 1.72532
2022-11-25 16:40:44.432580, 1.76442
2022-11-25 16:40:44.432741, 1.75464
2022-11-25 16:40:44.465543, 1.80841
2022-11-25 16:40:44.465744, 1.77419
2022-11-25 16:40:44.465865, 1.78397
2022-11-25 16:40:44.465981, 1.77908
2022-11-25 16:40:44.498890, 1.77908
2022-11-25 16:40:44.499072, 1.77419
2022-11-25 16:40:44.499188, 1.77419
2022-11-25 16:40:44.499301, 1.77419
2022-11-25 16:40:44.532233, 1.76442
2022-11-25 16:40:44.532403, 1.76931
2022-11-25 16:40:44.532519, 1.77419
2022-11-25 16:40:44.565561, 1.76931
2022-11-25 16:40:44.565811, 1.79374
2022-11-25 16:40:44.565978, 1.79863
2022-11-25 16:40:44.566135, 1.76931
2022-11-25 16:40:44.598849, 1.75953
2022-11-25 16:40:44.599031, 1.76442
2022-11-25 16:40:44.599157, 1.75464
2022-11-25 16:40:44.632109, 1.75464
2022-11-25 16:40:44.632258, 1.74976
2022-11-25 16:40:44.632346, 1.74976
2022-11-25 16:40:44.632433, 1.73998
2022-11-25 16:40:44.665454, 1.74976
2022-11-25 16:40:44.665684, 1.73998
2022-11-25 16:40:44.665849, 1.75464
2022-11-25 16:40:44.698691, 1.74976
2022-11-25 16:40:44.698906, 1.73998
2022-11-25 16:40:44.699063, 1.73998
2022-11-25 16:40:44.699215, 1.74487
2022-11-25 16:40:44.732054, 1.73998
2022-11-25 16:40:44.732280, 1.77419
2022-11-25 16:40:44.732447, 1.73021
2022-11-25 16:40:44.765271, 1.76931
2022-11-25 16:40:44.765528, 1.72532
2022-11-25 16:40:44.765707, 1.73509
2022-11-25 16:40:44.765865, 1.72043
2022-11-25 16:40:44.798652, 1.72043
2022-11-25 16:40:44.798806, 1.71065
2022-11-25 16:40:44.798895, 1.70577
2022-11-25 16:40:44.798975, 1.72532
2022-11-25 16:40:44.832018, 1.69110
2022-11-25 16:40:44.832255, 1.69110
2022-11-25 16:40:44.832417, 1.67644
2022-11-25 16:40:44.865202, 1.67644
2022-11-25 16:40:44.865393, 1.67644
2022-11-25 16:40:44.865512, 1.67644
2022-11-25 16:40:44.865624, 1.66667
2022-11-25 16:40:44.898590, 1.70088
2022-11-25 16:40:44.898781, 1.66667
2022-11-25 16:40:44.898905, 1.65689
2022-11-25 16:40:44.931830, 1.68622
2022-11-25 16:40:44.932030, 1.65200
2022-11-25 16:40:44.932157, 1.65200
2022-11-25 16:40:44.932272, 1.64712
2022-11-25 16:40:44.965185, 1.65689
2022-11-25 16:40:44.965414, 1.63245
2022-11-25 16:40:44.965586, 1.63734
2022-11-25 16:40:44.998429, 1.63734
2022-11-25 16:40:44.998681, 1.62757
2022-11-25 16:40:44.998850, 1.62757
2022-11-25 16:40:44.999011, 1.62268
2022-11-25 16:40:45.031728, 1.62268
2022-11-25 16:40:45.031878, 1.65200
2022-11-25 16:40:45.031969, 1.61779
2022-11-25 16:40:45.064979, 1.61290
2022-11-25 16:40:45.065140, 1.60802
2022-11-25 16:40:45.065234, 1.59824
2022-11-25 16:40:45.065315, 1.59824
2022-11-25 16:40:45.098344, 1.59335
2022-11-25 16:40:45.098545, 1.59335
2022-11-25 16:40:45.098665, 1.59824
2022-11-25 16:40:45.098783, 1.61290
2022-11-25 16:40:45.131650, 1.62268
2022-11-25 16:40:45.131843, 1.66667
2022-11-25 16:40:45.131966, 1.66667
2022-11-25 16:40:45.164959, 1.68622
2022-11-25 16:40:45.165142, 1.71065
2022-11-25 16:40:45.165267, 1.72532
2022-11-25 16:40:45.165381, 1.74976
2022-11-25 16:40:45.198244, 1.75953
2022-11-25 16:40:45.198400, 1.74976
2022-11-25 16:40:45.198492, 1.75464
2022-11-25 16:40:45.231548, 1.75953
2022-11-25 16:40:45.231802, 1.75953
2022-11-25 16:40:45.231976, 1.75464
2022-11-25 16:40:45.232136, 1.75464
2022-11-25 16:40:45.264916, 1.75464
2022-11-25 16:40:45.265159, 1.75953
2022-11-25 16:40:45.265326, 1.75953
2022-11-25 16:40:45.298115, 1.76442
2022-11-25 16:40:45.298272, 1.79863
2022-11-25 16:40:45.298363, 1.77419
2022-11-25 16:40:45.298446, 1.79863
2022-11-25 16:40:45.331505, 1.76442
2022-11-25 16:40:45.331746, 1.77419
2022-11-25 16:40:45.331915, 1.76931
2022-11-25 16:40:45.364695, 1.76442
2022-11-25 16:40:45.364894, 1.75953
2022-11-25 16:40:45.365015, 1.75953
2022-11-25 16:40:45.365132, 1.75464
2022-11-25 16:40:45.398080, 1.75464
2022-11-25 16:40:45.398325, 1.75464
2022-11-25 16:40:45.398505, 1.74976
2022-11-25 16:40:45.398666, 1.75464
2022-11-25 16:40:45.431477, 1.75953
2022-11-25 16:40:45.431730, 1.75464
2022-11-25 16:40:45.431900, 1.75464
2022-11-25 16:40:45.464672, 1.76442
2022-11-25 16:40:45.464859, 1.77908
2022-11-25 16:40:45.464983, 1.74487
2022-11-25 16:40:45.465095, 1.73998
2022-11-25 16:40:45.497977, 1.76442
2022-11-25 16:40:45.498161, 1.73998
2022-11-25 16:40:45.498279, 1.73021
2022-11-25 16:40:45.531302, 1.73021
2022-11-25 16:40:45.531497, 1.76931
2022-11-25 16:40:45.531621, 1.72532
2022-11-25 16:40:45.531738, 1.73998
2022-11-25 16:40:45.564595, 1.71554
2022-11-25 16:40:45.564747, 1.71554
2022-11-25 16:40:45.564837, 1.70577
2022-11-25 16:40:45.597853, 1.70577
2022-11-25 16:40:45.598089, 1.69599
2022-11-25 16:40:45.598255, 1.70577
2022-11-25 16:40:45.598410, 1.68622
2022-11-25 16:40:45.631185, 1.69110
2022-11-25 16:40:45.631371, 1.68622
2022-11-25 16:40:45.631493, 1.68133
2022-11-25 16:40:45.664505, 1.67644
2022-11-25 16:40:45.664783, 1.67155
2022-11-25 16:40:45.664958, 1.67644
2022-11-25 16:40:45.665120, 1.67155
2022-11-25 16:40:45.697705, 1.67155
2022-11-25 16:40:45.698049, 1.69110
2022-11-25 16:40:45.698239, 1.67155
2022-11-25 16:40:45.698406, 1.66178
2022-11-25 16:40:45.731089, 1.65689
2022-11-25 16:40:45.731272, 1.65200
2022-11-25 16:40:45.731395, 1.67155
2022-11-25 16:40:45.764290, 1.64223
2022-11-25 16:40:45.764560, 1.64223
2022-11-25 16:40:45.764706, 1.64223
2022-11-25 16:40:45.764868, 1.62757
2022-11-25 16:40:45.797678, 1.62757
2022-11-25 16:40:45.797825, 1.62757
2022-11-25 16:40:45.797894, 1.61779
2022-11-25 16:40:45.830907, 1.61779
2022-11-25 16:40:45.831085, 1.61290
2022-11-25 16:40:45.831175, 1.61290
2022-11-25 16:40:45.831259, 1.61290
2022-11-25 16:40:45.864198, 1.65689
2022-11-25 16:40:45.864452, 1.62757
2022-11-25 16:40:45.864586, 1.64223
2022-11-25 16:40:45.897528, 1.64712
2022-11-25 16:40:45.897746, 1.67644
2022-11-25 16:40:45.897869, 1.70088
2022-11-25 16:40:45.897980, 1.72043
2022-11-25 16:40:45.930853, 1.73998
2022-11-25 16:40:45.931207, 1.77908
2022-11-25 16:40:45.931402, 1.76931
2022-11-25 16:40:45.964058, 1.77419
2022-11-25 16:40:45.964249, 1.77908
2022-11-25 16:40:45.964374, 1.77908
2022-11-25 16:40:45.964562, 1.78886
2022-11-25 16:40:45.997413, 1.79374
2022-11-25 16:40:45.997602, 1.80352
2022-11-25 16:40:45.997916, 1.78397
2022-11-25 16:40:45.998099, 1.78397
2022-11-25 16:40:46.030786, 1.77419
2022-11-25 16:40:46.031085, 1.78886
2022-11-25 16:40:46.031275, 1.79374
2022-11-25 16:40:46.064005, 1.80352
2022-11-25 16:40:46.064243, 1.79863
2022-11-25 16:40:46.064582, 1.80352
2022-11-25 16:40:46.064776, 1.81329
2022-11-25 16:40:46.097353, 1.81329
2022-11-25 16:40:46.097530, 1.80841
2022-11-25 16:40:46.097697, 1.80841
2022-11-25 16:40:46.130580, 1.80841
2022-11-25 16:40:46.130723, 1.80841
2022-11-25 16:40:46.130819, 1.80841
2022-11-25 16:40:46.130904, 1.82307
2022-11-25 16:40:46.163931, 1.82796
2022-11-25 16:40:46.164121, 1.79374
2022-11-25 16:40:46.164248, 1.78886
2022-11-25 16:40:46.197180, 1.78886
2022-11-25 16:40:46.197361, 1.78397
2022-11-25 16:40:46.197488, 1.78397
2022-11-25 16:40:46.197601, 1.78397
2022-11-25 16:40:46.230504, 1.78397
2022-11-25 16:40:46.230652, 1.75953
2022-11-25 16:40:46.230745, 1.77908
2022-11-25 16:40:46.263735, 1.77908
2022-11-25 16:40:46.263917, 1.76931
2022-11-25 16:40:46.264041, 1.78397
2022-11-25 16:40:46.264163, 1.76442
2022-11-25 16:40:46.297116, 1.75953
2022-11-25 16:40:46.297260, 1.75464
2022-11-25 16:40:46.297352, 1.75464
2022-11-25 16:40:46.297435, 1.77908
2022-11-25 16:40:46.330433, 1.73509
2022-11-25 16:40:46.330614, 1.77419
2022-11-25 16:40:46.330707, 1.72532
2022-11-25 16:40:46.363709, 1.73021
2022-11-25 16:40:46.363848, 1.72043
2022-11-25 16:40:46.363946, 1.75464
2022-11-25 16:40:46.364036, 1.72043
2022-11-25 16:40:46.397075, 1.75953
2022-11-25 16:40:46.397256, 1.70577
2022-11-25 16:40:46.397377, 1.70088
2022-11-25 16:40:46.430273, 1.71554
2022-11-25 16:40:46.430462, 1.69599
2022-11-25 16:40:46.430593, 1.69599
2022-11-25 16:40:46.430711, 1.69599
2022-11-25 16:40:46.463641, 1.68622
2022-11-25 16:40:46.463815, 1.68133
2022-11-25 16:40:46.463937, 1.69599
2022-11-25 16:40:46.496884, 1.68133
2022-11-25 16:40:46.497058, 1.67644
2022-11-25 16:40:46.497182, 1.67155
2022-11-25 16:40:46.497295, 1.66667
2022-11-25 16:40:46.530238, 1.66667
2022-11-25 16:40:46.530417, 1.66178
2022-11-25 16:40:46.530539, 1.65689
2022-11-25 16:40:46.563477, 1.65689
2022-11-25 16:40:46.563668, 1.64712
2022-11-25 16:40:46.563794, 1.64712
2022-11-25 16:40:46.563913, 1.64712
2022-11-25 16:40:46.596825, 1.67155
2022-11-25 16:40:46.596996, 1.66178
2022-11-25 16:40:46.597115, 1.64223
2022-11-25 16:40:46.597227, 1.66178
2022-11-25 16:40:46.630163, 1.67155
2022-11-25 16:40:46.630304, 1.66667
2022-11-25 16:40:46.630397, 1.70088
2022-11-25 16:40:46.663484, 1.72532
2022-11-25 16:40:46.663714, 1.74976
2022-11-25 16:40:46.663890, 1.80352
2022-11-25 16:40:46.664055, 1.77419
2022-11-25 16:40:46.696766, 1.82307
2022-11-25 16:40:46.696934, 1.79863
2022-11-25 16:40:46.697054, 1.80352
2022-11-25 16:40:46.730019, 1.80352
2022-11-25 16:40:46.730200, 1.80352
2022-11-25 16:40:46.730325, 1.80841
2022-11-25 16:40:46.730439, 1.80841
2022-11-25 16:40:46.763331, 1.81329
2022-11-25 16:40:46.763505, 1.81329
2022-11-25 16:40:46.763630, 1.80352
2022-11-25 16:40:46.796597, 1.82307
2022-11-25 16:40:46.796739, 1.82796
2022-11-25 16:40:46.796825, 1.85239
2022-11-25 16:40:46.796901, 1.82796
2022-11-25 16:40:46.829943, 1.83773
2022-11-25 16:40:46.830124, 1.84262
2022-11-25 16:40:46.830251, 1.83773
2022-11-25 16:40:46.863180, 1.83773
2022-11-25 16:40:46.863345, 1.82796
2022-11-25 16:40:46.863441, 1.82307
2022-11-25 16:40:46.863525, 1.81818
2022-11-25 16:40:46.896530, 1.81818
2022-11-25 16:40:46.896712, 1.81329
2022-11-25 16:40:46.896837, 1.81818
2022-11-25 16:40:46.896956, 1.84262
2022-11-25 16:40:46.929840, 1.84262
2022-11-25 16:40:46.929977, 1.84751
2022-11-25 16:40:46.930068, 1.82307
2022-11-25 16:40:46.963083, 1.80841
2022-11-25 16:40:46.963253, 1.79863
2022-11-25 16:40:46.963376, 1.79863
2022-11-25 16:40:46.963494, 1.83284
2022-11-25 16:40:46.996468, 1.79863
2022-11-25 16:40:46.996636, 1.81329
2022-11-25 16:40:46.996755, 1.78886
2022-11-25 16:40:47.029725, 1.78886
2022-11-25 16:40:47.029897, 1.77908
2022-11-25 16:40:47.030017, 1.77908
2022-11-25 16:40:47.030131, 1.76931
2022-11-25 16:40:47.063043, 1.76442
2022-11-25 16:40:47.063185, 1.76442
2022-11-25 16:40:47.063282, 1.75464
2022-11-25 16:40:47.096300, 1.79374
2022-11-25 16:40:47.096474, 1.74976
2022-11-25 16:40:47.096594, 1.74487
2022-11-25 16:40:47.096709, 1.73998
2022-11-25 16:40:47.129631, 1.73998
2022-11-25 16:40:47.129803, 1.72532
2022-11-25 16:40:47.129927, 1.73021
2022-11-25 16:40:47.162899, 1.72532
2022-11-25 16:40:47.163096, 1.74976
2022-11-25 16:40:47.163230, 1.71065
2022-11-25 16:40:47.163343, 1.71554
2022-11-25 16:40:47.196240, 1.71065
2022-11-25 16:40:47.196380, 1.70577
2022-11-25 16:40:47.196471, 1.71065
2022-11-25 16:40:47.196555, 1.69599
2022-11-25 16:40:47.229585, 1.70088
2022-11-25 16:40:47.229761, 1.72043
2022-11-25 16:40:47.229884, 1.71554
2022-11-25 16:40:47.262750, 1.69110
2022-11-25 16:40:47.262888, 1.68133
2022-11-25 16:40:47.262984, 1.67644
2022-11-25 16:40:47.263067, 1.66667
2022-11-25 16:40:47.296180, 1.66667
2022-11-25 16:40:47.296320, 1.65689
2022-11-25 16:40:47.296414, 1.66178
2022-11-25 16:40:47.329464, 1.66178
2022-11-25 16:40:47.329649, 1.65689
2022-11-25 16:40:47.329775, 1.64712
2022-11-25 16:40:47.329886, 1.64712
2022-11-25 16:40:47.362759, 1.68133
2022-11-25 16:40:47.362943, 1.67155
2022-11-25 16:40:47.363068, 1.65200
2022-11-25 16:40:47.396096, 1.64712
2022-11-25 16:40:47.396347, 1.65689
2022-11-25 16:40:47.396531, 1.67644
2022-11-25 16:40:47.396692, 1.69110
2022-11-25 16:40:47.429366, 1.71554
2022-11-25 16:40:47.429508, 1.73998
2022-11-25 16:40:47.429601, 1.76442
2022-11-25 16:40:47.462580, 1.78397
2022-11-25 16:40:47.462774, 1.79374
2022-11-25 16:40:47.462901, 1.80841
2022-11-25 16:40:47.463016, 1.80841
2022-11-25 16:40:47.495965, 1.81818
2022-11-25 16:40:47.496134, 1.81329
2022-11-25 16:40:47.496254, 1.81818
2022-11-25 16:40:47.496366, 1.83284
2022-11-25 16:40:47.529174, 1.84262
2022-11-25 16:40:47.529351, 1.85728
2022-11-25 16:40:47.529471, 1.86217
2022-11-25 16:40:47.562617, 1.86706
2022-11-25 16:40:47.562805, 1.82796
2022-11-25 16:40:47.562931, 1.83773
2022-11-25 16:40:47.563048, 1.83284
2022-11-25 16:40:47.595814, 1.84262
2022-11-25 16:40:47.595957, 1.84262
2022-11-25 16:40:47.596048, 1.84751
2022-11-25 16:40:47.629130, 1.84262
2022-11-25 16:40:47.629307, 1.84262
2022-11-25 16:40:47.629432, 1.84262
2022-11-25 16:40:47.629546, 1.86706
2022-11-25 16:40:47.662438, 1.84262
2022-11-25 16:40:47.662619, 1.81818
2022-11-25 16:40:47.662746, 1.81818
2022-11-25 16:40:47.695709, 1.81818
2022-11-25 16:40:47.695890, 1.81329
2022-11-25 16:40:47.696021, 1.81329
2022-11-25 16:40:47.696138, 1.80841
2022-11-25 16:40:47.729062, 1.80841
2022-11-25 16:40:47.729237, 1.80352
2022-11-25 16:40:47.729360, 1.80352
2022-11-25 16:40:47.762291, 1.79863
2022-11-25 16:40:47.762491, 1.82796
2022-11-25 16:40:47.762619, 1.79374
2022-11-25 16:40:47.762733, 1.78886
2022-11-25 16:40:47.795586, 1.78397
2022-11-25 16:40:47.795737, 1.78397
2022-11-25 16:40:47.795832, 1.77419
2022-11-25 16:40:47.795916, 1.76931
2022-11-25 16:40:47.829118, 1.76442
2022-11-25 16:40:47.829330, 1.75953
2022-11-25 16:40:47.829505, 1.75953
2022-11-25 16:40:47.862291, 1.74976
2022-11-25 16:40:47.862476, 1.73998
2022-11-25 16:40:47.862603, 1.73998
2022-11-25 16:40:47.862723, 1.73021
2022-11-25 16:40:47.895637, 1.73509
2022-11-25 16:40:47.895787, 1.72532
2022-11-25 16:40:47.895881, 1.71554
2022-11-25 16:40:47.928898, 1.74976
2022-11-25 16:40:47.929077, 1.70577
2022-11-25 16:40:47.929205, 1.70577
2022-11-25 16:40:47.929330, 1.69599
2022-11-25 16:40:47.962194, 1.70088
2022-11-25 16:40:47.962347, 1.69599
2022-11-25 16:40:47.962469, 1.68622
2022-11-25 16:40:47.995490, 1.69110
2022-11-25 16:40:47.995668, 1.68622
2022-11-25 16:40:47.995793, 1.67644
2022-11-25 16:40:47.995907, 1.67644
2022-11-25 16:40:48.028870, 1.70088
2022-11-25 16:40:48.029068, 1.67644
2022-11-25 16:40:48.029193, 1.66178
2022-11-25 16:40:48.062063, 1.65200
2022-11-25 16:40:48.062287, 1.65200
2022-11-25 16:40:48.062430, 1.63734
2022-11-25 16:40:48.062552, 1.64223
2022-11-25 16:40:48.095550, 1.66178
2022-11-25 16:40:48.095746, 1.63245
2022-11-25 16:40:48.095871, 1.62757
2022-11-25 16:40:48.095989, 1.62268
2022-11-25 16:40:48.128716, 1.62268
2022-11-25 16:40:48.128854, 1.63734
2022-11-25 16:40:48.128945, 1.63245
2022-11-25 16:40:48.161930, 1.64712
2022-11-25 16:40:48.162088, 1.65689
2022-11-25 16:40:48.162198, 1.68133
2022-11-25 16:40:48.162292, 1.70088
2022-11-25 16:40:48.195302, 1.72043
2022-11-25 16:40:48.195481, 1.75953
2022-11-25 16:40:48.195617, 1.75464
2022-11-25 16:40:48.228494, 1.75953
2022-11-25 16:40:48.228635, 1.76442
2022-11-25 16:40:48.228743, 1.77908
2022-11-25 16:40:48.228827, 1.76442
2022-11-25 16:40:48.261839, 1.80352
2022-11-25 16:40:48.262060, 1.76442
2022-11-25 16:40:48.262185, 1.76931
2022-11-25 16:40:48.295060, 1.76931
2022-11-25 16:40:48.295246, 1.77908
2022-11-25 16:40:48.295357, 1.77908
2022-11-25 16:40:48.295450, 1.80352
2022-11-25 16:40:48.328455, 1.80352
2022-11-25 16:40:48.328654, 1.76442
2022-11-25 16:40:48.328805, 1.81329
2022-11-25 16:40:48.361700, 1.79863
2022-11-25 16:40:48.361852, 1.79374
2022-11-25 16:40:48.361968, 1.76442
2022-11-25 16:40:48.362059, 1.75953
2022-11-25 16:40:48.395049, 1.75953
2022-11-25 16:40:48.395194, 1.75464
2022-11-25 16:40:48.395290, 1.74976
2022-11-25 16:40:48.395377, 1.73509
2022-11-25 16:40:48.428448, 1.73998
2022-11-25 16:40:48.428617, 1.74487
2022-11-25 16:40:48.428755, 1.76931
2022-11-25 16:40:48.461591, 1.73998
2022-11-25 16:40:48.461768, 1.78397
2022-11-25 16:40:48.461855, 1.73998
2022-11-25 16:40:48.461966, 1.74976
2022-11-25 16:40:48.494964, 1.73998
2022-11-25 16:40:48.495107, 1.73509
2022-11-25 16:40:48.495242, 1.73998
2022-11-25 16:40:48.528144, 1.74487
2022-11-25 16:40:48.528273, 1.73021
2022-11-25 16:40:48.528394, 1.73021
2022-11-25 16:40:48.528479, 1.71554
2022-11-25 16:40:48.561598, 1.71554
2022-11-25 16:40:48.561777, 1.70577
2022-11-25 16:40:48.561964, 1.70088
2022-11-25 16:40:48.594770, 1.69599
2022-11-25 16:40:48.594921, 1.69110
2022-11-25 16:40:48.595075, 1.68622
2022-11-25 16:40:48.595176, 1.68133
2022-11-25 16:40:48.628076, 1.67644
2022-11-25 16:40:48.628285, 1.67644
2022-11-25 16:40:48.628483, 1.66667
2022-11-25 16:40:48.661392, 1.66667
2022-11-25 16:40:48.661586, 1.65689
2022-11-25 16:40:48.661679, 1.68133
2022-11-25 16:40:48.661816, 1.64712
2022-11-25 16:40:48.694784, 1.64223
2022-11-25 16:40:48.694972, 1.67155
2022-11-25 16:40:48.695104, 1.63734
2022-11-25 16:40:48.695219, 1.63245
2022-11-25 16:40:48.728006, 1.62757
2022-11-25 16:40:48.728191, 1.63245
2022-11-25 16:40:48.728350, 1.62268
2022-11-25 16:40:48.761384, 1.62757
2022-11-25 16:40:48.761594, 1.62268
2022-11-25 16:40:48.761722, 1.62268
2022-11-25 16:40:48.761987, 1.61779
2022-11-25 16:40:48.794725, 1.61290
2022-11-25 16:40:48.794884, 1.60313
2022-11-25 16:40:48.795010, 1.64712
2022-11-25 16:40:48.828139, 1.63734
2022-11-25 16:40:48.828403, 1.61290
2022-11-25 16:40:48.828569, 1.60802
2022-11-25 16:40:48.828745, 1.60313
2022-11-25 16:40:48.861363, 1.59824
2022-11-25 16:40:48.861594, 1.59335
2022-11-25 16:40:48.861815, 1.59335
2022-11-25 16:40:48.894614, 1.58358
2022-11-25 16:40:48.894804, 1.58847
2022-11-25 16:40:48.895019, 1.57380
2022-11-25 16:40:48.895194, 1.57869
2022-11-25 16:40:48.927871, 1.58847
2022-11-25 16:40:48.928102, 1.60313
2022-11-25 16:40:48.928239, 1.61779
2022-11-25 16:40:48.961247, 1.63734
2022-11-25 16:40:48.961522, 1.64712
2022-11-25 16:40:48.961692, 1.69599
2022-11-25 16:40:48.961852, 1.73998
2022-11-25 16:40:48.994655, 1.72043
2022-11-25 16:40:48.994899, 1.73509
2022-11-25 16:40:48.995062, 1.74976
2022-11-25 16:40:48.995217, 1.74487
2022-11-25 16:40:49.027978, 1.74976
2022-11-25 16:40:49.028211, 1.75953
2022-11-25 16:40:49.028371, 1.75953
2022-11-25 16:40:49.061238, 1.75953
2022-11-25 16:40:49.061481, 1.77908
2022-11-25 16:40:49.061640, 1.75464
2022-11-25 16:40:49.061794, 1.75464
2022-11-25 16:40:49.094598, 1.78397
2022-11-25 16:40:49.094842, 1.75953
2022-11-25 16:40:49.095015, 1.75953
2022-11-25 16:40:49.127820, 1.76931
2022-11-25 16:40:49.128052, 1.76931
2022-11-25 16:40:49.128209, 1.77419
2022-11-25 16:40:49.128361, 1.76931
2022-11-25 16:40:49.161122, 1.77908
2022-11-25 16:40:49.161278, 1.76931
2022-11-25 16:40:49.161392, 1.76931
2022-11-25 16:40:49.194427, 1.78886
2022-11-25 16:40:49.194702, 1.77419
2022-11-25 16:40:49.194934, 1.76931
2022-11-25 16:40:49.195137, 1.76442
2022-11-25 16:40:49.227824, 1.73509
