1.80352
1.79863
1.81818
1.79374
1.78886
1.78886
1.80841
1.77908
1.77419
1.77419
1.79374
1.76931
1.76442
1.76931
1.75953
1.76442
1.74976
1.77419
1.74487
1.74487
1.74487
1.73998
1.73509
1.74487
1.73021
1.72532
1.75464
1.73021
1.73021
1.72043
1.72043
1.74487
1.71554
1.72043
1.70577
1.74487
1.70088
1.70577
1.73021
1.70577
1.71554
1.72043
1.73021
1.77908
1.74976
1.75953
1.78886
1.76931
1.77419
1.77908
1.80352
1.77908
1.77908
1.78397
1.77908
1.79863
1.77908
1.77908
1.77908
1.80352
1.78397
1.77908
1.77908
1.77908
1.77908
1.81818
1.78886
1.77908
1.77908
1.77908
1.77908
1.79374
1.79374
1.77908
1.77419
1.77419
1.77419
1.80841
1.77419
1.77419
1.76442
1.77908
1.76442
1.76442
1.75953
1.78886
1.74976
1.74487
1.74487
1.74487
1.73998
1.73021
1.73998
1.72532
1.73021
1.72043
1.73509
1.72532
1.71554
1.71554
1.73021
1.71554
1.71554
1.74976
1.71065
1.71065
1.73509
1.69599
1.69110
1.71065
1.69110
1.69110
1.68622
1.68622
1.72532
1.69599
1.69110
1.72532
1.70577
1.71554
1.75464
1.73509
1.73998
1.75464
1.76442
1.75953
1.76442
1.76442
1.76931
1.77908
1.76442
1.75464
1.75464
1.75953
1.76442
1.78886
1.77419
1.75953
1.75953
1.75464
1.75953
1.79374
1.75953
1.74976
1.74976
1.74976
1.74976
1.77419
1.74976
1.74976
1.75464
1.78886
1.74976
1.74976
1.74487
1.74487
1.75464
1.74976
1.74487
1.74487
1.75464
1.75464
1.73998
1.73509
1.73998
1.73021
1.73509
1.73509
1.73998
1.75464
1.73509
1.73509
1.73509
1.73021
1.73021
1.72532
1.73509
1.72043
1.71554
1.72043
1.75464
1.71554
1.70577
1.71554
1.70577
1.70577
1.71065
1.69599
1.70088
1.70088
1.70577
1.69110
1.68622
1.68133
1.68133
1.69110
1.70088
1.70577
1.71554
1.74976
1.73998
1.74487
1.75953
1.79863
1.76442
1.78397
1.78397
1.76931
1.77419
1.76931
1.76931
1.77419
1.76442
1.77419
1.81329
1.80841
1.78397
1.77908
1.77908
1.78397
1.78397
1.77908
1.77908
1.77419
1.80841
1.78397
1.77908
1.76442
1.76931
1.76442
1.76442
1.76442
1.79374
1.76442
1.74976
1.75464
1.76442
1.77419
1.74976
1.74487
1.74487
1.76931
1.73509
1.73509
1.73509
1.72043
1.72532
1.73021
1.72043
1.71554
1.72043
1.72532
1.72532
1.72043
1.74976
1.71554
1.71065
1.73998
1.71554
1.70577
1.74487
1.70577
1.71065
1.70577
1.70088
1.70577
1.69599
1.69599
1.69599
1.69110
1.69110
1.69110
1.68622
1.68622
1.68133
1.70577
1.68622
1.69110
1.70088
1.70088
1.70577
1.74487
1.71554
1.73021
1.73998
1.74487
1.73509
1.73509
1.73509
1.74487
1.73509
1.73509
1.73021
1.77419
1.73021
1.73509
1.74487
1.73021
1.72532
1.73509
1.73021
1.75464
1.72043
1.72043
1.72532
1.71554
1.71554
1.71554
1.72043
1.71554
1.70577
1.71065
1.73998
1.71065
1.70577
1.70088
1.70577
1.69599
1.69110
1.69110
1.72043
1.68133
1.67644
1.71065
1.67155
1.66667
1.65689
1.65200
1.64712
1.64223
1.64223
1.62757
1.62268
1.62757
1.60802
1.60802
1.59824
1.59824
1.59335
1.58847
1.58358
1.57869
1.57869
1.59335
1.57380
1.56891
1.56403
1.56891
1.56891
1.56891
1.58358
1.56891
1.56891
1.56891
1.59335
1.57869
1.57380
1.58358
1.59824
1.59824
1.62757
1.61779
1.63245
1.63734
1.65200
1.64712
1.65200
1.68622
1.65689
1.66178
1.66178
1.66667
1.67155
1.67155
1.67644
1.68622
1.68622
1.69110
1.69110
1.73021
1.70577
1.68622
1.70088
1.73021
1.70577
1.72532
1.71065
1.70088
1.70088
1.70088
1.70088
1.69599
1.73021
1.72043
1.69110
1.69599
1.69599
1.69599
1.70088
1.68133
1.68622
1.69110
1.68622
1.69110
1.70088
1.68622
1.68622
1.69599
1.68622
1.68622
1.68133
1.69110
1.68133
1.69110
1.68133
1.68622
1.69599
1.67644
1.67644
1.67155
1.71065
1.67155
1.67644
1.67155
1.71554
1.68622
1.68622
1.70577
1.68133
1.68622
1.68622
1.68622
1.71065
1.69110
1.69599
1.70088
1.71554
1.73998
1.73998
1.74976
1.75464
1.76442
1.76931
1.77419
1.77419
1.77419
1.77419
1.76931
1.77419
1.80841
1.78886
1.77419
1.77908
1.77908
1.78886
1.77908
1.78397
1.78397
1.78397
1.78397
1.80841
1.81818
1.78886
1.78397
1.77908
1.77908
1.77908
1.78397
1.78397
1.79374
1.78886
1.77419
1.77419
1.77908
1.76931
1.76931
1.80352
1.75953
1.76931
1.77908
1.75953
1.74976
1.74976
1.78397
1.74487
1.74487
1.74976
1.73509
1.73021
1.73509
1.72043
1.72532
1.71554
1.71554
1.72043
1.72043
1.72532
1.71065
1.70577
1.73998
1.71065
1.70577
1.73998
1.69110
1.69110
1.70577
1.68133
1.68133
1.67155
1.66667
1.68622
1.65689
1.65200
1.65689
1.69599
1.66667
1.66667
1.67644
1.69599
1.70088
1.71065
1.74487
1.71554
1.72043
1.73998
1.72532
1.72532
1.72043
1.72532
1.72532
1.72532
1.74976
1.73509
1.73509
1.75464
1.74487
1.74976
1.73509
1.74976
1.75464
1.75464
1.78886
1.76442
1.75953
1.75464
1.75464
1.74976
1.75464
1.77908
1.75464
1.73998
1.73509
1.73509
1.72532
1.72532
1.71065
1.70577
1.70088
1.73021
1.69599
1.68622
1.68622
1.71065
1.67644
1.68133
1.70577
1.68133
1.67644
1.70088
1.67155
1.67155
1.67644
1.67644
1.68133
1.67644
1.67644
1.68133
1.67155
1.67644
1.67155
1.66667
1.66667
1.66178
1.65689
1.65689
1.65200
1.67644
1.64712
1.63734
1.63734
1.63734
1.64223
1.63245
1.63245
1.64223
1.65689
1.68622
1.67644
1.68622
1.73509
1.70577
1.71065
1.74976
1.72043
1.72043
1.74487
1.73021
1.73998
1.73509
1.73998
1.74487
1.74487
1.78397
1.74976
1.74976
1.75953
1.75464
1.75464
1.75464
1.75464
1.75464
1.75464
1.78397
1.77908
1.76442
1.74487
1.75953
1.75953
1.76442
1.76442
1.76442
1.78886
1.77908
1.77419
1.76442
1.75953
1.75464
1.75464
1.75953
1.75953
1.75953
1.74976
1.75464
1.73998
1.73509
1.73509
1.73509
1.73021
1.76442
1.72532
1.71065
1.72043
1.73509
1.71554
1.71065
1.70577
1.71065
1.70088
1.70088
1.70088
1.69599
1.69110
1.69599
1.72043
1.68622
1.68133
1.67155
1.67644
1.67155
1.66667
1.66178
1.66667
1.67155
1.67155
1.68133
1.68622
1.69110
1.72532
1.71554
1.72043
1.73021
1.73509
1.72532
1.75953
1.73021
1.73021
1.72532
1.75464
1.73021
1.72043
1.73509
1.72532
1.76442
1.73509
1.73021
1.72532
1.73509
1.73021
1.74487
1.73509
1.72532
1.72532
1.72043
1.72043
1.75464
1.72043
1.72043
1.71554
1.72043
1.72043
1.73021
1.72043
1.71554
1.72043
1.72532
1.72043
1.71554
1.71065
1.72043
1.71065
1.70577
1.70577
1.73998
1.70088
1.69599
1.70088
1.69599
1.69110
1.68622
1.69110
1.68622
1.68622
1.68133
1.71065
1.68133
1.68133
1.69110
1.67644
1.68133
1.68133
1.71065
1.68133
1.68133
1.68622
1.67644
1.67644
1.67644
1.68622
1.67155
1.67644
1.69110
1.68622
1.69599
1.70577
1.72043
1.74976
1.73509
1.73998
1.73998
1.75464
1.75953
1.74487
1.74487
1.73998
1.73998
1.73998
1.73509
1.74487
1.73998
1.77908
1.74487
1.73998
1.73998
1.73998
1.74487
1.73509
1.73509
1.73998
1.75464
1.73509
1.73021
1.73021
1.73021
1.73021
1.72532
1.75953
1.73998
1.72532
1.72043
1.72043
1.72532
1.71554
1.71065
1.70088
1.74487
1.69599
1.70088
1.70088
1.73021
1.69599
1.69599
1.69110
1.71554
1.69110
1.69599
1.71065
1.68622
1.68622
1.69110
1.72532
1.69110
1.69110
1.72532
1.69110
1.68622
1.69110
1.68622
1.68622
1.69110
1.69599
1.68622
1.68133
1.69110
1.70577
1.68133
1.67155
1.67644
1.69599
1.69110
1.69599
1.71065
1.72043
1.73509
1.74487
1.78397
1.76931
1.77419
1.78397
1.78886
1.78886
1.78886
1.78886
1.82307
1.79863
1.78886
1.78886
1.79374
1.79863
1.79374
1.79374
1.78886
1.80352
1.81818
1.80841
1.79863
1.79374
1.78886
1.78886
1.79374
1.78886
1.82307
1.80352
1.78886
1.78397
1.78397
1.78886
1.78397
1.82307
1.80352
1.77419
1.78886
1.76931
1.77419
1.76931
1.76442
1.76442
1.75464
1.75464
1.76442
1.74487
1.74487
1.73998
1.76931
1.73509
1.73509
1.73021
1.73509
1.72532
1.72043
1.73021
1.71554
1.72532
1.72043
1.71554
1.70577
1.74487
1.70577
1.71065
1.69110
1.70088
1.69110
1.68133
1.72043
1.68133
1.69110
1.67644
1.68133
1.67644
1.68133
1.68133
1.68133
1.70088
1.71065
1.72043
1.72532
1.77419
1.73998
1.74487
1.77908
1.73998
1.74487
1.74487
1.76931
1.73509
1.73509
1.73998
1.77419
1.73998
1.73998
1.73998
1.74976
1.73998
1.73021
1.73509
1.73509
1.73509
1.73998
1.73998
1.73509
1.73509
1.75953
1.73509
1.73021
1.73509
1.74487
1.73509
1.73021
1.72532
1.75464
1.72043
1.73021
1.71554
1.72532
1.71065
1.70577
1.70088
1.74487
1.70088
1.69599
1.70088
1.69599
1.69110
1.68622
1.69599
1.68622
1.68622
1.70088
1.67644
1.68133
1.67155
1.67155
1.67155
1.66667
1.66667
1.67155
1.66667
1.65689
1.67155
1.66178
1.65689
1.67155
1.64712
1.65689
1.66178
1.65200
1.65200
1.65200
1.65200
1.66667
1.67644
1.67155
1.67644
1.70577
1.70088
1.70577
1.72532
1.72532
1.72532
1.73021
1.75953
1.73021
1.73021
1.73509
1.73509
1.72532
1.72043
1.72043
1.72043
1.72043
1.72043
1.75953
1.73509
1.72532
1.72043
1.71554
1.71554
1.71554
1.71065
1.72043
1.71065
1.71065
1.71065
1.71554
1.71065
1.74976
1.71065
1.71065
1.71065
1.70577
1.70577
1.70088
1.72043
1.69599
1.69599
1.69599
1.72043
1.69110
1.68622
1.68133
1.71065
1.68133
1.67644
1.67644
1.71554
1.67644
1.64712
1.68622
1.66667
1.66667
1.67155
1.66667
1.65689
1.67644
1.65689
1.65200
1.67644
1.65689
1.65200
1.65689
1.64712
1.65200
1.64223
1.66178
1.63734
1.64223
1.63734
1.63734
1.64223
1.63734
1.63245
1.66178
1.63734
1.64223
1.66667
1.66667
1.67644
1.69110
1.73998
1.71065
1.72532
1.72532
1.75953
1.73021
1.72532
1.73021
1.73021
1.74487
1.70577
1.73998
1.73021
1.73021
1.72532
1.73021
1.73998
1.73021
1.73509
1.76931
1.74487
1.73509
1.73021
1.73021
1.72532
1.72532
1.75953
1.73021
1.72532
1.73021
1.73021
1.72043
1.74487
1.72532
1.71065
1.71065
1.71065
1.72043
1.71554
1.70088
1.72043
1.70088
1.70577
1.69599
1.73509
1.69599
1.69110
1.69110
1.70088
1.68622
1.68133
1.67644
1.71065
1.66667
1.65689
1.67644
1.65689
1.65689
1.65689
1.65200
1.65200
1.66178
1.65689
1.65689
1.69599
1.65689
1.64223
1.69110
1.66178
1.66178
1.68133
1.65200
1.64712
1.68133
1.64223
1.64223
1.67155
1.63734
1.64223
1.65200
1.65689
1.67155
1.69110
1.68622
1.69599
1.70577
1.71554
1.69599
1.69110
1.68622
1.67644
1.67644
1.67155
1.68622
1.66667
1.66667
1.67155
1.70577
1.67155
1.67155
1.71554
1.67644
1.66667
1.67644
1.67155
1.67644
1.67155
1.67155
1.66667
1.66667
1.66667
1.66178
1.65689
1.65689
1.66667
1.65200
1.65200
1.65200
1.66667
1.64712
1.64223
1.66178
1.64223
1.64223
1.63734
1.66667
1.63734
1.63245
1.67155
1.63734
1.63245
1.66667
1.63245
1.62757
1.63245
1.63734
1.63245
1.63245
1.64223
1.64223
1.64223
1.64712
1.64712
1.64223
1.64712
1.64712
1.64712
1.64712
1.64712
1.64223
1.66178
1.65200
1.64712
1.65689
1.65689
1.65200
1.65200
1.66667
1.65200
1.65689
1.67155
1.68622
1.69110
1.70577
1.70577
1.70577
1.71065
1.71554
1.72532
1.72532
1.74487
1.75464
1.74976
1.73509
1.73509
1.73021
1.73021
1.72043
1.73021
1.73509
1.73509
1.73509
1.72532
1.72532
1.72043
1.72043
1.74976
1.73509
1.73021
1.72532
1.72043
1.72532
1.72532
1.72532
1.71554
1.71554
1.72043
1.73998
1.71554
1.71065
1.70577
1.70577
1.69110
1.71554
1.69599
1.68622
1.69110
1.71065
1.69599
1.69110
1.69599
1.68622
1.68133
1.68622
1.70577
1.67644
1.67644
1.67644
1.67155
1.66667
1.66667
1.66178
1.66667
1.65689
1.68133
1.63734
1.63734
1.62757
1.62268
1.62757
1.61290
1.60313
1.60313
1.59824
1.60313
1.60313
1.58847
1.58358
1.58358
1.59824
1.60313
1.61290
1.62757
1.63245
1.66178
1.64712
1.65200
1.69599
1.66667
1.66667
1.66178
1.65689
1.66178
1.69110
1.65689
1.65689
1.69110
1.65689
1.66178
1.65689
1.66178
1.65689
1.66178
1.66667
1.66667
1.66178
1.69110
1.66178
1.66667
1.69110
1.66667
1.66667
1.67155
1.69110
1.66667
1.66178
1.67155
1.66178
1.66178
1.65689
1.66178
1.65689
1.65200
1.64712
1.64223
1.65200
1.64223
1.64223
1.67155
1.63734
1.63734
1.63245
1.63734
1.62757
1.63245
1.63245
1.62268
1.62757
1.61779
1.62757
1.61779
1.61779
1.60313
1.65200
1.61290
1.60802
1.61779
1.60802
1.61290
1.59824
1.62268
1.60313
1.59824
1.60802
1.64712
1.61290
1.61779
1.65689
1.63734
1.64223
1.68133
1.66667
1.67155
1.68622
1.67155
1.68622
1.68622
1.68133
1.67644
1.67644
1.68133
1.69110
1.67644
1.66178
1.67644
1.68133
1.71554
1.69110
1.68622
1.68133
1.68133
1.68622
1.68133
1.67644
1.67644
1.67155
1.67155
1.68622
1.67644
1.67644
1.66667
1.67155
1.67155
1.66178
1.69599
1.66667
1.66178
1.65689
1.66178
1.65200
1.68622
1.64712
1.64223
1.63245
1.66178
1.63734
1.63734
1.64223
1.67155
1.63245
1.62757
1.64223
1.63734
1.61779
1.62268
1.66178
1.62268
1.61779
1.62268
1.61779
1.61779
1.61779
1.61290
1.59824
1.61290
1.65200
1.61290
1.60802
1.63245
1.60802
1.60313
1.62757
1.61779
1.62268
1.67155
1.64712
1.65200
1.70088
1.67155
1.68133
1.69599
1.72043
1.69110
1.69599
1.73021
1.70088
1.69599
1.69110
1.69110
1.69110
1.69110
1.69599
1.73021
1.73021
1.71554
1.69110
1.70088
1.69599
1.69599
1.69599
1.69599
1.69599
1.69110
1.69599
1.68622
1.69110
1.69110
1.72043
1.69110
1.69599
1.68133
1.67644
1.68622
1.68133
1.68133
1.71554
1.68133
1.67155
1.70577
1.66667
1.65200
1.66667
1.69110
1.66178
1.65689
1.67644
1.65689
1.65200
1.65689
1.68622
1.64712
1.64223
1.67155
1.64223
1.64223
1.67644
1.63734
1.63734
1.66667
1.63734
1.63245
1.63245
1.67155
1.63245
1.62757
1.66178
1.63245
1.62757
1.64223
1.63245
1.63734
1.65689
1.65689
1.66667
1.67644
1.68622
1.69110
1.70088
1.71554
1.70577
1.70577
1.70577
1.71065
1.71065
1.73998
1.73509
1.71554
1.71554
1.71065
1.70577
1.70577
1.71065
1.71554
1.71554
1.70577
1.74976
1.74487
1.72043
1.71065
1.72043
1.72043
1.71554
1.71554
1.71065
1.70577
1.74976
1.73998
1.73021
1.71065
1.70577
1.70577
1.70088
1.70088
1.71554
1.69599
1.69110
1.68622
1.68622
1.67644
1.66667
1.67644
1.65689
1.66667
1.65689
1.66178
1.65689
1.66667
1.66667
1.65689
1.65200
1.67644
1.64712
1.64712
1.65200
1.64712
1.64223
1.64712
1.64223
1.64712
1.63734
1.63245
1.65689
1.63245
1.63245
1.62757
1.63245
1.63245
1.63734
1.63734
1.64223
1.65689
1.66178
1.68133
1.68622
1.69599
1.70577
1.70577
1.71065
1.70577
1.74487
1.71065
1.72043
1.69599
1.70577
1.70088
1.73509
1.71065
1.70088
1.70088
1.70088
1.70577
1.70577
1.70577
1.70577
1.73509
1.70577
1.70088
1.70088
1.69599
1.69599
1.69599
1.69599
1.73021
1.69599
1.69110
1.69110
1.73021
1.68622
1.68622
1.68622
1.67644
1.67644
1.67644
1.67644
1.70088
1.66667
1.66667
1.66667
1.69599
1.66178
1.65689
1.66667
1.65200
1.65689
1.66667
1.65200
1.64712
1.67644
1.63734
1.64712
1.67644
1.64223
1.64223
1.64712
1.63734
1.63734
1.63734
1.64712
1.63245
1.63245
1.63734
1.63245
1.63245
1.63245
1.67155
1.64712
1.64223
1.68133
1.67644
1.68133
1.73509
1.69599
1.70088
1.71065
1.70577
1.70577
1.71065
1.70577
1.69599
1.70088
1.70577
1.70577
1.70577
1.70088
1.71065
1.73509
1.72043
1.70577
1.72043
1.70577
1.71065
1.71065
1.72043
1.73998
1.71554
1.70088
1.69110
1.69599
1.69599
1.69599
1.69599
1.69110
1.72532
1.69110
1.69110
1.70088
1.68622
1.68622
1.68133
1.68622
1.67644
1.67644
1.67155
1.67644
1.66667
1.65689
1.66178
1.67644
1.65689
1.65689
1.66667
1.64712
1.65200
1.65200
1.64712
1.64712
1.65200
1.64223
1.64223
1.64223
1.66178
1.63245
1.63734
1.63734
1.63245
1.63245
1.63245
1.63734
1.62757
1.62757
1.64712
1.62757
1.62757
1.64223
1.64223
1.65689
1.66667
1.67644
1.69110
1.69110
1.71065
1.70088
1.70088
1.70088
1.69599
1.69110
1.69599
1.71554
1.70577
1.70088
1.70088
1.70577
1.70088
1.70577
1.70577
1.70577
1.70577
1.70577
1.70577
1.73021
1.73509
1.71065
1.71065
1.70088
1.70088
1.70088
1.69599
1.69110
1.69599
1.69110
1.70088
1.69110
1.69110
1.68622
1.68622
1.68133
1.68133
1.69110
1.67155
1.67644
1.67155
1.70577
1.66667
1.66178
1.67155
1.68622
1.65689
1.65689
1.66178
1.68622
1.65200
1.64712
1.65689
1.68133
1.64712
1.64223
1.64223
1.63734
1.64223
1.67644
1.63734
1.63245
1.66667
1.63245
1.62757
1.65200
1.62757
1.62268
1.65200
1.63734
1.63734
1.63245
1.63245
1.66178
1.65200
1.65689
1.66667
1.71554
1.69599
1.70088
1.72532
1.71065
1.71554
1.71554
1.70088
1.71065
1.70577
1.71554
1.71554
1.71065
1.71065
1.71554
1.72532
1.71554
1.71554
1.73021
1.74487
1.75464
1.75464
1.73021
1.73021
1.72043
1.72043
1.71065
1.71065
1.71065
1.70577
1.70577
1.72043
1.70577
1.69599
1.69599
1.70088
1.69599
1.69110
1.69110
1.69599
1.68622
1.69599
1.69599
1.70577
1.70088
1.69599
1.70088
1.70577
1.69599
1.68622
1.68622
1.71554
1.68133
1.67644
1.71065
1.67155
1.66667
1.67155
1.65689
1.65689
1.65200
1.68622
1.65689
1.65689
1.66178
1.66178
1.65689
1.66667
1.66178
1.66178
1.69599
1.65689
1.64712
1.65689
1.65200
1.65200
1.67155
1.64712
1.65200
1.69110
1.66178
1.66667
1.69110
1.69110
1.70088
1.72532
1.71065
1.72043
1.72043
1.72043
1.73021
1.71554
1.72043
1.72043
1.72043
1.71554
1.71554
1.72043
1.71554
1.72532
1.72043
1.74976
1.73021
1.72532
1.73021
1.72532
1.72043
1.72043
1.72043
1.71554
1.72043
1.72043
1.72043
1.73509
1.72532
1.72532
1.72043
1.71554
1.71554
1.71065
1.73998
1.70577
1.70577
1.70088
1.73021
1.69110
1.68622
1.71065
1.69110
1.67155
1.69599
1.68622
1.67644
1.68622
1.67644
1.67644
1.68133
1.70577
1.67155
1.67644
1.69110
1.66667
1.66667
1.66667
1.66178
1.66178
1.66178
1.65200
1.65689
1.65200
1.66178
1.65200
1.68622
1.65200
1.65200
1.64712
1.64712
1.65689
1.64223
1.63734
1.64712
1.64223
1.64223
1.66667
1.66178
1.67155
1.68622
1.69599
1.71065
1.75464
1.71554
1.72043
1.73509
1.72532
1.72043
1.72043
1.72043
1.71554
1.71554
1.72043
1.71554
1.72043
1.71554
1.72043
1.71554
1.76442
1.73998
1.72532
1.72532
1.72043
1.72043
1.72043
1.71554
1.71554
1.71554
1.73509
1.72043
1.72043
1.71065
1.71065
1.70577
1.70577
1.73998
1.71554
1.71065
1.70088
1.70088
1.69110
1.69110
1.69110
1.71554
1.68133
1.69599
1.68622
1.68133
1.67644
1.68133
1.67155
1.66667
1.67155
1.66667
1.66667
1.66178
1.69599
1.66178
1.65200
1.67644
1.65200
1.65200
1.65200
1.65200
1.65200
1.64712
1.64223
1.67644
1.64223
1.64712
1.66667
1.63734
1.63734
1.65689
1.63734
1.63245
1.65200
1.63734
1.65200
1.65689
1.66667
1.67644
1.68133
1.67644
1.69110
1.68622
1.70577
1.68622
1.69110
1.68622
1.68622
1.69110
1.68622
1.69599
1.69110
1.70088
1.73509
1.74487
1.72043
1.72043
1.70577
1.71065
1.71554
1.71065
1.71065
1.73509
1.71554
1.72043
1.71065
1.71065
1.71554
1.70577
1.71554
1.70577
1.70577
1.70577
1.71554
1.71065
1.69110
1.68622
1.69599
1.69110
1.68622
1.68133
1.69110
1.67644
1.68133
1.70088
1.67155
1.66667
1.67155
1.66667
1.66178
1.66667
1.66178
1.65689
1.65200
1.65200
1.64223
1.64223
1.64712
1.63734
1.66178
1.62757
1.63245
1.63245
1.63245
1.62268
1.65689
1.62757
1.62757
1.62757
1.62757
1.65200
1.63734
1.64223
1.67644
1.66178
1.67644
1.72043
1.69599
1.69599
1.71065
1.70088
1.70577
1.70088
1.70577
1.70577
1.70088
1.70088
1.69599
1.69599
1.71554
1.71065
1.69599
1.70088
1.70088
1.69599
1.70088
1.70088
1.69599
1.70088
1.69599
1.72532
1.70088
1.69599
1.69110
1.69599
1.69599
1.69110
1.69110
1.72532
1.71065
1.70088
1.69110
1.68133
1.69110
1.68133
1.67644
1.67644
1.70577
1.67155
1.67155
1.66667
1.68133
1.66667
1.65689
1.66667
1.70577
1.65689
1.65200
1.65689
1.67644
1.65200
1.64712
1.65689
1.64712
1.64712
1.64712
1.63734
1.64223
1.64223
1.63734
1.64223
1.63734
1.63245
1.63245
1.63734
1.62757
1.63245
1.64712
1.63734
1.64712
1.65200
1.66178
1.67644
1.68622
1.69110
1.69599
1.71554
1.70577
1.70577
1.70577
1.70577
1.70088
1.70088
1.74487
1.73021
1.71065
1.70577
1.70577
1.70577
1.70577
1.70577
1.70577
1.70577
1.70577
1.72532
1.70577
1.70088
1.70577
1.70088
1.70088
1.70088
1.69599
1.70088
1.73021
1.70577
1.69599
1.69599
1.69110
1.69110
1.69110
1.68133
1.71554
1.68133
1.67644
1.67155
1.67155
1.66178
1.66667
1.69599
1.66178
1.66178
1.67644
1.66178
1.65689
1.67644
1.65689
1.65689
1.67644
1.65200
1.65200
1.65200
1.63734
1.64712
1.64223
1.65200
1.64223
1.67644
1.63734
1.64712
1.64223
1.64223
1.64223
1.63734
1.63245
1.63734
1.63734
1.64223
1.65689
1.65689
1.66667
1.69110
1.69110
1.70577
1.71065
1.71554
1.72043
1.71554
1.71554
1.74976
1.72532
1.71554
1.71065
1.71065
1.71554
1.71554
1.71554
1.72043
1.72043
1.72532
1.72043
1.72532
1.72043
1.75464
1.75464
1.74976
1.74976
1.73509
1.72043
1.72043
1.71554
1.72043
1.71065
1.71065
1.71554
1.71065
1.72532
1.71554
1.71065
1.70088
1.70088
1.72532
1.69599
1.69110
1.70088
1.68622
1.68622
1.68622
1.68622
1.67644
1.68133
1.71554
1.67644
1.67644
1.67644
1.67155
1.67155
1.67644
1.67155
1.66667
1.67155
1.70577
1.66667
1.66667
1.67155
1.67155
1.66178
1.65689
1.69110
1.65689
1.64712
1.67155
1.65200
1.64223
1.65200
1.64712
1.65200
1.67155
1.66667
1.67644
1.69599
1.70088
1.70577
1.72043
1.72043
1.72532
1.72532
1.73998
1.75464
1.72532
1.72043
1.72043
1.72043
1.72043
1.72043
1.72043
1.72043
1.72532
1.72532
1.72532
1.72043
1.72532
1.72043
1.72532
1.75464
1.73509
1.72043
1.71554
1.71065
1.70577
1.71065
1.71554
1.71065
1.70577
1.72532
1.72043
1.70088
1.74487
1.70088
1.70088
1.70088
1.72043
1.69110
1.69110
1.70088
1.69110
1.68622
1.69110
1.68622
1.68133
1.67644
1.67644
1.67644
1.68133
1.67155
1.66667
1.67155
1.66667
1.66667
1.67155
1.69110
1.66667
1.66667
1.67155
1.66178
1.65689
1.67155
1.66178
1.65689
1.69599
1.66178
1.64712
1.65689
1.65689
1.66178
1.67155
1.66667
1.66178
1.70577
1.67644
1.67644
1.70088
1.70577
1.72532
1.73998
1.74487
1.74487
1.73998
1.73509
1.73021
1.72532
1.72532
1.72532
1.75464
1.74976
1.72532
1.72532
1.73021
1.72043
1.72532
1.73021
1.73021
1.73021
1.73021
1.72532
1.72043
1.72043
1.73021
1.72043
1.70088
1.69599
1.70577
1.70088
1.70088
1.70088
1.70088
1.68622
1.69110
1.72043
1.68622
1.68133
1.72043
1.68133
1.67644
1.68133
1.70577
1.66667
1.66178
1.65200
1.65200
1.65200
1.64712
1.63734
1.65689
1.64223
1.64223
1.65689
1.64223
1.64712
1.68622
1.65689
1.65689
1.65200
1.64712
1.67644
1.65689
1.65689
1.66667
1.65689
1.66178
1.70088
1.66667
1.67155
1.70088
1.69110
1.71554
1.73021
1.73509
1.74487
1.74976
1.75464
1.74976
1.74976
1.74976
1.73509
1.72532
1.73021
1.73021
1.76442
1.74487
1.73509
1.73998
1.73021
1.73021
1.73509
1.73509
1.73509
1.73509
1.73021
1.73021
1.73021
1.73021
1.74487
1.72532
1.72043
1.72043
1.72043
1.71554
1.71554
1.75953
1.71554
1.71554
1.71065
1.73998
1.70577
1.69599
1.70577
1.69599
1.69599
1.69110
1.71065
1.68622
1.68133
1.68622
1.67644
1.67155
1.68133
1.67155
1.67155
1.67155
1.67155
1.68133
1.66667
1.67644
1.66667
1.66667
1.66178
1.66667
1.66178
1.66178
1.69599
1.65689
1.65689
1.65689
1.65689
1.66178
1.70088
1.68133
1.70088
1.71554
1.72532
1.74487
1.74487
1.74487
1.74976
1.73998
1.74487
1.73021
1.74487
1.73998
1.73998
1.73509
1.73509
1.73998
1.73998
1.73509
1.77908
1.75464
1.75953
1.75953
1.74487
1.73021
1.73021
1.73021
1.73021
1.72532
1.72532
1.74976
1.72532
1.72043
1.73021
1.71554
1.71554
1.71065
1.74487
1.71065
1.71065
1.71554
1.70577
1.70577
1.69599
1.69599
1.69110
1.68622
1.68622
1.67644
1.70088
1.67644
1.67155
1.67644
1.66667
1.66667
1.69599
1.66178
1.66178
1.65200
1.65689
1.66667
1.65689
1.65200
1.69110
1.65200
1.65200
1.65689
1.63734
1.64712
1.63734
1.64223
1.63734
1.64223
1.64223
1.64712
1.69599
1.67155
1.68133
1.70088
1.72043
1.72532
1.73509
1.73998
1.73998
1.73509
1.73021
1.76931
1.75953
1.75953
1.73509
1.72532
1.72043
1.72043
1.72043
1.71554
1.71554
1.72532
1.73509
1.73021
1.75464
1.74976
1.73998
1.73021
1.71554
1.70577
1.70577
1.70577
1.71554
1.71065
1.71554
1.70577
1.70577
1.70088
1.73509
1.69599
1.69599
1.69599
1.68622
1.68133
1.68133
1.67644
1.67644
1.67155
1.67644
1.66667
1.66178
1.66178
1.65689
1.67644
1.66178
1.65689
1.67155
1.65200
1.65200
1.65200
1.64712
1.66178
1.64223
1.64223
1.64223
1.63245
1.64223
1.63734
1.63734
1.63245
1.66667
1.62757
1.62757
1.63734
1.62757
1.62757
1.67155
1.64712
1.66178
1.67644
1.69599
1.71065
1.74976
1.71554
1.72043
1.75953
1.72043
1.71065
1.71065
1.71065
1.71065
1.70577
1.71065
1.71065
1.73509
1.72532
1.72043
1.71554
1.72043
1.71554
1.71554
1.71554
1.72043
1.73998
1.72043
1.71554
1.70577
1.70577
1.70088
1.69599
1.69599
1.69599
1.69599
1.70088
1.69110
1.69110
1.68622
1.69599
1.69110
1.68133
1.68622
1.67644
1.67644
1.68133
1.71065
1.67155
1.66667
1.66667
1.67155
1.65689
1.69599
1.65689
1.66178
1.65689
1.65200
1.67155
1.65200
1.64712
1.65200
1.63734
1.64712
1.66667
1.64223
1.64223
1.66178
1.64223
1.65689
1.67155
1.68133
1.69110
1.73021
1.71554
1.73021
1.73509
1.73509
1.73509
1.73509
1.73509
1.73021
1.73021
1.72532
1.72532
1.72532
1.72043
1.72532
1.72532
1.74487
1.73998
1.73509
1.72532
1.72532
1.72532
1.72532
1.72043
1.71554
1.71065
1.71554
1.71554
1.71554
1.74976
1.71554
1.71065
1.71065
1.71554
1.70577
1.70577
1.72043
1.70577
1.69599
1.69110
1.72532
1.69110
1.69599
1.72532
1.68133
1.69110
1.71065
1.68133
1.67644
1.66667
1.71065
1.67155
1.66667
1.70577
1.66667
1.66667
1.65689
1.65689
1.66667
1.65689
1.65689
1.66178
1.65689
1.65200
1.65689
1.65689
1.65200
1.66667
1.68622
1.69110
1.70088
1.74487
1.72532
1.73509
1.75464
1.74487
1.74487
1.73998
1.73509
1.73509
1.73021
1.72532
1.72532
1.72043
1.72532
1.72532
1.73021
1.72532
1.73021
1.72532
1.72532
1.76442
1.73021
1.72043
1.72043
1.71554
1.71554
1.71554
1.71554
1.71554
1.72043
1.71554
1.71554
1.71065
1.71065
1.71065
1.73998
1.70577
1.70088
1.71554
1.69599
1.69110
1.69599
1.69110
1.69110
1.69110
1.68622
1.67644
1.67155
1.67644
1.67644
1.67644
1.67155
1.67155
1.67644
1.66178
1.66667
1.67644
1.66667
1.66667
1.66667
1.67155
1.66178
1.67644
1.66178
1.66178
1.67155
1.65689
1.65689
1.67644
1.67644
1.69110
1.70577
1.72532
1.73998
1.74487
1.74976
1.74976
1.74487
1.74487
1.74487
1.73998
1.73509
1.73021
1.76442
1.73998
1.73509
1.73998
1.73021
1.73509
1.73509
1.73021
1.73021
1.72532
1.72532
1.72532
1.72532
1.72532
1.73509
1.75953
1.73021
1.73509
1.72043
1.72043
1.73509
1.71554
1.71554
1.71065
1.70577
1.70577
1.70577
1.70088
1.69110
1.69599
1.73021
1.69110
1.68133
1.71554
1.67644
1.67155
1.70577
1.67155
1.67155
1.67155
1.67155
1.66667
1.70088
1.66667
1.66667
1.66178
1.65689
1.65689
1.65689
1.65689
1.65689
1.65200
1.67644
1.65200
1.65200
1.64712
1.65200
1.68133
1.67644
1.69110
1.70088
1.72043
1.73021
1.76931
1.74976
1.77419
1.76931
1.75464
1.74487
1.74487
1.73509
1.73509
1.73998
1.73998
1.73509
1.73509
1.73509
1.73998
1.73998
1.73998
1.74487
1.77419
1.75953
1.75953
1.74976
1.74487
1.73509
1.72532
1.72532
1.72532
1.72043
1.72532
1.72043
1.72043
1.75464
1.71554
1.71554
1.71065
1.70577
1.70088
1.70088
1.69599
1.69599
1.69599
1.68622
1.68622
1.68133
1.68133
1.67155
1.68622
1.66667
1.66667
1.67644
1.66667
1.67155
1.66178
1.65689
1.67155
1.66178
1.65689
1.68622
1.66667
1.65689
1.66667
1.66667
1.65200
1.67155
1.65200
1.64712
1.65200
1.64712
1.66178
1.66178
1.66667
1.67644
1.69110
1.70088
1.71554
1.72532
1.73509
1.73509
1.73509
1.73509
1.73509
1.73021
1.73021
1.73509
1.76442
1.74487
1.73021
1.73021
1.72532
1.73509
1.73509
1.73998
1.73998
1.73998
1.73998
1.73998
1.73509
1.76931
1.73998
1.73509
1.73509
1.73021
1.72043
1.73021
1.72532
1.73021
1.72532
1.76442
1.73509
1.72043
1.72043
1.71554
1.71065
1.71065
1.70577
1.69599
1.71554
1.69599
1.69110
1.72532
1.68622
1.68133
1.69110
1.68133
1.68133
1.69110
1.68133
1.67644
1.68622
1.67644
1.67644
1.70577
1.66667
1.68133
1.67155
1.66667
1.67155
1.66667
1.66667
1.66667
1.65689
1.65200
1.65689
1.65689
1.65689
1.65200
1.65689
1.67155
1.66667
1.68133
1.69599
1.70088
1.71554
1.72043
1.73021
1.73509
1.73021
1.73021
1.72043
1.72043
1.71554
1.71065
1.71554
1.70577
1.71065
1.74487
1.72043
1.72043
1.72532
1.72532
1.72532
1.72532
1.72532
1.72532
1.72532
1.72043
1.72532
1.72043
1.72532
1.72532
1.72532
1.72532
1.72532
1.71554
1.72532
1.72043
1.73021
1.71554
1.70577
1.70577
1.70577
1.70577
1.69599
1.70577
1.73509
1.69599
1.69110
1.70577
1.68622
1.67644
1.68133
1.68133
1.67644
1.67644
1.67644
1.67644
1.67155
1.66667
1.67155
1.67155
1.66667
1.65689
1.68133
1.65200
1.65689
1.65689
1.65200
1.65200
1.65689
1.65200
1.64223
1.66178
1.64223
1.63245
1.67155
1.63734
1.65200
1.63734
1.65200
1.65200
1.66178
1.68133
1.68622
1.71065
1.71554
1.72532
1.73509
1.73998
1.73998
1.73509
1.73509
1.76931
1.74487
1.73509
1.72532
1.73509
1.72043
1.72043
1.72043
1.72532
1.72532
1.72532
1.72043
1.72043
1.71554
1.72043
1.71554
1.75464
1.72532
1.73509
1.72532
1.72043
1.72043
1.71065
1.71554
1.71065
1.70577
1.71065
1.70577
1.69599
1.69110
1.69599
1.69110
1.68622
1.68622
1.72043
1.68133
1.67644
1.70577
1.67155
1.67155
1.70577
1.67155
1.66178
1.66178
1.66178
1.66178
1.65689
1.64712
1.66178
1.65689
1.65200
1.68622
1.64712
1.65689
1.64712
1.64223
1.64712
1.64712
1.64712
1.64223
1.63734
1.67155
1.63734
1.63734
1.63245
1.62757
1.66667
1.63734
1.64712
1.66178
1.67644
1.72043
1.71065
1.71554
1.71554
1.72043
1.73998
1.71065
1.71554
1.71554
1.71065
1.71065
1.71554
1.71065
1.70577
1.70577
1.70577
1.70577
1.70577
1.70577
1.71065
1.70577
1.73021
1.74487
1.71554
1.70088
1.70577
1.70577
1.70577
1.70577
1.73998
1.70577
1.70088
1.70088
1.70088
1.70088
1.69599
1.71554
1.69110
1.68622
1.71554
1.68622
1.68133
1.70577
1.68133
1.67644
1.70577
1.67155
1.66667
1.66667
1.66178
1.66178
1.68622
1.65689
1.66178
1.69110
1.65689
1.65689
1.67155
1.65200
1.65200
1.65689
1.65200
1.64712
1.64223
1.64223
1.63734
1.63734
1.64223
1.64712
1.64223
1.63734
1.66667
1.63734
1.67644
1.66178
1.67644
1.71065
1.70577
1.72043
1.75953
1.73021
1.73021
1.73021
1.72532
1.72532
1.72043
1.71554
1.71554
1.71554
1.71065
1.71065
1.71554
1.71065
1.71065
1.71554
1.71554
1.72043
1.76442
1.72043
1.71554
1.70577
1.70577
1.70577
1.70577
1.71065
1.70088
1.72532
1.73509
1.71554
1.70577
1.70088
1.72532
1.69110
1.69110
1.70577
1.68622
1.67644
1.68622
1.67155
1.67155
1.67644
1.66178
1.66667
1.68622
1.67155
1.67155
1.67155
1.65689
1.69110
1.65689
1.64712
1.68133
1.64712
1.64712
1.67644
1.64712
1.64223
1.68133
1.64712
1.64223
1.64223
1.64223
1.65689
1.63734
1.63734
1.66667
1.63245
1.63245
1.62757
1.62757
1.64223
1.63734
1.64712
1.68133
1.66667
1.67644
1.69599
1.71065
1.72532
1.72043
1.72532
1.72532
1.72532
1.72532
1.71554
1.71554
1.71554
1.71554
1.71065
1.71065
1.72043
1.72043
1.72532
1.72532
1.72532
1.72043
1.72532
1.71554
1.71554
1.71065
1.73509
1.72043
1.71065
1.71554
1.74976
1.72532
1.71065
1.71065
1.70088
1.70577
1.70088
1.70088
1.70088
1.69599
1.73509
1.69110
1.68133
1.71554
1.68133
1.68133
1.68622
1.67644
1.67155
1.67155
1.68133
1.65689
1.67155
1.66178
1.65689
1.66178
1.65689
1.65689
1.66178
1.65200
1.64712
1.68133
1.64712
1.64223
1.64712
1.63734
1.64223
1.63734
1.63734
1.66178
1.63245
1.63245
1.63245
1.61779
1.65200
1.63245
1.63245
1.63245
1.63734
1.65689
1.63734
1.65200
1.67155
1.68622
1.70577
1.71554
1.72043
1.73509
1.73021
1.72532
1.72532
1.72043
1.71554
1.71554
1.72043
1.71554
1.71554
1.71554
1.72043
1.71554
1.71065
1.71554
1.72043
1.72043
1.72043
1.72043
1.71554
1.71554
1.71065
1.71065
1.70577
1.71065
1.74487
1.74487
1.73021
1.71065
1.70577
1.70577
1.70088
1.70088
1.70088
1.69599
1.70088
1.70088
1.69110
1.68622
1.69599
1.68133
1.67644
1.68133
1.70577
1.67644
1.67155
1.69599
1.66667
1.66667
1.67644
1.66667
1.65689
1.68133
1.65689
1.66178
1.69110
1.65689
1.64712
1.68622
1.64712
1.65200
1.64712
1.64223
1.65200
1.64223
1.64223
1.63734
1.63734
1.64223
1.63245
1.62757
1.63245
1.63245
1.62757
1.65689
1.63734
1.64712
1.69599
1.67155
1.68133
1.73021
1.71065
1.72043
1.73021
1.72532
1.72043
1.72532
1.71554
1.72043
1.71554
1.71065
1.74976
1.72532
1.72532
1.72532
1.72532
1.72043
1.72043
1.72532
1.72532
1.73021
1.73021
1.72043
1.72043
1.71554
1.71554
1.71065
1.71554
1.71065
1.71065
1.71554
1.71554
1.71554
1.73998
1.70577
1.70577
1.70577
1.70088
1.69599
1.69110
1.69599
1.69110
1.69599
1.68133
1.69599
1.68133
1.67644
1.68622
1.67644
1.67155
1.67644
1.66667
1.66667
1.67644
1.66667
1.66178
1.68133
1.65689
1.66178
1.65689
1.65200
1.64712
1.65200
1.64712
1.66667
1.65200
1.64712
1.67644
1.63734
1.63734
1.63245
1.63245
1.63245
1.63734
1.63245
1.66667
1.64223
1.66667
1.67155
1.68133
1.73021
1.71065
1.72043
1.72532
1.72532
1.73021
1.73021
1.72532
1.72532
1.71554
1.71554
1.71554
1.72043
1.71554
1.72043
1.72532
1.75953
1.76442
1.76442
1.74487
1.74976
1.73021
1.72043
1.72043
1.72532
1.72043
1.72043
1.72532
1.71554
1.71554
1.71554
1.71554
1.73021
1.71554
1.72043
1.73021
1.71554
1.71065
1.70088
1.69599
1.69110
1.72532
1.68622
1.68133
1.68133
1.68133
1.67155
1.70577
1.67644
1.67644
1.67155
1.67155
1.66667
1.67155
1.65689
1.66178
1.68622
1.65689
1.66178
1.65689
1.65689
1.65200
1.66178
1.64712
1.68133
1.64223
1.64223
1.64223
1.63245
1.64223
1.64223
1.64223
1.65689
1.65200
1.65689
1.67155
1.68622
1.71554
1.73021
1.72043
1.73998
1.73998
1.74487
1.73998
1.73998
1.73509
1.73021
1.73021
1.73021
1.72532
1.76442
1.74487
1.74976
1.75953
1.75464
1.73998
1.73998
1.74487
1.73998
1.74487
1.73509
1.73509
1.73021
1.72043
1.72532
1.72532
1.72532
1.72043
1.72043
1.72532
1.72532
1.71554
1.71554
1.73998
1.70577
1.70577
1.73509
1.70088
1.69599
1.71554
1.69599
1.69110
1.71065
1.68622
1.68622
1.69599
1.68133
1.68133
1.68622
1.67644
1.68133
1.70088
1.67155
1.66667
1.67644
1.66667
1.67155
1.66178
1.65689
1.69110
1.65689
1.66178
1.65689
1.64712
1.66667
1.65200
1.64712
1.68133
1.63734
1.64223
1.64223
1.63734
1.64712
1.65200
1.66178
1.67644
1.69110
1.73509
1.71554
1.73509
1.75464
1.74487
1.74976
1.78397
1.76442
1.74976
1.74487
1.74487
1.74487
1.74487
1.74976
1.76931
1.78397
1.74976
1.75464
1.75464
1.75464
1.75953
1.75464
1.74976
1.74976
1.78397
1.75953
1.75953
1.75464
1.74487
1.74487
1.73998
1.73998
1.73509
1.73509
1.73509
1.73998
1.72532
1.73021
1.72532
1.71554
1.72043
1.74487
1.71554
1.71065
1.73509
1.70577
1.69599
1.69599
1.69599
1.69599
1.69110
1.69110
1.70577
1.68622
1.68622
1.68133
1.68133
1.71065
1.67644
1.68133
1.67155
1.66667
1.68133
1.66667
1.66178
1.66667
1.66667
1.67155
1.65689
1.65200
1.65689
1.64712
1.65200
1.65689
1.66178
1.64712
1.67644
1.64223
1.65689
1.65689
1.67644
1.68133
1.70088
1.71554
1.72532
1.73509
1.76442
1.74487
1.74976
1.74487
1.74487
1.73998
1.73998
1.73998
1.73998
1.73998
1.74487
1.73998
1.74976
1.74976
1.75953
1.75464
1.75464
1.75464
1.75464
1.75464
1.73509
1.73509
1.74487
1.74487
1.74487
1.73998
1.73998
1.74487
1.73998
1.73998
1.74487
1.73509
1.73509
1.73021
1.73021
1.72043
1.76442
1.71554
1.71554
1.71554
1.71065
1.71065
1.70088
1.70577
1.69599
1.70088
1.69110
1.69110
1.72043
1.69110
1.69110
1.68622
1.68133
1.67644
1.67644
1.70577
1.67644
1.67644
1.67155
1.66667
1.66178
1.65689
1.67644
1.64712
1.66178
1.65200
1.65200
1.65200
1.64223
1.68622
1.64223
1.67155
1.63734
1.64223
1.63734
1.63245
1.63734
1.63245
1.64223
1.64223
1.69599
1.66667
1.72043
1.69599
1.71554
1.73021
1.73509
1.74487
1.73998
1.73509
1.73998
1.73509
1.73021
1.73021
1.73021
1.72532
1.72532
1.73021
1.73509
1.73509
1.71554
1.73021
1.73998
1.75464
1.77419
1.75464
1.74487
1.74976
1.74487
1.73509
1.72043
1.72532
1.72043
1.72043
1.72043
1.71554
1.71554
1.72043
1.73509
1.72532
1.72532
1.71554
1.71554
1.71065
1.70577
1.70577
1.70088
1.69599
1.69599
1.72043
1.69599
1.69110
1.69110
1.68622
1.68133
1.71065
1.68133
1.67644
1.71554
1.67644
1.67644
1.67155
1.67155
1.67155
1.66667
1.66178
1.66178
1.66178
1.66178
1.65689
1.65200
1.68622
1.65200
1.64712
1.63734
1.63734
1.63245
1.63245
1.68133
1.63734
1.63734
1.63245
1.63734
1.64223
1.65200
1.67155
1.68622
1.70577
1.71065
1.72043
1.75953
1.73509
1.73021
1.73021
1.72532
1.72532
1.72532
1.72043
1.75953
1.72532
1.73509
1.73509
1.75953
1.73021
1.73021
1.73021
1.73021
1.72532
1.72532
1.72043
1.72043
1.71554
1.72532
1.74976
1.73021
1.72043
1.72532
1.72532
1.72532
1.72532
1.72043
1.71554
1.71065
1.70577
1.71065
1.70088
1.69599
1.71554
1.68622
1.69110
1.69599
1.68622
1.68133
1.71065
1.67155
1.67155
1.70577
1.67155
1.66667
1.68133
1.66667
1.66667
1.66667
1.66178
1.65689
1.67644
1.65200
1.64712
1.68622
1.65200
1.66178
1.64712
1.64712
1.68133
1.63734
1.64223
1.63245
1.63245
1.62757
1.63245
1.64712
1.63734
1.65200
1.65689
1.67155
1.68133
1.69599
1.72043
1.71554
1.72532
1.74976
1.73509
1.73509
1.73509
1.75464
1.74487
1.76442
1.76442
1.74487
1.73998
1.73509
1.74487
1.75464
1.73998
1.73998
1.73021
1.73509
1.73021
1.72532
1.73021
1.72043
1.72532
1.72043
1.73021
1.73021
1.73021
1.73509
1.73998
1.75953
1.73021
1.72532
1.72043
1.71065
1.71554
1.71065
1.71065
1.73998
1.71065
1.70577
1.71554
1.69599
1.69110
1.69599
1.68622
1.68622
1.70088
1.68622
1.68622
1.70577
1.68133
1.67644
1.67155
1.67155
1.67155
1.66667
1.66667
1.67644
1.66667
1.66178
1.66178
1.65689
1.67155
1.65200
1.64223
1.64712
1.64223
1.65200
1.63734
1.64712
1.63734
1.64223
1.65200
1.66667
1.68622
1.69599
1.70577
1.75953
1.73021
1.73509
1.77908
1.75953
1.75464
1.74976
1.74976
1.73998
1.73509
1.74976
1.73998
1.73509
1.74487
1.74976
1.74976
1.75464
1.75464
1.75464
1.75464
1.75464
1.74976
1.74976
1.74976
1.74487
1.74976
1.74487
1.75464
1.75464
1.74976
1.73998
1.73998
1.73509
1.73509
1.73021
1.72532
1.72532
1.72043
1.72043
1.72043
1.71554
1.72043
1.71554
1.71065
1.70577
1.69599
1.70577
1.69599
1.69110
1.72043
1.69110
1.68133
1.71065
1.68133
1.68622
1.67644
1.67155
1.67644
1.66667
1.66667
1.66667
1.67155
1.66178
1.66178
1.65689
1.67644
1.65689
1.69110
1.65200
1.65200
1.64223
1.64223
1.64223
1.64223
1.64223
1.64223
1.66667
1.63734
1.65689
1.65689
1.67644
1.68622
1.70088
1.72532
1.73509
1.74487
1.74976
1.74976
1.74976
1.77419
1.78397
1.79374
1.78886
1.75953
1.77419
1.76931
1.75464
1.75953
1.75464
1.75953
1.76442
1.76931
1.75953
1.76442
1.75464
1.75464
1.75464
1.75464
1.75464
1.75464
1.75464
1.75464
1.75464
1.75464
1.75464
1.74976
1.78397
1.76931
1.73998
1.73021
1.73509
1.73021
1.72532
1.76442
1.72532
1.72043
1.74487
1.71554
1.71554
1.70577
1.70088
1.69599
1.69599
1.69599
1.70577
1.69599
1.69599
1.70577
1.68622
1.69110
1.68133
1.68622
1.68133
1.67644
1.68133
1.67155
1.67155
1.66667
1.65689
1.66178
1.65689
1.68133
1.65200
1.67644
1.65200
1.65689
1.64712
1.65689
1.64712
1.64223
1.63734
1.63245
1.63734
1.65200
1.66178
1.68133
1.69110
1.71065
1.74487
1.73509
1.74487
1.77419
1.76442
1.75953
1.75464
1.75464
1.78397
1.76931
1.74487
1.74976
1.74976
1.75464
1.75953
1.75953
1.76931
1.76442
1.76442
1.75953
1.79374
1.79863
1.79374
1.76442
1.76442
1.76442
1.76442
1.76442
1.76442
1.74976
1.74487
1.74487
1.75464
1.75464
1.74976
1.74976
1.73998
1.73509
1.73509
1.73509
1.73021
1.72532
1.72043
1.76442
1.72043
1.71065
1.73998
1.70577
1.70088
1.73509
1.70088
1.70577
1.69599
1.70088
1.73021
1.69110
1.69110
1.68133
1.67155
1.67155
1.66667
1.67644
1.66667
1.67155
1.66667
1.66178
1.69599
1.65689
1.66178
1.64712
1.64712
1.65200
1.64712
1.64223
1.64712
1.64712
1.64712
1.65200
1.64223
1.64223
1.64223
1.66178
1.67155
1.69110
1.72043
1.72532
1.74976
1.77908
1.75953
1.76931
1.77419
1.77419
1.77419
1.76931
1.76442
1.75953
1.76442
1.75953
1.75953
1.76442
1.76442
1.76931
1.75953
1.76931
1.77419
1.76442
1.78397
1.75464
1.75464
1.77908
1.77908
1.78886
1.77908
1.76442
1.74487
1.73998
1.73998
1.73021
1.73509
1.73021
1.75953
1.72043
1.72043
1.74487
1.71554
1.71065
1.71065
1.69599
1.71065
1.69599
1.69599
1.69110
1.69110
1.69110
1.68622
1.70088
1.67155
1.66667
1.70577
1.65689
1.65200
1.65200
1.65200
1.65689
1.66178
1.66667
1.66178
1.66178
1.65200
1.64223
1.63245
1.63734
1.62757
1.63734
1.63245
1.64223
1.62757
1.62757
1.63245
1.61779
1.61779
1.63734
1.62268
1.63245
1.67155
1.65689
1.69110
1.68622
1.71065
1.71065
1.72043
1.72532
1.72532
1.73509
1.73021
1.72532
1.72532
1.73021
1.72043
1.71554
1.71554
1.71554
1.71554
1.72043
1.72532
1.71554
1.72532
1.72043
1.74976
1.72532
1.73021
1.72043
1.72043
1.72043
1.72043
1.72043
1.71554
1.72043
1.72043
1.72043
1.71554
1.71065
1.71554
1.71554
1.71554
1.71554
1.71065
1.69599
1.69599
1.68622
1.68133
1.68133
1.68133
1.68133
1.68133
1.68133
1.66667
1.67155
1.66667
1.66667
1.70088
1.66667
1.66178
1.66667
1.65689
1.67155
1.65689
1.65200
1.65200
1.65200
1.68622
1.64712
1.65200
1.64223
1.62757
1.65689
1.63734
1.63245
1.63245
1.64223
1.65200
1.65689
1.69599
1.69599
1.71554
1.72043
1.72532
1.75953
1.74487
1.74976
1.74976
1.75953
1.74976
1.74976
1.78397
1.78397
1.77419
1.75953
1.75953
1.76442
1.78886
1.77419
1.76931
1.76442
1.77419
1.77419
1.77908
1.78397
1.76442
1.73998
1.73998
1.73509
1.73998
1.73021
1.73998
1.73998
1.73021
1.72532
1.73021
1.71554
1.71554
1.71065
1.71554
1.71554
1.74976
1.71065
1.70577
1.69599
1.68133
1.69110
1.68133
1.68133
1.71065
1.67644
1.68133
1.67644
1.67155
1.66667
1.65689
1.70088
1.66178
1.68133
1.65689
1.66178
1.65689
1.65200
1.65200
1.64712
1.64712
1.64223
1.67644
1.64223
1.66667
1.63734
1.64223
1.64712
1.65200
1.63734
1.65200
1.65689
1.66667
1.69110
1.70577
1.73509
1.73509
1.73998
1.77908
1.74976
1.78397
1.77908
1.78886
1.77419
1.78886
1.78886
1.78397
1.74487
1.73998
1.73998
1.74487
1.74487
1.74976
1.75953
1.75464
1.75953
1.75464
1.75464
1.74976
1.73998
1.73998
1.76442
1.77908
1.75953
1.75953
1.75464
1.74487
1.73509
1.73509
1.73021
1.72532
1.72532
1.73021
1.71554
1.71065
1.71554
1.70577
1.72532
1.70577
1.69599
1.69599
1.68622
1.69110
1.69110
1.67644
1.68133
1.67155
1.67155
1.70088
1.67155
1.67644
1.67644
1.67644
1.65689
1.66667
1.65689
1.65200
1.65200
1.65200
1.62268
1.64223
1.63734
1.63734
1.67155
1.63245
1.66178
1.63734
1.64223
1.63734
1.64712
1.65200
1.68133
1.67644
1.69599
1.71554
1.73021
1.75464
1.74487
1.74976
1.74487
1.74487
1.73998
1.73509
1.76931
1.75953
1.73998
1.75464
1.77908
1.77419
1.78397
1.76931
1.76442
1.76931
1.78397
1.75953
1.76931
1.75464
1.73998
1.73998
1.73021
1.73021
1.73021
1.73021
1.73509
1.73021
1.73021
1.73021
1.73021
1.72532
1.72043
1.72043
1.71065
1.71065
1.72043
1.70088
1.70577
1.70088
1.69110
1.68622
1.70088
1.68622
1.68133
1.68133
1.68133
1.69110
1.67644
1.67644
1.67155
1.66667
1.66667
1.67155
1.67155
1.65689
1.66178
1.65200
1.64712
1.67644
1.64712
1.64712
1.64223
1.63734
1.63734
1.63245
1.63245
1.62757
1.63245
1.61779
1.62268
1.62268
1.63734
1.64223
1.65689
1.67155
1.69110
1.71554
1.75953
1.73509
1.74487
1.74487
1.74487
1.74487
1.73998
1.73509
1.74487
1.73509
1.73998
1.73998
1.73998
1.74487
1.74487
1.74976
1.74976
1.74976
1.74976
1.74487
1.74487
1.73998
1.73998
1.73509
1.73509
1.73509
1.73021
1.77419
1.73509
1.73021
1.73021
1.73021
1.73021
1.73021
1.72532
1.72043
1.72043
1.71065
1.71065
1.72043
1.70577
1.70088
1.70577
1.69110
1.69110
1.68622
1.68622
1.68622
1.67644
1.67644
1.67644
1.67155
1.67644
1.67155
1.66667
1.70088
1.66178
1.67155
1.65689
1.66178
1.65689
1.65200
1.65200
1.64712
1.67155
1.64712
1.67644
1.63734
1.63734
1.63245
1.63245
1.63245
1.64223
1.64712
1.66178
1.68133
1.68622
1.70577
1.72043
1.73509
1.73509
1.75464
1.73998
1.76442
1.73998
1.73021
1.73021
1.73021
1.73021
1.72532
1.73021
1.74487
1.72532
1.73509
1.73021
1.73509
1.73509
1.73021
1.73021
1.76931
1.76442
1.76442
1.75953
1.73509
1.73021
1.72532
1.73021
1.72043
1.72043
1.72043
1.72043
1.72532
1.71554
1.71554
1.74976
1.70577
1.72532
1.70088
1.69599
1.70088
1.69110
1.68622
1.68133
1.68133
1.68133
1.71065
1.67644
1.67644
1.67155
1.67644
1.68133
1.64712
1.67155
1.67155
1.65689
1.69599
1.65689
1.66667
1.65200
1.64223
1.65200
1.64223
1.65200
1.63734
1.64223
1.63245
1.63245
1.64223
1.64223
1.64712
1.65689
1.68133
1.69110
1.71554
1.72532
1.73509
1.77419
1.75464
1.76931
1.78397
1.78397
1.77419
1.76442
1.74487
1.74487
1.74976
1.75464
1.74976
1.75953
1.77908
1.78886
1.77908
1.77908
1.74976
1.74976
1.74976
1.73509
1.73509
1.73021
1.73509
1.73998
1.73509
1.73021
1.76442
1.75464
1.73509
1.71554
1.73021
1.71554
1.71554
1.71065
1.71065
1.71065
1.70577
1.69599
1.70088
1.68622
1.68622
1.72043
1.67644
1.68133
1.68622
1.67155
1.67644
1.66178
1.66178
1.69110
1.66178
1.66178
1.66178
1.65200
1.65689
1.64712
1.67644
1.64712
1.68133
1.64712
1.65689
1.63734
1.65200
1.62757
1.67155
1.63245
1.65200
1.62757
1.65689
1.63734
1.67644
1.66178
1.69599
1.68622
1.72043
1.71554
1.73509
1.73998
1.74487
1.78397
1.76931
1.74976
1.74976
1.74487
1.74487
1.73998
1.74487
1.74487
1.74976
1.73998
1.75464
1.75953
1.74976
1.75464
1.74976
1.75464
1.74487
1.74487
1.73998
1.73998
1.73021
1.73998
1.73021
1.73509
1.73998
1.72532
1.72532
1.72532
1.72532
1.72043
1.71554
1.72043
1.71554
1.70577
1.71065
1.69599
1.70088
1.69599
1.69110
1.71065
1.68133
1.68622
1.67155
1.67155
1.67155
1.67155
1.67155
1.66667
1.66178
1.66667
1.65689
1.69110
1.65200
1.66667
1.64712
1.65689
1.64223
1.65689
1.63734
1.64712
1.63245
1.64223
1.62757
1.64223
1.62757
1.65200
1.62757
1.64223
1.62757
1.64712
1.64223
1.65689
1.67644
1.68133
1.70577
1.74487
1.72532
1.74976
1.73998
1.73509
1.73509
1.73509
1.75953
1.75464
1.74487
1.73998
1.74976
1.74487
1.75464
1.75464
1.74976
1.74976
1.74976
1.74976
1.74976
1.77908
1.76931
1.77419
1.73021
1.76931
1.73509
1.73509
1.73509
1.73021
1.72532
1.73021
1.72043
1.71554
1.72043
1.71554
1.70577
1.73509
1.69599
1.69599
1.69599
1.69110
1.68622
1.70088
1.68133
1.68133
1.67644
1.67155
1.67155
1.67155
1.67644
1.66667
1.66178
1.67644
1.65200
1.64223
1.65200
1.64223
1.64712
1.64223
1.64223
1.64223
1.66178
1.64712
1.64712
1.62757
1.64712
1.62268
1.64223
1.62268
1.62757
1.61779
1.62757
1.61779
1.61290
1.61779
1.62268
1.63245
1.64712
1.66178
1.67644
1.69599
1.71065
1.72532
1.72532
1.73509
1.73509
1.73021
1.73021
1.72043
1.72532
1.72043
1.72043
1.71554
1.72043
1.72532
1.72043
1.73021
1.73021
1.73021
1.73021
1.73509
1.73509
1.73509
1.73998
1.73021
1.73021
1.73021
1.72532
1.72043
1.71554
1.71554
1.72532
1.75953
1.74976
1.73021
1.73998
1.70577
1.70088
1.69599
1.69110
1.69599
1.68133
1.68133
1.71065
1.67644
1.67155
1.67644
1.67644
1.66667
1.66667
1.66178
1.66178
1.66178
1.66178
1.66667
1.64712
1.67644
1.65200
1.66667
1.64223
1.64223
1.62757
1.63245
1.67155
1.63245
1.65200
1.63245
1.63734
1.62757
1.61779
1.61779
1.60802
1.61779
1.61779
1.63734
1.63245
1.65200
1.66178
1.67644
1.72532
1.70088
1.73021
1.71554
1.72043
1.72043
1.71065
1.71065
1.70088
1.72043
1.71554
1.72532
1.72043
1.70577
1.69599
1.69110
1.69110
1.69599
1.69599
1.70088
1.69599
1.70577
1.69599
1.69599
1.69599
1.69599
1.69599
1.69110
1.72532
1.72532
1.73021
1.71065
1.68622
1.67644
1.67155
1.67155
1.66178
1.65689
1.66178
1.65689
1.64712
1.68622
1.65200
1.64223
1.64223
1.64223
1.67644
1.62757
1.64223
1.64223
1.64712
1.65200
1.65200
1.64223
1.64223
1.63734
1.64712
1.63734
1.64223
1.64223
1.64223
1.67155
1.63245
1.63245
1.62757
1.61779
1.65689
1.61779
1.62268
1.62268
1.62268
1.66178
1.64712
1.65200
1.67155
1.68133
1.73509
1.71554
1.72532
1.73509
1.73509
1.73998
1.73509
1.73509
1.73021
1.73021
1.72532
1.73998
1.73021
1.73509
1.73509
1.73998
1.73998
1.74487
1.74487
1.73509
1.74487
1.74487
1.75464
1.73998
1.73509
1.73021
1.73021
1.72532
1.72532
1.72043
1.72043
1.71554
1.72043
1.72043
1.72532
1.71065
1.70577
1.71554
1.70577
1.71065
1.70577
1.69599
1.69599
1.73021
1.67644
1.68133
1.67644
1.67155
1.68133
1.67155
1.68622
1.66667
1.67155
1.71065
1.65689
1.67644
1.65689
1.65689
1.65200
1.65200
1.64712
1.64712
1.68133
1.64712
1.65689
1.63734
1.65200
1.63734
1.64223
1.63245
1.63245
1.63734
1.63245
1.64712
1.65689
1.71554
1.69110
1.71554
1.72532
1.73509
1.76931
1.73509
1.77419
1.77419
1.76931
1.75464
1.74487
1.73998
1.73998
1.73998
1.75464
1.77419
1.76931
1.77908
1.76442
1.74976
1.74487
1.74487
1.74487
1.73998
1.73509
1.73509
1.73509
1.73021
1.73509
1.73509
1.73021
1.72532
1.72532
1.72532
1.72043
1.72043
1.73509
1.71554
1.71065
1.71065
1.70577
1.69599
1.70088
1.69599
1.69110
1.71065
1.68622
1.68133
1.71554
1.67644
1.67155
1.70088
1.67155
1.68133
1.66667
1.66178
1.66178
1.66178
1.65689
1.65200
1.64223
1.64712
1.65200
1.65200
1.65689
1.64712
1.64223
1.63734
1.64712
1.63245
1.63245
1.63245
1.63245
1.63734
1.64223
1.65200
1.66178
1.68133
1.69599
1.70577
1.71554
1.72532
1.73509
1.73998
1.74487
1.73998
1.73998
1.73509
1.73509
1.73021
1.73021
1.73021
1.73998
1.73021
1.73509
1.74487
1.74976
1.75464
1.76442
1.77908
1.78397
1.76931
1.76442
1.77419
1.75953
1.73509
1.73021
1.74976
1.75464
1.72532
1.72532
1.75953
1.74976
1.73509
1.72043
1.74976
1.71554
1.71554
1.71554
1.71065
1.73509
1.69599
1.70088
1.69599
1.69599
1.69599
1.69110
1.68622
1.68622
1.68133
1.69110
1.67644
1.68133
1.67155
1.66667
1.69599
1.67155
1.67155
1.65689
1.65200
1.65200
1.64712
1.65200
1.64712
1.67644
1.64712
1.67155
1.64223
1.63734
1.63245
1.63245
1.63245
1.63734
1.64223
1.69110
1.67155
1.68622
1.70577
1.75953
1.73509
1.74976
1.74976
1.75464
1.75464
1.75464
1.75464
1.74487
1.74487
1.74487
1.74976
1.73998
1.74976
1.74487
1.74976
1.74976
1.75464
1.75464
1.74976
1.74976
1.75953
1.74487
1.74976
1.74487
1.73998
1.73998
1.73998
1.74487
1.73998
1.73998
1.73998
1.73509
1.73509
1.72532
1.73021
1.73021
1.72043
1.76442
1.71554
1.71065
1.74487
1.71065
1.70577
1.70088
1.69110
1.70088
1.69599
1.69110
1.68622
1.68622
1.71554
1.68622
1.69110
1.67155
1.67155
1.67155
1.66667
1.70577
1.66667
1.66667
1.67644
1.70577
1.66667
1.69110
1.65689
1.67644
1.65200
1.65200
1.64712
1.65200
1.64712
1.65689
1.66178
1.68133
1.69110
1.71065
1.72043
1.73509
1.77908
1.74976
1.74976
1.74487
1.74487
1.73509
1.74487
1.73509
1.72532
1.74487
1.73021
1.73509
1.73021
1.73509
1.73509
1.73509
1.73509
1.73509
1.73509
1.73509
1.73021
1.74976
1.76931
1.75953
1.73509
1.73021
1.72532
1.72532
1.72043
1.72532
1.72043
1.72043
1.72043
1.71554
1.71065
1.70577
1.71554
1.70088
1.69599
1.71065
1.69110
1.69110
1.68133
1.67644
1.68622
1.67644
1.67644
1.67644
1.67155
1.67644
1.66667
1.67155
1.66667
1.66178
1.66178
1.65689
1.66178
1.65689
1.66178
1.65200
1.64223
1.64712
1.64223
1.64223
1.64223
1.68133
1.63734
1.65689
1.64712
1.65689
1.66178
1.67644
1.72043
1.70577
1.73509
1.73021
1.73998
1.75464
1.74976
1.75464
1.74976
1.74487
1.73509
1.73998
1.73509
1.73509
1.73998
1.73998
1.74487
1.73998
1.73998
1.74487
1.73998
1.73998
1.73998
1.74487
1.73509
1.73509
1.73021
1.73021
1.73021
1.72532
1.72532
1.72532
1.72043
1.72532
1.71554
1.72043
1.71065
1.70577
1.74487
1.70577
1.70577
1.70088
1.69599
1.72532
1.69110
1.68622
1.68133
1.67644
1.67155
1.67155
1.67644
1.71065
1.67155
1.66667
1.66178
1.65689
1.69599
1.65689
1.66667
1.66178
1.65200
1.64712
1.64712
1.64712
1.63245
1.64223
1.63734
1.67155
1.63245
1.66667
1.62757
1.66667
1.62757
1.67155
1.63245
1.64712
1.67155
1.69110
1.70577
1.72532
1.73509
1.74487
1.76442
1.74976
1.74487
1.74487
1.74487
1.74487
1.73998
1.73998
1.73509
1.73509
1.73998
1.73998
1.74487
1.74976
1.75464
1.75953
1.75953
1.74976
1.76442
1.77419
1.74976
1.74487
1.73509
1.73021
1.72532
1.72532
1.73021
1.72532
1.73021
1.72532
1.76442
1.72043
1.71065
1.74976
1.71065
1.71065
1.70088
1.69599
1.71554
1.69599
1.69110
1.69110
1.68133
1.68622
1.67644
1.67644
1.71065
1.66178
1.68133
1.66667
1.68133
1.65689
1.67644
1.65200
1.65689
1.65200
1.65200
1.64712
1.65689
1.63734
1.65200
1.63734
1.64223
1.63245
1.62757
1.63245
1.62757
1.62757
1.62268
1.62757
1.64223
1.63734
1.68133
1.67644
1.69599
1.70088
1.72043
1.72532
1.73509
1.73998
1.73509
1.73021
1.73021
1.72532
1.72532
1.72532
1.72532
1.73509
1.73021
1.73021
1.73021
1.73509
1.73509
1.73998
1.73998
1.73509
1.73509
1.73021
1.73509
1.73509
1.73021
1.72532
1.72043
1.72043
1.72043
1.72532
1.72532
1.71554
1.71554
1.71554
1.71554
1.71065
1.73998
1.70577
1.70577
1.73021
1.69599
1.68622
1.68622
1.68622
1.68133
1.68133
1.67644
1.68133
1.67155
1.67155
1.66667
1.66178
1.66667
1.66667
1.69599
1.65689
1.66667
1.64712
1.64712
1.64712
1.65200
1.64223
1.64712
1.66667
1.63734
1.64223
1.63245
1.64223
1.62757
1.63245
1.62757
1.62268
1.63245
1.63734
1.64712
1.66178
1.68133
1.70088
1.74976
1.73021
1.73998
1.77908
1.74487
1.74487
1.73998
1.73509
1.73509
1.73021
1.73021
1.72532
1.72532
1.73021
1.73021
1.73509
1.73509
1.73509
1.73509
1.73509
1.73509
1.73509
1.73509
1.73021
1.72532
1.73021
1.72532
1.72532
1.72532
1.73021
1.72532
1.72043
1.72043
1.73021
1.72043
1.71554
1.71065
1.70577
1.73998
1.70088
1.70088
1.68622
1.69110
1.71554
1.68622
1.68622
1.68133
1.68622
1.68622
1.68622
1.67155
1.67155
1.66667
1.69599
1.66667
1.66178
1.65689
1.66178
1.65689
1.65200
1.69110
1.65200
1.65689
1.64712
1.64712
1.64223
1.64223
1.66178
1.63734
1.65689
1.62757
1.66178
1.64223
1.67644
1.66178
1.69110
1.69599
1.71065
1.72043
1.72532
1.76931
1.73509
1.73998
1.73509
1.73021
1.72532
1.72532
1.71554
1.71554
1.71065
1.71065
1.71554
1.72043
1.72043
1.72532
1.72043
1.72043
1.72043
1.72043
1.71554
1.71065
1.71065
1.71065
1.71065
1.71065
1.71554
1.71065
1.70577
1.70577
1.70088
1.69599
1.70088
1.69599
1.69599
1.69599
1.68622
1.68622
1.68133
1.68133
1.67644
1.71065
1.67644
1.67155
1.67155
1.66667
1.70088
1.66178
1.67155
1.65689
1.67644
1.65689
1.65689
1.65200
1.64223
1.64712
1.64712
1.66178
1.63734
1.64223
1.63734
1.64223
1.63734
1.64223
1.63245
1.63245
1.63245
1.63734
1.67155
1.65689
1.67644
1.69110
1.70088
1.72043
1.72532
1.73021
1.73998
1.76931
1.76931
1.76931
1.76931
1.73998
1.76442
1.72043
1.72043
1.72532
1.75464
1.72532
1.72532
1.72532
1.72043
1.71554
1.72043
1.71554
1.71554
1.71554
1.71554
1.71554
1.71554
1.71554
1.72532
1.71554
1.71554
1.71554
1.71554
1.71554
1.71065
1.71065
1.71065
1.70577
1.70577
1.70088
1.70088
1.69110
1.68622
1.70088
1.67155
1.68133
1.70088
1.68622
1.68622
1.71554
1.67644
1.69599
1.66667
1.68133
1.66667
1.66667
1.66667
1.66667
1.68133
1.65689
1.67155
1.66178
1.65200
1.65689
1.65689
1.67155
1.65689
1.65200
1.65689
1.68133
1.69599
1.69599
1.71554
1.73021
1.74487
1.75953
1.75953
1.76442
1.75464
1.75464
1.75464
1.74487
1.73998
1.74487
1.74487
1.74487
1.74487
1.74487
1.74976
1.74976
1.74976
1.74487
1.74976
1.75464
1.74976
1.74487
1.74487
1.74487
1.74487
1.73509
1.73509
1.74487
1.73509
1.73509
1.73509
1.73509
1.73021
1.72532
1.73998
1.72532
1.72043
1.72532
1.71065
1.70577
1.74976
1.71065
1.71065
1.70088
1.68622
1.68133
1.68133
1.69110
1.68622
1.68622
1.69110
1.68133
1.68133
1.67644
1.67644
1.67155
1.66667
1.68133
1.65689
1.66667
1.66178
1.65689
1.69110
1.65689
1.68622
1.65689
1.66178
1.66667
1.68133
1.69599
1.72043
1.73021
1.74487
1.79374
1.76442
1.77419
1.76931
1.76931
1.76442
1.75953
1.75953
1.75464
1.75953
1.77419
1.78886
1.79863
1.79863
1.76931
1.76442
1.76442
1.77419
1.76931
1.76442
1.75953
1.76442
1.75953
1.75464
1.75464
1.77419
1.77419
1.75953
1.75464
1.74976
1.74487
1.74487
1.73509
1.73998
1.73509
1.73509
1.74976
1.72043
1.71554
1.73021
1.71065
1.74487
1.70088
1.71065
1.70088
1.69599
1.70577
1.69110
1.68622
1.72043
1.67644
1.71554
1.67644
1.69110
1.67644
1.70088
1.67155
1.69599
1.66667
1.67644
1.65689
1.65689
1.64712
1.65689
1.65200
1.64712
1.65689
1.66178
1.68133
1.68622
1.72532
1.71554
1.76931
1.74487
1.75953
1.75464
1.76442
1.76442
1.78886
1.75953
1.75464
1.75464
1.75464
1.75464
1.75464
1.75953
1.75953
1.76442
1.76931
1.76931
1.76931
1.79863
1.75464
1.78397
1.75953
1.76442
1.78397
1.78397
1.75953
1.75953
1.75464
1.74976
1.73998
1.73509
1.73509
1.73021
1.76442
1.73021
1.73509
1.72532
1.73021
1.72532
1.71554
1.74976
1.70577
1.70088
1.69599
1.69599
1.71554
1.69599
1.69110
1.69110
1.68622
1.71065
1.67644
1.70088
1.68133
1.68133
1.67644
1.67155
1.68133
1.67644
1.67155
1.66667
1.66667
1.65689
1.67644
1.65200
1.66667
1.64712
1.68622
1.65200
1.65200
1.65689
1.68622
1.68622
1.70577
1.72043
1.73998
1.74487
1.75464
1.76442
1.75953
1.75953
1.75953
1.74487
1.75464
1.74976
1.75464
1.74976
1.75464
1.75464
1.75464
1.76931
1.76442
1.75953
1.76442
1.76442
1.75953
1.75464
1.75464
1.75464
1.74976
1.74487
1.74976
1.74487
1.74487
1.73998
1.74487
1.74487
1.77419
1.73021
1.73998
1.73021
1.73021
1.72043
1.72043
1.72043
1.73021
1.71065
1.70577
1.73509
1.70088
1.73509
1.69599
1.70088
1.69110
1.69110
1.69599
1.68622
1.68133
1.67644
1.68133
1.67644
1.67644
1.69599
1.67155
1.67644
1.66178
1.66178
1.65689
1.66178
1.65689
1.66178
1.68622
1.65200
1.67644
1.64712
1.65200
1.66178
1.67644
1.69110
1.70577
1.72532
1.73509
1.74976
1.75464
1.74976
1.76442
1.75953
1.75953
1.75464
1.74976
1.75464
1.75464
1.75464
1.74976
1.77419
1.75464
1.78886
1.78397
1.76931
1.77908
1.77908
1.76442
1.78886
1.76931
1.78397
1.78397
1.78397
1.76931
1.77908
1.76931
1.74976
1.74487
1.73998
1.73998
1.73509
1.73509
1.76442
1.72532
1.73509
1.72043
1.71065
1.74976
1.71554
1.71065
1.70577
1.71065
1.72043
1.70088
1.70088
1.69599
1.69110
1.73021
1.69110
1.69110
1.69110
1.70088
1.70577
1.67644
1.69110
1.67644
1.68133
1.67155
1.66667
1.67155
1.66667
1.70088
1.65689
1.66178
1.66178
1.67155
1.68133
1.73021
1.71065
1.73509
1.74487
1.74976
1.76931
1.76442
1.76442
1.76442
1.75464
1.75464
1.74976
1.74487
1.74976
1.74487
1.74487
1.74976
1.74487
1.74976
1.75464
1.74976
1.74976
1.74976
1.74487
1.73998
1.73998
1.73509
1.73509
1.73509
1.73021
1.73021
1.73021
1.73021
1.72043
1.72043
1.75953
1.72532
1.72043
1.72532
1.72043
1.70577
1.71065
1.70577
1.69599
1.68622
1.68133
1.68622
1.68133
1.70577
1.68133
1.68622
1.67644
1.67155
1.66667
1.66667
1.66667
1.66178
1.66178
1.66178
1.65689
1.66178
1.65200
1.65200
1.65200
1.64223
1.65200
1.66178
1.65200
1.68622
1.67155
1.69599
1.70088
1.72043
1.73021
1.74487
1.75464
1.75464
1.75953
1.75464
1.74976
1.74487
1.73998
1.73998
1.73998
1.73509
1.73998
1.73509
1.74487
1.73998
1.74487
1.74487
1.74487
1.74487
1.74487
1.73998
1.73509
1.73021
1.73021
1.72532
1.73021
1.72532
1.73021
1.72532
1.73021
1.72532
1.75953
1.71554
1.71554
1.71065
1.70577
1.70088
1.70088
1.70088
1.71065
1.69599
1.68133
1.68622
1.68622
1.71065
1.67155
1.67155
1.67155
1.66667
1.69599
1.66667
1.67644
1.66178
1.66178
1.65689
1.65689
1.65200
1.65689
1.67644
1.65689
1.68133
1.64712
1.66667
1.63734
1.65200
1.64712
1.66178
1.67155
1.68622
1.70088
1.71554
1.77419
1.74487
1.75464
1.74976
1.78886
1.77419
1.77908
1.73998
1.76931
1.77419
1.76931
1.75953
1.78886
1.78397
1.78886
1.75464
1.74976
1.74976
1.75464
1.74487
1.74487
1.73998
1.74487
1.74487
1.73509
1.73509
1.73021
1.73509
1.73509
1.73509
1.73021
1.73021
1.72532
1.72043
1.72043
1.71065
1.71554
1.74487
1.70577
1.70088
1.69599
1.69599
1.69599
1.69599
1.68622
1.72532
1.68622
1.69110
1.67644
1.67155
1.70088
1.66178
1.67644
1.66667
1.67155
1.66667
1.66178
1.65689
1.65200
1.68622
1.65200
1.67644
1.64712
1.68133
1.64223
1.67644
1.62757
1.67644
1.65689
1.67644
1.68622
1.71554
1.71554
1.73021
1.73998
1.74487
1.77908
1.74487
1.74487
1.73998
1.74487
1.73509
1.73509
1.73021
1.73509
1.73509
1.73998
1.73998
1.74487
1.74487
1.73998
1.73509
1.73509
1.73998
1.73509
1.73509
1.72532
1.72532
1.72532
1.72532
1.72532
1.71554
1.71554
1.72043
1.74976
1.70577
1.72043
1.71065
1.69599
1.71554
1.70088
1.69599
1.71065
1.68622
1.68133
1.70088
1.67644
1.68622
1.67155
1.67155
1.66667
1.67155
1.66178
1.66178
1.65689
1.65689
1.65200
1.65200
1.65200
1.68133
1.64223
1.64712
1.63734
1.63245
1.63245
1.63245
1.63245
1.64223
1.65200
1.67155
1.68622
1.70577
1.71554
1.73021
1.76442
1.73998
1.73998
1.73509
1.73509
1.73998
1.73509
1.73021
1.73021
1.73509
1.73021
1.73021
1.73021
1.73021
1.73509
1.73509
1.72532
1.73021
1.72532
1.72043
1.72532
1.71554
1.71554
1.71065
1.71065
1.70577
1.71065
1.71065
1.70577
1.69599
1.72532
1.69599
1.69110
1.71065
1.67644
1.68622
1.68133
1.67644
1.71065
1.67155
1.67155
1.66178
1.66667
1.67155
1.65689
1.65689
1.64712
1.64712
1.64712
1.64223
1.67155
1.63734
1.65689
1.63734
1.63245
1.62757
1.63245
1.62757
1.63245
1.62757
1.62757
1.62268
1.65200
1.63734
1.66667
1.65689
1.70577
1.69110
1.71554
1.71065
1.73021
1.73021
1.73509
1.76931
1.76931
1.74976
1.75464
1.76442
1.73509
1.76442
1.73509
1.74487
1.76442
1.73021
1.73021
1.75953
1.75953
1.76931
1.75464
1.72532
1.72043
1.74976
1.73998
1.71065
1.74487
1.73998
1.73509
1.73509
1.73021
1.71554
1.70577
1.72532
1.69599
1.68622
1.71554
1.68133
1.68622
1.68622
1.68133
1.72043
1.67644
1.67644
1.66667
1.65689
1.65689
1.65689
1.67155
1.65689
1.67155
1.65689
1.65200
1.63734
1.64223
1.63245
1.63245
1.62757
1.63245
1.63245
1.63734
1.64223
1.64223
1.63245
1.62757
1.62268
1.61779
1.64712
1.61779
1.65689
1.62757
1.63734
1.65689
1.70577
1.69110
1.73509
1.71554
1.73021
1.77419
1.73998
1.76442
1.73509
1.73021
1.73021
1.73021
1.72532
1.73021
1.73509
1.72043
1.72532
1.72532
1.72532
1.72532
1.73021
1.72532
1.73021
1.72043
1.71554
1.71554
1.71554
1.71554
1.71554
1.71554
1.71554
1.71554
1.71554
1.71554
1.71065
1.71065
1.71065
1.70088
1.71065
1.70088
1.69599
1.69110
1.68133
1.69599
1.68133
1.67644
1.69110
1.67644
1.67155
1.66667
1.66667
1.68622
1.65689
1.67155
1.65200
1.65200
1.64712
1.63734
1.64712
1.63734
1.67644
1.63245
1.63734
1.63245
1.64712
1.62757
1.66178
1.62757
1.65200
1.62268
1.65689
1.61779
1.64223
1.61779
1.62268
1.62757
1.64712
1.66178
1.70577
1.69599
1.72043
1.72532
1.72532
1.76931
1.73509
1.73021
1.72532
1.72532
1.71554
1.71065
1.70577
1.71065
1.71065
1.71065
1.71065
1.71554
1.71554
1.72043
1.72043
1.71554
1.72043
1.71554
1.71554
1.71065
1.70577
1.70577
1.70577
1.70577
1.69599
1.69599
1.69599
1.69599
1.68622
1.67644
1.67155
1.66178
1.65689
1.68622
1.65200
1.66178
1.65200
1.66178
1.67155
1.65689
1.69110
1.66178
1.66667
1.65689
1.65689
1.69599
1.66667
1.67644
1.67155
1.67644
1.67155
1.67155
1.66667
1.65689
1.66667
1.65689
1.65200
1.65200
1.64223
1.64223
1.64223
1.65200
1.63245
1.64223
1.63245
1.63245
1.63245
1.62757
1.67644
1.65200
1.67155
1.69110
1.71065
1.76442
1.74487
1.78886
1.76442
1.76931
1.75953
1.74976
1.75464
1.74487
1.73998
1.73509
1.73021
1.72532
1.73021
1.72043
1.72043
1.72043
1.71554
1.72043
1.71554
1.71554
1.71065
1.71065
1.71065
1.71554
1.71554
1.71554
1.71554
1.71554
1.75464
1.71065
1.72532
1.71554
1.71554
1.71065
1.74487
1.70577
1.71065
1.69110
1.68622
1.71554
1.67644
1.67644
1.66667
1.66178
1.65200
1.65689
1.65689
1.65689
1.65200
1.65689
1.65689
1.66667
1.65200
1.65200
1.65200
1.65200
1.64712
1.64712
1.64223
1.63734
1.64223
1.67155
1.62757
1.63734
1.63734
1.63734
1.63734
1.64712
1.65689
1.67155
1.68622
1.70577
1.75953
1.73021
1.73998
1.73509
1.77419
1.73998
1.75464
1.75953
1.74976
1.75464
1.75953
1.75464
1.74976
1.73998
1.73021
1.73509
1.75953
1.75464
1.75464
1.75464
1.74976
1.74487
1.74976
1.75953
1.73509
1.74976
1.72043
1.72043
1.73509
1.72043
1.75464
1.71554
1.72043
1.73509
1.73021
1.70577
1.71065
1.72043
1.69110
1.69599
1.68622
1.68622
1.72532
1.68133
1.68133
1.67155
1.66667
1.70577
1.66667
1.67155
1.66178
1.67155
1.65689
1.66178
1.65689
1.65200
1.66178
1.65200
1.66178
1.65200
1.66178
1.64712
1.65200
1.65689
1.66667
1.67644
1.68622
1.74487
1.73021
1.73998
1.75464
1.77419
1.78397
1.76442
1.75953
1.75953
1.75464
1.73998
1.75464
1.74487
1.74976
1.73998
1.74487
1.74487
1.74487
1.74487
1.74487
1.74976
1.74487
1.74487
1.74487
1.74487
1.73998
1.73509
1.73021
1.73021
1.74976
1.73021
1.73021
1.73021
1.73021
1.72532
1.73021
1.72043
1.71554
1.73509
1.71065
1.71065
1.70577
1.69599
1.71554
1.69599
1.69110
1.70088
1.68622
1.68133
1.67644
1.68133
1.67644
1.67155
1.70088
1.66667
1.66667
1.66667
1.66178
1.66667
1.66178
1.66178
1.66667
1.66178
1.65689
1.65200
1.65689
1.66178
1.66667
1.68133
1.70088
1.71065
1.73021
1.74976
1.75953
1.76442
1.76931
1.76931
1.76931
1.76931
1.76931
1.76442
1.75464
1.75464
1.75464
1.74976
1.75464
1.75464
1.75464
1.75464
1.75464
1.75953
1.76442
1.76931
1.76442
1.75464
1.75953
1.74976
1.75464
1.75464
1.74976
1.75464
1.74976
1.74976
1.74487
1.74487
1.74487
1.73509
1.74487
1.73509
1.73021
1.75953
1.72043
1.72043
1.71065
1.70088
1.73998
1.70088
1.70088
1.69110
1.68622
1.72532
1.68133
1.71554
1.67644
1.67644
1.67644
1.67644
1.66667
1.67155
1.67155
1.66667
1.66667
1.66178
1.69110
1.65689
1.65689
1.65200
1.65200
1.65689
1.64712
1.66667
1.65200
1.66178
1.68133
1.69599
1.71065
1.74976
1.73998
1.79863
1.75953
1.80352
1.75464
1.76442
1.76442
1.75953
1.75464
1.75464
1.74976
1.74487
1.74976
1.75464
1.75464
1.75464
1.75953
1.76442
1.75953
1.76931
1.75953
1.75953
1.75464
1.75464
1.74976
1.74487
1.74487
1.73998
1.73509
1.73998
1.73998
1.73998
1.73509
1.73998
1.73509
1.72532
1.74976
1.72532
1.73021
1.71554
1.71065
1.70577
1.70577
1.70577
1.69599
1.69110
1.68622
1.68622
1.72043
1.67644
1.69110
1.67644
1.67155
1.66667
1.66667
1.66178
1.66178
1.66178
1.65200
1.65689
1.65689
1.65689
1.66667
1.64712
1.64712
1.64223
1.64223
1.63734
1.63734
1.63245
1.62757
1.67644
1.64223
1.65200
1.67155
1.68622
1.71065
1.72043
1.76931
1.74487
1.76442
1.74487
1.74487
1.74487
1.73998
1.73998
1.73509
1.73998
1.73998
1.74487
1.75464
1.76931
1.77908
1.77908
1.77908
1.74976
1.78397
1.76931
1.74487
1.75953
1.77419
1.76931
1.73509
1.73021
1.73021
1.73021
1.73021
1.72532
1.73021
1.72532
1.72043
1.72043
1.71554
1.72043
1.71065
1.72043
1.70088
1.70088
1.69599
1.69110
1.72043
1.69110
1.68133
1.68133
1.67155
1.67644
1.67644
1.70088
1.66667
1.68133
1.66178
1.65689
1.65689
1.65200
1.65200
1.66178
1.65200
1.65200
1.64712
1.64223
1.63734
1.64712
1.63245
1.65689
1.63245
1.65689
1.62757
1.65200
1.62268
1.63245
1.62268
1.62757
1.63245
1.64712
1.67155
1.69110
1.70088
1.72043
1.72532
1.74976
1.73998
1.73998
1.73998
1.73998
1.73998
1.73509
1.73509
1.73509
1.73509
1.73021
1.72043
1.73509
1.73998
1.73021
1.73998
1.74976
1.74976
1.74976
1.74976
1.74976
1.77419
1.76931
1.77419
1.77419
1.73998
1.73509
1.73021
1.73021
1.72043
1.72043
1.72532
1.72043
1.71065
1.70577
1.73998
1.70577
1.70088
1.69599
1.69110
1.72532
1.68622
1.68133
1.68133
1.67644
1.71554
1.67155
1.69599
1.66667
1.66667
1.66178
1.66667
1.69599
1.66178
1.67155
1.65689
1.65200
1.65689
1.65200
1.64712
1.67644
1.64712
1.64712
1.63734
1.65200
1.63734
1.64223
1.63245
1.63734
1.62757
1.65689
1.61779
1.65689
1.62757
1.67155
1.63734
1.66178
1.67644
1.70577
1.71554
1.76442
1.73509
1.74976
1.74976
1.78397
1.77419
1.75953
1.77419
1.74976
1.73021
1.73021
1.73021
1.73509
1.73021
1.73509
1.73998
1.75464
1.73998
1.74487
1.73998
1.73998
1.73998
1.73998
1.74487
1.75464
1.76442
1.76442
1.76442
1.76442
1.72532
1.73021
1.75464
1.75464
1.74487
1.71554
1.71554
1.74976
1.71065
1.70088
1.72532
1.69599
1.71065
1.69110
1.69110
1.68133
1.68133
1.68133
1.67155
1.68622
1.66667
1.67155
1.67155
1.66178
1.66667
1.65200
1.66667
1.65200
1.65689
1.65689
1.65200
1.64712
1.65200
1.65200
1.64223
1.64223
1.64223
1.63734
1.63245
1.63245
1.63245
1.62757
1.62268
1.62268
1.62268
1.62268
1.63734
1.62268
1.63245
1.62757
1.64712
1.63734
1.67644
1.68622
1.70577
1.71554
1.73021
1.74976
1.73998
1.74487
1.73509
1.73998
1.73509
1.73509
1.73509
1.73021
1.72532
1.73021
1.73509
1.75953
1.73509
1.73509
1.73998
1.74487
1.74976
1.76442
1.75953
1.73509
1.72532
1.73021
1.72532
1.72532
1.72532
1.72532
1.71065
1.72532
1.72043
1.72043
1.75464
1.74976
1.74487
1.71065
1.71065
1.71065
1.70577
1.71554
1.70088
1.70088
1.72532
1.69110
1.69599
1.69110
1.68622
1.68133
1.68133
1.72043
1.67644
1.68133
1.67155
1.67155
1.67644
1.67155
1.68622
1.66667
1.70577
1.66667
1.66178
1.66667
1.65689
1.65689
1.65689
1.68133
1.65200
1.68622
1.64712
1.65200
1.63734
1.63734
1.63245
1.63245
1.63734
1.64223
1.65689
1.66667
1.71554
1.71065
1.76442
1.73998
1.74976
1.75464
1.75464
1.75464
1.74976
1.74487
1.73998
1.73509
1.73021
1.73021
1.73509
1.72532
1.73021
1.73021
1.73998
1.74487
1.73021
1.73021
1.73021
1.76442
1.76442
1.75464
1.73998
1.73998
1.73509
1.73509
1.73021
1.73021
1.73509
1.72532
1.73021
1.72043
1.74976
1.70577
1.71065
1.70577
1.70088
1.70088
1.69599
1.70577
1.69110
1.69599
1.68622
1.68133
1.69110
1.67155
1.71065
1.67644
1.67155
1.66667
1.66667
1.67155
1.67155
1.67644
1.66667
1.66667
1.65689
1.66178
1.65689
1.65200
1.64712
1.64712
1.68133
1.64712
1.68622
1.64712
1.65689
1.65200
1.66178
1.66667
1.68133
1.69599
1.72043
1.75464
1.74487
1.74976
1.75464
1.75464
1.76442
1.75464
1.74976
1.75464
1.75953
1.76931
1.77419
1.77908
1.74487
1.74487
1.73509
1.74487
1.73998
1.74487
1.74487
1.74487
1.74487
1.73509
1.73998
1.73509
1.73509
1.73509
1.73509
1.73509
1.73998
1.73509
1.73509
1.73509
1.73509
1.73021
1.73021
1.72043
1.73021
1.71554
1.71554
1.72043
1.70577
1.69599
1.72532
1.69599
1.70577
1.69599
1.69599
1.69110
1.69110
1.68622
1.68622
1.68133
1.68133
1.68622
1.67644
1.68133
1.67644
1.67644
1.67644
1.68133
1.67155
1.67644
1.67155
1.70088
1.66667
1.70088
1.67644
1.68622
1.70088
1.71554
1.73021
1.77908
1.75953
1.78397
1.78886
1.78886
1.81818
1.78397
1.77908
1.77908
1.77419
1.76931
1.76931
1.76931
1.77908
1.77908
1.77419
1.78397
1.80841
1.79374
1.78886
1.81329
1.77419
1.76931
1.76931
1.76931
1.76442
1.76931
1.80352
1.79374
1.79374
1.77908
1.79374
1.77419
1.77419
1.76442
1.75464
1.75464
1.76442
1.74487
1.73998
1.75953
1.73509
1.73509
1.72532
1.72532
1.73509
1.72043
1.74487
1.71065
1.72532
1.71065
1.71065
1.71554
1.69599
1.73509
1.69599
1.71554
1.69599
1.73021
1.68622
1.72043
1.69110
1.71554
1.68622
1.68133
1.68133
1.68133
1.68133
1.68622
1.70088
1.71065
1.74487
1.74487
1.76931
1.78397
1.78886
1.80841
1.80352
1.80352
1.80841
1.80352
1.79863
1.80352
1.80352
1.82307
1.78886
1.79374
1.79374
1.79374
1.79374
1.79374
1.79863
1.79374
1.79374
1.79374
1.79374
1.78886
1.78397
1.77908
1.77419
1.77908
1.77419
1.77419
1.76931
1.76931
1.76931
1.77419
1.76931
1.76442
1.80841
1.75464
1.75953
1.75464
1.74487
1.76442
1.74487
1.75464
1.73509
1.74487
1.73021
1.73021
1.72532
1.72043
1.73021
1.70577
1.74487
1.70577
1.71065
1.70577
1.70088
1.70088
1.70088
1.70088
1.69110
1.68622
1.69599
1.68622
1.72043
1.68133
1.67644
1.67644
1.67155
1.67644
1.66667
1.66178
1.70088
1.68133
1.68133
1.69599
1.73998
1.72532
1.74976
1.76931
1.77419
1.77908
1.79374
1.78397
1.77908
1.77419
1.77419
1.76931
1.76442
1.76931
1.76931
1.77419
1.77419
1.77908
1.78886
1.76931
1.77908
1.78886
1.78886
1.78886
1.78397
1.79863
1.75953
1.75953
1.78397
1.77419
1.75464
1.74976
1.76442
1.74976
1.74976
1.75464
1.74976
1.74976
1.73509
1.73998
1.73021
1.73021
1.73021
1.71554
1.71065
1.73998
1.70577
1.71554
1.70577
1.72043
1.69599
1.73021
1.68622
1.71065
1.68622
1.69110
1.67644
1.71554
1.67644
1.67644
1.66667
1.66667
1.66178
1.66178
1.68622
1.65689
1.65200
1.65689
1.64712
1.65200
1.67644
1.65689
1.64223
1.64223
1.63734
1.63734
1.63245
1.63245
1.62757
1.64712
1.63734
1.64223
1.65200
1.66667
1.68622
1.71065
1.71554
1.73998
1.74487
1.75953
1.75953
1.75953
1.75464
1.75464
1.75464
1.74487
1.74976
1.74487
1.74976
1.74976
1.75953
1.75464
1.76442
1.78397
1.79863
1.79374
1.75953
1.75464
1.75464
1.74976
1.74976
1.74487
1.74487
1.73998
1.73998
1.74487
1.73998
1.73509
1.73998
1.73509
1.73509
1.73509
1.72532
1.72532
1.75953
1.72043
1.72532
1.71065
1.71554
1.70577
1.70088
1.70088
1.69110
1.72043
1.68622
1.71065
1.67644
1.69599
1.67644
1.71065
1.67155
1.70088
1.67155
1.70088
1.66178
1.69110
1.65689
1.69110
1.64712
1.65689
1.65200
1.63734
1.66667
1.63734
1.63734
1.63245
1.63245
1.62268
1.62757
1.65200
1.61779
1.61779
1.62268
1.61290
1.60802
1.63734
1.61779
1.63245
1.65200
1.67155
1.69599
1.71065
1.72532
1.73509
1.73998
1.77419
1.74487
1.74976
1.74976
1.73998
1.74976
1.76442
1.76442
1.73509
1.73509
1.73998
1.73509
1.73509
1.74487
1.74976
1.74487
1.74487
1.74487
1.73998
1.73998
1.73509
1.73509
1.73509
1.73509
1.73021
1.73021
1.73021
1.73021
1.72532
1.73021
1.73021
1.71554
1.74487
1.71554
1.71065
1.70577
1.69599
1.70088
1.69599
1.71554
1.69599
1.69110
1.68622
1.68133
1.67644
1.67644
1.70088
1.67155
1.68622
1.66667
1.67155
1.66667
1.66667
1.65200
1.65200
1.65689
1.69110
1.64712
1.66178
1.65200
1.66667
1.64712
1.67644
1.63734
1.67155
1.62757
1.62757
1.62268
1.62268
1.62268
1.62268
1.62268
1.61779
1.61779
1.61290
1.62268
1.61290
1.65200
1.60802
1.62268
1.62268
1.63245
1.65689
1.67155
1.70088
1.70088
1.72043
1.72532
1.73021
1.73021
1.72532
1.72532
1.71554
1.72043
1.71554
1.71554
1.71554
1.72043
1.72532
1.72532
1.72532
1.72043
1.72532
1.73021
1.73021
1.73509
1.73021
1.72532
1.74487
1.72532
1.75464
1.76442
1.74487
1.71554
1.71554
1.71554
1.71554
1.71065
1.71065
1.70577
1.70088
1.69599
1.73021
1.69110
1.69110
1.68133
1.68133
1.69110
1.68622
1.71554
1.67644
1.68133
1.67155
1.67155
1.66667
1.66178
1.66178
1.66178
1.65689
1.65689
1.69599
1.65689
1.66178
1.65689
1.65200
1.65200
1.65200
1.68622
1.64712
1.65689
1.63734
1.64712
1.63245
1.63245
1.63734
1.64223
1.63734
1.62268
1.61779
1.61779
1.62268
1.62268
1.61779
1.62757
1.65200
1.64712
1.70088
1.67644
1.71554
1.69110
1.73021
1.73021
1.73998
1.73509
1.74487
1.73509
1.73021
1.72532
1.72043
1.72043
1.71554
1.73509
1.75464
1.75953
1.72532
1.73021
1.73021
1.72532
1.72532
1.72532
1.72043
1.71554
1.71554
1.71065
1.71065
1.71554
1.71554
1.71554
1.70577
1.71065
1.70577
1.70088
1.70088
1.73509
1.70577
1.70088
1.70088
1.69599
1.71554
1.68622
1.69110
1.67644
1.66667
1.70577
1.67155
1.67644
1.65689
1.66178
1.66178
1.66667
1.68622
1.65689
1.66667
1.65689
1.65200
1.67155
1.65200
1.66667
1.64712
1.65200
1.63734
1.64712
1.63734
1.63734
1.63245
1.63245
1.63245
1.63245
1.62757
1.62757
1.62268
1.64712
1.61779
1.61779
1.62757
1.63734
1.64712
1.70088
1.67644
1.73021
1.71554
1.74976
1.73509
1.73998
1.74487
1.74487
1.73021
1.73998
1.73021
1.73021
1.72532
1.73021
1.73509
1.74487
1.74487
1.75464
1.76931
1.73509
1.73509
1.73509
1.73509
1.73021
1.73021
1.72532
1.72532
1.73021
1.72532
1.72043
1.72532
1.72043
1.72532
1.72043
1.70577
1.72043
1.71554
1.71065
1.71065
1.70577
1.69599
1.69599
1.69110
1.68133
1.72532
1.68622
1.71554
1.67644
1.67644
1.67644
1.66667
1.67155
1.66667
1.69110
1.66178
1.66178
1.65689
1.66667
1.65689
1.65689
1.65200
1.67644
1.64712
1.68622
1.64712
1.68133
1.64712
1.64712
1.63734
1.63734
1.63734
1.63245
1.63245
1.63245
1.62757
1.66178
1.61779
1.65689
1.61779
1.62268
1.62757
1.64712
1.67155
1.72043
1.70088
1.73509
1.73021
1.74487
1.74976
1.74976
1.75464
1.74487
1.74487
1.73998
1.73509
1.73509
1.73509
1.73509
1.73021
1.73998
1.74976
1.74976
1.74976
1.74976
1.75464
1.76931
1.78397
1.74487
1.77419
1.73509
1.73509
1.73509
1.73509
1.73509
1.73021
1.73021
1.73021
1.73021
1.73021
1.72532
1.72043
1.72043
1.72532
1.71554
1.71065
1.74487
1.70088
1.70088
1.69110
1.69110
1.71554
1.68622
1.68622
1.68133
1.68133
1.67644
1.67644
1.67155
1.67155
1.66667
1.66178
1.66178
1.66178
1.65689
1.65689
1.65689
1.65689
1.66178
1.65200
1.64712
1.64223
1.64223
1.64712
1.63734
1.64223
1.63734
1.64223
1.63734
1.63734
1.62757
1.62757
1.63245
1.62268
1.63245
1.62757
1.67644
1.65200
1.66667
1.67644
1.73998
1.72043
1.74976
1.74487
1.76442
1.74976
1.74976
1.74487
1.74487
1.74487
1.73998
1.73021
1.74487
1.74976
1.75464
1.75953
1.76442
1.78397
1.74976
1.74976
1.75464
1.74976
1.74487
1.74487
1.73998
1.73998
1.73509
1.73509
1.73509
1.73509
1.73509
1.73509
1.73509
1.73021
1.73021
1.73021
1.72043
1.74487
1.71554
1.72532
1.71065
1.71065
1.70577
1.70088
1.70577
1.69110
1.69599
1.69599
1.68622
1.69110
1.68622
1.72043
1.68622
1.71554
1.67644
1.70577
1.67644
1.70088
1.66178
1.67644
1.66667
1.67644
1.66178
1.67155
1.64712
1.66667
1.65200
1.65689
1.65200
1.65689
1.64712
1.64712
1.64223
1.64223
1.64223
1.63245
1.62757
1.63245
1.63245
1.63245
1.63245
1.63734
1.64712
1.65689
1.68133
1.69599
1.71065
1.73509
1.73509
1.77419
1.75953
1.75464
1.75953
1.75464
1.75464
1.74976
1.74487
1.74487
1.75464
1.77419
1.76442
1.76442
1.77908
1.75464
1.75953
1.75953
1.75953
1.75464
1.75464
1.75464
1.75953
1.74976
1.74976
1.74487
1.74487
1.75464
1.73509
1.73509
1.73998
1.73509
1.73021
1.73509
1.73509
1.72532
1.76442
1.72043
1.73021
1.72532
1.72043
1.73998
1.71065
1.71065
1.71065
1.70088
1.73021
1.69599
1.69110
1.69599
1.69599
1.73509
1.68622
1.71065
1.69110
1.71554
1.68622
1.70088
1.67644
1.69599
1.67644
1.69110
1.67644
1.66667
1.67155
1.66667
1.66667
1.66178
1.69599
1.65689
1.69599
1.65200
1.65200
1.65689
1.65200
1.65200
1.65200
1.66178
1.66178
1.67644
1.69110
1.71065
1.73509
1.74976
1.74976
1.76442
1.76931
1.77419
1.76931
1.76931
1.78886
1.75953
1.75464
1.75464
1.75953
1.75464
1.75953
1.75953
1.76931
1.76931
1.78886
1.76442
1.75953
1.76442
1.75464
1.75464
1.74976
1.74976
1.74976
1.74976
1.74976
1.74976
1.74487
1.74487
1.74487
1.73998
1.74487
1.73998
1.73509
1.74976
1.72532
1.74487
1.72043
1.72532
1.71554
1.71554
1.70577
1.71065
1.70577
1.70088
1.69599
1.69599
1.72532
1.67155
1.71554
1.68133
1.71065
1.67644
1.70577
1.66667
1.71065
1.67155
1.69110
1.66667
1.67155
1.66178
1.66178
1.66178
1.65689
1.66178
1.65200
1.68622
1.65200
1.65200
1.65200
1.65200
1.65200
1.65200
1.68622
1.68133
1.70577
1.71554
1.75953
1.74976
1.79374
1.76442
1.78886
1.80841
1.78886
1.77419
1.76442
1.76442
1.75953
1.75953
1.75464
1.75953
1.75953
1.76442
1.76931
1.76931
1.76931
1.76931
1.77908
1.78397
1.79863
1.78886
1.79374
1.78886
1.75953
1.75464
1.74976
1.78886
1.77419
1.78886
1.78397
1.77908
1.76442
1.75464
1.74487
1.73509
1.75464
1.73998
1.72532
1.72532
1.72043
1.74487
1.71554
1.71065
1.71065
1.70577
1.71065
1.70577
1.73998
1.70577
1.70577
1.69599
1.69599
1.68622
1.69599
1.69110
1.69110
1.68133
1.68133
1.67644
1.68133
1.67644
1.67644
1.67155
1.69110
1.66178
1.66178
1.65689
1.65689
1.65689
1.65200
1.65200
1.66178
1.67155
1.69599
1.71554
1.73021
1.73509
1.76442
1.76442
1.77908
1.78397
1.78397
1.78397
1.78397
1.77908
1.77419
1.77419
1.77419
1.78397
1.78886
1.80841
1.77908
1.78397
1.78886
1.78886
1.79374
1.78886
1.78886
1.78886
1.78397
1.78886
1.77908
1.77419
1.77908
1.77419
1.76931
1.76931
1.76931
1.76931
1.76442
1.76442
1.78397
1.75953
1.75953
1.75464
1.74487
1.74487
1.74487
1.73998
1.73509
1.74976
1.73021
1.73998
1.73021
1.72043
1.71554
1.71065
1.71554
1.70577
1.70577
1.69599
1.73021
1.69599
1.69599
1.68622
1.69110
1.70088
1.68622
1.69599
1.68622
1.70088
1.67644
1.67644
1.67155
1.66667
1.67644
1.65689
1.66667
1.66667
1.65200
1.65689
1.65200
1.67644
1.66667
1.67644
1.69110
1.73021
1.73021
1.78397
1.76442
1.78886
1.77908
1.78397
1.78397
1.78886
1.79863
1.81329
1.78397
1.77908
1.77908
1.78397
1.79374
1.78886
1.79374
1.78886
1.79863
1.80352
1.80352
1.80841
1.81818
1.79374
1.78397
1.78397
1.77908
1.77908
1.77908
1.77419
1.77419
1.77419
1.77419
1.76931
1.80841
1.76931
1.78397
1.76442
1.75953
1.75464
1.74487
1.76931
1.73998
1.73509
1.73021
1.73021
1.72532
1.72043
1.72043
1.72532
1.71554
1.71554
1.71065
1.71554
1.70577
1.71554
1.71065
1.71065
1.69599
1.70577
1.69110
1.68622
1.68622
1.68133
1.71554
1.67155
1.67155
1.67155
1.67155
1.66667
1.67644
1.66178
1.65200
1.64712
1.65200
1.64712
1.65200
1.66667
1.65689
1.65689
1.66667
1.68622
1.70088
1.72043
1.73509
1.76931
1.75953
1.80841
1.77908
1.78886
1.80352
1.80352
1.81329
1.77419
1.77419
1.77419
1.77419
1.77908
1.79374
1.78397
1.78886
1.79863
1.80352
1.79863
1.83284
1.81329
1.79863
1.81818
1.81818
1.78397
1.77419
1.77419
1.77419
1.77419
1.80841
1.80841
1.80352
1.79863
1.76442
1.75953
1.76442
1.75953
1.78397
1.74976
1.74976
1.74487
1.73998
1.73509
1.73509
1.73509
1.72532
1.74487
1.72043
1.75464
1.71554
1.71554
1.71065
1.70577
1.70088
1.71065
1.70088
1.69599
1.70088
1.69599
1.70577
1.68133
1.72532
1.68622
1.68133
1.68622
1.67644
1.70088
1.67155
1.67155
1.67644
1.66178
1.66178
1.66178
1.66178
1.65200
1.65689
1.66178
1.68133
1.66667
1.70088
1.72532
1.73998
1.75953
1.76931
1.77419
1.79374
1.78397
1.78397
1.78886
1.78397
1.77908
1.77908
1.77908
1.78886
1.76931
1.77419
1.77419
1.77419
1.78397
1.78397
1.78397
1.78397
1.77908
1.77908
1.77419
1.76931
1.76931
1.76442
1.75953
1.75953
1.75953
1.75953
1.75953
1.75464
1.75464
1.77908
1.74487
1.74976
1.74487
1.74487
1.74487
1.72532
1.72043
1.75464
1.71065
1.72532
1.70577
1.71065
1.70577
1.70577
1.70088
1.70577
1.69110
1.72043
1.69110
1.72532
1.67644
1.71554
1.67644
1.67644
1.66667
1.67155
1.68133
1.66667
1.66667
1.67155
1.66178
1.65689
1.68622
1.64712
1.64712
1.64712
1.64223
1.63734
1.64223
1.67155
1.66667
1.66667
1.68622
1.68133
1.71065
1.73509
1.74487
1.75953
1.76442
1.76442
1.76442
1.76442
1.75953
1.75464
1.75464
1.75464
1.74976
1.74976
1.75464
1.76442
1.75953
1.76442
1.76442
1.75953
1.76442
1.76442
1.76931
1.76931
1.76931
1.78886
1.78397
1.78397
1.74976
1.78397
1.78397
1.78397
1.74487
1.74487
1.73998
1.73998
1.73509
1.73021
1.72532
1.73998
1.71554
1.72043
1.71554
1.71065
1.70577
1.69599
1.73509
1.69110
1.69110
1.68622
1.68133
1.68133
1.68133
1.68133
1.70577
1.67155
1.70088
1.66667
1.70577
1.66178
1.65689
1.66178
1.65200
1.65200
1.63734
1.67644
1.64712
1.64223
1.66178
1.64223
1.63245
1.63245
1.63734
1.62757
1.62268
1.61779
1.64712
1.63734
1.64223
1.65689
1.67155
1.69599
1.72043
1.73509
1.75464
1.75464
1.75953
1.76442
1.75953
1.75464
1.75464
1.75464
1.75464
1.74976
1.74976
1.75464
1.74487
1.75464
1.75953
1.75464
1.76931
1.78886
1.76931
1.76442
1.75953
1.75953
1.75464
1.75464
1.75464
1.75464
1.74976
1.74487
1.74976
1.74487
1.74487
1.74487
1.73509
1.73509
1.72532
1.72043
1.73021
1.71554
1.72043
1.71065
1.70577
1.69599
1.69599
1.68133
1.70088
1.68622
1.69599
1.67644
1.70577
1.67644
1.67644
1.66178
1.66667
1.66178
1.66178
1.66667
1.65689
1.65200
1.65200
1.66178
1.65200
1.64223
1.64223
1.64712
1.63734
1.67155
1.62757
1.63734
1.63734
1.62268
1.62268
1.61779
1.61290
1.61290
1.64223
1.61290
1.61290
1.62268
1.63245
1.65200
1.67644
1.69110
1.71065
1.72043
1.73021
1.73998
1.74487
1.74487
1.77908
1.76931
1.76442
1.73998
1.73509
1.74976
1.73509
1.73998
1.74487
1.74976
1.74976
1.76442
1.75953
1.75464
1.74487
1.74976
1.74976
1.74487
1.75953
1.77908
1.76931
1.77419
1.73509
1.73509
1.73021
1.73509
1.73021
1.73021
1.72532
1.72043
1.72043
1.72043
1.71554
1.70577
1.71554
1.70088
1.70577
1.69599
1.69599
1.69110
1.69110
1.68622
1.68133
1.68133
1.67644
1.71065
1.66667
1.66667
1.66178
1.65200
1.66178
1.65689
1.64712
1.64712
1.65200
1.64712
1.67155
1.64223
1.63245
1.63734
1.63734
1.62757
1.63245
1.62268
1.66178
1.61290
1.61779
1.65200
1.61290
1.60802
1.61779
1.61779
1.61779
1.63245
1.63734
1.70088
1.68133
1.70577
1.72532
1.73509
1.74976
1.74976
1.75953
1.74976
1.74976
1.74487
1.73998
1.73998
1.73998
1.74487
1.75953
1.73998
1.74487
1.75464
1.75464
1.74976
1.75953
1.76442
1.77908
1.74976
1.74976
1.75464
1.73998
1.73998
1.74487
1.73998
1.73998
1.73998
1.73998
1.73509
1.73509
1.73021
1.73509
1.73021
1.74487
1.72043
1.72043
1.71065
1.71065
1.73998
1.69599
1.72043
1.70088
1.70088
1.69110
1.69110
1.68622
1.67155
1.68622
1.68133
1.67644
1.67644
1.71554
1.67644
1.67644
1.67155
1.69599
1.66667
1.66178
1.66178
1.65689
1.65200
1.65200
1.65689
1.64712
1.68622
1.64223
1.63734
1.64223
1.63734
1.67155
1.63245
1.63734
1.66667
1.65689
1.68133
1.69110
1.71065
1.72532
1.73998
1.74976
1.78886
1.75953
1.75953
1.75464
1.75953
1.74976
1.74487
1.73998
1.74487
1.76442
1.74487
1.74487
1.74976
1.73998
1.74976
1.74976
1.75464
1.74487
1.74487
1.74487
1.74487
1.74976
1.73998
1.74487
1.73509
1.73998
1.73998
1.73998
1.73509
1.73509
1.73021
1.73509
1.72043
1.72043
1.75464
1.71554
1.71554
1.70577
1.70088
1.72532
1.69599
1.70088
1.69599
1.69110
1.67644
1.69599
1.68622
1.69599
1.67644
1.68133
1.67155
1.67155
1.66667
1.66667
1.65689
1.66178
1.65689
1.67155
1.65689
1.66667
1.65200
1.68133
1.64223
1.65200
1.64223
1.63734
1.64223
1.63734
1.64223
1.64712
1.66178
1.67155
1.72043
1.71065
1.74976
1.73998
1.78397
1.75464
1.78886
1.80352
1.79374
1.79863
1.76442
1.75464
1.74976
1.75464
1.75953
1.75464
1.75464
1.75464
1.76442
1.76442
1.77908
1.78886
1.75953
1.75464
1.74976
1.75953
1.74487
1.74487
1.73998
1.73998
1.74487
1.74976
1.73509
1.73998
1.73509
1.74976
1.73021
1.73021
1.72043
1.72043
1.71554
1.71065
1.70577
1.70088
1.73021
1.70088
1.70577
1.69599
1.69110
1.69599
1.68622
1.72043
1.68133
1.68133
1.68133
1.67644
1.67644
1.67155
1.66667
1.70577
1.66667
1.69110
1.66667
1.65689
1.65689
1.65689
1.64712
1.64712
1.64223
1.64223
1.63734
1.63734
1.63734
1.64223
1.64712
1.69599
1.67644
1.69599
1.71554
1.73998
1.74976
1.76442
1.76931
1.80352
1.76442
1.76931
1.76931
1.76931
1.75953
1.76442
1.75464
1.76442
1.76442
1.76442
1.76931
1.78886
1.80841
1.77419
1.77419
1.77419
1.77419
1.77419
1.76931
1.76931
1.75953
1.75953
1.75953
1.75464
1.75953
1.75953
1.75953
1.75953
1.74976
1.74976
1.77908
1.73998
1.74487
1.73509
1.72532
1.73509
1.71554
1.72043
1.71554
1.70577
1.74976
1.70577
1.72532
1.69599
1.71554
1.69599
1.70577
1.69110
1.72043
1.68622
1.69599
1.67644
1.69110
1.67155
1.70577
1.66667
1.70577
1.66178
1.66667
1.66667
1.64712
1.68622
1.64712
1.64712
1.66178
1.64223
1.64223
1.68133
1.65200
1.66178
1.67644
1.70577
1.72043
1.73509
1.74976
1.75953
1.76931
1.77419
1.79374
1.79374
1.78886
1.79374
1.76442
1.76442
1.76931
1.77419
1.77419
1.77908
1.77908
1.78886
1.82307
1.78886
1.79374
1.79374
1.78886
1.78397
1.78397
1.77908
1.77908
1.78397
1.78886
1.79863
1.80352
1.76442
1.76442
1.75953
1.79374
1.74976
1.74976
1.75464
1.74487
1.76931
1.73998
1.74487
1.72532
1.73509
1.72532
1.72043
1.72043
1.71554
1.71065
1.70577
1.73998
1.69599
1.69599
1.69110
1.69599
1.69110
1.69110
1.71065
1.68622
1.68133
1.67644
1.67155
1.66667
1.66667
1.66667
1.69110
1.65689
1.66178
1.69599
1.65689
1.65200
1.65200
1.64712
1.64223
1.64712
1.64712
1.65200
1.67155
1.68622
1.71554
1.72532
1.73998
1.75464
1.76442
1.76931
1.77419
1.77419
1.77419
1.77908
1.80352
1.80352
1.80841
1.77419
1.77419
1.76931
1.78397
1.78397
1.78886
1.78886
1.77908
1.78397
1.77908
1.77908
1.78397
1.78397
1.77419
1.77908
1.79374
1.79863
1.77419
1.77908
1.78397
1.79374
1.75953
1.75464
1.75464
1.78397
1.74487
1.74487
1.73509
1.73021
1.72532
1.75464
1.72043
1.72043
1.71554
1.71065
1.70577
1.70577
1.70577
1.69599
1.69599
1.69599
1.69599
1.70577
1.69110
1.70088
1.68622
1.68622
1.67644
1.70088
1.66667
1.66667
1.67644
1.66667
1.66667
1.69110
1.65689
1.65200
1.65200
1.64223
1.64712
1.65689
1.64712
1.65200
1.65200
1.65200
1.66178
1.67155
1.68622
1.70577
1.72532
1.77419
1.74976
1.75953
1.76442
1.79863
1.76931
1.76442
1.76931
1.79863
1.75953
1.75953
1.75953
1.76442
1.76442
1.76442
1.76931
1.78397
1.80841
1.77419
1.77419
1.76931
1.76931
1.76931
1.76442
1.76442
1.76931
1.76931
1.76931
1.77908
1.79374
1.79863
1.76442
1.75464
1.74487
1.77419
1.73021
1.73509
1.73021
1.72532
1.73021
1.72532
1.75464
1.71554
1.72043
1.70577
1.71554
1.70577
1.73021
1.69110
1.68622
1.68133
1.68133
1.68133
1.68133
1.67644
1.67644
1.69599
1.66667
1.66667
1.66178
1.66667
1.68133
1.65200
1.65689
1.67155
1.65689
1.66178
1.66667
1.65689
1.69599
1.66667
1.65689
1.67155
1.65689
1.69599
1.66178
1.67155
1.69599
1.71554
1.73509
1.74976
1.76931
1.78397
1.77908
1.78397
1.78886
1.80352
1.79374
1.75953
1.75464
1.76442
1.76442
1.76931
1.76931
1.77419
1.75953
1.76442
1.76442
1.76442
1.76931
1.75953
1.75953
1.75464
1.75953
1.75464
1.75464
1.75953
1.75464
1.75464
1.74487
1.73998
1.77419
1.73509
1.73998
1.73509
1.73021
1.73021
1.72043
1.71554
1.71065
1.71065
1.70577
1.70577
1.69110
1.72043
1.69599
1.73509
1.71065
1.73021
1.71554
1.73509
1.69599
1.72043
1.68622
1.72532
1.69110
1.69110
1.68622
1.68622
1.68133
1.67644
1.66667
1.66178
1.66178
1.65200
1.65689
1.64712
1.64712
1.65200
1.64223
1.67644
1.64223
1.64712
1.66178
1.67155
1.73021
1.71065
1.73021
1.74487
1.78886
1.76442
1.76931
1.76931
1.76442
1.76442
1.78886
1.75464
1.75464
1.75464
1.74976
1.75464
1.74487
1.74976
1.75464
1.76442
1.74976
1.77419
1.74976
1.74487
1.73998
1.73998
1.73509
1.73509
1.73998
1.73998
1.73998
1.74487
1.74487
1.75464
1.73998
1.73021
1.73021
1.73021
1.73021
1.71554
1.72532
1.72043
1.74976
1.70577
1.71554
1.70088
1.70088
1.69599
1.69110
1.69110
1.68622
1.69599
1.66178
1.69599
1.67155
1.70577
1.66667
1.66667
1.66667
1.66178
1.66178
1.65689
1.65689
1.65200
1.65689
1.65200
1.64712
1.64712
1.66178
1.63734
1.65689
1.63245
1.62268
1.65200
1.63245
1.63734
1.67644
1.66178
1.68622
1.70088
1.72532
1.73998
1.74976
1.75464
1.77419
1.75953
1.76931
1.76931
1.78886
1.75464
1.75464
1.74976
1.75464
1.75464
1.75953
1.76931
1.76442
1.78886
1.78397
1.75953
1.76931
1.76442
1.75953
1.74976
1.74487
1.74487
1.74487
1.73998
1.74487
1.74487
1.74487
1.74487
1.74487
1.73509
1.72043
1.72043
1.71554
1.70577
1.71554
1.70088
1.70577
1.69599
1.73509
1.69110
1.70088
1.68133
1.72043
1.68622
1.69599
1.67644
1.70088
1.66667
1.66667
1.65689
1.65689
1.65689
1.65689
1.69110
1.65689
1.65689
1.65200
1.64712
1.63734
1.63245
1.62757
1.62757
1.62757
1.62757
1.66178
1.62757
1.62268
1.61779
1.62757
1.62268
1.62757
1.67644
1.65689
1.67644
1.69599
1.71554
1.73021
1.74487
1.74976
1.75953
1.75464
1.75464
1.75953
1.75464
1.75464
1.74976
1.77908
1.74487
1.75464
1.75464
1.75464
1.75953
1.76931
1.76931
1.78886
1.75953
1.75464
1.74976
1.74487
1.73509
1.73509
1.73021
1.73998
1.73998
1.74487
1.74487
1.73998
1.73509
1.72532
1.74976
1.71554
1.71065
1.71065
1.70577
1.73021
1.70577
1.73021
1.70088
1.70577
1.69110
1.68622
1.68133
1.67644
1.67644
1.68133
1.67155
1.68622
1.66667
1.68133
1.65689
1.69110
1.65689
1.65689
1.65200
1.64712
1.64223
1.63734
1.66178
1.63734
1.63734
1.63734
1.63245
1.61779
1.62757
1.61779
1.61779
1.62268
1.61779
1.61290
1.62268
1.61290
1.61779
1.63734
1.64712
1.66667
1.71554
1.71065
1.72532
1.73509
1.76931
1.75464
1.75953
1.76442
1.75953
1.74976
1.74976
1.73998
1.74487
1.75953
1.76442
1.73998
1.74976
1.75464
1.75953
1.75464
1.75464
1.75464
1.75464
1.74976
1.74487
1.74976
1.74976
1.74976
1.76442
1.73998
1.73998
1.73509
1.73021
1.73509
1.72043
1.73509
1.73509
1.72532
1.72532
1.75953
1.71554
1.71554
1.70577
1.71065
1.70088
1.69110
1.71554
1.68133
1.68622
1.67644
1.68133
1.68133
1.68133
1.67644
1.71065
1.66178
1.68622
1.65689
1.65689
1.64223
1.65200
1.65689
1.64712
1.64712
1.64223
1.64223
1.62757
1.62757
1.64223
1.62268
1.62757
1.63245
1.62268
1.62268
1.65689
1.62268
1.62268
1.62757
1.63734
1.65200
1.70577
1.69110
1.74487
1.72532
1.77908
1.74976
1.76931
1.75464
1.75464
1.75464
1.74976
1.75464
1.74976
1.75953
1.78397
1.76931
1.75464
1.75464
1.74976
1.75464
1.75464
1.75953
1.75464
1.75464
1.75464
1.75464
1.74976
1.77419
1.76442
1.77419
1.77419
1.73998
1.73998
1.73509
1.73509
1.73509
1.74487
1.72532
1.73021
1.72532
1.72043
1.71065
1.72043
1.73509
1.69599
1.71554
1.69599
1.71554
1.68622
1.71554
1.67644
1.71554
1.67644
1.69110
1.67155
1.69110
1.66667
1.66667
1.66178
1.68622
1.65689
1.67155
1.64712
1.65200
1.65689
1.65200
1.68622
1.65200
1.64712
1.65200
1.63734
1.63734
1.63734
1.63245
1.63245
1.63245
1.63245
1.66667
1.63734
1.64712
1.67155
1.68622
1.70577
1.72043
1.73998
1.76442
1.76442
1.75953
1.76931
1.79863
1.75953
1.75464
1.74487
1.74487
1.75464
1.75464
1.75464
1.75953
1.75953
1.76931
1.78397
1.76442
1.75953
1.75464
1.75464
1.75464
1.75464
1.75464
1.74487
1.74976
1.74976
1.74976
1.74976
1.75464
1.75953
1.74976
1.75953
1.74487
1.74487
1.74976
1.72532
1.72532
1.71554
1.71065
1.71065
1.70577
1.70577
1.69599
1.70088
1.69110
1.69110
1.68622
1.68133
1.67644
1.68133
1.67644
1.67644
1.67644
1.67644
1.67155
1.70088
1.66178
1.66178
1.65689
1.65689
1.65200
1.65200
1.64712
1.63734
1.67644
1.64223
1.63734
1.64223
1.63245
1.63734
1.64223
1.65200
1.66667
1.69599
1.70577
1.73021
1.74976
1.75953
1.76442
1.76442
1.76442
1.76442
1.75953
1.75953
1.75464
1.77419
1.77419
1.74976
1.75464
1.73998
1.74976
1.74976
1.74976
1.74976
1.74976
1.74487
1.74487
1.73998
1.74487
1.75464
1.76931
1.76931
1.75953
1.76931
1.76442
1.75953
1.74976
1.74976
1.73021
1.72532
1.72043
1.75464
1.72043
1.72532
1.71065
1.71065
1.70577
1.70088
1.71065
1.69599
1.72532
1.68622
1.71554
1.68133
1.71554
1.67155
1.70577
1.66667
1.66178
1.66178
1.65689
1.67155
1.65689
1.65689
1.65200
1.65200
1.68622
1.64712
1.63734
1.63734
1.62757
1.61779
1.65200
1.62268
1.63245
1.64223
1.67155
1.69110
1.74487
1.73021
1.74487
1.75464
1.76442
1.76442
1.76931
1.75953
1.76931
1.75953
1.75953
1.75953
1.79374
1.78397
1.75464
1.75953
1.76442
1.76442
1.76442
1.75464
1.75464
1.74976
1.74487
1.73509
1.73998
1.73998
1.73998
1.74487
1.75464
1.75953
1.77908
1.73998
1.73509
1.77419
1.73509
1.74976
1.73998
1.73021
1.73509
1.72532
1.72532
1.71554
1.71554
1.71065
1.71065
1.70088
1.71065
1.69110
1.71065
1.69599
1.69110
1.68133
1.68133
1.67155
1.67644
1.67155
1.69599
1.65689
1.65689
1.65200
1.65689
1.66667
1.64712
1.68133
1.64223
1.64223
1.64712
1.64712
1.65689
1.66178
1.67155
1.69110
1.70577
1.72532
1.74976
1.76442
1.77419
1.80352
1.82307
1.81818
1.78397
1.78397
1.77908
1.77419
1.77419
1.76931
1.76931
1.77908
1.78397
1.78886
1.80352
1.81329
1.77908
1.77908
1.76931
1.77419
1.76931
1.76931
1.76442
1.76442
1.75953
1.76442
1.76442
1.75464
1.74976
1.75953
1.75464
1.75464
1.75464
1.74976
1.75464
1.73509
1.75953
1.73021
1.75953
1.72043
1.72532
1.70577
1.70577
1.69110
1.69110
1.69110
1.69110
1.67644
1.70577
1.67644
1.67155
1.68133
1.66667
1.66667
1.66667
1.65689
1.65200
1.65200
1.65200
1.64223
1.64223
1.63734
1.63734
1.66667
1.62757
1.65200
1.65689
1.65689
1.66178
1.68133
1.70088
1.72532
1.74976
1.75464
1.77419
1.77419
1.77908
1.77419
1.77419
1.77908
1.77908
1.77419
1.77419
1.80352
1.79863
1.76931
1.77419
1.78397
1.78886
1.78886
1.78886
1.78886
1.78397
1.80841
1.78397
1.76931
1.76442
1.76442
1.75953
1.75464
1.75464
1.76442
1.78397
1.74976
1.75464
1.74487
1.74976
1.73998
1.73021
1.72043
1.72043
1.71065
1.70577
1.73509
1.70088
1.73021
1.69110
1.72043
1.68133
1.71554
1.67155
1.67155
1.67155
1.66667
1.68133
1.66178
1.65689
1.65200
1.64712
1.64223
1.63734
1.64712
1.63734
1.64223
1.63734
1.67155
1.66178
1.65689
1.62757
1.62268
1.61290
1.61779
1.61779
1.63734
1.65200
1.66667
1.68622
1.73998
1.72043
1.73998
1.75953
1.75464
1.75464
1.75464
1.75464
1.75953
1.74976
1.74487
1.74487
1.74487
1.74487
1.74976
1.76931
1.77908
1.76931
1.76442
1.76931
1.76442
1.75464
1.74976
1.74487
1.75464
1.73998
1.73998
1.78886
1.73509
1.73998
1.73509
1.73509
1.74976
1.73021
1.76442
1.72532
1.73509
1.71554
1.71554
1.70577
1.70577
1.70088
1.70577
1.71554
1.68622
1.70577
1.67644
1.71065
1.67155
1.67155
1.66667
1.66667
1.67155
1.66178
1.65689
1.64712
1.65200
1.64712
1.63734
1.67644
1.64223
1.63734
1.66667
1.62757
1.62757
1.62757
1.63734
1.62268
1.61779
1.61290
1.61290
1.60313
1.59824
1.60313
1.60802
1.62268
1.63734
1.65689
1.71065
1.69599
1.71554
1.73509
1.73509
1.74976
1.75464
1.74487
1.74487
1.74487
1.74487
1.73998
1.73998
1.74487
1.75953
1.75464
1.75464
1.75464
1.75953
1.75464
1.75953
1.75953
1.78886
1.74976
1.74487
1.74487
1.73998
1.74487
1.74487
1.73021
1.73509
1.72532
1.72532
1.72043
1.72532
1.75953
1.71554
1.72043
1.71554
1.71554
1.74976
1.70577
1.71065
1.69110
1.69110
1.67644
1.69599
1.67644
1.68133
1.68133
1.69599
1.66667
1.67644
1.66178
1.66178
1.65200
1.65200
1.65200
1.64712
1.65200
1.64223
1.63734
1.62757
1.63245
1.65200
1.62757
1.62757
1.62757
1.62268
1.61779
1.65200
1.61290
1.61290
1.60802
1.61290
1.60802
1.60802
1.65689
1.64223
1.66178
1.68622
1.70088
1.72532
1.73509
1.75464
1.74976
1.75464
1.75464
1.75953
1.75464
1.75464
1.74487
1.74487
1.75953
1.74976
1.77419
1.73998
1.74976
1.74976
1.75464
1.76442
1.75953
1.75953
1.75953
1.75464
1.77419
1.77908
1.74487
1.73509
1.74487
1.73998
1.74487
1.73998
1.73509
1.73509
1.73509
1.73509
1.73509
1.72043
1.72043
1.75464
1.71065
1.73021
1.70088
1.72532
1.69110
1.70088
1.68622
1.69110
1.68133
1.69599
1.67644
1.71065
1.67155
1.69110
1.66178
1.66178
1.66667
1.66178
1.67155
1.65689
1.67155
1.65200
1.65200
1.65200
1.65200
1.66178
1.64223
1.67644
1.63734
1.63245
1.63245
1.63245
1.64712
1.64223
1.65200
1.67644
1.69110
1.73998
1.74487
1.78397
1.75953
1.76931
1.76931
1.76442
1.76931
1.75953
1.79374
1.75464
1.74976
1.74976
1.74976
1.74976
1.74976
1.75464
1.76442
1.79374
1.75464
1.75464
1.74976
1.74976
1.74487
1.73509
1.73998
1.73998
1.73998
1.74487
1.74487
1.74487
1.73998
1.74976
1.73021
1.74487
1.73021
1.72043
1.71554
1.71554
1.71065
1.70088
1.70088
1.69110
1.69110
1.69110
1.72043
1.68622
1.69599
1.67644
1.67644
1.67155
1.68133
1.66667
1.70088
1.66178
1.66667
1.65200
1.65200
1.64712
1.64223
1.65200
1.63734
1.67155
1.63734
1.63245
1.63245
1.63245
1.63245
1.62268
1.62757
1.62757
1.64712
1.64223
1.65200
1.67644
1.69110
1.74976
1.73021
1.77908
1.76931
1.77908
1.76931
1.76442
1.76442
1.75464
1.75953
1.75464
1.75953
1.76442
1.74976
1.75464
1.75464
1.75464
1.74976
1.75953
1.78397
1.73998
1.73998
1.74487
1.73021
1.73509
1.73509
1.73509
1.73021
1.73021
1.73021
1.73021
1.72532
1.72532
1.73021
1.72532
1.75953
1.71554
1.72532
1.71065
1.73021
1.70088
1.71065
1.69599
1.70577
1.69110
1.69110
1.68622
1.68622
1.68622
1.68133
1.67155
1.69110
1.66667
1.66178
1.65689
1.64712
1.67155
1.65689
1.65200
1.64712
1.64712
1.64712
1.63734
1.66178
1.63734
1.63245
1.63245
1.62757
1.66178
1.62757
1.63734
1.66667
1.67155
1.69110
1.70577
1.73021
1.74976
1.75953
1.76931
1.77419
1.77908
1.77419
1.77419
1.76442
1.76931
1.79863
1.75953
1.75953
1.75953
1.76442
1.76442
1.76931
1.77908
1.77908
1.81329
1.77419
1.77419
1.76442
1.76442
1.75953
1.75464
1.75953
1.75953
1.75953
1.75464
1.75953
1.78397
1.74487
1.74487
1.73509
1.73509
1.74487
1.76442
1.72532
1.73021
1.71065
1.71065
1.71065
1.70577
1.69110
1.70577
1.69110
1.69599
1.67644
1.71554
1.67155
1.67155
1.66667
1.66178
1.66178
1.67155
1.65689
1.65689
1.66667
1.65200
1.65689
1.65689
1.64712
1.64223
1.63734
1.63245
1.62757
1.62268
1.66178
1.62757
1.61779
1.62268
1.62757
1.64712
1.65200
1.68622
1.73998
1.72532
1.73998
1.75464
1.75953
1.76442
1.78886
1.76931
1.79863
1.75953
1.75953
1.75953
1.75464
1.76442
1.76442
1.76931
1.76931
1.80352
1.78397
1.77419
1.77419
1.77419
1.76931
1.75464
1.75464
1.76442
1.74487
1.74487
1.74487
1.74487
1.73998
1.73509
1.76442
1.73509
1.73998
1.73509
1.73021
1.72043
1.72532
1.71554
1.71065
1.70577
1.70088
1.69599
1.69110
1.68622
1.68622
1.68622
1.68133
1.67644
1.67155
1.67155
1.67155
1.66667
1.66178
1.66178
1.65689
1.68622
1.64223
1.64712
1.64223
1.67155
1.63245
1.63245
1.63245
1.63245
1.63245
1.62757
1.62268
1.62268
1.61290
1.61290
1.61290
1.62268
1.65689
1.68133
1.67644
1.68133
1.70577
1.75953
1.73509
1.75953
1.75953
1.79863
1.75464
1.75464
1.75464
1.75464
1.74487
1.74976
1.75953
1.75953
1.76442
1.77419
1.79374
1.75953
1.76442
1.76442
1.75464
1.75953
1.76442
1.77419
1.78397
1.74487
1.74487
1.74487
1.74487
1.73998
1.73509
1.73998
1.73509
1.73509
1.75464
1.73021
1.73509
1.71554
1.72043
1.70577
1.70088
1.71065
1.69599
1.69599
1.69110
1.68622
1.68133
1.68133
1.67644
1.67155
1.67155
1.66667
1.66667
1.66178
1.65689
1.65200
1.65200
1.65689
1.64712
1.68133
1.64223
1.63734
1.65689
1.62757
1.62757
1.64223
1.62268
1.62268
1.61779
1.61779
1.61290
1.61290
1.61290
1.61290
1.61779
1.63245
1.68133
1.66178
1.68133
1.70577
1.71554
1.73998
1.74976
1.78886
1.75464
1.79863
1.77419
1.75464
1.75464
1.74487
1.74976
1.75464
1.73998
1.75464
1.75464
1.75953
1.76442
1.76931
1.77419
1.78886
1.75953
1.75953
1.75464
1.74976
1.74976
1.74487
1.73998
1.73998
1.74976
1.77419
1.76931
1.73998
1.73998
1.73509
1.73021
1.72532
1.72043
1.73998
1.71065
1.72532
1.70577
1.72043
1.69599
1.71065
1.68622
1.72532
1.67644
1.71065
1.67155
1.66667
1.66667
1.66667
1.66178
1.65689
1.69110
1.65689
1.65689
1.65200
1.65689
1.67644
1.64712
1.64712
1.65200
1.63734
1.64223
1.63245
1.63245
1.63245
1.62757
1.62268
1.62268
1.63245
1.64223
1.67644
1.68133
1.69110
1.73021
1.73509
1.76931
1.75953
1.77419
1.77419
1.76931
1.76931
1.76442
1.76442
1.76442
1.78886
1.75464
1.75953
1.75953
1.76931
1.77908
1.76931
1.76442
1.76931
1.77419
1.77419
1.79374
1.75464
1.74976
1.74976
1.74976
1.74976
1.74976
1.74487
1.75464
1.74976
1.75464
1.73998
1.73509
1.73021
1.73021
1.72532
1.71554
1.72043
1.72532
1.69110
1.70577
1.70088
1.69599
1.69110
1.69110
1.68622
1.68622
1.67644
1.68622
1.67155
1.70577
1.65689
1.66178
1.66178
1.65689
1.69110
1.65200
1.65200
1.66178
1.64223
1.63734
1.67644
1.63734
1.62757
1.62757
1.62757
1.62757
1.63734
1.64712
1.65689
1.68133
1.70088
1.71065
1.74976
1.73998
1.75464
1.75953
1.78886
1.75464
1.75464
1.75464
1.75464
1.75953
1.74976
1.77419
1.78397
1.78397
1.74976
1.73998
1.74976
1.75464
1.74976
1.74487
1.74487
1.74487
1.73998
1.74487
1.73998
1.74487
1.74976
1.76442
1.74976
1.74976
1.75464
1.76442
1.72532
1.76442
1.72532
1.74976
1.71554
1.71554
1.70577
1.70088
1.69599
1.69110
1.69110
1.68622
1.68133
1.68133
1.68133
1.67644
1.67155
1.65200
1.66178
1.66178
1.66178
1.66178
1.65689
1.65689
1.64712
1.68133
1.64223
1.64223
1.64223
1.63245
1.65689
1.61779
1.62268
1.66178
1.62757
1.64712
1.69599
1.68133
1.71065
1.74976
1.74487
1.78886
1.75464
1.78397
1.76931
1.76931
1.76931
1.76931
1.79374
1.75953
1.75464
1.75464
1.75953
1.75953
1.76442
1.76442
1.75953
1.76931
1.76442
1.78886
1.78886
1.74487
1.74487
1.73998
1.73998
1.73509
1.73021
1.72532
1.73509
1.72532
1.72532
1.72532
1.72043
1.73998
1.71554
1.71554
1.71065
1.70577
1.69599
1.70088
1.68622
1.69599
1.68133
1.67644
1.67155
1.67155
1.66178
1.69599
1.65689
1.66178
1.64712
1.64712
1.65200
1.64223
1.68133
1.64712
1.63734
1.64223
1.63245
1.62757
1.64712
1.62268
1.61779
1.61779
1.62757
1.62268
1.62757
1.66178
1.66178
1.68133
1.73021
1.72532
1.73509
1.74976
1.75464
1.75464
1.77419
1.75464
1.75464
1.75953
1.78397
1.73998
1.73998
1.74487
1.74976
1.74487
1.75953
1.78886
1.75953
1.75464
1.74976
1.74487
1.74487
1.73998
1.73998
1.73021
1.73021
1.72532
1.73509
1.73021
1.72043
1.72043
1.71554
1.72532
1.71065
1.71065
1.70577
1.69599
1.73021
1.69110
1.72043
1.67644
1.69599
1.67155
1.69599
1.66667
1.66178
1.65689
1.65200
1.64712
1.63734
1.65689
1.63734
1.63245
1.63245
1.63245
1.63245
1.62757
1.62268
1.63734
1.61779
1.61290
1.63734
1.61290
1.60802
1.59824
1.60313
1.60313
1.59824
1.63245
1.62268
1.62757
1.64712
1.67644
1.68622
1.73998
1.72043
1.74976
1.73509
1.73998
1.73509
1.73021
1.73021
1.72043
1.72532
1.73509
1.73509
1.76442
1.73021
1.73509
1.73998
1.73998
1.73509
1.73998
1.74487
1.73509
1.73021
1.73509
1.74487
1.73509
1.72043
1.71554
1.71554
1.71554
1.71065
1.71065
1.71065
1.73998
1.69599
1.73509
1.69110
1.71554
1.68133
1.68133
1.67155
1.67644
1.66667
1.67155
1.65689
1.69110
1.65200
1.64712
1.64223
1.64712
1.64223
1.64223
1.63734
1.63734
1.66667
1.62757
1.62268
1.63734
1.61779
1.61779
1.61779
1.61290
1.60802
1.60313
1.60313
1.60802
1.60313
1.58847
1.58358
1.59335
1.61779
1.61290
1.63245
1.65689
1.66667
1.71065
1.69599
1.71065
1.72043
1.72532
1.72532
1.72532
1.71554
1.72043
1.72043
1.72043
1.72532
1.73021
1.73998
1.73998
1.73509
1.73509
1.73509
1.73509
1.73021
1.72532
1.72532
1.73021
1.74976
1.75464
1.71554
1.70577
1.70577
1.70577
1.70577
1.70577
1.70577
1.70577
1.67644
1.69599
1.69110
1.68622
1.68622
1.67644
1.68133
1.67155
1.66667
1.66667
1.67644
1.65689
1.66667
1.65689
1.65689
1.64712
1.64712
1.63734
1.64712
1.63734
1.64712
1.63245
1.65689
1.62268
1.62268
1.61290
1.61779
1.61779
1.61290
1.63734
1.60802
1.64223
1.60802
1.59824
1.59824
1.59824
1.59335
1.60313
1.62268
1.62268
1.64712
1.65689
1.70088
1.69599
1.74976
1.72532
1.76442
1.73509
1.73509
1.73021
1.73509
1.74976
1.72043
1.72043
1.72043
1.72043
1.73021
1.73021
1.73021
1.73509
1.74976
1.73509
1.73509
1.73509
1.73021
1.72532
1.72043
1.72043
1.72043
1.72043
1.72043
1.72532
1.71554
1.70088
1.71065
1.70577
1.70577
1.71065
1.70088
1.70088
1.69110
1.69110
1.69110
1.68133
1.68133
1.67644
1.67155
1.67155
1.66667
1.66178
1.66178
1.65689
1.69110
1.65689
1.69110
1.65200
1.66178
1.65200
1.63245
1.64223
1.63734
1.64223
1.63245
1.63734
1.62757
1.63734
1.62757
1.62757
1.62268
1.62268
1.62268
1.61779
1.62268
1.62757
1.64712
1.65200
1.71554
1.69599
1.73998
1.73021
1.73998
1.74487
1.74976
1.74976
1.74487
1.73509
1.73021
1.73021
1.76442
1.72532
1.72532
1.72532
1.72532
1.72532
1.73021
1.73509
1.74487
1.74976
1.75953
1.72043
1.72043
1.72043
1.71554
1.71554
1.72043
1.71065
1.71554
1.71065
1.71065
1.73509
1.70577
1.73509
1.69599
1.73509
1.69110
1.71554
1.67644
1.68133
1.67644
1.66667
1.66178
1.66667
1.66178
1.65200
1.65200
1.64712
1.64712
1.64223
1.64223
1.64223
1.63734
1.64712
1.63734
1.63734
1.62757
1.65689
1.61779
1.61779
1.62268
1.61779
1.61779
1.61290
1.62757
1.60802
1.60802
1.63734
1.61779
1.63245
1.65200
1.67155
1.68133
1.71065
1.72532
1.73509
1.73998
1.74976
1.76442
1.77419
1.75953
1.73509
1.73021
1.73021
1.73021
1.72532
1.73998
1.73509
1.73021
1.73021
1.73021
1.72532
1.72532
1.73021
1.73021
1.73021
1.73509
1.73509
1.74487
1.72532
1.71065
1.70088
1.70577
1.71554
1.70577
1.70088
1.70088
1.70088
1.69599
1.69110
1.71554
1.68133
1.69110
1.67155
1.69599
1.66667
1.67155
1.66178
1.67155
1.65200
1.67155
1.64223
1.67644
1.64223
1.64223
1.62757
1.63245
1.63245
1.63245
1.64223
1.62757
1.62757
1.63245
1.62757
1.64712
1.60802
1.61290
1.60802
1.60802
1.63245
1.60802
1.64712
1.62268
1.64223
1.66667
1.68133
1.71065
1.72043
1.74976
1.73998
1.73998
1.73509
1.73509
1.73021
1.72532
1.72043
1.71065
1.71554
1.73509
1.71065
1.72043
1.72532
1.72532
1.72532
1.72532
1.72043
1.73998
1.71554
1.71065
1.71065
1.70577
1.70577
1.70577
1.70088
1.70088
1.69599
1.69110
1.69599
1.69110
1.72532
1.68622
1.69599
1.67644
1.67644
1.66667
1.66178
1.65200
1.65200
1.65200
1.64712
1.63734
1.64223
1.63734
1.62757
1.66178
1.62757
1.62268
1.62757
1.62268
1.65689
1.61290
1.61290
1.61290
1.61290
1.61779
1.59824
1.64712
1.60802
1.60313
1.60313
1.59824
1.62757
1.58847
1.59335
1.56891
1.58847
1.59824
1.60313
1.65689
1.64223
1.66667
1.68133
1.69599
1.72532
1.72043
1.73021
1.72532
1.73021
1.73998
1.75464
1.75464
1.71065
1.71065
1.71065
1.72043
1.73021
1.73998
1.74976
1.76442
1.77419
1.75464
1.72043
1.71554
1.71554
1.71554
1.71065
1.71554
1.71065
1.72043
1.73998
1.71065
1.71065
1.70577
1.70088
1.70088
1.69599
1.69599
1.69599
1.69599
1.68622
1.67644
1.66667
1.66667
1.66178
1.66178
1.67155
1.64712
1.64223
1.65200
1.64223
1.64712
1.64712
1.65200
1.63734
1.64712
1.63734
1.67155
1.63734
1.66667
1.63734
1.63734
1.62268
1.62268
1.61779
1.61290
1.64223
1.60313
1.64223
1.60802
1.60802
1.60313
1.60802
1.61290
1.61290
1.63245
1.63734
1.69110
1.68133
1.70088
1.71065
1.72532
1.72532
1.73021
1.72532
1.72043
1.72043
1.71554
1.71554
1.71554
1.72043
1.74487
1.74976
1.74976
1.71554
1.71065
1.71554
1.71554
1.71065
1.71065
1.72532
1.74487
1.71065
1.70577
1.70577
1.70088
1.70088
1.69599
1.69599
1.69599
1.69110
1.71554
1.69110
1.69110
1.68622
1.70577
1.67644
1.69110
1.67644
1.67155
1.66178
1.66178
1.65689
1.65200
1.64223
1.64712
1.64223
1.64223
1.63734
1.64223
1.63245
1.63245
1.62757
1.62268
1.62757
1.62757
1.61779
1.62268
1.61290
1.63245
1.61290
1.61779
1.61290
1.61290
1.60802
1.60313
1.60313
1.59824
1.59824
1.59824
1.64223
1.61779
1.66178
1.65200
1.67644
1.69110
1.71554
1.73021
1.74487
1.74487
1.73998
1.73998
1.73998
1.73021
1.72532
1.71554
1.71554
1.71554
1.72043
1.72532
1.74976
1.71554
1.71554
1.71554
1.72532
1.72532
1.72532
1.72043
1.72043
1.73021
1.73021
1.70088
1.70577
1.70577
1.70577
1.70088
1.70088
1.69599
1.70577
1.68622
1.70577
1.69110
1.69110
1.68133
1.68622
1.67644
1.67155
1.66667
1.67644
1.66178
1.67155
1.65689
1.66667
1.64712
1.65200
1.64712
1.65200
1.65200
1.65689
1.63734
1.65200
1.63734
1.67155
1.63734
1.62757
1.63245
1.62757
1.62757
1.62268
1.63245
1.62757
1.62268
1.63245
1.63734
1.62757
1.63245
1.64223
1.66178
1.68622
1.70088
1.71554
1.73021
1.73998
1.73998
1.74487
1.74487
1.73021
1.73509
1.72043
1.71065
1.72043
1.73509
1.73021
1.73998
1.71065
1.71554
1.71554
1.71065
1.71065
1.70577
1.70577
1.70577
1.70577
1.70577
1.71065
1.72043
1.71065
1.72532
1.73021
1.69110
1.72043
1.69110
1.69599
1.70577
1.70577
1.69110
1.68622
1.69110
1.67644
1.67155
1.66667
1.65689
1.65689
1.65689
1.65200
1.65200
1.65200
1.65689
1.65200
1.64223
1.65689
1.64223
1.64223
1.64223
1.63734
1.63245
1.61779
1.62268
1.61779
1.62757
1.61779
1.64712
1.62268
1.65689
1.61290
1.61290
1.61290
1.61779
1.64223
1.64712
1.67644
1.69110
1.71065
1.71554
1.74976
1.73509
1.73509
1.73509
1.73021
1.73021
1.72043
1.72043
1.71554
1.71065
1.71065
1.72043
1.73998
1.71554
1.72532
1.72043
1.71065
1.72043
1.72043
1.73509
1.72043
1.70577
1.70577
1.70088
1.70088
1.70088
1.70577
1.70577
1.70088
1.69599
1.69110
1.70577
1.69599
1.71554
1.68622
1.71554
1.67644
1.69599
1.68622
1.68622
1.67155
1.67155
1.65689
1.66178
1.65200
1.65200
1.64712
1.66178
1.64712
1.66178
1.64712
1.65689
1.63734
1.65689
1.62757
1.65689
1.62757
1.62268
1.62268
1.61779
1.64223
1.61290
1.61290
1.61779
1.60802
1.61290
1.62268
1.63734
1.64712
1.66667
1.68622
1.70088
1.71554
1.73509
1.73998
1.73509
1.74487
1.73998
1.73998
1.73509
1.73021
1.73509
1.75953
1.72532
1.73021
1.73021
1.73021
1.73509
1.73998
1.73021
1.77419
1.74976
1.73509
1.73021
1.73021
1.73021
1.72043
1.72532
1.72532
1.72532
1.72532
1.72532
1.72043
1.72532
1.71554
1.71554
1.71065
1.71065
1.70577
1.70088
1.69599
1.69110
1.69110
1.68622
1.67155
1.71554
1.67155
1.69110
1.66667
1.70577
1.66178
1.66667
1.65689
1.68622
1.65689
1.65200
1.65200
1.64223
1.64712
1.64223
1.64223
1.64223
1.64712
1.63734
1.65200
1.63245
1.62757
1.62757
1.61779
1.66667
1.63245
1.64223
1.65200
1.67644
1.70577
1.71554
1.76442
1.73998
1.77419
1.75464
1.75464
1.75464
1.75464
1.74976
1.75953
1.76442
1.74487
1.74487
1.74487
1.74487
1.74487
1.74976
1.76442
1.78886
1.75464
1.75953
1.75464
1.74487
1.74976
1.75464
1.76931
1.73998
1.73509
1.73509
1.73509
1.73021
1.73998
1.73998
1.74487
1.73021
1.74487
1.73021
1.73021
1.72532
1.72043
1.70577
1.70577
1.69599
1.73021
1.69110
1.72043
1.68622
1.68622
1.68622
1.68133
1.67155
1.71065
1.67155
1.66667
1.66667
1.66178
1.69110
1.66178
1.69110
1.65200
1.64712
1.65200
1.63734
1.64712
1.64223
1.63734
1.64223
1.63734
1.63245
1.62757
1.62757
1.62757
1.62757
1.63734
1.63734
1.69110
1.66667
1.69110
1.71065
1.72532
1.74487
1.75953
1.75953
1.76442
1.76931
1.76442
1.79374
1.75464
1.74976
1.74976
1.74976
1.74976
1.75953
1.75464
1.75464
1.75953
1.75464
1.76442
1.75464
1.75464
1.75464
1.76442
1.77908
1.78397
1.77908
1.77419
1.73998
1.73998
1.73998
1.73998
1.73509
1.73509
1.73509
1.73509
1.75953
1.72532
1.73509
1.71554
1.71065
1.70577
1.70577
1.70577
1.69599
1.73509
1.69110
1.69599
1.69110
1.69110
1.68133
1.68622
1.67155
1.70577
1.66667
1.66667
1.66667
1.66178
1.66667
1.65689
1.69110
1.65689
1.64712
1.64712
1.64712
1.68133
1.64712
1.64223
1.65200
1.63245
1.63245
1.65200
1.62757
1.62757
1.66667
1.64223
1.65200
1.69599
1.68133
1.70577
1.72532
1.73998
1.78886
1.76442
1.80352
1.79863
1.78397
1.76442
1.75953
1.75464
1.74487
1.74976
1.75953
1.78397
1.75953
1.76442
1.76931
1.76931
1.76931
1.76442
1.76442
1.76931
1.77908
1.78886
1.79374
1.75464
1.74976
1.74487
1.74976
1.74976
1.74976
1.74976
1.74487
1.74487
1.73998
1.73509
1.73509
1.73021
1.72532
1.72532
1.75953
1.71554
1.74487
1.70577
1.71554
1.70088
1.70577
1.69110
1.69110
1.69110
1.68622
1.69599
1.67644
1.70088
1.68622
1.70088
1.67644
1.71554
1.67644
1.67644
1.66178
1.66667
1.67155
1.66667
1.67644
1.66667
1.67155
1.67155
1.66667
1.70088
1.65200
1.64223
1.65200
1.65200
1.69110
1.66667
1.68622
1.69110
1.69599
1.72043
1.71554
1.76931
1.74487
1.77419
1.76931
1.76931
1.76931
1.76442
1.76442
1.75953
1.76442
1.77419
1.78397
1.78886
1.78886
1.78886
1.80841
1.76931
1.75464
1.74487
1.74487
1.73509
1.73998
1.73021
1.72043
1.73509
1.76931
1.82796
1.89150
1.87195
1.84751
1.85239
1.86706
1.87683
1.87683
1.87195
1.82307
1.83284
1.84262
1.84262
1.83773
1.83284
1.82796
1.80352
1.79374
1.76442
1.76931
1.74976
1.77419
1.75464
1.79374
1.74976
1.73998
1.73998
1.73021
1.73998
1.72043
1.71065
1.70577
1.70088
1.73509
1.70577
1.71554
1.71065
1.68622
1.68622
1.67644
1.67155
1.65689
1.66667
1.68133
1.69599
1.72043
1.73998
1.77908
1.76442
1.77419
1.77419
1.77908
1.78397
1.77908
1.77908
1.77419
1.76442
1.76442
1.76931
1.75953
1.76442
1.76442
1.80352
1.76442
1.78397
1.76442
1.79374
1.76442
1.75953
1.75953
1.75953
1.78886
1.74487
1.74976
1.73509
1.75464
1.73998
1.74976
1.73998
1.76442
1.73509
1.73998
1.73021
1.73021
1.71554
1.71554
1.71065
1.72043
1.70577
1.71554
1.68622
1.71065
1.69599
1.70577
1.68622
1.68622
1.67155
1.67155
1.67644
1.66178
1.66178
1.66178
1.66178
1.66178
1.66178
1.66178
1.64712
1.64712
1.64223
1.64223
1.68133
1.66667
1.64712
1.64223
1.63245
1.62757
1.62268
1.63245
1.62757
1.63245
1.64223
1.66178
1.71554
1.69599
1.72043
1.73509
1.74976
1.75953
1.76931
1.76442
1.79863
1.75953
1.75953
1.74976
1.75464
1.75464
1.75464
1.75464
1.75953
1.75953
1.77419
1.75464
1.75464
1.75464
1.75953
1.75953
1.74976
1.75464
1.77908
1.73509
1.73998
1.73509
1.73509
1.73509
1.73021
1.73021
1.72043
1.72532
1.72532
1.74487
1.71554
1.71554
1.70577
1.70577
1.70088
1.72532
1.69110
1.70088
1.68622
1.72043
1.67644
1.70088
1.66667
1.70088
1.66667
1.66178
1.66667
1.66178
1.66667
1.65689
1.67644
1.65200
1.64712
1.66178
1.64223
1.63734
1.64223
1.63245
1.62757
1.63734
1.62757
1.62268
1.64223
1.62268
1.62268
1.61290
1.64712
1.61779
1.61779
1.63734
1.69110
1.67155
1.69599
1.73998
1.74487
1.74976
1.75953
1.75464
1.75953
1.75464
1.75464
1.75953
1.77419
1.74976
1.74976
1.74976
1.74976
1.75464
1.75953
1.77908
1.76442
1.76442
1.76442
1.76442
1.76442
1.75464
1.74976
1.74487
1.74487
1.75464
1.77908
1.73509
1.73509
1.73021
1.73021
1.72043
1.72532
1.72043
1.73509
1.72043
1.71554
1.71065
1.71065
1.69599
1.68622
1.68133
1.71554
1.67155
1.67155
1.66667
1.65200
1.67644
1.63245
1.62268
1.61779
1.60802
1.60313
1.60313
1.60802
1.61779
1.62757
1.63245
1.61779
1.61779
1.61290
1.61290
1.61779
1.61290
1.61779
1.61779
1.61290
1.63245
1.64223
1.61290
1.60313
1.60313
1.59824
1.60802
1.61779
1.63734
1.65689
1.71554
1.69110
1.69599
1.72043
1.73021
1.75953
1.75464
1.75953
1.76442
1.77419
1.77419
1.77419
1.76931
1.77908
1.75953
1.75953
1.75464
1.75953
1.76931
1.80352
1.76931
1.76442
1.77419
1.77419
1.78397
1.78886
1.75953
1.75953
1.75464
1.75464
1.74976
1.74487
1.74976
1.74976
1.74976
1.74976
1.73998
1.73509
1.71065
1.73021
1.72532
1.75953
1.71554
1.71554
1.71554
1.70577
1.70577
1.70577
1.70088
1.70577
1.69110
1.69110
1.68622
1.68133
1.68133
1.67644
1.68133
1.67155
1.67644
1.67644
1.67644
1.67155
1.66667
1.65689
1.65689
1.65689
1.65689
1.65689
1.65689
1.65689
1.65689
1.64712
1.64712
1.64223
1.64223
1.65200
1.63734
1.64223
1.65200
1.66667
1.67644
1.70088
1.72043
1.73998
1.76442
1.76931
1.80352
1.80352
1.77908
1.77908
1.77419
1.76442
1.75953
1.75953
1.77419
1.74976
1.75464
1.75464
1.75464
1.75953
1.77419
1.78397
1.76442
1.75953
1.75953
1.75464
1.74976
1.74487
1.74487
1.74487
1.72043
1.74487
1.73998
1.74487
1.73998
1.75464
1.73509
1.76931
1.72532
1.73509
1.72532
1.73021
1.71554
1.73509
1.71065
1.71065
1.70088
1.69599
1.69110
1.69110
1.68622
1.69110
1.67644
1.69110
1.67155
1.67644
1.66667
1.67155
1.68133
1.67644
1.69110
1.67644
1.69599
1.65200
1.65200
1.65689
1.64712
1.64223
1.64223
1.65200
1.68133
1.65200
1.64223
1.63245
1.63734
1.64223
1.68622
1.68133
1.70577
1.74976
1.74976
1.76442
1.76931
1.77419
1.76931
1.76931
1.76442
1.75953
1.75953
1.78397
1.74487
1.74976
1.74976
1.74976
1.75464
1.75464
1.75953
1.74976
1.74976
1.74976
1.76931
1.77908
1.74487
1.73998
1.74487
1.73998
1.73509
1.72532
1.72532
1.73021
1.72532
1.72532
1.73998
1.76442
1.72043
1.72532
1.71554
1.71065
1.70577
1.70577
1.69110
1.70088
1.69599
1.69110
1.68622
1.68622
1.67155
1.68133
1.67155
1.68133
1.66667
1.69599
1.66178
1.66178
1.66178
1.65689
1.69110
1.64712
1.64712
1.64712
1.64223
1.64223
1.63245
1.63734
1.64712
1.62757
1.62757
1.63734
1.62268
1.62757
1.63734
1.65689
1.67155
1.69110
1.71554
1.73509
1.75953
1.76442
1.77419
1.76931
1.76931
1.79863
1.75953
1.74976
1.74976
1.74487
1.74487
1.74976
1.75464
1.78886
1.75464
1.75953
1.76442
1.76931
1.76442
1.79374
1.75464
1.75464
1.75464
1.74976
1.74487
1.73998
1.74487
1.74976
1.76442
1.76931
1.74487
1.74487
1.74487
1.73509
1.73021
1.73021
1.72043
1.72043
1.71554
1.71554
1.71065
1.71065
1.69599
1.69599
1.69599
1.67644
1.68133
1.68622
1.68622
1.71554
1.68133
1.67644
1.66667
1.65689
1.66667
1.65200
1.65689
1.69599
1.65689
1.65689
1.65689
1.64712
1.64223
1.64223
1.64223
1.63734
1.64712
1.64223
1.63734
1.68133
1.64712
1.66178
1.69599
1.70577
1.73021
1.74976
1.76442
1.77419
1.77908
1.77908
1.77419
1.77419
1.76931
1.77419
1.76931
1.80841
1.76442
1.76442
1.76442
1.76931
1.77908
1.78397
1.77419
1.77419
1.76931
1.77419
1.76931
1.76442
1.76931
1.76442
1.76442
1.77419
1.79863
1.75464
1.74976
1.74976
1.74487
1.73509
1.73998
1.73021
1.73021
1.72532
1.72532
1.72043
1.72532
1.71065
1.70577
1.70088
1.70577
1.71065
1.69110
1.72043
1.68133
1.68622
1.68622
1.67644
1.70577
1.67644
1.67155
1.68133
1.66667
1.67155
1.67155
1.66178
1.66178
1.67155
1.65689
1.64712
1.67155
1.64712
1.64223
1.64712
1.63734
1.63245
1.63734
1.63734
1.65200
1.66178
1.71554
1.70088
1.71554
1.76442
1.75953
1.76931
1.77908
1.82796
1.78886
1.77908
1.77419
1.77419
1.76931
1.76442
1.77908
1.78886
1.76931
1.77419
1.77908
1.77419
1.77419
1.77908
1.77419
1.78397
1.79863
1.76931
1.76442
1.76442
1.76442
1.76442
1.76442
1.75953
1.76442
1.76931
1.78397
1.77908
1.75464
1.76442
1.74487
1.75953
1.73998
1.73021
1.72532
1.72043
1.71554
1.71554
1.71065
1.70577
1.74487
1.70088
1.70088
1.70088
1.69599
1.70088
1.69110
1.72043
1.68622
1.67644
1.67644
1.67644
1.66667
1.66667
1.66178
1.65689
1.66178
1.65689
1.65200
1.65689
1.64712
1.64712
1.64223
1.64223
1.64223
1.64223
1.64712
1.64712
1.70088
1.68622
1.69599
1.71554
1.77419
1.74487
1.76931
1.77419
1.79374
1.79374
1.78886
1.81818
1.77419
1.76931
1.76931
1.76442
1.76442
1.77419
1.80352
1.81329
1.77419
1.78397
1.77908
1.77908
1.77908
1.77419
1.80352
1.76931
1.76931
1.76931
1.76442
1.76442
1.75953
1.76931
1.77419
1.75953
1.75953
1.76931
1.75953
1.75464
1.74976
1.74976
1.74487
1.76442
1.73509
1.73998
1.72532
1.72043
1.71554
1.72043
1.71065
1.72043
1.70088
1.74487
1.70088
1.69599
1.70088
1.70088
1.70577
1.69599
1.71065
1.69110
1.69599
1.68133
1.68133
1.69110
1.67644
1.67644
1.67155
1.67155
1.70577
1.67155
1.65689
1.66178
1.67155
1.67155
1.67644
1.70088
1.72043
1.77908
1.76442
1.78397
1.79374
1.79863
1.80352
1.80352
1.80352
1.79863
1.80352
1.78886
1.78397
1.78397
1.77419
1.78397
1.78397
1.79374
1.83284
1.79374
1.79374
1.79374
1.78886
1.78886
1.79374
1.80841
1.77908
1.76442
1.76931
1.76931
1.80352
1.77419
1.77419
1.76931
1.77419
1.75953
1.76442
1.74976
1.75464
1.73998
1.74487
1.73021
1.73509
1.72532
1.73998
1.71554
1.73998
1.71554
1.71065
1.70577
1.71554
1.69599
1.69599
1.70577
1.69110
1.69110
1.68622
1.68622
1.67155
1.69599
1.66667
1.66178
1.66667
1.67155
1.67155
1.66178
1.67644
1.66178
1.65200
1.65200
1.65200
1.66667
1.69110
1.70088
1.72043
1.74976
1.76931
1.77908
1.81329
1.78397
1.79374
1.78886
1.78886
1.78397
1.78886
1.81818
1.77908
1.78397
1.77908
1.78397
1.77908
1.78886
1.81329
1.78397
1.78397
1.78397
1.77908
1.78397
1.77419
1.77908
1.77908
1.78397
1.78397
1.79863
1.78397
1.76931
1.75953
1.75953
1.75464
1.74976
1.74487
1.73998
1.72532
1.72043
1.71554
1.72532
1.71554
1.71065
1.70088
1.69599
1.69110
1.70577
1.69110
1.69599
1.69110
1.68622
1.67644
1.68133
1.67644
1.67155
1.67155
1.66178
1.65689
1.65689
1.65689
1.65689
1.66667
1.65689
1.66178
1.66667
1.64712
1.63245
1.62268
1.66667
1.64712
1.68622
1.70088
1.72043
1.73998
1.76442
1.80352
1.78397
1.80352
1.77908
1.77908
1.77908
1.77908
1.78886
1.81818
1.78886
1.78397
1.77908
1.77908
1.77908
1.80352
1.77908
1.78886
1.78397
1.79374
1.79374
1.79863
1.82796
1.78397
1.78397
1.77419
1.76931
1.77419
1.76931
1.76442
1.75464
1.76442
1.75953
1.75953
1.75953
1.75464
1.74976
1.73998
1.73998
1.75464
1.72532
1.75953
1.72532
1.74487
1.71554
1.70577
1.70088
1.69599
1.69110
1.68622
1.68622
1.68622
1.67644
1.70088
1.68133
1.67644
1.67155
1.70088
1.66667
1.66667
1.66178
1.66178
1.65689
1.64712
1.64712
1.64223
1.64223
1.63734
1.63734
1.63734
1.64712
1.65689
1.68133
1.70577
1.72532
1.74487
1.75464
1.77908
1.78397
1.79863
1.78886
1.78886
1.78397
1.77908
1.78397
1.78397
1.79863
1.80841
1.78397
1.78397
1.79374
1.79374
1.79863
1.79863
1.83284
1.78886
1.78397
1.77419
1.76442
1.75953
1.76442
1.79374
1.79863
1.75464
1.77908
1.75464
1.74487
1.74487
1.74976
1.74976
1.74487
1.73509
1.73509
1.76442
1.72532
1.74487
1.70577
1.74487
1.70577
1.70577
1.70577
1.69599
1.69599
1.68622
1.70088
1.68622
1.68133
1.69110
1.67644
1.68133
1.67155
1.66178
1.65200
1.64223
1.64712
1.65200
1.68133
1.66667
1.65200
1.64223
1.64223
1.64223
1.63734
1.63245
1.62757
1.62268
1.62268
1.63245
1.65200
1.66667
1.68622
1.70577
1.73509
1.74487
1.76442
1.77419
1.77908
1.78886
1.77908
1.78397
1.80352
1.77908
1.77908
1.77908
1.77908
1.77419
1.75464
1.76931
1.77908
1.81329
1.77908
1.77419
1.77908
1.77908
1.76931
1.76931
1.80352
1.75953
1.75464
1.75953
1.75464
1.76442
1.75464
1.75953
1.74976
1.75464
1.73998
1.75464
1.73509
1.73509
1.72532
1.74487
1.72043
1.71065
1.71065
1.71065
1.70577
1.69599
1.69599
1.68622
1.71065
1.67644
1.67155
1.68622
1.66667
1.66667
1.67155
1.66178
1.65689
1.67155
1.66178
1.65689
1.65689
1.65200
1.64223
1.64223
1.63245
1.63245
1.63245
1.62268
1.62757
1.62268
1.63245
1.60313
1.62757
1.62268
1.63245
1.65200
1.67155
1.70577
1.73998
1.75464
1.80352
1.77419
1.81329
1.77908
1.77908
1.77908
1.78397
1.78397
1.79863
1.77419
1.77419
1.77419
1.77419
1.78397
1.79863
1.78886
1.78886
1.78886
1.78397
1.78886
1.78397
1.77419
1.76442
1.76442
1.76442
1.75953
1.76442
1.76442
1.75953
1.76442
1.76442
1.74976
1.74976
1.74487
1.74487
1.73998
1.73998
1.73021
1.72532
1.76442
1.72532
1.72043
1.71554
1.71065
1.71065
1.70577
1.72532
1.68622
1.71554
1.68622
1.68622
1.68622
1.68133
1.71065
1.68133
1.67155
1.68622
1.67155
1.67155
1.70088
1.67155
1.66667
1.66667
1.68133
1.65689
1.65689
1.65200
1.64712
1.64712
1.65200
1.65200
1.66667
1.69110
1.72532
1.73509
1.75464
1.77419
1.78397
1.77908
1.78397
1.78886
1.79863
1.82796
1.78886
1.77908
1.77419
1.77419
1.78397
1.77419
1.76931
1.76931
1.77419
1.77419
1.77908
1.78397
1.78397
1.76931
1.76442
1.76442
1.76931
1.75953
1.75953
1.76442
1.76931
1.78886
1.75464
1.78397
1.74487
1.77908
1.73998
1.74976
1.72532
1.73509
1.71554
1.72532
1.71065
1.74487
1.70577
1.73509
1.69599
1.69599
1.69110
1.68622
1.71554
1.67644
1.67644
1.67155
1.67155
1.71065
1.67155
1.66178
1.68622
1.65689
1.65689
1.66667
1.64223
1.65200
1.64223
1.64223
1.64223
1.63734
1.63734
1.64712
1.65689
1.67644
1.69110
1.71065
1.73998
1.76931
1.77419
1.82307
1.79374
1.78886
1.78886
1.79374
1.80841
1.76931
1.76931
1.76931
1.76442
1.76931
1.77908
1.78397
1.76931
1.76931
1.76442
1.75953
1.75953
1.74976
1.75953
1.76931
1.74976
1.74487
1.74487
1.73509
1.73021
1.73509
1.73509
1.73998
1.73998
1.73021
1.74487
1.71554
1.75464
1.71065
1.71554
1.70088
1.73509
1.69110
1.72532
1.68622
1.67644
1.68133
1.66667
1.67155
1.65689
1.66178
1.66178
1.65689
1.65689
1.65200
1.65200
1.64223
1.65689
1.67155
1.66667
1.65200
1.65200
1.62757
1.63245
1.62268
1.61779
1.61779
1.62757
1.62757
1.63734
1.65689
1.68622
1.69599
1.72532
1.74487
1.76931
1.76442
1.80352
1.76931
1.76931
1.76442
1.75953
1.76442
1.77908
1.76931
1.75953
1.76442
1.76442
1.76442
1.76931
1.80841
1.77419
1.77419
1.77419
1.76931
1.76931
1.76931
1.77908
1.75464
1.74976
1.74976
1.74976
1.74487
1.73998
1.73998
1.73998
1.73509
1.74487
1.73509
1.76442
1.72532
1.74976
1.71065
1.70577
1.70088
1.70088
1.70577
1.69599
1.73021
1.68622
1.68622
1.68622
1.67644
1.67155
1.67155
1.66667
1.67644
1.65689
1.65689
1.68622
1.64712
1.64712
1.64223
1.67644
1.65689
1.64712
1.63734
1.63245
1.62757
1.62268
1.61290
1.60802
1.61290
1.61779
1.63245
1.65200
1.67644
1.69599
1.71554
1.75953
1.75464
1.80352
1.76931
1.78397
1.77419
1.77419
1.77419
1.80352
1.76442
1.76442
1.76931
1.76442
1.76931
1.77419
1.80841
1.77419
1.77908
1.77419
1.77419
1.76931
1.78886
1.76442
1.75953
1.75464
1.74976
1.74976
1.74976
1.74976
1.74487
1.74487
1.73998
1.76442
1.73509
1.75464
1.72532
1.73998
1.71554
1.73998
1.71065
1.74487
1.70577
1.71554
1.69599
1.73021
1.69110
1.69110
1.68133
1.68133
1.68133
1.67155
1.68622
1.66667
1.67155
1.68622
1.65689
1.65689
1.66667
1.64223
1.64712
1.65200
1.64223
1.64223
1.63734
1.63245
1.63245
1.63734
1.62268
1.61779
1.62757
1.63734
1.66667
1.68622
1.69599
1.70577
1.73021
1.74487
1.76442
1.77908
1.77908
1.77908
1.78397
1.77908
1.77419
1.79374
1.80352
1.77419
1.77419
1.77419
1.77908
1.77908
1.79374
1.81329
1.78397
1.77908
1.78397
1.77419
1.77908
1.77419
