2022-11-25 15:23:15.285003, 1.80352
2022-11-25 15:23:15.285253, 1.79863
2022-11-25 15:23:15.285421, 1.81818
2022-11-25 15:23:15.318225, 1.79374
2022-11-25 15:23:15.318495, 1.78886
2022-11-25 15:23:15.318681, 1.78886
2022-11-25 15:23:15.318844, 1.80841
2022-11-25 15:23:15.351548, 1.77908
2022-11-25 15:23:15.351801, 1.77419
2022-11-25 15:23:15.351980, 1.77419
2022-11-25 15:23:15.384807, 1.79374
2022-11-25 15:23:15.385092, 1.76931
2022-11-25 15:23:15.385331, 1.76442
2022-11-25 15:23:15.385540, 1.76931
2022-11-25 15:23:15.418171, 1.75953
2022-11-25 15:23:15.418436, 1.76442
2022-11-25 15:23:15.418612, 1.74976
2022-11-25 15:23:15.451363, 1.77419
2022-11-25 15:23:15.451635, 1.74487
2022-11-25 15:23:15.451807, 1.74487
2022-11-25 15:23:15.451960, 1.74487
2022-11-25 15:23:15.484760, 1.73998
2022-11-25 15:23:15.485020, 1.73509
2022-11-25 15:23:15.485203, 1.74487
2022-11-25 15:23:15.485367, 1.73021
2022-11-25 15:23:15.518092, 1.72532
2022-11-25 15:23:15.518347, 1.75464
2022-11-25 15:23:15.518524, 1.73021
2022-11-25 15:23:15.551337, 1.73021
2022-11-25 15:23:15.551604, 1.72043
2022-11-25 15:23:15.551776, 1.72043
2022-11-25 15:23:15.551939, 1.74487
2022-11-25 15:23:15.584673, 1.71554
2022-11-25 15:23:15.584908, 1.72043
2022-11-25 15:23:15.585074, 1.70577
2022-11-25 15:23:15.617907, 1.74487
2022-11-25 15:23:15.618121, 1.70088
2022-11-25 15:23:15.618246, 1.70577
2022-11-25 15:23:15.618361, 1.73021
2022-11-25 15:23:15.651281, 1.70577
2022-11-25 15:23:15.651540, 1.71554
2022-11-25 15:23:15.651712, 1.72043
2022-11-25 15:23:15.684508, 1.73021
2022-11-25 15:23:15.684774, 1.77908
2022-11-25 15:23:15.684946, 1.74976
2022-11-25 15:23:15.685106, 1.75953
2022-11-25 15:23:15.717860, 1.78886
2022-11-25 15:23:15.718116, 1.76931
2022-11-25 15:23:15.718283, 1.77419
2022-11-25 15:23:15.751052, 1.77908
2022-11-25 15:23:15.751291, 1.80352
2022-11-25 15:23:15.751419, 1.77908
2022-11-25 15:23:15.751537, 1.77908
2022-11-25 15:23:15.784429, 1.78397
2022-11-25 15:23:15.784680, 1.77908
2022-11-25 15:23:15.784849, 1.79863
2022-11-25 15:23:15.785007, 1.77908
2022-11-25 15:23:15.817807, 1.77908
2022-11-25 15:23:15.818063, 1.77908
2022-11-25 15:23:15.818227, 1.80352
2022-11-25 15:23:15.851020, 1.78397
2022-11-25 15:23:15.851282, 1.77908
2022-11-25 15:23:15.851455, 1.77908
2022-11-25 15:23:15.851619, 1.77908
2022-11-25 15:23:15.884347, 1.77908
2022-11-25 15:23:15.884661, 1.81818
2022-11-25 15:23:15.884842, 1.78886
2022-11-25 15:23:15.917621, 1.77908
2022-11-25 15:23:15.917884, 1.77908
2022-11-25 15:23:15.918059, 1.77908
2022-11-25 15:23:15.918220, 1.77908
2022-11-25 15:23:15.950980, 1.79374
2022-11-25 15:23:15.951254, 1.79374
2022-11-25 15:23:15.951422, 1.77908
2022-11-25 15:23:15.984184, 1.77419
2022-11-25 15:23:15.984458, 1.77419
2022-11-25 15:23:15.984632, 1.77419
2022-11-25 15:23:15.984792, 1.80841
2022-11-25 15:23:16.017557, 1.77419
2022-11-25 15:23:16.017803, 1.77419
2022-11-25 15:23:16.017963, 1.76442
2022-11-25 15:23:16.050783, 1.77908
2022-11-25 15:23:16.051069, 1.76442
2022-11-25 15:23:16.051244, 1.76442
2022-11-25 15:23:16.051400, 1.75953
2022-11-25 15:23:16.084138, 1.78886
2022-11-25 15:23:16.084409, 1.74976
2022-11-25 15:23:16.084578, 1.74487
2022-11-25 15:23:16.084746, 1.74487
2022-11-25 15:23:16.117527, 1.74487
2022-11-25 15:23:16.117781, 1.73998
2022-11-25 15:23:16.117951, 1.73021
2022-11-25 15:23:16.150744, 1.73998
2022-11-25 15:23:16.151033, 1.72532
2022-11-25 15:23:16.151208, 1.73021
2022-11-25 15:23:16.151372, 1.72043
2022-11-25 15:23:16.184140, 1.73509
2022-11-25 15:23:16.184404, 1.72532
2022-11-25 15:23:16.184574, 1.71554
2022-11-25 15:23:16.217349, 1.71554
2022-11-25 15:23:16.217604, 1.73021
2022-11-25 15:23:16.217769, 1.71554
2022-11-25 15:23:16.217930, 1.71554
2022-11-25 15:23:16.250683, 1.74976
2022-11-25 15:23:16.250924, 1.71065
2022-11-25 15:23:16.251087, 1.71065
2022-11-25 15:23:16.283920, 1.73509
2022-11-25 15:23:16.284185, 1.69599
2022-11-25 15:23:16.284350, 1.69110
2022-11-25 15:23:16.284517, 1.71065
2022-11-25 15:23:16.317320, 1.69110
2022-11-25 15:23:16.317567, 1.69110
2022-11-25 15:23:16.317744, 1.68622
2022-11-25 15:23:16.350456, 1.68622
2022-11-25 15:23:16.350737, 1.72532
2022-11-25 15:23:16.350911, 1.69599
2022-11-25 15:23:16.351067, 1.69110
2022-11-25 15:23:16.383866, 1.72532
2022-11-25 15:23:16.384108, 1.70577
2022-11-25 15:23:16.384280, 1.71554
2022-11-25 15:23:16.384439, 1.75464
2022-11-25 15:23:16.417209, 1.73509
2022-11-25 15:23:16.417470, 1.73998
2022-11-25 15:23:16.417646, 1.75464
2022-11-25 15:23:16.450457, 1.76442
2022-11-25 15:23:16.450713, 1.75953
2022-11-25 15:23:16.450881, 1.76442
2022-11-25 15:23:16.451045, 1.76442
2022-11-25 15:23:16.483817, 1.76931
2022-11-25 15:23:16.484072, 1.77908
2022-11-25 15:23:16.484244, 1.76442
2022-11-25 15:23:16.517040, 1.75464
2022-11-25 15:23:16.517299, 1.75464
2022-11-25 15:23:16.517462, 1.75953
2022-11-25 15:23:16.517617, 1.76442
2022-11-25 15:23:16.550370, 1.78886
2022-11-25 15:23:16.550645, 1.77419
2022-11-25 15:23:16.550818, 1.75953
2022-11-25 15:23:16.583715, 1.75953
2022-11-25 15:23:16.584210, 1.75464
2022-11-25 15:23:16.584414, 1.75953
2022-11-25 15:23:16.584586, 1.79374
2022-11-25 15:23:16.616994, 1.75953
2022-11-25 15:23:16.617308, 1.74976
2022-11-25 15:23:16.617482, 1.74976
2022-11-25 15:23:16.650256, 1.74976
2022-11-25 15:23:16.650495, 1.74976
2022-11-25 15:23:16.650624, 1.77419
2022-11-25 15:23:16.650773, 1.74976
2022-11-25 15:23:16.683602, 1.74976
2022-11-25 15:23:16.683891, 1.75464
2022-11-25 15:23:16.684088, 1.78886
2022-11-25 15:23:16.684256, 1.74976
2022-11-25 15:23:16.716931, 1.74976
2022-11-25 15:23:16.717191, 1.74487
2022-11-25 15:23:16.717411, 1.74487
2022-11-25 15:23:16.750170, 1.75464
2022-11-25 15:23:16.750382, 1.74976
2022-11-25 15:23:16.750547, 1.74487
2022-11-25 15:23:16.750692, 1.74487
2022-11-25 15:23:16.783505, 1.75464
2022-11-25 15:23:16.783717, 1.75464
2022-11-25 15:23:16.783839, 1.73998
2022-11-25 15:23:16.816786, 1.73509
2022-11-25 15:23:16.817056, 1.73998
2022-11-25 15:23:16.817238, 1.73021
2022-11-25 15:23:16.817426, 1.73509
2022-11-25 15:23:16.850101, 1.73509
2022-11-25 15:23:16.850309, 1.73998
2022-11-25 15:23:16.850452, 1.75464
2022-11-25 15:23:16.883338, 1.73509
2022-11-25 15:23:16.883612, 1.73509
2022-11-25 15:23:16.883799, 1.73509
2022-11-25 15:23:16.884025, 1.73021
2022-11-25 15:23:16.916736, 1.73021
2022-11-25 15:23:16.917000, 1.72532
2022-11-25 15:23:16.917243, 1.73509
2022-11-25 15:23:16.949821, 1.72043
2022-11-25 15:23:16.950077, 1.71554
2022-11-25 15:23:16.950276, 1.72043
2022-11-25 15:23:16.950511, 1.75464
2022-11-25 15:23:16.983317, 1.71554
2022-11-25 15:23:16.983620, 1.70577
2022-11-25 15:23:16.983930, 1.71554
2022-11-25 15:23:16.984099, 1.70577
2022-11-25 15:23:17.016564, 1.70577
2022-11-25 15:23:17.016777, 1.71065
2022-11-25 15:23:17.016902, 1.69599
2022-11-25 15:23:17.049877, 1.70088
2022-11-25 15:23:17.050153, 1.70088
2022-11-25 15:23:17.050328, 1.70577
2022-11-25 15:23:17.050489, 1.69110
2022-11-25 15:23:17.083160, 1.68622
2022-11-25 15:23:17.083409, 1.68133
2022-11-25 15:23:17.083575, 1.68133
2022-11-25 15:23:17.116452, 1.69110
2022-11-25 15:23:17.116728, 1.70088
2022-11-25 15:23:17.116901, 1.70577
2022-11-25 15:23:17.117061, 1.71554
2022-11-25 15:23:17.149817, 1.74976
2022-11-25 15:23:17.150080, 1.73998
2022-11-25 15:23:17.150254, 1.74487
2022-11-25 15:23:17.183023, 1.75953
2022-11-25 15:23:17.183294, 1.79863
2022-11-25 15:23:17.183466, 1.76442
2022-11-25 15:23:17.183622, 1.78397
2022-11-25 15:23:17.216389, 1.78397
2022-11-25 15:23:17.216648, 1.76931
2022-11-25 15:23:17.216821, 1.77419
2022-11-25 15:23:17.249651, 1.76931
2022-11-25 15:23:17.249884, 1.76931
2022-11-25 15:23:17.250013, 1.77419
2022-11-25 15:23:17.250230, 1.76442
2022-11-25 15:23:17.282988, 1.77419
2022-11-25 15:23:17.283256, 1.81329
2022-11-25 15:23:17.283428, 1.80841
2022-11-25 15:23:17.283594, 1.78397
2022-11-25 15:23:17.316384, 1.77908
2022-11-25 15:23:17.316645, 1.77908
2022-11-25 15:23:17.316825, 1.78397
2022-11-25 15:23:17.349539, 1.78397
2022-11-25 15:23:17.349804, 1.77908
2022-11-25 15:23:17.349974, 1.77908
2022-11-25 15:23:17.350131, 1.77419
2022-11-25 15:23:17.382911, 1.80841
2022-11-25 15:23:17.383157, 1.78397
2022-11-25 15:23:17.383321, 1.77908
2022-11-25 15:23:17.416204, 1.76442
2022-11-25 15:23:17.416657, 1.76931
2022-11-25 15:23:17.416834, 1.76442
2022-11-25 15:23:17.416996, 1.76442
2022-11-25 15:23:17.449482, 1.76442
2022-11-25 15:23:17.449675, 1.79374
2022-11-25 15:23:17.449792, 1.76442
2022-11-25 15:23:17.482749, 1.74976
2022-11-25 15:23:17.483008, 1.75464
2022-11-25 15:23:17.483175, 1.76442
2022-11-25 15:23:17.483332, 1.77419
2022-11-25 15:23:17.516106, 1.74976
2022-11-25 15:23:17.516345, 1.74487
2022-11-25 15:23:17.516510, 1.74487
2022-11-25 15:23:17.549312, 1.76931
2022-11-25 15:23:17.549584, 1.73509
2022-11-25 15:23:17.549752, 1.73509
2022-11-25 15:23:17.549926, 1.73509
2022-11-25 15:23:17.582700, 1.72043
2022-11-25 15:23:17.582956, 1.72532
2022-11-25 15:23:17.583125, 1.73021
2022-11-25 15:23:17.583284, 1.72043
2022-11-25 15:23:17.616076, 1.71554
2022-11-25 15:23:17.616348, 1.72043
2022-11-25 15:23:17.616518, 1.72532
2022-11-25 15:23:17.649296, 1.72532
2022-11-25 15:23:17.649550, 1.72043
2022-11-25 15:23:17.649775, 1.74976
2022-11-25 15:23:17.650005, 1.71554
2022-11-25 15:23:17.682609, 1.71065
2022-11-25 15:23:17.682869, 1.73998
2022-11-25 15:23:17.683037, 1.71554
2022-11-25 15:23:17.715864, 1.70577
2022-11-25 15:23:17.716120, 1.74487
2022-11-25 15:23:17.716283, 1.70577
2022-11-25 15:23:17.716447, 1.71065
2022-11-25 15:23:17.749177, 1.70577
2022-11-25 15:23:17.749351, 1.70088
2022-11-25 15:23:17.749446, 1.70577
2022-11-25 15:23:17.782402, 1.69599
2022-11-25 15:23:17.782653, 1.69599
2022-11-25 15:23:17.782821, 1.69599
2022-11-25 15:23:17.782977, 1.69110
2022-11-25 15:23:17.815810, 1.69110
2022-11-25 15:23:17.816069, 1.69110
2022-11-25 15:23:17.816237, 1.68622
2022-11-25 15:23:17.849003, 1.68622
2022-11-25 15:23:17.849302, 1.68133
2022-11-25 15:23:17.849475, 1.70577
2022-11-25 15:23:17.849636, 1.68622
2022-11-25 15:23:17.882395, 1.69110
2022-11-25 15:23:17.882656, 1.70088
2022-11-25 15:23:17.882826, 1.70088
2022-11-25 15:23:17.882987, 1.70577
2022-11-25 15:23:17.915762, 1.74487
2022-11-25 15:23:17.916033, 1.71554
2022-11-25 15:23:17.916207, 1.73021
2022-11-25 15:23:17.949027, 1.73998
2022-11-25 15:23:17.949294, 1.74487
2022-11-25 15:23:17.949466, 1.73509
2022-11-25 15:23:17.949628, 1.73509
2022-11-25 15:23:17.982378, 1.73509
2022-11-25 15:23:17.982643, 1.74487
2022-11-25 15:23:17.982816, 1.73509
2022-11-25 15:23:18.015587, 1.73509
2022-11-25 15:23:18.015924, 1.73021
2022-11-25 15:23:18.016098, 1.77419
2022-11-25 15:23:18.016257, 1.73021
2022-11-25 15:23:18.048912, 1.73509
2022-11-25 15:23:18.049164, 1.74487
2022-11-25 15:23:18.049328, 1.73021
2022-11-25 15:23:18.082094, 1.72532
2022-11-25 15:23:18.082352, 1.73509
2022-11-25 15:23:18.082542, 1.73021
2022-11-25 15:23:18.082705, 1.75464
2022-11-25 15:23:18.115520, 1.72043
2022-11-25 15:23:18.115788, 1.72043
2022-11-25 15:23:18.115961, 1.72532
2022-11-25 15:23:18.148747, 1.71554
2022-11-25 15:23:18.149018, 1.71554
2022-11-25 15:23:18.149187, 1.71554
2022-11-25 15:23:18.149353, 1.72043
2022-11-25 15:23:18.182024, 1.71554
2022-11-25 15:23:18.182221, 1.70577
2022-11-25 15:23:18.182338, 1.71065
2022-11-25 15:23:18.182452, 1.73998
2022-11-25 15:23:18.215458, 1.71065
2022-11-25 15:23:18.215716, 1.70577
2022-11-25 15:23:18.215881, 1.70088
2022-11-25 15:23:18.248655, 1.70577
2022-11-25 15:23:18.248824, 1.69599
2022-11-25 15:23:18.248915, 1.69110
2022-11-25 15:23:18.249000, 1.69110
2022-11-25 15:23:18.282029, 1.72043
2022-11-25 15:23:18.282210, 1.68133
2022-11-25 15:23:18.282306, 1.67644
2022-11-25 15:23:18.315276, 1.71065
2022-11-25 15:23:18.315535, 1.67155
2022-11-25 15:23:18.315709, 1.66667
2022-11-25 15:23:18.315873, 1.65689
2022-11-25 15:23:18.348652, 1.65200
2022-11-25 15:23:18.348926, 1.64712
2022-11-25 15:23:18.349097, 1.64223
2022-11-25 15:23:18.381870, 1.64223
2022-11-25 15:23:18.382128, 1.62757
2022-11-25 15:23:18.382296, 1.62268
2022-11-25 15:23:18.382457, 1.62757
2022-11-25 15:23:18.415213, 1.60802
2022-11-25 15:23:18.415462, 1.60802
2022-11-25 15:23:18.415646, 1.59824
2022-11-25 15:23:18.448421, 1.59824
2022-11-25 15:23:18.448706, 1.59335
2022-11-25 15:23:18.448885, 1.58847
2022-11-25 15:23:18.449043, 1.58358
2022-11-25 15:23:18.481768, 1.57869
2022-11-25 15:23:18.481970, 1.57869
2022-11-25 15:23:18.482087, 1.59335
2022-11-25 15:23:18.482211, 1.57380
2022-11-25 15:23:18.515120, 1.56891
2022-11-25 15:23:18.515322, 1.56403
2022-11-25 15:23:18.515440, 1.56891
2022-11-25 15:23:18.548399, 1.56891
2022-11-25 15:23:18.548648, 1.56891
2022-11-25 15:23:18.548817, 1.58358
2022-11-25 15:23:18.548979, 1.56891
2022-11-25 15:23:18.581746, 1.56891
2022-11-25 15:23:18.582004, 1.56891
2022-11-25 15:23:18.582168, 1.59335
2022-11-25 15:23:18.615007, 1.57869
2022-11-25 15:23:18.615271, 1.57380
2022-11-25 15:23:18.615433, 1.58358
2022-11-25 15:23:18.615589, 1.59824
2022-11-25 15:23:18.648342, 1.59824
2022-11-25 15:23:18.648606, 1.62757
2022-11-25 15:23:18.648775, 1.61779
2022-11-25 15:23:18.681611, 1.63245
2022-11-25 15:23:18.681875, 1.63734
2022-11-25 15:23:18.682039, 1.65200
2022-11-25 15:23:18.682204, 1.64712
2022-11-25 15:23:18.714925, 1.65200
2022-11-25 15:23:18.715193, 1.68622
2022-11-25 15:23:18.715367, 1.65689
2022-11-25 15:23:18.748138, 1.66178
2022-11-25 15:23:18.748366, 1.66178
2022-11-25 15:23:18.748506, 1.66667
2022-11-25 15:23:18.748623, 1.67155
2022-11-25 15:23:18.781523, 1.67155
2022-11-25 15:23:18.781785, 1.67644
2022-11-25 15:23:18.781957, 1.68622
2022-11-25 15:23:18.782123, 1.68622
2022-11-25 15:23:18.814870, 1.69110
2022-11-25 15:23:18.815076, 1.69110
2022-11-25 15:23:18.815201, 1.73021
2022-11-25 15:23:18.848095, 1.70577
2022-11-25 15:23:18.848364, 1.68622
2022-11-25 15:23:18.848541, 1.70088
2022-11-25 15:23:18.848704, 1.73021
2022-11-25 15:23:18.881490, 1.70577
2022-11-25 15:23:18.881760, 1.72532
2022-11-25 15:23:18.881938, 1.71065
2022-11-25 15:23:18.914722, 1.70088
2022-11-25 15:23:18.914993, 1.70088
2022-11-25 15:23:18.915164, 1.70088
2022-11-25 15:23:18.915323, 1.70088
2022-11-25 15:23:18.948047, 1.69599
2022-11-25 15:23:18.948315, 1.73021
2022-11-25 15:23:18.948492, 1.72043
2022-11-25 15:23:18.981290, 1.69110
2022-11-25 15:23:18.981551, 1.69599
2022-11-25 15:23:18.981719, 1.69599
2022-11-25 15:23:18.981880, 1.69599
2022-11-25 15:23:19.014655, 1.70088
2022-11-25 15:23:19.014916, 1.68133
2022-11-25 15:23:19.015090, 1.68622
2022-11-25 15:23:19.047858, 1.69110
2022-11-25 15:23:19.048158, 1.68622
2022-11-25 15:23:19.048341, 1.69110
2022-11-25 15:23:19.048504, 1.70088
2022-11-25 15:23:19.081229, 1.68622
2022-11-25 15:23:19.081490, 1.68622
2022-11-25 15:23:19.081661, 1.69599
2022-11-25 15:23:19.081818, 1.68622
2022-11-25 15:23:19.114581, 1.68622
2022-11-25 15:23:19.114842, 1.68133
2022-11-25 15:23:19.115005, 1.69110
2022-11-25 15:23:19.147818, 1.68133
2022-11-25 15:23:19.148076, 1.69110
2022-11-25 15:23:19.148241, 1.68133
2022-11-25 15:23:19.148395, 1.68622
2022-11-25 15:23:19.181119, 1.69599
2022-11-25 15:23:19.181386, 1.67644
2022-11-25 15:23:19.181562, 1.67644
2022-11-25 15:23:19.214424, 1.67155
2022-11-25 15:23:19.214683, 1.71065
2022-11-25 15:23:19.214851, 1.67155
2022-11-25 15:23:19.215010, 1.67644
2022-11-25 15:23:19.247692, 1.67155
2022-11-25 15:23:19.247865, 1.71554
2022-11-25 15:23:19.247958, 1.68622
2022-11-25 15:23:19.280897, 1.68622
2022-11-25 15:23:19.281153, 1.70577
2022-11-25 15:23:19.281327, 1.68133
2022-11-25 15:23:19.281491, 1.68622
2022-11-25 15:23:19.314362, 1.68622
2022-11-25 15:23:19.314627, 1.68622
2022-11-25 15:23:19.314800, 1.71065
2022-11-25 15:23:19.347560, 1.69110
2022-11-25 15:23:19.347892, 1.69599
2022-11-25 15:23:19.348068, 1.70088
2022-11-25 15:23:19.348228, 1.71554
2022-11-25 15:23:19.380947, 1.73998
2022-11-25 15:23:19.381207, 1.73998
2022-11-25 15:23:19.381376, 1.74976
2022-11-25 15:23:19.381538, 1.75464
2022-11-25 15:23:19.414300, 1.76442
2022-11-25 15:23:19.414559, 1.76931
2022-11-25 15:23:19.414734, 1.77419
2022-11-25 15:23:19.447519, 1.77419
2022-11-25 15:23:19.447790, 1.77419
2022-11-25 15:23:19.447963, 1.77419
2022-11-25 15:23:19.448121, 1.76931
2022-11-25 15:23:19.480890, 1.77419
2022-11-25 15:23:19.481148, 1.80841
2022-11-25 15:23:19.481317, 1.78886
2022-11-25 15:23:19.514100, 1.77419
2022-11-25 15:23:19.514300, 1.77908
2022-11-25 15:23:19.514427, 1.77908
2022-11-25 15:23:19.514537, 1.78886
2022-11-25 15:23:19.547490, 1.77908
2022-11-25 15:23:19.547767, 1.78397
2022-11-25 15:23:19.547938, 1.78397
2022-11-25 15:23:19.580703, 1.78397
2022-11-25 15:23:19.580965, 1.78397
2022-11-25 15:23:19.581137, 1.80841
2022-11-25 15:23:19.581305, 1.81818
2022-11-25 15:23:19.614042, 1.78886
2022-11-25 15:23:19.614293, 1.78397
2022-11-25 15:23:19.614460, 1.77908
2022-11-25 15:23:19.647257, 1.77908
2022-11-25 15:23:19.647534, 1.77908
2022-11-25 15:23:19.647704, 1.78397
2022-11-25 15:23:19.647949, 1.78397
2022-11-25 15:23:19.680644, 1.79374
2022-11-25 15:23:19.680900, 1.78886
2022-11-25 15:23:19.681075, 1.77419
2022-11-25 15:23:19.681240, 1.77419
2022-11-25 15:23:19.714003, 1.77908
2022-11-25 15:23:19.714260, 1.76931
2022-11-25 15:23:19.714429, 1.76931
2022-11-25 15:23:19.747189, 1.80352
2022-11-25 15:23:19.747362, 1.75953
2022-11-25 15:23:19.747451, 1.76931
2022-11-25 15:23:19.747535, 1.77908
2022-11-25 15:23:19.780604, 1.75953
2022-11-25 15:23:19.780859, 1.74976
2022-11-25 15:23:19.781026, 1.74976
2022-11-25 15:23:19.813786, 1.78397
2022-11-25 15:23:19.814060, 1.74487
2022-11-25 15:23:19.814236, 1.74487
2022-11-25 15:23:19.814402, 1.74976
2022-11-25 15:23:19.847192, 1.73509
2022-11-25 15:23:19.847461, 1.73021
2022-11-25 15:23:19.847630, 1.73509
2022-11-25 15:23:19.880418, 1.72043
2022-11-25 15:23:19.880688, 1.72532
2022-11-25 15:23:19.880860, 1.71554
2022-11-25 15:23:19.881018, 1.71554
2022-11-25 15:23:19.913743, 1.72043
2022-11-25 15:23:19.914006, 1.72043
2022-11-25 15:23:19.914175, 1.72532
2022-11-25 15:23:19.946990, 1.71065
2022-11-25 15:23:19.947276, 1.70577
2022-11-25 15:23:19.947448, 1.73998
2022-11-25 15:23:19.947610, 1.71065
2022-11-25 15:23:19.980336, 1.70577
2022-11-25 15:23:19.980592, 1.73998
2022-11-25 15:23:19.980762, 1.69110
2022-11-25 15:23:19.980924, 1.69110
2022-11-25 15:23:20.013701, 1.70577
2022-11-25 15:23:20.013964, 1.68133
2022-11-25 15:23:20.014134, 1.68133
2022-11-25 15:23:20.046951, 1.67155
2022-11-25 15:23:20.047220, 1.66667
2022-11-25 15:23:20.047396, 1.68622
2022-11-25 15:23:20.047555, 1.65689
2022-11-25 15:23:20.080326, 1.65200
2022-11-25 15:23:20.080602, 1.65689
2022-11-25 15:23:20.080770, 1.69599
2022-11-25 15:23:20.113531, 1.66667
2022-11-25 15:23:20.113782, 1.66667
2022-11-25 15:23:20.113949, 1.67644
2022-11-25 15:23:20.114108, 1.69599
2022-11-25 15:23:20.146909, 1.70088
2022-11-25 15:23:20.147182, 1.71065
2022-11-25 15:23:20.147357, 1.74487
2022-11-25 15:23:20.180147, 1.71554
2022-11-25 15:23:20.180421, 1.72043
2022-11-25 15:23:20.180595, 1.73998
2022-11-25 15:23:20.180757, 1.72532
2022-11-25 15:23:20.213455, 1.72532
2022-11-25 15:23:20.213661, 1.72043
2022-11-25 15:23:20.213783, 1.72532
2022-11-25 15:23:20.246669, 1.72532
2022-11-25 15:23:20.246857, 1.72532
2022-11-25 15:23:20.246954, 1.74976
2022-11-25 15:23:20.247041, 1.73509
2022-11-25 15:23:20.279874, 1.73509
2022-11-25 15:23:20.280025, 1.75464
2022-11-25 15:23:20.280123, 1.74487
2022-11-25 15:23:20.280212, 1.74976
2022-11-25 15:23:20.313413, 1.73509
2022-11-25 15:23:20.313677, 1.74976
2022-11-25 15:23:20.313852, 1.75464
2022-11-25 15:23:20.346642, 1.75464
2022-11-25 15:23:20.346909, 1.78886
2022-11-25 15:23:20.347174, 1.76442
2022-11-25 15:23:20.347442, 1.75953
2022-11-25 15:23:20.379932, 1.75464
2022-11-25 15:23:20.380205, 1.75464
2022-11-25 15:23:20.380380, 1.74976
2022-11-25 15:23:20.413291, 1.75464
2022-11-25 15:23:20.413560, 1.77908
2022-11-25 15:23:20.413752, 1.75464
2022-11-25 15:23:20.413916, 1.73998
2022-11-25 15:23:20.446615, 1.73509
2022-11-25 15:23:20.446879, 1.73509
2022-11-25 15:23:20.447046, 1.72532
2022-11-25 15:23:20.479801, 1.72532
2022-11-25 15:23:20.480060, 1.71065
2022-11-25 15:23:20.480229, 1.70577
2022-11-25 15:23:20.480387, 1.70088
2022-11-25 15:23:20.513169, 1.73021
2022-11-25 15:23:20.513432, 1.69599
2022-11-25 15:23:20.513601, 1.68622
2022-11-25 15:23:20.546389, 1.68622
2022-11-25 15:23:20.546614, 1.71065
2022-11-25 15:23:20.546758, 1.67644
2022-11-25 15:23:20.546875, 1.68133
2022-11-25 15:23:20.579773, 1.70577
2022-11-25 15:23:20.580037, 1.68133
2022-11-25 15:23:20.580211, 1.67644
2022-11-25 15:23:20.580366, 1.70088
2022-11-25 15:23:20.613133, 1.67155
2022-11-25 15:23:20.613400, 1.67155
2022-11-25 15:23:20.613567, 1.67644
2022-11-25 15:23:20.646360, 1.67644
2022-11-25 15:23:20.646625, 1.68133
2022-11-25 15:23:20.646796, 1.67644
2022-11-25 15:23:20.646956, 1.67644
2022-11-25 15:23:20.679734, 1.68133
2022-11-25 15:23:20.680002, 1.67155
2022-11-25 15:23:20.680169, 1.67644
2022-11-25 15:23:20.712959, 1.67155
2022-11-25 15:23:20.713227, 1.66667
2022-11-25 15:23:20.713403, 1.66667
2022-11-25 15:23:20.713573, 1.66178
2022-11-25 15:23:20.746296, 1.65689
2022-11-25 15:23:20.746463, 1.65689
2022-11-25 15:23:20.746558, 1.65200
2022-11-25 15:23:20.779523, 1.67644
2022-11-25 15:23:20.779796, 1.64712
2022-11-25 15:23:20.779973, 1.63734
2022-11-25 15:23:20.780141, 1.63734
2022-11-25 15:23:20.812900, 1.63734
2022-11-25 15:23:20.813154, 1.64223
2022-11-25 15:23:20.813326, 1.63245
2022-11-25 15:23:20.846125, 1.63245
2022-11-25 15:23:20.846421, 1.64223
2022-11-25 15:23:20.846599, 1.65689
2022-11-25 15:23:20.846761, 1.68622
2022-11-25 15:23:20.879472, 1.67644
2022-11-25 15:23:20.879735, 1.68622
2022-11-25 15:23:20.879908, 1.73509
2022-11-25 15:23:20.880075, 1.70577
2022-11-25 15:23:20.912812, 1.71065
2022-11-25 15:23:20.913068, 1.74976
2022-11-25 15:23:20.913238, 1.72043
2022-11-25 15:23:20.946063, 1.72043
2022-11-25 15:23:20.946317, 1.74487
2022-11-25 15:23:20.946485, 1.73021
2022-11-25 15:23:20.946648, 1.73998
2022-11-25 15:23:20.979441, 1.73509
2022-11-25 15:23:20.979704, 1.73998
2022-11-25 15:23:20.979871, 1.74487
2022-11-25 15:23:21.012656, 1.74487
2022-11-25 15:23:21.012924, 1.78397
2022-11-25 15:23:21.013088, 1.74976
2022-11-25 15:23:21.013241, 1.74976
2022-11-25 15:23:21.045981, 1.75953
2022-11-25 15:23:21.046239, 1.75464
2022-11-25 15:23:21.046405, 1.75464
2022-11-25 15:23:21.079314, 1.75464
2022-11-25 15:23:21.079584, 1.75464
2022-11-25 15:23:21.079750, 1.75464
2022-11-25 15:23:21.079910, 1.75464
2022-11-25 15:23:21.112606, 1.78397
2022-11-25 15:23:21.112856, 1.77908
2022-11-25 15:23:21.113027, 1.76442
2022-11-25 15:23:21.145796, 1.74487
2022-11-25 15:23:21.146069, 1.75953
2022-11-25 15:23:21.146239, 1.75953
2022-11-25 15:23:21.146396, 1.76442
2022-11-25 15:23:21.179190, 1.76442
2022-11-25 15:23:21.179442, 1.76442
2022-11-25 15:23:21.179611, 1.78886
2022-11-25 15:23:21.179772, 1.77908
2022-11-25 15:23:21.212510, 1.77419
2022-11-25 15:23:21.212719, 1.76442
2022-11-25 15:23:21.212846, 1.75953
2022-11-25 15:23:21.245727, 1.75464
2022-11-25 15:23:21.245887, 1.75464
2022-11-25 15:23:21.245978, 1.75953
2022-11-25 15:23:21.246060, 1.75953
2022-11-25 15:23:21.278953, 1.75953
2022-11-25 15:23:21.279174, 1.74976
2022-11-25 15:23:21.279306, 1.75464
2022-11-25 15:23:21.312348, 1.73998
2022-11-25 15:23:21.312519, 1.73509
2022-11-25 15:23:21.312612, 1.73509
2022-11-25 15:23:21.312697, 1.73509
2022-11-25 15:23:21.345716, 1.73021
2022-11-25 15:23:21.345985, 1.76442
2022-11-25 15:23:21.346164, 1.72532
2022-11-25 15:23:21.378893, 1.71065
2022-11-25 15:23:21.379161, 1.72043
2022-11-25 15:23:21.379347, 1.73509
2022-11-25 15:23:21.379506, 1.71554
2022-11-25 15:23:21.412348, 1.71065
2022-11-25 15:23:21.412618, 1.70577
2022-11-25 15:23:21.412789, 1.71065
2022-11-25 15:23:21.445492, 1.70088
2022-11-25 15:23:21.445763, 1.70088
2022-11-25 15:23:21.445929, 1.70088
2022-11-25 15:23:21.446085, 1.69599
2022-11-25 15:23:21.478915, 1.69110
2022-11-25 15:23:21.479182, 1.69599
2022-11-25 15:23:21.479357, 1.72043
2022-11-25 15:23:21.479517, 1.68622
2022-11-25 15:23:21.512205, 1.68133
2022-11-25 15:23:21.512411, 1.67155
2022-11-25 15:23:21.512548, 1.67644
2022-11-25 15:23:21.545470, 1.67155
2022-11-25 15:23:21.545728, 1.66667
2022-11-25 15:23:21.545898, 1.66178
2022-11-25 15:23:21.546051, 1.66667
2022-11-25 15:23:21.578834, 1.67155
2022-11-25 15:23:21.579106, 1.67155
2022-11-25 15:23:21.579282, 1.68133
2022-11-25 15:23:21.612059, 1.68622
2022-11-25 15:23:21.612261, 1.69110
2022-11-25 15:23:21.612386, 1.72532
2022-11-25 15:23:21.612500, 1.71554
2022-11-25 15:23:21.645421, 1.72043
2022-11-25 15:23:21.645677, 1.73021
2022-11-25 15:23:21.645844, 1.73509
2022-11-25 15:23:21.678655, 1.72532
2022-11-25 15:23:21.678928, 1.75953
2022-11-25 15:23:21.679093, 1.73021
2022-11-25 15:23:21.679248, 1.73021
2022-11-25 15:23:21.712006, 1.72532
2022-11-25 15:23:21.712253, 1.75464
2022-11-25 15:23:21.712374, 1.73021
2022-11-25 15:23:21.745236, 1.72043
2022-11-25 15:23:21.745467, 1.73509
2022-11-25 15:23:21.745596, 1.72532
2022-11-25 15:23:21.745715, 1.76442
2022-11-25 15:23:21.778596, 1.73509
2022-11-25 15:23:21.778850, 1.73021
2022-11-25 15:23:21.779019, 1.72532
2022-11-25 15:23:21.779176, 1.73509
2022-11-25 15:23:21.811931, 1.73021
2022-11-25 15:23:21.812139, 1.74487
2022-11-25 15:23:21.812263, 1.73509
2022-11-25 15:23:21.845183, 1.72532
2022-11-25 15:23:21.845387, 1.72532
2022-11-25 15:23:21.845506, 1.72043
2022-11-25 15:23:21.845623, 1.72043
2022-11-25 15:23:21.878575, 1.75464
2022-11-25 15:23:21.878854, 1.72043
2022-11-25 15:23:21.879029, 1.72043
2022-11-25 15:23:21.911793, 1.71554
2022-11-25 15:23:21.912069, 1.72043
2022-11-25 15:23:21.912244, 1.72043
2022-11-25 15:23:21.912404, 1.73021
2022-11-25 15:23:21.945137, 1.72043
2022-11-25 15:23:21.945391, 1.71554
2022-11-25 15:23:21.945564, 1.72043
2022-11-25 15:23:21.978368, 1.72532
2022-11-25 15:23:21.978634, 1.72043
2022-11-25 15:23:21.978804, 1.71554
2022-11-25 15:23:21.978960, 1.71065
2022-11-25 15:23:22.011753, 1.72043
2022-11-25 15:23:22.012013, 1.71065
2022-11-25 15:23:22.012183, 1.70577
2022-11-25 15:23:22.044928, 1.70577
2022-11-25 15:23:22.045237, 1.73998
2022-11-25 15:23:22.045405, 1.70088
2022-11-25 15:23:22.045561, 1.69599
2022-11-25 15:23:22.078320, 1.70088
2022-11-25 15:23:22.078580, 1.69599
2022-11-25 15:23:22.078751, 1.69110
2022-11-25 15:23:22.078910, 1.68622
2022-11-25 15:23:22.111674, 1.69110
2022-11-25 15:23:22.111948, 1.68622
2022-11-25 15:23:22.112124, 1.68622
2022-11-25 15:23:22.144909, 1.68133
2022-11-25 15:23:22.145170, 1.71065
2022-11-25 15:23:22.145349, 1.68133
2022-11-25 15:23:22.145510, 1.68133
2022-11-25 15:23:22.178278, 1.69110
2022-11-25 15:23:22.178551, 1.67644
2022-11-25 15:23:22.178722, 1.68133
2022-11-25 15:23:22.211494, 1.68133
2022-11-25 15:23:22.211751, 1.71065
2022-11-25 15:23:22.211918, 1.68133
2022-11-25 15:23:22.212080, 1.68133
2022-11-25 15:23:22.244769, 1.68622
2022-11-25 15:23:22.244932, 1.67644
2022-11-25 15:23:22.245028, 1.67644
2022-11-25 15:23:22.278022, 1.67644
2022-11-25 15:23:22.278182, 1.68622
2022-11-25 15:23:22.278278, 1.67155
2022-11-25 15:23:22.278363, 1.67644
2022-11-25 15:23:22.311407, 1.69110
2022-11-25 15:23:22.311680, 1.68622
2022-11-25 15:23:22.311845, 1.69599
2022-11-25 15:23:22.344671, 1.70577
2022-11-25 15:23:22.344980, 1.72043
2022-11-25 15:23:22.345160, 1.74976
2022-11-25 15:23:22.345318, 1.73509
2022-11-25 15:23:22.378052, 1.73998
2022-11-25 15:23:22.378319, 1.73998
2022-11-25 15:23:22.378487, 1.75464
2022-11-25 15:23:22.378646, 1.75953
2022-11-25 15:23:22.411358, 1.74487
2022-11-25 15:23:22.411626, 1.74487
2022-11-25 15:23:22.411801, 1.73998
2022-11-25 15:23:22.444609, 1.73998
2022-11-25 15:23:22.444877, 1.73998
2022-11-25 15:23:22.445053, 1.73509
2022-11-25 15:23:22.445221, 1.74487
2022-11-25 15:23:22.477968, 1.73998
2022-11-25 15:23:22.478226, 1.77908
2022-11-25 15:23:22.478393, 1.74487
2022-11-25 15:23:22.511153, 1.73998
2022-11-25 15:23:22.511359, 1.73998
2022-11-25 15:23:22.511478, 1.73998
2022-11-25 15:23:22.511591, 1.74487
2022-11-25 15:23:22.544499, 1.73509
2022-11-25 15:23:22.544756, 1.73509
2022-11-25 15:23:22.544925, 1.73998
2022-11-25 15:23:22.577764, 1.75464
2022-11-25 15:23:22.578043, 1.73509
2022-11-25 15:23:22.578214, 1.73021
2022-11-25 15:23:22.578373, 1.73021
2022-11-25 15:23:22.611086, 1.73021
2022-11-25 15:23:22.611295, 1.73021
2022-11-25 15:23:22.611420, 1.72532
2022-11-25 15:23:22.644333, 1.75953
2022-11-25 15:23:22.644612, 1.73998
2022-11-25 15:23:22.644781, 1.72532
2022-11-25 15:23:22.644940, 1.72043
2022-11-25 15:23:22.677716, 1.72043
2022-11-25 15:23:22.677993, 1.72532
2022-11-25 15:23:22.678171, 1.71554
2022-11-25 15:23:22.678327, 1.71065
2022-11-25 15:23:22.711044, 1.70088
2022-11-25 15:23:22.711289, 1.74487
2022-11-25 15:23:22.711459, 1.69599
2022-11-25 15:23:22.744286, 1.70088
2022-11-25 15:23:22.744472, 1.70088
2022-11-25 15:23:22.744570, 1.73021
2022-11-25 15:23:22.744659, 1.69599
2022-11-25 15:23:22.777678, 1.69599
2022-11-25 15:23:22.777921, 1.69110
2022-11-25 15:23:22.778087, 1.71554
2022-11-25 15:23:22.810918, 1.69110
2022-11-25 15:23:22.811183, 1.69599
2022-11-25 15:23:22.811355, 1.71065
2022-11-25 15:23:22.811513, 1.68622
2022-11-25 15:23:22.844248, 1.68622
2022-11-25 15:23:22.844518, 1.69110
2022-11-25 15:23:22.844689, 1.72532
2022-11-25 15:23:22.877471, 1.69110
2022-11-25 15:23:22.877748, 1.69110
2022-11-25 15:23:22.877924, 1.72532
2022-11-25 15:23:22.878083, 1.69110
2022-11-25 15:23:22.910798, 1.68622
2022-11-25 15:23:22.911010, 1.69110
2022-11-25 15:23:22.911131, 1.68622
2022-11-25 15:23:22.944039, 1.68622
2022-11-25 15:23:22.944326, 1.69110
2022-11-25 15:23:22.944503, 1.69599
2022-11-25 15:23:22.944670, 1.68622
2022-11-25 15:23:22.977436, 1.68133
2022-11-25 15:23:22.977695, 1.69110
2022-11-25 15:23:22.977862, 1.70577
2022-11-25 15:23:22.978019, 1.68133
2022-11-25 15:23:23.010625, 1.67155
2022-11-25 15:23:23.010787, 1.67644
2022-11-25 15:23:23.010871, 1.69599
2022-11-25 15:23:23.044003, 1.69110
2022-11-25 15:23:23.044257, 1.69599
2022-11-25 15:23:23.044421, 1.71065
2022-11-25 15:23:23.044580, 1.72043
2022-11-25 15:23:23.077333, 1.73509
2022-11-25 15:23:23.077547, 1.74487
2022-11-25 15:23:23.077675, 1.78397
2022-11-25 15:23:23.110598, 1.76931
2022-11-25 15:23:23.110813, 1.77419
2022-11-25 15:23:23.110937, 1.78397
2022-11-25 15:23:23.111051, 1.78886
2022-11-25 15:23:23.143929, 1.78886
2022-11-25 15:23:23.144136, 1.78886
2022-11-25 15:23:23.144259, 1.78886
2022-11-25 15:23:23.177197, 1.82307
2022-11-25 15:23:23.177459, 1.79863
2022-11-25 15:23:23.177628, 1.78886
2022-11-25 15:23:23.177782, 1.78886
2022-11-25 15:23:23.210543, 1.79374
2022-11-25 15:23:23.210763, 1.79863
2022-11-25 15:23:23.210884, 1.79374
2022-11-25 15:23:23.243678, 1.79374
2022-11-25 15:23:23.243863, 1.78886
2022-11-25 15:23:23.243966, 1.80352
2022-11-25 15:23:23.244053, 1.81818
2022-11-25 15:23:23.277052, 1.80841
2022-11-25 15:23:23.277240, 1.79863
2022-11-25 15:23:23.277435, 1.79374
2022-11-25 15:23:23.277554, 1.78886
2022-11-25 15:23:23.310514, 1.78886
2022-11-25 15:23:23.310781, 1.79374
2022-11-25 15:23:23.310951, 1.78886
2022-11-25 15:23:23.343707, 1.82307
2022-11-25 15:23:23.343896, 1.80352
2022-11-25 15:23:23.344016, 1.78886
2022-11-25 15:23:23.344129, 1.78397
2022-11-25 15:23:23.376990, 1.78397
2022-11-25 15:23:23.377204, 1.78886
2022-11-25 15:23:23.377327, 1.78397
2022-11-25 15:23:23.410281, 1.82307
2022-11-25 15:23:23.410486, 1.80352
2022-11-25 15:23:23.410615, 1.77419
2022-11-25 15:23:23.410728, 1.78886
2022-11-25 15:23:23.443669, 1.76931
2022-11-25 15:23:23.443930, 1.77419
2022-11-25 15:23:23.444095, 1.76931
2022-11-25 15:23:23.476887, 1.76442
2022-11-25 15:23:23.477144, 1.76442
2022-11-25 15:23:23.477315, 1.75464
2022-11-25 15:23:23.477475, 1.75464
2022-11-25 15:23:23.510337, 1.76442
2022-11-25 15:23:23.510602, 1.74487
2022-11-25 15:23:23.510769, 1.74487
2022-11-25 15:23:23.543385, 1.73998
2022-11-25 15:23:23.543614, 1.76931
2022-11-25 15:23:23.543739, 1.73509
2022-11-25 15:23:23.543862, 1.73509
2022-11-25 15:23:23.576777, 1.73021
2022-11-25 15:23:23.577024, 1.73509
2022-11-25 15:23:23.577196, 1.72532
2022-11-25 15:23:23.577359, 1.72043
2022-11-25 15:23:23.610191, 1.73021
2022-11-25 15:23:23.610453, 1.71554
2022-11-25 15:23:23.610620, 1.72532
2022-11-25 15:23:23.643375, 1.72043
2022-11-25 15:23:23.643584, 1.71554
2022-11-25 15:23:23.643707, 1.70577
2022-11-25 15:23:23.643820, 1.74487
2022-11-25 15:23:23.676698, 1.70577
2022-11-25 15:23:23.676909, 1.71065
2022-11-25 15:23:23.677034, 1.69110
2022-11-25 15:23:23.710009, 1.70088
2022-11-25 15:23:23.710276, 1.69110
2022-11-25 15:23:23.710440, 1.68133
2022-11-25 15:23:23.710600, 1.72043
2022-11-25 15:23:23.743197, 1.68133
2022-11-25 15:23:23.743353, 1.69110
2022-11-25 15:23:23.743439, 1.67644
2022-11-25 15:23:23.776598, 1.68133
2022-11-25 15:23:23.776851, 1.67644
2022-11-25 15:23:23.777018, 1.68133
2022-11-25 15:23:23.777387, 1.68133
2022-11-25 15:23:23.809882, 1.68133
2022-11-25 15:23:23.810123, 1.70088
2022-11-25 15:23:23.810293, 1.71065
2022-11-25 15:23:23.843176, 1.72043
2022-11-25 15:23:23.843415, 1.72532
2022-11-25 15:23:23.843540, 1.77419
2022-11-25 15:23:23.843656, 1.73998
2022-11-25 15:23:23.876445, 1.74487
2022-11-25 15:23:23.876654, 1.77908
2022-11-25 15:23:23.876777, 1.73998
2022-11-25 15:23:23.876894, 1.74487
2022-11-25 15:23:23.909820, 1.74487
2022-11-25 15:23:23.910025, 1.76931
2022-11-25 15:23:23.910148, 1.73509
2022-11-25 15:23:23.943110, 1.73509
2022-11-25 15:23:23.943378, 1.73998
2022-11-25 15:23:23.943547, 1.77419
2022-11-25 15:23:23.943716, 1.73998
2022-11-25 15:23:23.976388, 1.73998
2022-11-25 15:23:23.976597, 1.73998
2022-11-25 15:23:23.976718, 1.74976
2022-11-25 15:23:24.009700, 1.73998
2022-11-25 15:23:24.009948, 1.73021
2022-11-25 15:23:24.010121, 1.73509
2022-11-25 15:23:24.010274, 1.73509
2022-11-25 15:23:24.042982, 1.73509
2022-11-25 15:23:24.043181, 1.73998
2022-11-25 15:23:24.043300, 1.73998
2022-11-25 15:23:24.076215, 1.73509
2022-11-25 15:23:24.076438, 1.73509
2022-11-25 15:23:24.076564, 1.75953
2022-11-25 15:23:24.076681, 1.73509
2022-11-25 15:23:24.109566, 1.73021
2022-11-25 15:23:24.109782, 1.73509
2022-11-25 15:23:24.109904, 1.74487
2022-11-25 15:23:24.142850, 1.73509
2022-11-25 15:23:24.143126, 1.73021
2022-11-25 15:23:24.143298, 1.72532
2022-11-25 15:23:24.143457, 1.75464
2022-11-25 15:23:24.176311, 1.72043
2022-11-25 15:23:24.176590, 1.73021
2022-11-25 15:23:24.176763, 1.71554
2022-11-25 15:23:24.176921, 1.72532
2022-11-25 15:23:24.209534, 1.71065
2022-11-25 15:23:24.209749, 1.70577
2022-11-25 15:23:24.209872, 1.70088
2022-11-25 15:23:24.242782, 1.74487
2022-11-25 15:23:24.242949, 1.70088
2022-11-25 15:23:24.243042, 1.69599
2022-11-25 15:23:24.243129, 1.70088
2022-11-25 15:23:24.276080, 1.69599
2022-11-25 15:23:24.276274, 1.69110
2022-11-25 15:23:24.276381, 1.68622
2022-11-25 15:23:24.309441, 1.69599
2022-11-25 15:23:24.309723, 1.68622
2022-11-25 15:23:24.309899, 1.68622
2022-11-25 15:23:24.310057, 1.70088
2022-11-25 15:23:24.342773, 1.67644
2022-11-25 15:23:24.343028, 1.68133
2022-11-25 15:23:24.343199, 1.67155
2022-11-25 15:23:24.375991, 1.67155
2022-11-25 15:23:24.376212, 1.67155
2022-11-25 15:23:24.376346, 1.66667
2022-11-25 15:23:24.376463, 1.66667
2022-11-25 15:23:24.409382, 1.67155
2022-11-25 15:23:24.409654, 1.66667
2022-11-25 15:23:24.409829, 1.65689
2022-11-25 15:23:24.442572, 1.67155
2022-11-25 15:23:24.442818, 1.66178
2022-11-25 15:23:24.442944, 1.65689
2022-11-25 15:23:24.443063, 1.67155
2022-11-25 15:23:24.476005, 1.64712
2022-11-25 15:23:24.476221, 1.65689
2022-11-25 15:23:24.476351, 1.66178
2022-11-25 15:23:24.476471, 1.65200
2022-11-25 15:23:24.509375, 1.65200
2022-11-25 15:23:24.509629, 1.65200
2022-11-25 15:23:24.509796, 1.65200
2022-11-25 15:23:24.542565, 1.66667
2022-11-25 15:23:24.542805, 1.67644
2022-11-25 15:23:24.542967, 1.67155
2022-11-25 15:23:24.543122, 1.67644
2022-11-25 15:23:24.575889, 1.70577
2022-11-25 15:23:24.576061, 1.70088
2022-11-25 15:23:24.576154, 1.70577
2022-11-25 15:23:24.609188, 1.72532
2022-11-25 15:23:24.609367, 1.72532
2022-11-25 15:23:24.609460, 1.72532
2022-11-25 15:23:24.609548, 1.73021
2022-11-25 15:23:24.642524, 1.75953
2022-11-25 15:23:24.642729, 1.73021
2022-11-25 15:23:24.642854, 1.73021
2022-11-25 15:23:24.675763, 1.73509
2022-11-25 15:23:24.675930, 1.73509
2022-11-25 15:23:24.676022, 1.72532
2022-11-25 15:23:24.676111, 1.72043
2022-11-25 15:23:24.709039, 1.72043
2022-11-25 15:23:24.709299, 1.72043
2022-11-25 15:23:24.709423, 1.72043
2022-11-25 15:23:24.742171, 1.72043
2022-11-25 15:23:24.742473, 1.75953
2022-11-25 15:23:24.742593, 1.73509
2022-11-25 15:23:24.742680, 1.72532
2022-11-25 15:23:24.775733, 1.72043
2022-11-25 15:23:24.776066, 1.71554
2022-11-25 15:23:24.776246, 1.71554
2022-11-25 15:23:24.776408, 1.71554
2022-11-25 15:23:24.808878, 1.71065
2022-11-25 15:23:24.809176, 1.72043
2022-11-25 15:23:24.809285, 1.71065
2022-11-25 15:23:24.842329, 1.71065
2022-11-25 15:23:24.842685, 1.71065
2022-11-25 15:23:24.842880, 1.71554
2022-11-25 15:23:24.843041, 1.71065
2022-11-25 15:23:24.875696, 1.74976
2022-11-25 15:23:24.876045, 1.71065
2022-11-25 15:23:24.876238, 1.71065
2022-11-25 15:23:24.908840, 1.71065
2022-11-25 15:23:24.909163, 1.70577
2022-11-25 15:23:24.909341, 1.70577
2022-11-25 15:23:24.909464, 1.70088
2022-11-25 15:23:24.942161, 1.72043
2022-11-25 15:23:24.942435, 1.69599
2022-11-25 15:23:24.942603, 1.69599
2022-11-25 15:23:24.975428, 1.69599
2022-11-25 15:23:24.975742, 1.72043
2022-11-25 15:23:24.975987, 1.69110
2022-11-25 15:23:24.976166, 1.68622
2022-11-25 15:23:25.008789, 1.68133
2022-11-25 15:23:25.009052, 1.71065
2022-11-25 15:23:25.009243, 1.68133
2022-11-25 15:23:25.042011, 1.67644
2022-11-25 15:23:25.042232, 1.67644
2022-11-25 15:23:25.042440, 1.71554
2022-11-25 15:23:25.042586, 1.67644
2022-11-25 15:23:25.075414, 1.64712
2022-11-25 15:23:25.075704, 1.68622
2022-11-25 15:23:25.076054, 1.66667
2022-11-25 15:23:25.076250, 1.66667
2022-11-25 15:23:25.108682, 1.67155
2022-11-25 15:23:25.108896, 1.66667
2022-11-25 15:23:25.109068, 1.65689
2022-11-25 15:23:25.141958, 1.67644
2022-11-25 15:23:25.142166, 1.65689
2022-11-25 15:23:25.142294, 1.65200
2022-11-25 15:23:25.142535, 1.67644
2022-11-25 15:23:25.175331, 1.65689
2022-11-25 15:23:25.175547, 1.65200
2022-11-25 15:23:25.175693, 1.65689
2022-11-25 15:23:25.208569, 1.64712
2022-11-25 15:23:25.208794, 1.65200
2022-11-25 15:23:25.208925, 1.64223
2022-11-25 15:23:25.209111, 1.66178
2022-11-25 15:23:25.241777, 1.63734
2022-11-25 15:23:25.241953, 1.64223
2022-11-25 15:23:25.242091, 1.63734
2022-11-25 15:23:25.275162, 1.63734
2022-11-25 15:23:25.275389, 1.64223
2022-11-25 15:23:25.275572, 1.63734
2022-11-25 15:23:25.275833, 1.63245
2022-11-25 15:23:25.308447, 1.66178
2022-11-25 15:23:25.308661, 1.63734
2022-11-25 15:23:25.308785, 1.64223
2022-11-25 15:23:25.341710, 1.66667
2022-11-25 15:23:25.341930, 1.66667
2022-11-25 15:23:25.342053, 1.67644
2022-11-25 15:23:25.342173, 1.69110
2022-11-25 15:23:25.375085, 1.73998
2022-11-25 15:23:25.375297, 1.71065
2022-11-25 15:23:25.375429, 1.72532
2022-11-25 15:23:25.375588, 1.72532
2022-11-25 15:23:25.408427, 1.75953
2022-11-25 15:23:25.408688, 1.73021
2022-11-25 15:23:25.408862, 1.72532
2022-11-25 15:23:25.441646, 1.73021
2022-11-25 15:23:25.441919, 1.73021
2022-11-25 15:23:25.442092, 1.74487
2022-11-25 15:23:25.442258, 1.70577
2022-11-25 15:23:25.475018, 1.73998
2022-11-25 15:23:25.475279, 1.73021
2022-11-25 15:23:25.475451, 1.73021
2022-11-25 15:23:25.508252, 1.72532
2022-11-25 15:23:25.508463, 1.73021
2022-11-25 15:23:25.508594, 1.73998
2022-11-25 15:23:25.508717, 1.73021
2022-11-25 15:23:25.541582, 1.73509
2022-11-25 15:23:25.541753, 1.76931
2022-11-25 15:23:25.541851, 1.74487
2022-11-25 15:23:25.574847, 1.73509
2022-11-25 15:23:25.575069, 1.73021
2022-11-25 15:23:25.575197, 1.73021
2022-11-25 15:23:25.575309, 1.72532
2022-11-25 15:23:25.608207, 1.72532
2022-11-25 15:23:25.608465, 1.75953
2022-11-25 15:23:25.608632, 1.73021
2022-11-25 15:23:25.641401, 1.72532
2022-11-25 15:23:25.641621, 1.73021
2022-11-25 15:23:25.641746, 1.73021
2022-11-25 15:23:25.641862, 1.72043
2022-11-25 15:23:25.674778, 1.74487
2022-11-25 15:23:25.675050, 1.72532
2022-11-25 15:23:25.675219, 1.71065
2022-11-25 15:23:25.675382, 1.71065
2022-11-25 15:23:25.708080, 1.71065
2022-11-25 15:23:25.708257, 1.72043
2022-11-25 15:23:25.708349, 1.71554
2022-11-25 15:23:25.741249, 1.70088
2022-11-25 15:23:25.741431, 1.72043
2022-11-25 15:23:25.741523, 1.70088
2022-11-25 15:23:25.741613, 1.70577
2022-11-25 15:23:25.774697, 1.69599
2022-11-25 15:23:25.774908, 1.73509
2022-11-25 15:23:25.775035, 1.69599
2022-11-25 15:23:25.807897, 1.69110
2022-11-25 15:23:25.808108, 1.69110
2022-11-25 15:23:25.808240, 1.70088
2022-11-25 15:23:25.808358, 1.68622
2022-11-25 15:23:25.841267, 1.68133
2022-11-25 15:23:25.841451, 1.67644
2022-11-25 15:23:25.841549, 1.71065
2022-11-25 15:23:25.874557, 1.66667
2022-11-25 15:23:25.874829, 1.65689
2022-11-25 15:23:25.875009, 1.67644
2022-11-25 15:23:25.875168, 1.65689
2022-11-25 15:23:25.907854, 1.65689
2022-11-25 15:23:25.908135, 1.65689
2022-11-25 15:23:25.908554, 1.65200
2022-11-25 15:23:25.941140, 1.65200
2022-11-25 15:23:25.941378, 1.66178
2022-11-25 15:23:25.941517, 1.65689
2022-11-25 15:23:25.941634, 1.65689
2022-11-25 15:23:25.974478, 1.69599
2022-11-25 15:23:25.974694, 1.65689
2022-11-25 15:23:25.974822, 1.64223
2022-11-25 15:23:25.974940, 1.69110
2022-11-25 15:23:26.007814, 1.66178
2022-11-25 15:23:26.008020, 1.66178
2022-11-25 15:23:26.008142, 1.68133
2022-11-25 15:23:26.041067, 1.65200
2022-11-25 15:23:26.041278, 1.64712
2022-11-25 15:23:26.041402, 1.68133
2022-11-25 15:23:26.041519, 1.64223
2022-11-25 15:23:26.074442, 1.64223
2022-11-25 15:23:26.074711, 1.67155
2022-11-25 15:23:26.074895, 1.63734
2022-11-25 15:23:26.107662, 1.64223
2022-11-25 15:23:26.107873, 1.65200
2022-11-25 15:23:26.107997, 1.65689
2022-11-25 15:23:26.108116, 1.67155
2022-11-25 15:23:26.141004, 1.69110
2022-11-25 15:23:26.141213, 1.68622
2022-11-25 15:23:26.141340, 1.69599
2022-11-25 15:23:26.174290, 1.70577
2022-11-25 15:23:26.174574, 1.71554
2022-11-25 15:23:26.174750, 1.69599
2022-11-25 15:23:26.174917, 1.69110
2022-11-25 15:23:26.207629, 1.68622
2022-11-25 15:23:26.207901, 1.67644
2022-11-25 15:23:26.208077, 1.67644
2022-11-25 15:23:26.240756, 1.67155
2022-11-25 15:23:26.240967, 1.68622
2022-11-25 15:23:26.241093, 1.66667
2022-11-25 15:23:26.241232, 1.66667
2022-11-25 15:23:26.274178, 1.67155
2022-11-25 15:23:26.274398, 1.70577
2022-11-25 15:23:26.274521, 1.67155
2022-11-25 15:23:26.274636, 1.67155
2022-11-25 15:23:26.307538, 1.71554
2022-11-25 15:23:26.307741, 1.67644
2022-11-25 15:23:26.307860, 1.66667
2022-11-25 15:23:26.340836, 1.67644
2022-11-25 15:23:26.341111, 1.67155
2022-11-25 15:23:26.341284, 1.67644
2022-11-25 15:23:26.341442, 1.67155
2022-11-25 15:23:26.374108, 1.67155
2022-11-25 15:23:26.374316, 1.66667
2022-11-25 15:23:26.374444, 1.66667
2022-11-25 15:23:26.407374, 1.66667
2022-11-25 15:23:26.407593, 1.66178
2022-11-25 15:23:26.407721, 1.65689
2022-11-25 15:23:26.407846, 1.65689
2022-11-25 15:23:26.440719, 1.66667
2022-11-25 15:23:26.440925, 1.65200
2022-11-25 15:23:26.441045, 1.65200
2022-11-25 15:23:26.473942, 1.65200
2022-11-25 15:23:26.474115, 1.66667
2022-11-25 15:23:26.474208, 1.64712
2022-11-25 15:23:26.474293, 1.64223
2022-11-25 15:23:26.507283, 1.66178
2022-11-25 15:23:26.507455, 1.64223
2022-11-25 15:23:26.507589, 1.64223
2022-11-25 15:23:26.540545, 1.63734
2022-11-25 15:23:26.540775, 1.66667
2022-11-25 15:23:26.540900, 1.63734
2022-11-25 15:23:26.541015, 1.63245
2022-11-25 15:23:26.573875, 1.67155
2022-11-25 15:23:26.574072, 1.63734
2022-11-25 15:23:26.574189, 1.63245
2022-11-25 15:23:26.574301, 1.66667
2022-11-25 15:23:26.607251, 1.63245
2022-11-25 15:23:26.607468, 1.62757
2022-11-25 15:23:26.607597, 1.63245
2022-11-25 15:23:26.640459, 1.63734
2022-11-25 15:23:26.640664, 1.63245
2022-11-25 15:23:26.640783, 1.63245
2022-11-25 15:23:26.640899, 1.64223
2022-11-25 15:23:26.673834, 1.64223
2022-11-25 15:23:26.674039, 1.64223
2022-11-25 15:23:26.674173, 1.64712
2022-11-25 15:23:26.707056, 1.64712
2022-11-25 15:23:26.707275, 1.64223
2022-11-25 15:23:26.707399, 1.64712
2022-11-25 15:23:26.707525, 1.64712
2022-11-25 15:23:26.740315, 1.64712
2022-11-25 15:23:26.740488, 1.64712
2022-11-25 15:23:26.740582, 1.64712
2022-11-25 15:23:26.773706, 1.64223
2022-11-25 15:23:26.773988, 1.66178
2022-11-25 15:23:26.774173, 1.65200
2022-11-25 15:23:26.774334, 1.64712
2022-11-25 15:23:26.807029, 1.65689
2022-11-25 15:23:26.807230, 1.65689
2022-11-25 15:23:26.807345, 1.65200
2022-11-25 15:23:26.840193, 1.65200
2022-11-25 15:23:26.840420, 1.66667
2022-11-25 15:23:26.840556, 1.65200
2022-11-25 15:23:26.840674, 1.65689
2022-11-25 15:23:26.873644, 1.67155
2022-11-25 15:23:26.873922, 1.68622
2022-11-25 15:23:26.874098, 1.69110
2022-11-25 15:23:26.874261, 1.70577
2022-11-25 15:23:26.906866, 1.70577
2022-11-25 15:23:26.907035, 1.70577
2022-11-25 15:23:26.907127, 1.71065
2022-11-25 15:23:26.940249, 1.71554
2022-11-25 15:23:26.940429, 1.72532
2022-11-25 15:23:26.940522, 1.72532
2022-11-25 15:23:26.940607, 1.74487
2022-11-25 15:23:26.973565, 1.75464
2022-11-25 15:23:26.973783, 1.74976
2022-11-25 15:23:26.973905, 1.73509
2022-11-25 15:23:27.006666, 1.73509
2022-11-25 15:23:27.006879, 1.73021
2022-11-25 15:23:27.007003, 1.73021
2022-11-25 15:23:27.007119, 1.72043
2022-11-25 15:23:27.040179, 1.73021
2022-11-25 15:23:27.040438, 1.73509
2022-11-25 15:23:27.040615, 1.73509
2022-11-25 15:23:27.073346, 1.73509
2022-11-25 15:23:27.073554, 1.72532
2022-11-25 15:23:27.073671, 1.72532
2022-11-25 15:23:27.073783, 1.72043
2022-11-25 15:23:27.106681, 1.72043
2022-11-25 15:23:27.106886, 1.74976
2022-11-25 15:23:27.107016, 1.73509
2022-11-25 15:23:27.139948, 1.73021
2022-11-25 15:23:27.140165, 1.72532
2022-11-25 15:23:27.140298, 1.72043
2022-11-25 15:23:27.140408, 1.72532
2022-11-25 15:23:27.173319, 1.72532
2022-11-25 15:23:27.173542, 1.72532
2022-11-25 15:23:27.173669, 1.71554
2022-11-25 15:23:27.173785, 1.71554
2022-11-25 15:23:27.206656, 1.72043
2022-11-25 15:23:27.206869, 1.73998
2022-11-25 15:23:27.206992, 1.71554
2022-11-25 15:23:27.239881, 1.71065
2022-11-25 15:23:27.240108, 1.70577
2022-11-25 15:23:27.240238, 1.70577
2022-11-25 15:23:27.240377, 1.69110
2022-11-25 15:23:27.273326, 1.71554
2022-11-25 15:23:27.273547, 1.69599
2022-11-25 15:23:27.273676, 1.68622
2022-11-25 15:23:27.306505, 1.69110
2022-11-25 15:23:27.306681, 1.71065
2022-11-25 15:23:27.306778, 1.69599
2022-11-25 15:23:27.306873, 1.69110
2022-11-25 15:23:27.339850, 1.69599
2022-11-25 15:23:27.340066, 1.68622
2022-11-25 15:23:27.340201, 1.68133
2022-11-25 15:23:27.373112, 1.68622
2022-11-25 15:23:27.373374, 1.70577
2022-11-25 15:23:27.373545, 1.67644
2022-11-25 15:23:27.373704, 1.67644
2022-11-25 15:23:27.406419, 1.67644
2022-11-25 15:23:27.406637, 1.67155
2022-11-25 15:23:27.406759, 1.66667
2022-11-25 15:23:27.439662, 1.66667
2022-11-25 15:23:27.439859, 1.66178
2022-11-25 15:23:27.439950, 1.66667
2022-11-25 15:23:27.440039, 1.65689
2022-11-25 15:23:27.473029, 1.68133
2022-11-25 15:23:27.473238, 1.63734
2022-11-25 15:23:27.473354, 1.63734
2022-11-25 15:23:27.473472, 1.62757
2022-11-25 15:23:27.506319, 1.62268
2022-11-25 15:23:27.506484, 1.62757
2022-11-25 15:23:27.506574, 1.61290
2022-11-25 15:23:27.539650, 1.60313
2022-11-25 15:23:27.539912, 1.60313
2022-11-25 15:23:27.540079, 1.59824
2022-11-25 15:23:27.540242, 1.60313
2022-11-25 15:23:27.572949, 1.60313
2022-11-25 15:23:27.573160, 1.58847
2022-11-25 15:23:27.573281, 1.58358
2022-11-25 15:23:27.606207, 1.58358
2022-11-25 15:23:27.606381, 1.59824
2022-11-25 15:23:27.606471, 1.60313
2022-11-25 15:23:27.606560, 1.61290
2022-11-25 15:23:27.639507, 1.62757
2022-11-25 15:23:27.639712, 1.63245
2022-11-25 15:23:27.639836, 1.66178
2022-11-25 15:23:27.672749, 1.64712
2022-11-25 15:23:27.672920, 1.65200
2022-11-25 15:23:27.673012, 1.69599
2022-11-25 15:23:27.673098, 1.66667
2022-11-25 15:23:27.706182, 1.66667
2022-11-25 15:23:27.706445, 1.66178
2022-11-25 15:23:27.706636, 1.65689
2022-11-25 15:23:27.739310, 1.66178
2022-11-25 15:23:27.739544, 1.69110
2022-11-25 15:23:27.739675, 1.65689
2022-11-25 15:23:27.739789, 1.65689
2022-11-25 15:23:27.772630, 1.69110
2022-11-25 15:23:27.772715, 1.65689
2022-11-25 15:23:27.772779, 1.66178
2022-11-25 15:23:27.772842, 1.65689
2022-11-25 15:23:27.805814, 1.66178
2022-11-25 15:23:27.805948, 1.65689
2022-11-25 15:23:27.806024, 1.66178
2022-11-25 15:23:27.839175, 1.66667
2022-11-25 15:23:27.839341, 1.66667
2022-11-25 15:23:27.839437, 1.66178
2022-11-25 15:23:27.839521, 1.69110
2022-11-25 15:23:27.872527, 1.66178
2022-11-25 15:23:27.872699, 1.66667
2022-11-25 15:23:27.872793, 1.69110
2022-11-25 15:23:27.905844, 1.66667
2022-11-25 15:23:27.906054, 1.66667
2022-11-25 15:23:27.906178, 1.67155
2022-11-25 15:23:27.906292, 1.69110
2022-11-25 15:23:27.939131, 1.66667
2022-11-25 15:23:27.939302, 1.66178
2022-11-25 15:23:27.939397, 1.67155
2022-11-25 15:23:27.972377, 1.66178
2022-11-25 15:23:27.972554, 1.66178
2022-11-25 15:23:27.972647, 1.65689
2022-11-25 15:23:27.972736, 1.66178
2022-11-25 15:23:28.005793, 1.65689
2022-11-25 15:23:28.006059, 1.65200
2022-11-25 15:23:28.006233, 1.64712
2022-11-25 15:23:28.038970, 1.64223
2022-11-25 15:23:28.039164, 1.65200
2022-11-25 15:23:28.039418, 1.64223
2022-11-25 15:23:28.039508, 1.64223
2022-11-25 15:23:28.072372, 1.67155
2022-11-25 15:23:28.072593, 1.63734
2022-11-25 15:23:28.072724, 1.63734
2022-11-25 15:23:28.072841, 1.63245
2022-11-25 15:23:28.105705, 1.63734
2022-11-25 15:23:28.105906, 1.62757
2022-11-25 15:23:28.106028, 1.63245
2022-11-25 15:23:28.138919, 1.63245
2022-11-25 15:23:28.139124, 1.62268
2022-11-25 15:23:28.139263, 1.62757
2022-11-25 15:23:28.139380, 1.61779
2022-11-25 15:23:28.172328, 1.62757
2022-11-25 15:23:28.172536, 1.61779
2022-11-25 15:23:28.172660, 1.61779
2022-11-25 15:23:28.205568, 1.60313
2022-11-25 15:23:28.205771, 1.65200
2022-11-25 15:23:28.205894, 1.61290
2022-11-25 15:23:28.206006, 1.60802
2022-11-25 15:23:28.238903, 1.61779
2022-11-25 15:23:28.239110, 1.60802
2022-11-25 15:23:28.239240, 1.61290
2022-11-25 15:23:28.272190, 1.59824
2022-11-25 15:23:28.272407, 1.62268
2022-11-25 15:23:28.272538, 1.60313
2022-11-25 15:23:28.272658, 1.59824
2022-11-25 15:23:28.305407, 1.60802
2022-11-25 15:23:28.305577, 1.64712
2022-11-25 15:23:28.305668, 1.61290
2022-11-25 15:23:28.338713, 1.61779
2022-11-25 15:23:28.338941, 1.65689
2022-11-25 15:23:28.339069, 1.63734
2022-11-25 15:23:28.339183, 1.64223
2022-11-25 15:23:28.372078, 1.68133
2022-11-25 15:23:28.372270, 1.66667
2022-11-25 15:23:28.372393, 1.67155
2022-11-25 15:23:28.372518, 1.68622
2022-11-25 15:23:28.405375, 1.67155
2022-11-25 15:23:28.405560, 1.68622
2022-11-25 15:23:28.405677, 1.68622
2022-11-25 15:23:28.438620, 1.68133
2022-11-25 15:23:28.438828, 1.67644
2022-11-25 15:23:28.438953, 1.67644
2022-11-25 15:23:28.439071, 1.68133
2022-11-25 15:23:28.471937, 1.69110
2022-11-25 15:23:28.472099, 1.67644
2022-11-25 15:23:28.472188, 1.66178
2022-11-25 15:23:28.505238, 1.67644
2022-11-25 15:23:28.505459, 1.68133
2022-11-25 15:23:28.505583, 1.71554
2022-11-25 15:23:28.505701, 1.69110
2022-11-25 15:23:28.538567, 1.68622
2022-11-25 15:23:28.538772, 1.68133
2022-11-25 15:23:28.538900, 1.68133
2022-11-25 15:23:28.571841, 1.68622
2022-11-25 15:23:28.572022, 1.68133
2022-11-25 15:23:28.572114, 1.67644
2022-11-25 15:23:28.572198, 1.67644
2022-11-25 15:23:28.605209, 1.67155
2022-11-25 15:23:28.605420, 1.67155
2022-11-25 15:23:28.605547, 1.68622
2022-11-25 15:23:28.638451, 1.67644
2022-11-25 15:23:28.638662, 1.67644
2022-11-25 15:23:28.638791, 1.66667
2022-11-25 15:23:28.638907, 1.67155
2022-11-25 15:23:28.671811, 1.67155
2022-11-25 15:23:28.672022, 1.66178
2022-11-25 15:23:28.672145, 1.69599
2022-11-25 15:23:28.672268, 1.66667
2022-11-25 15:23:28.705116, 1.66178
2022-11-25 15:23:28.705287, 1.65689
2022-11-25 15:23:28.705377, 1.66178
2022-11-25 15:23:28.738388, 1.65200
2022-11-25 15:23:28.738596, 1.68622
2022-11-25 15:23:28.738721, 1.64712
2022-11-25 15:23:28.738835, 1.64223
2022-11-25 15:23:28.771833, 1.63245
2022-11-25 15:23:28.772098, 1.66178
2022-11-25 15:23:28.772267, 1.63734
2022-11-25 15:23:28.804962, 1.63734
2022-11-25 15:23:28.805134, 1.64223
2022-11-25 15:23:28.805226, 1.67155
2022-11-25 15:23:28.805313, 1.63245
2022-11-25 15:23:28.838343, 1.62757
2022-11-25 15:23:28.838554, 1.64223
2022-11-25 15:23:28.838684, 1.63734
2022-11-25 15:23:28.871646, 1.61779
2022-11-25 15:23:28.871916, 1.62268
2022-11-25 15:23:28.872097, 1.66178
2022-11-25 15:23:28.872259, 1.62268
2022-11-25 15:23:28.904930, 1.61779
2022-11-25 15:23:28.905108, 1.62268
2022-11-25 15:23:28.905206, 1.61779
2022-11-25 15:23:28.938205, 1.61779
2022-11-25 15:23:28.938429, 1.61779
2022-11-25 15:23:28.938557, 1.61290
2022-11-25 15:23:28.938671, 1.59824
2022-11-25 15:23:28.971543, 1.61290
2022-11-25 15:23:28.971754, 1.65200
2022-11-25 15:23:28.971877, 1.61290
2022-11-25 15:23:28.971988, 1.60802
2022-11-25 15:23:29.004889, 1.63245
2022-11-25 15:23:29.005091, 1.60802
2022-11-25 15:23:29.005218, 1.60313
2022-11-25 15:23:29.038131, 1.62757
2022-11-25 15:23:29.038328, 1.61779
2022-11-25 15:23:29.038454, 1.62268
2022-11-25 15:23:29.038571, 1.67155
2022-11-25 15:23:29.071459, 1.64712
2022-11-25 15:23:29.071663, 1.65200
2022-11-25 15:23:29.071796, 1.70088
2022-11-25 15:23:29.104731, 1.67155
2022-11-25 15:23:29.104928, 1.68133
2022-11-25 15:23:29.105047, 1.69599
2022-11-25 15:23:29.105162, 1.72043
2022-11-25 15:23:29.138071, 1.69110
2022-11-25 15:23:29.138285, 1.69599
2022-11-25 15:23:29.138408, 1.73021
2022-11-25 15:23:29.171314, 1.70088
2022-11-25 15:23:29.171526, 1.69599
2022-11-25 15:23:29.171644, 1.69110
2022-11-25 15:23:29.171736, 1.69110
2022-11-25 15:23:29.204653, 1.69110
2022-11-25 15:23:29.204876, 1.69110
2022-11-25 15:23:29.205005, 1.69599
2022-11-25 15:23:29.237827, 1.73021
2022-11-25 15:23:29.238043, 1.73021
2022-11-25 15:23:29.238170, 1.71554
2022-11-25 15:23:29.238333, 1.69110
2022-11-25 15:23:29.271282, 1.70088
2022-11-25 15:23:29.271501, 1.69599
2022-11-25 15:23:29.271623, 1.69599
2022-11-25 15:23:29.271734, 1.69599
2022-11-25 15:23:29.304601, 1.69599
2022-11-25 15:23:29.304764, 1.69599
2022-11-25 15:23:29.304847, 1.69110
2022-11-25 15:23:29.337835, 1.69599
2022-11-25 15:23:29.338006, 1.68622
2022-11-25 15:23:29.338099, 1.69110
2022-11-25 15:23:29.338182, 1.69110
2022-11-25 15:23:29.371169, 1.72043
2022-11-25 15:23:29.371331, 1.69110
2022-11-25 15:23:29.371420, 1.69599
2022-11-25 15:23:29.404439, 1.68133
2022-11-25 15:23:29.404614, 1.67644
2022-11-25 15:23:29.404706, 1.68622
2022-11-25 15:23:29.404791, 1.68133
2022-11-25 15:23:29.437819, 1.68133
2022-11-25 15:23:29.438088, 1.71554
2022-11-25 15:23:29.438255, 1.68133
2022-11-25 15:23:29.471014, 1.67155
2022-11-25 15:23:29.471182, 1.70577
2022-11-25 15:23:29.471275, 1.66667
2022-11-25 15:23:29.471360, 1.65200
2022-11-25 15:23:29.504378, 1.66667
2022-11-25 15:23:29.504641, 1.69110
2022-11-25 15:23:29.504810, 1.66178
2022-11-25 15:23:29.537599, 1.65689
2022-11-25 15:23:29.537824, 1.67644
2022-11-25 15:23:29.537954, 1.65689
2022-11-25 15:23:29.538070, 1.65200
2022-11-25 15:23:29.571002, 1.65689
2022-11-25 15:23:29.571238, 1.68622
2022-11-25 15:23:29.571400, 1.64712
2022-11-25 15:23:29.571578, 1.64223
2022-11-25 15:23:29.604316, 1.67155
2022-11-25 15:23:29.604491, 1.64223
2022-11-25 15:23:29.604581, 1.64223
2022-11-25 15:23:29.637560, 1.67644
2022-11-25 15:23:29.637798, 1.63734
2022-11-25 15:23:29.637962, 1.63734
2022-11-25 15:23:29.638120, 1.66667
2022-11-25 15:23:29.670919, 1.63734
2022-11-25 15:23:29.671175, 1.63245
2022-11-25 15:23:29.671427, 1.63245
2022-11-25 15:23:29.704132, 1.67155
2022-11-25 15:23:29.704335, 1.63245
2022-11-25 15:23:29.704455, 1.62757
2022-11-25 15:23:29.704569, 1.66178
2022-11-25 15:23:29.737515, 1.63245
2022-11-25 15:23:29.737769, 1.62757
2022-11-25 15:23:29.737940, 1.64223
2022-11-25 15:23:29.770748, 1.63245
2022-11-25 15:23:29.770925, 1.63734
2022-11-25 15:23:29.771019, 1.65689
2022-11-25 15:23:29.771108, 1.65689
2022-11-25 15:23:29.804108, 1.66667
2022-11-25 15:23:29.804370, 1.67644
2022-11-25 15:23:29.804540, 1.68622
2022-11-25 15:23:29.837299, 1.69110
2022-11-25 15:23:29.837483, 1.70088
2022-11-25 15:23:29.837578, 1.71554
2022-11-25 15:23:29.837665, 1.70577
2022-11-25 15:23:29.870663, 1.70577
2022-11-25 15:23:29.870918, 1.70577
2022-11-25 15:23:29.871085, 1.71065
2022-11-25 15:23:29.871259, 1.71065
2022-11-25 15:23:29.903981, 1.73998
2022-11-25 15:23:29.904149, 1.73509
2022-11-25 15:23:29.904242, 1.71554
2022-11-25 15:23:29.937271, 1.71554
2022-11-25 15:23:29.937529, 1.71065
2022-11-25 15:23:29.937700, 1.70577
2022-11-25 15:23:29.937856, 1.70577
2022-11-25 15:23:29.970628, 1.71065
2022-11-25 15:23:29.970869, 1.71554
2022-11-25 15:23:29.971034, 1.71554
2022-11-25 15:23:30.003850, 1.70577
2022-11-25 15:23:30.004016, 1.74976
2022-11-25 15:23:30.004108, 1.74487
2022-11-25 15:23:30.004192, 1.72043
2022-11-25 15:23:30.037220, 1.71065
2022-11-25 15:23:30.037478, 1.72043
2022-11-25 15:23:30.037645, 1.72043
2022-11-25 15:23:30.070449, 1.71554
2022-11-25 15:23:30.070621, 1.71554
2022-11-25 15:23:30.070720, 1.71065
2022-11-25 15:23:30.070812, 1.70577
2022-11-25 15:23:30.103807, 1.74976
2022-11-25 15:23:30.104063, 1.73998
2022-11-25 15:23:30.104231, 1.73021
2022-11-25 15:23:30.137021, 1.71065
2022-11-25 15:23:30.137216, 1.70577
2022-11-25 15:23:30.137308, 1.70577
2022-11-25 15:23:30.137407, 1.70088
2022-11-25 15:23:30.170425, 1.70088
2022-11-25 15:23:30.170890, 1.71554
2022-11-25 15:23:30.171061, 1.69599
2022-11-25 15:23:30.171221, 1.69110
2022-11-25 15:23:30.203683, 1.68622
2022-11-25 15:23:30.203844, 1.68622
2022-11-25 15:23:30.203933, 1.67644
2022-11-25 15:23:30.236926, 1.66667
2022-11-25 15:23:30.237183, 1.67644
2022-11-25 15:23:30.237358, 1.65689
2022-11-25 15:23:30.237518, 1.66667
2022-11-25 15:23:30.270359, 1.65689
2022-11-25 15:23:30.270628, 1.66178
2022-11-25 15:23:30.270794, 1.65689
2022-11-25 15:23:30.303584, 1.66667
2022-11-25 15:23:30.303762, 1.66667
2022-11-25 15:23:30.303857, 1.65689
2022-11-25 15:23:30.303948, 1.65200
2022-11-25 15:23:30.336878, 1.67644
2022-11-25 15:23:30.337144, 1.64712
2022-11-25 15:23:30.337310, 1.64712
2022-11-25 15:23:30.370153, 1.65200
2022-11-25 15:23:30.370363, 1.64712
2022-11-25 15:23:30.370481, 1.64223
2022-11-25 15:23:30.370595, 1.64712
2022-11-25 15:23:30.403476, 1.64223
2022-11-25 15:23:30.403727, 1.64712
2022-11-25 15:23:30.403889, 1.63734
2022-11-25 15:23:30.436746, 1.63245
2022-11-25 15:23:30.436943, 1.65689
2022-11-25 15:23:30.437043, 1.63245
2022-11-25 15:23:30.437130, 1.63245
2022-11-25 15:23:30.470109, 1.62757
2022-11-25 15:23:30.470373, 1.63245
2022-11-25 15:23:30.470548, 1.63245
2022-11-25 15:23:30.470711, 1.63734
2022-11-25 15:23:30.503374, 1.63734
2022-11-25 15:23:30.503539, 1.64223
2022-11-25 15:23:30.503629, 1.65689
2022-11-25 15:23:30.536671, 1.66178
2022-11-25 15:23:30.536924, 1.68133
2022-11-25 15:23:30.537087, 1.68622
2022-11-25 15:23:30.537246, 1.69599
2022-11-25 15:23:30.569990, 1.70577
2022-11-25 15:23:30.570151, 1.70577
2022-11-25 15:23:30.570241, 1.71065
2022-11-25 15:23:30.603284, 1.70577
2022-11-25 15:23:30.603550, 1.74487
2022-11-25 15:23:30.603721, 1.71065
2022-11-25 15:23:30.603897, 1.72043
2022-11-25 15:23:30.636614, 1.69599
2022-11-25 15:23:30.636773, 1.70577
2022-11-25 15:23:30.636861, 1.70088
2022-11-25 15:23:30.669848, 1.73509
2022-11-25 15:23:30.670103, 1.71065
2022-11-25 15:23:30.670266, 1.70088
2022-11-25 15:23:30.670423, 1.70088
2022-11-25 15:23:30.703228, 1.70088
2022-11-25 15:23:30.703494, 1.70577
2022-11-25 15:23:30.703668, 1.70577
2022-11-25 15:23:30.736423, 1.70577
2022-11-25 15:23:30.736705, 1.70577
2022-11-25 15:23:30.736874, 1.73509
2022-11-25 15:23:30.737029, 1.70577
2022-11-25 15:23:30.769671, 1.70088
2022-11-25 15:23:30.769824, 1.70088
2022-11-25 15:23:30.769898, 1.69599
2022-11-25 15:23:30.769969, 1.69599
2022-11-25 15:23:30.803094, 1.69599
2022-11-25 15:23:30.803248, 1.69599
2022-11-25 15:23:30.803336, 1.73021
2022-11-25 15:23:30.836348, 1.69599
2022-11-25 15:23:30.836509, 1.69110
2022-11-25 15:23:30.836596, 1.69110
2022-11-25 15:23:30.836680, 1.73021
2022-11-25 15:23:30.869789, 1.68622
2022-11-25 15:23:30.870043, 1.68622
2022-11-25 15:23:30.870214, 1.68622
2022-11-25 15:23:30.902969, 1.67644
2022-11-25 15:23:30.903143, 1.67644
2022-11-25 15:23:30.903237, 1.67644
2022-11-25 15:23:30.903323, 1.67644
2022-11-25 15:23:30.936340, 1.70088
2022-11-25 15:23:30.936611, 1.66667
2022-11-25 15:23:30.936778, 1.66667
2022-11-25 15:23:30.969566, 1.66667
2022-11-25 15:23:30.969737, 1.69599
2022-11-25 15:23:30.969830, 1.66178
2022-11-25 15:23:30.969914, 1.65689
2022-11-25 15:23:31.002912, 1.66667
2022-11-25 15:23:31.003168, 1.65200
2022-11-25 15:23:31.003337, 1.65689
2022-11-25 15:23:31.036193, 1.66667
2022-11-25 15:23:31.036388, 1.65200
2022-11-25 15:23:31.036483, 1.64712
2022-11-25 15:23:31.036566, 1.67644
2022-11-25 15:23:31.069484, 1.63734
2022-11-25 15:23:31.069690, 1.64712
2022-11-25 15:23:31.069808, 1.67644
2022-11-25 15:23:31.069928, 1.64223
2022-11-25 15:23:31.102777, 1.64223
2022-11-25 15:23:31.102944, 1.64712
2022-11-25 15:23:31.103037, 1.63734
2022-11-25 15:23:31.136097, 1.63734
2022-11-25 15:23:31.136366, 1.63734
2022-11-25 15:23:31.136536, 1.64712
2022-11-25 15:23:31.136695, 1.63245
2022-11-25 15:23:31.169389, 1.63245
2022-11-25 15:23:31.169563, 1.63734
2022-11-25 15:23:31.169660, 1.63245
2022-11-25 15:23:31.202676, 1.63245
2022-11-25 15:23:31.202944, 1.63245
2022-11-25 15:23:31.203118, 1.67155
2022-11-25 15:23:31.203281, 1.64712
2022-11-25 15:23:31.236009, 1.64223
2022-11-25 15:23:31.236185, 1.68133
2022-11-25 15:23:31.236278, 1.67644
2022-11-25 15:23:31.269271, 1.68133
2022-11-25 15:23:31.269479, 1.73509
2022-11-25 15:23:31.269602, 1.69599
2022-11-25 15:23:31.269715, 1.70088
2022-11-25 15:23:31.302666, 1.71065
2022-11-25 15:23:31.302856, 1.70577
2022-11-25 15:23:31.302976, 1.70577
2022-11-25 15:23:31.335793, 1.71065
2022-11-25 15:23:31.336100, 1.70577
2022-11-25 15:23:31.336294, 1.69599
2022-11-25 15:23:31.336465, 1.70088
2022-11-25 15:23:31.369307, 1.70577
2022-11-25 15:23:31.369578, 1.70577
2022-11-25 15:23:31.369755, 1.70577
2022-11-25 15:23:31.369918, 1.70088
2022-11-25 15:23:31.402571, 1.71065
2022-11-25 15:23:31.402786, 1.73509
2022-11-25 15:23:31.402917, 1.72043
2022-11-25 15:23:31.435814, 1.70577
2022-11-25 15:23:31.435985, 1.72043
2022-11-25 15:23:31.436077, 1.70577
2022-11-25 15:23:31.436163, 1.71065
2022-11-25 15:23:31.469182, 1.71065
2022-11-25 15:23:31.469492, 1.72043
2022-11-25 15:23:31.469668, 1.73998
2022-11-25 15:23:31.502396, 1.71554
2022-11-25 15:23:31.502564, 1.70088
2022-11-25 15:23:31.502661, 1.69110
2022-11-25 15:23:31.502745, 1.69599
2022-11-25 15:23:31.535779, 1.69599
2022-11-25 15:23:31.536039, 1.69599
2022-11-25 15:23:31.536211, 1.69599
2022-11-25 15:23:31.568991, 1.69110
2022-11-25 15:23:31.569166, 1.72532
2022-11-25 15:23:31.569258, 1.69110
2022-11-25 15:23:31.569343, 1.69110
2022-11-25 15:23:31.602348, 1.70088
2022-11-25 15:23:31.602592, 1.68622
2022-11-25 15:23:31.602754, 1.68622
2022-11-25 15:23:31.635556, 1.68133
2022-11-25 15:23:31.635748, 1.68622
2022-11-25 15:23:31.635847, 1.67644
2022-11-25 15:23:31.635937, 1.67644
2022-11-25 15:23:31.668937, 1.67155
2022-11-25 15:23:31.669189, 1.67644
2022-11-25 15:23:31.669356, 1.66667
2022-11-25 15:23:31.669511, 1.65689
2022-11-25 15:23:31.702279, 1.66178
2022-11-25 15:23:31.702451, 1.67644
2022-11-25 15:23:31.702549, 1.65689
2022-11-25 15:23:31.735533, 1.65689
2022-11-25 15:23:31.735797, 1.66667
2022-11-25 15:23:31.735967, 1.64712
2022-11-25 15:23:31.736130, 1.65200
2022-11-25 15:23:31.768855, 1.65200
2022-11-25 15:23:31.769025, 1.64712
2022-11-25 15:23:31.769116, 1.64712
2022-11-25 15:23:31.802121, 1.65200
2022-11-25 15:23:31.802388, 1.64223
2022-11-25 15:23:31.802558, 1.64223
2022-11-25 15:23:31.802757, 1.64223
2022-11-25 15:23:31.835472, 1.66178
2022-11-25 15:23:31.835669, 1.63245
2022-11-25 15:23:31.835795, 1.63734
2022-11-25 15:23:31.868694, 1.63734
2022-11-25 15:23:31.868867, 1.63245
2022-11-25 15:23:31.868970, 1.63245
2022-11-25 15:23:31.869057, 1.63245
2022-11-25 15:23:31.902036, 1.63734
2022-11-25 15:23:31.902214, 1.62757
2022-11-25 15:23:31.902306, 1.62757
2022-11-25 15:23:31.935269, 1.64712
2022-11-25 15:23:31.935561, 1.62757
2022-11-25 15:23:31.935729, 1.62757
2022-11-25 15:23:31.935890, 1.64223
2022-11-25 15:23:31.968670, 1.64223
2022-11-25 15:23:31.968924, 1.65689
2022-11-25 15:23:31.969102, 1.66667
2022-11-25 15:23:31.969264, 1.67644
2022-11-25 15:23:32.002024, 1.69110
2022-11-25 15:23:32.002273, 1.69110
2022-11-25 15:23:32.002440, 1.71065
2022-11-25 15:23:32.035251, 1.70088
2022-11-25 15:23:32.035462, 1.70088
2022-11-25 15:23:32.035593, 1.70088
2022-11-25 15:23:32.035710, 1.69599
2022-11-25 15:23:32.068597, 1.69110
2022-11-25 15:23:32.068858, 1.69599
2022-11-25 15:23:32.069024, 1.71554
2022-11-25 15:23:32.101852, 1.70577
2022-11-25 15:23:32.102147, 1.70088
2022-11-25 15:23:32.102328, 1.70088
2022-11-25 15:23:32.102604, 1.70577
2022-11-25 15:23:32.135125, 1.70088
2022-11-25 15:23:32.135299, 1.70577
2022-11-25 15:23:32.135391, 1.70577
2022-11-25 15:23:32.168441, 1.70577
2022-11-25 15:23:32.168721, 1.70577
2022-11-25 15:23:32.168893, 1.70577
2022-11-25 15:23:32.169062, 1.70577
2022-11-25 15:23:32.201758, 1.73021
2022-11-25 15:23:32.201973, 1.73509
2022-11-25 15:23:32.202097, 1.71065
2022-11-25 15:23:32.234997, 1.71065
2022-11-25 15:23:32.235297, 1.70088
2022-11-25 15:23:32.235471, 1.70088
2022-11-25 15:23:32.235630, 1.70088
2022-11-25 15:23:32.268302, 1.69599
2022-11-25 15:23:32.268454, 1.69110
2022-11-25 15:23:32.268532, 1.69599
2022-11-25 15:23:32.268608, 1.69110
2022-11-25 15:23:32.301655, 1.70088
2022-11-25 15:23:32.301828, 1.69110
2022-11-25 15:23:32.301919, 1.69110
2022-11-25 15:23:32.334912, 1.68622
2022-11-25 15:23:32.335082, 1.68622
2022-11-25 15:23:32.335173, 1.68133
2022-11-25 15:23:32.335257, 1.68133
2022-11-25 15:23:32.368331, 1.69110
2022-11-25 15:23:32.368589, 1.67155
2022-11-25 15:23:32.368753, 1.67644
2022-11-25 15:23:32.401548, 1.67155
2022-11-25 15:23:32.401810, 1.70577
2022-11-25 15:23:32.401976, 1.66667
2022-11-25 15:23:32.402136, 1.66178
2022-11-25 15:23:32.434802, 1.67155
2022-11-25 15:23:32.435053, 1.68622
2022-11-25 15:23:32.435215, 1.65689
2022-11-25 15:23:32.468123, 1.65689
2022-11-25 15:23:32.468329, 1.66178
2022-11-25 15:23:32.468449, 1.68622
2022-11-25 15:23:32.468572, 1.65200
2022-11-25 15:23:32.501475, 1.64712
2022-11-25 15:23:32.501745, 1.65689
2022-11-25 15:23:32.501912, 1.68133
2022-11-25 15:23:32.534626, 1.64712
2022-11-25 15:23:32.534824, 1.64223
2022-11-25 15:23:32.534920, 1.64223
2022-11-25 15:23:32.535008, 1.63734
2022-11-25 15:23:32.568057, 1.64223
2022-11-25 15:23:32.568331, 1.67644
2022-11-25 15:23:32.568508, 1.63734
2022-11-25 15:23:32.568668, 1.63245
2022-11-25 15:23:32.601426, 1.66667
2022-11-25 15:23:32.601690, 1.63245
2022-11-25 15:23:32.601860, 1.62757
2022-11-25 15:23:32.634649, 1.65200
2022-11-25 15:23:32.634924, 1.62757
2022-11-25 15:23:32.635094, 1.62268
2022-11-25 15:23:32.635261, 1.65200
2022-11-25 15:23:32.668000, 1.63734
2022-11-25 15:23:32.668240, 1.63734
2022-11-25 15:23:32.668402, 1.63245
2022-11-25 15:23:32.701227, 1.63245
2022-11-25 15:23:32.701477, 1.66178
2022-11-25 15:23:32.701650, 1.65200
2022-11-25 15:23:32.701806, 1.65689
2022-11-25 15:23:32.734609, 1.66667
2022-11-25 15:23:32.734876, 1.71554
2022-11-25 15:23:32.735044, 1.69599
2022-11-25 15:23:32.767841, 1.70088
2022-11-25 15:23:32.768020, 1.72532
2022-11-25 15:23:32.768119, 1.71065
2022-11-25 15:23:32.768209, 1.71554
2022-11-25 15:23:32.801174, 1.71554
2022-11-25 15:23:32.801375, 1.70088
2022-11-25 15:23:32.801497, 1.71065
2022-11-25 15:23:32.834379, 1.70577
2022-11-25 15:23:32.834656, 1.71554
2022-11-25 15:23:32.834827, 1.71554
2022-11-25 15:23:32.834981, 1.71065
2022-11-25 15:23:32.867787, 1.71065
2022-11-25 15:23:32.868000, 1.71554
2022-11-25 15:23:32.868123, 1.72532
2022-11-25 15:23:32.868237, 1.71554
2022-11-25 15:23:32.901125, 1.71554
2022-11-25 15:23:32.901392, 1.73021
2022-11-25 15:23:32.901565, 1.74487
2022-11-25 15:23:32.934322, 1.75464
2022-11-25 15:23:32.934495, 1.75464
2022-11-25 15:23:32.934587, 1.73021
2022-11-25 15:23:32.934681, 1.73021
2022-11-25 15:23:32.967679, 1.72043
2022-11-25 15:23:32.968142, 1.72043
2022-11-25 15:23:32.968355, 1.71065
2022-11-25 15:23:33.000838, 1.71065
2022-11-25 15:23:33.001014, 1.71065
2022-11-25 15:23:33.001116, 1.70577
2022-11-25 15:23:33.001202, 1.70577
2022-11-25 15:23:33.034223, 1.72043
2022-11-25 15:23:33.034438, 1.70577
2022-11-25 15:23:33.034563, 1.69599
2022-11-25 15:23:33.067552, 1.69599
2022-11-25 15:23:33.067772, 1.70088
2022-11-25 15:23:33.067896, 1.69599
2022-11-25 15:23:33.068010, 1.69110
2022-11-25 15:23:33.100846, 1.69110
2022-11-25 15:23:33.101093, 1.69599
2022-11-25 15:23:33.101270, 1.68622
2022-11-25 15:23:33.134071, 1.69599
2022-11-25 15:23:33.134270, 1.69599
2022-11-25 15:23:33.134365, 1.70577
2022-11-25 15:23:33.134449, 1.70088
2022-11-25 15:23:33.167450, 1.69599
2022-11-25 15:23:33.167707, 1.70088
2022-11-25 15:23:33.167874, 1.70577
2022-11-25 15:23:33.168041, 1.69599
2022-11-25 15:23:33.200780, 1.68622
2022-11-25 15:23:33.200984, 1.68622
2022-11-25 15:23:33.201107, 1.71554
2022-11-25 15:23:33.234063, 1.68133
2022-11-25 15:23:33.234332, 1.67644
2022-11-25 15:23:33.234506, 1.71065
2022-11-25 15:23:33.234681, 1.67155
2022-11-25 15:23:33.267354, 1.66667
2022-11-25 15:23:33.267528, 1.67155
2022-11-25 15:23:33.267618, 1.65689
2022-11-25 15:23:33.300672, 1.65689
2022-11-25 15:23:33.300937, 1.65200
2022-11-25 15:23:33.301108, 1.68622
2022-11-25 15:23:33.301267, 1.65689
2022-11-25 15:23:33.333943, 1.65689
2022-11-25 15:23:33.334120, 1.66178
2022-11-25 15:23:33.334212, 1.66178
2022-11-25 15:23:33.367224, 1.65689
2022-11-25 15:23:33.367494, 1.66667
2022-11-25 15:23:33.367669, 1.66178
2022-11-25 15:23:33.367844, 1.66178
2022-11-25 15:23:33.400563, 1.69599
2022-11-25 15:23:33.400734, 1.65689
2022-11-25 15:23:33.400827, 1.64712
2022-11-25 15:23:33.433790, 1.65689
2022-11-25 15:23:33.434056, 1.65200
2022-11-25 15:23:33.434227, 1.65200
2022-11-25 15:23:33.434390, 1.67155
2022-11-25 15:23:33.467207, 1.64712
2022-11-25 15:23:33.467467, 1.65200
2022-11-25 15:23:33.467635, 1.69110
2022-11-25 15:23:33.467796, 1.66178
2022-11-25 15:23:33.500524, 1.66667
2022-11-25 15:23:33.500772, 1.69110
2022-11-25 15:23:33.500937, 1.69110
2022-11-25 15:23:33.533707, 1.70088
2022-11-25 15:23:33.533921, 1.72532
2022-11-25 15:23:33.534045, 1.71065
2022-11-25 15:23:33.534162, 1.72043
2022-11-25 15:23:33.567084, 1.72043
2022-11-25 15:23:33.567351, 1.72043
2022-11-25 15:23:33.567522, 1.73021
2022-11-25 15:23:33.600374, 1.71554
2022-11-25 15:23:33.600656, 1.72043
2022-11-25 15:23:33.600836, 1.72043
2022-11-25 15:23:33.600992, 1.72043
2022-11-25 15:23:33.633645, 1.71554
2022-11-25 15:23:33.633913, 1.71554
2022-11-25 15:23:33.634085, 1.72043
2022-11-25 15:23:33.666978, 1.71554
2022-11-25 15:23:33.667262, 1.72532
2022-11-25 15:23:33.667441, 1.72043
2022-11-25 15:23:33.667608, 1.74976
2022-11-25 15:23:33.700289, 1.73021
2022-11-25 15:23:33.700536, 1.72532
2022-11-25 15:23:33.700701, 1.73021
2022-11-25 15:23:33.733514, 1.72532
2022-11-25 15:23:33.733708, 1.72043
2022-11-25 15:23:33.733802, 1.72043
2022-11-25 15:23:33.733892, 1.72043
2022-11-25 15:23:33.766855, 1.71554
2022-11-25 15:23:33.767029, 1.72043
2022-11-25 15:23:33.767125, 1.72043
2022-11-25 15:23:33.767212, 1.72043
2022-11-25 15:23:33.800345, 1.73509
2022-11-25 15:23:33.800611, 1.72532
2022-11-25 15:23:33.800784, 1.72532
2022-11-25 15:23:33.833485, 1.72043
2022-11-25 15:23:33.833754, 1.71554
2022-11-25 15:23:33.833927, 1.71554
2022-11-25 15:23:33.834100, 1.71065
2022-11-25 15:23:33.866815, 1.73998
2022-11-25 15:23:33.867015, 1.70577
2022-11-25 15:23:33.867138, 1.70577
2022-11-25 15:23:33.900097, 1.70088
2022-11-25 15:23:33.900372, 1.73021
2022-11-25 15:23:33.900548, 1.69110
2022-11-25 15:23:33.900721, 1.68622
2022-11-25 15:23:33.933406, 1.71065
2022-11-25 15:23:33.933619, 1.69110
2022-11-25 15:23:33.933747, 1.67155
2022-11-25 15:23:33.966638, 1.69599
2022-11-25 15:23:33.966918, 1.68622
2022-11-25 15:23:33.967104, 1.67644
2022-11-25 15:23:33.967281, 1.68622
2022-11-25 15:23:33.999991, 1.67644
2022-11-25 15:23:34.000154, 1.67644
2022-11-25 15:23:34.000245, 1.68133
2022-11-25 15:23:34.033223, 1.70577
2022-11-25 15:23:34.033525, 1.67155
2022-11-25 15:23:34.033698, 1.67644
2022-11-25 15:23:34.033875, 1.69110
2022-11-25 15:23:34.066568, 1.66667
2022-11-25 15:23:34.066747, 1.66667
2022-11-25 15:23:34.066843, 1.66667
2022-11-25 15:23:34.066928, 1.66178
2022-11-25 15:23:34.099945, 1.66178
2022-11-25 15:23:34.100208, 1.66178
2022-11-25 15:23:34.100392, 1.65200
2022-11-25 15:23:34.133222, 1.65689
2022-11-25 15:23:34.133734, 1.65200
2022-11-25 15:23:34.133948, 1.66178
2022-11-25 15:23:34.134392, 1.65200
2022-11-25 15:23:34.166441, 1.68622
2022-11-25 15:23:34.166655, 1.65200
2022-11-25 15:23:34.166748, 1.65200
2022-11-25 15:23:34.199812, 1.64712
2022-11-25 15:23:34.200094, 1.64712
2022-11-25 15:23:34.200263, 1.65689
2022-11-25 15:23:34.200433, 1.64223
2022-11-25 15:23:34.233090, 1.63734
2022-11-25 15:23:34.233276, 1.64712
2022-11-25 15:23:34.233372, 1.64223
2022-11-25 15:23:34.266331, 1.64223
2022-11-25 15:23:34.266518, 1.66667
2022-11-25 15:23:34.266614, 1.66178
2022-11-25 15:23:34.266698, 1.67155
2022-11-25 15:23:34.299726, 1.68622
2022-11-25 15:23:34.299936, 1.69599
2022-11-25 15:23:34.300059, 1.71065
2022-11-25 15:23:34.332950, 1.75464
2022-11-25 15:23:34.333258, 1.71554
2022-11-25 15:23:34.333431, 1.72043
2022-11-25 15:23:34.333595, 1.73509
2022-11-25 15:23:34.366248, 1.72532
2022-11-25 15:23:34.366431, 1.72043
2022-11-25 15:23:34.366521, 1.72043
2022-11-25 15:23:34.366607, 1.72043
2022-11-25 15:23:34.399640, 1.71554
2022-11-25 15:23:34.399851, 1.71554
2022-11-25 15:23:34.399979, 1.72043
2022-11-25 15:23:34.432920, 1.71554
2022-11-25 15:23:34.433196, 1.72043
2022-11-25 15:23:34.433366, 1.71554
2022-11-25 15:23:34.433531, 1.72043
2022-11-25 15:23:34.466288, 1.71554
2022-11-25 15:23:34.466511, 1.76442
2022-11-25 15:23:34.466641, 1.73998
2022-11-25 15:23:34.499473, 1.72532
2022-11-25 15:23:34.499652, 1.72532
2022-11-25 15:23:34.499747, 1.72043
2022-11-25 15:23:34.499835, 1.72043
2022-11-25 15:23:34.532847, 1.72043
2022-11-25 15:23:34.533117, 1.71554
2022-11-25 15:23:34.533287, 1.71554
2022-11-25 15:23:34.566051, 1.71554
2022-11-25 15:23:34.566271, 1.73509
2022-11-25 15:23:34.566394, 1.72043
2022-11-25 15:23:34.566514, 1.72043
2022-11-25 15:23:34.599446, 1.71065
2022-11-25 15:23:34.599713, 1.71065
2022-11-25 15:23:34.599891, 1.70577
2022-11-25 15:23:34.632606, 1.70577
2022-11-25 15:23:34.632792, 1.73998
2022-11-25 15:23:34.632885, 1.71554
2022-11-25 15:23:34.632973, 1.71065
2022-11-25 15:23:34.666028, 1.70088
2022-11-25 15:23:34.666297, 1.70088
2022-11-25 15:23:34.666469, 1.69110
2022-11-25 15:23:34.666630, 1.69110
2022-11-25 15:23:34.699350, 1.69110
2022-11-25 15:23:34.699524, 1.71554
2022-11-25 15:23:34.699614, 1.68133
2022-11-25 15:23:34.732645, 1.69599
2022-11-25 15:23:34.732917, 1.68622
2022-11-25 15:23:34.733086, 1.68133
2022-11-25 15:23:34.733246, 1.67644
2022-11-25 15:23:34.765930, 1.68133
2022-11-25 15:23:34.766110, 1.67155
2022-11-25 15:23:34.766205, 1.66667
2022-11-25 15:23:34.799257, 1.67155
2022-11-25 15:23:34.799525, 1.66667
2022-11-25 15:23:34.799700, 1.66667
2022-11-25 15:23:34.799865, 1.66178
2022-11-25 15:23:34.832412, 1.69599
2022-11-25 15:23:34.832588, 1.66178
2022-11-25 15:23:34.832697, 1.65200
2022-11-25 15:23:34.865461, 1.67644
2022-11-25 15:23:34.865534, 1.65200
2022-11-25 15:23:34.865605, 1.65200
2022-11-25 15:23:34.865719, 1.65200
2022-11-25 15:23:34.898956, 1.65200
2022-11-25 15:23:34.899185, 1.65200
2022-11-25 15:23:34.899356, 1.64712
2022-11-25 15:23:34.932322, 1.64223
2022-11-25 15:23:34.932607, 1.67644
2022-11-25 15:23:34.932775, 1.64223
2022-11-25 15:23:34.932932, 1.64712
2022-11-25 15:23:34.965596, 1.66667
2022-11-25 15:23:34.965766, 1.63734
2022-11-25 15:23:34.965858, 1.63734
2022-11-25 15:23:34.965944, 1.65689
2022-11-25 15:23:34.999221, 1.63734
2022-11-25 15:23:34.999543, 1.63245
2022-11-25 15:23:34.999717, 1.65200
2022-11-25 15:23:35.032112, 1.63734
2022-11-25 15:23:35.032275, 1.65200
2022-11-25 15:23:35.032367, 1.65689
2022-11-25 15:23:35.032457, 1.66667
2022-11-25 15:23:35.065834, 1.67644
2022-11-25 15:23:35.066193, 1.68133
2022-11-25 15:23:35.066368, 1.67644
2022-11-25 15:23:35.098747, 1.69110
2022-11-25 15:23:35.099004, 1.68622
2022-11-25 15:23:35.099175, 1.70577
2022-11-25 15:23:35.099337, 1.68622
2022-11-25 15:23:35.132427, 1.69110
2022-11-25 15:23:35.132783, 1.68622
2022-11-25 15:23:35.132962, 1.68622
2022-11-25 15:23:35.165322, 1.69110
2022-11-25 15:23:35.165487, 1.68622
2022-11-25 15:23:35.165583, 1.69599
2022-11-25 15:23:35.165672, 1.69110
2022-11-25 15:23:35.199009, 1.70088
2022-11-25 15:23:35.199369, 1.73509
2022-11-25 15:23:35.199548, 1.74487
2022-11-25 15:23:35.231924, 1.72043
2022-11-25 15:23:35.232104, 1.72043
2022-11-25 15:23:35.232197, 1.70577
2022-11-25 15:23:35.232281, 1.71065
2022-11-25 15:23:35.265578, 1.71554
2022-11-25 15:23:35.265837, 1.71065
2022-11-25 15:23:35.265930, 1.71065
2022-11-25 15:23:35.266026, 1.73509
2022-11-25 15:23:35.298684, 1.71554
2022-11-25 15:23:35.298943, 1.72043
2022-11-25 15:23:35.299115, 1.71065
2022-11-25 15:23:35.331860, 1.71065
2022-11-25 15:23:35.332021, 1.71554
2022-11-25 15:23:35.332116, 1.70577
2022-11-25 15:23:35.332200, 1.71554
2022-11-25 15:23:35.365555, 1.70577
2022-11-25 15:23:35.365915, 1.70577
2022-11-25 15:23:35.366093, 1.70577
2022-11-25 15:23:35.398565, 1.71554
2022-11-25 15:23:35.398927, 1.71065
2022-11-25 15:23:35.399187, 1.69110
2022-11-25 15:23:35.399411, 1.68622
2022-11-25 15:23:35.431600, 1.69599
2022-11-25 15:23:35.431687, 1.69110
2022-11-25 15:23:35.431738, 1.68622
2022-11-25 15:23:35.464940, 1.68133
2022-11-25 15:23:35.465079, 1.69110
2022-11-25 15:23:35.465197, 1.67644
2022-11-25 15:23:35.465268, 1.68133
2022-11-25 15:23:35.498430, 1.70088
2022-11-25 15:23:35.498657, 1.67155
2022-11-25 15:23:35.498744, 1.66667
2022-11-25 15:23:35.531776, 1.67155
2022-11-25 15:23:35.532027, 1.66667
2022-11-25 15:23:35.532206, 1.66178
2022-11-25 15:23:35.532363, 1.66667
2022-11-25 15:23:35.565055, 1.66178
2022-11-25 15:23:35.565312, 1.65689
2022-11-25 15:23:35.565483, 1.65200
2022-11-25 15:23:35.565641, 1.65200
2022-11-25 15:23:35.598382, 1.64223
2022-11-25 15:23:35.598619, 1.64223
2022-11-25 15:23:35.598782, 1.64712
2022-11-25 15:23:35.631719, 1.63734
2022-11-25 15:23:35.632007, 1.66178
2022-11-25 15:23:35.632182, 1.62757
2022-11-25 15:23:35.632337, 1.63245
2022-11-25 15:23:35.664967, 1.63245
2022-11-25 15:23:35.665181, 1.63245
2022-11-25 15:23:35.665335, 1.62268
2022-11-25 15:23:35.698169, 1.65689
2022-11-25 15:23:35.698374, 1.62757
2022-11-25 15:23:35.698524, 1.62757
2022-11-25 15:23:35.698671, 1.62757
2022-11-25 15:23:35.731685, 1.62757
2022-11-25 15:23:35.731956, 1.65200
2022-11-25 15:23:35.732107, 1.63734
2022-11-25 15:23:35.764757, 1.64223
2022-11-25 15:23:35.765011, 1.67644
2022-11-25 15:23:35.765170, 1.66178
2022-11-25 15:23:35.765322, 1.67644
2022-11-25 15:23:35.798198, 1.72043
2022-11-25 15:23:35.798431, 1.69599
2022-11-25 15:23:35.798587, 1.69599
2022-11-25 15:23:35.831264, 1.71065
2022-11-25 15:23:35.831467, 1.70088
2022-11-25 15:23:35.831620, 1.70577
2022-11-25 15:23:35.831764, 1.70088
2022-11-25 15:23:35.864707, 1.70577
2022-11-25 15:23:35.864940, 1.70577
2022-11-25 15:23:35.865087, 1.70088
2022-11-25 15:23:35.865237, 1.70088
2022-11-25 15:23:35.898124, 1.69599
2022-11-25 15:23:35.898388, 1.69599
2022-11-25 15:23:35.898540, 1.71554
2022-11-25 15:23:36.570403, 1.71065
2022-11-25 15:23:36.570550, 1.69599
2022-11-25 15:23:36.570627, 1.70088
2022-11-25 15:23:36.570773, 1.70088
2022-11-25 15:23:36.570883, 1.69599
2022-11-25 15:23:36.571056, 1.70088
2022-11-25 15:23:36.571135, 1.70088
2022-11-25 15:23:36.571203, 1.69599
2022-11-25 15:23:36.571269, 1.70088
2022-11-25 15:23:36.571336, 1.69599
2022-11-25 15:23:36.571408, 1.72532
2022-11-25 15:23:36.571498, 1.70088
2022-11-25 15:23:36.571591, 1.69599
2022-11-25 15:23:36.571664, 1.69110
2022-11-25 15:23:36.571742, 1.69599
2022-11-25 15:23:36.571808, 1.69599
2022-11-25 15:23:36.571909, 1.69110
2022-11-25 15:23:36.572054, 1.69110
2022-11-25 15:23:36.572197, 1.72532
2022-11-25 15:23:36.572339, 1.71065
2022-11-25 15:23:36.572481, 1.70088
2022-11-25 15:23:36.572624, 1.69110
2022-11-25 15:23:36.572761, 1.68133
2022-11-25 15:23:36.573490, 1.69110
2022-11-25 15:23:36.573606, 1.68133
2022-11-25 15:23:36.573682, 1.67644
2022-11-25 15:23:36.573753, 1.67644
2022-11-25 15:23:36.573822, 1.70577
2022-11-25 15:23:36.573891, 1.67155
2022-11-25 15:23:36.573959, 1.67155
2022-11-25 15:23:36.574026, 1.66667
2022-11-25 15:23:36.574094, 1.68133
2022-11-25 15:23:36.574162, 1.66667
2022-11-25 15:23:36.574230, 1.65689
2022-11-25 15:23:36.575055, 1.66667
2022-11-25 15:23:36.575252, 1.70577
2022-11-25 15:23:36.575526, 1.65689
2022-11-25 15:23:36.575792, 1.65200
2022-11-25 15:23:36.578605, 1.65689
2022-11-25 15:23:36.578879, 1.67644
2022-11-25 15:23:36.578967, 1.65200
2022-11-25 15:23:36.579041, 1.64712
2022-11-25 15:23:36.579112, 1.65689
2022-11-25 15:23:36.579184, 1.64712
2022-11-25 15:23:36.579251, 1.64712
2022-11-25 15:23:36.579320, 1.64712
2022-11-25 15:23:36.579488, 1.63734
2022-11-25 15:23:36.579568, 1.64223
2022-11-25 15:23:36.579638, 1.64223
2022-11-25 15:23:36.579707, 1.63734
2022-11-25 15:23:36.579777, 1.64223
2022-11-25 15:23:36.579913, 1.63734
2022-11-25 15:23:36.580006, 1.63245
2022-11-25 15:23:36.580078, 1.63245
2022-11-25 15:23:36.580642, 1.63734
2022-11-25 15:23:36.580885, 1.62757
2022-11-25 15:23:36.581016, 1.63245
2022-11-25 15:23:36.581081, 1.64712
2022-11-25 15:23:36.581138, 1.63734
2022-11-25 15:23:36.581194, 1.64712
2022-11-25 15:23:36.581267, 1.65200
2022-11-25 15:23:36.581355, 1.66178
2022-11-25 15:23:36.581414, 1.67644
2022-11-25 15:23:36.581472, 1.68622
2022-11-25 15:23:36.581528, 1.69110
2022-11-25 15:23:36.581665, 1.69599
2022-11-25 15:23:36.581729, 1.71554
2022-11-25 15:23:36.581903, 1.70577
2022-11-25 15:23:36.581965, 1.70577
2022-11-25 15:23:36.582022, 1.70577
2022-11-25 15:23:36.582080, 1.70577
2022-11-25 15:23:36.597397, 1.70088
2022-11-25 15:23:36.597598, 1.70088
2022-11-25 15:23:36.597876, 1.74487
2022-11-25 15:23:36.597991, 1.73021
2022-11-25 15:23:36.630701, 1.71065
2022-11-25 15:23:36.630891, 1.70577
2022-11-25 15:23:36.630981, 1.70577
2022-11-25 15:23:36.663965, 1.70577
2022-11-25 15:23:36.664171, 1.70577
2022-11-25 15:23:36.664280, 1.70577
2022-11-25 15:23:36.664372, 1.70577
2022-11-25 15:23:36.697202, 1.70577
2022-11-25 15:23:36.697370, 1.70577
2022-11-25 15:23:36.697449, 1.72532
2022-11-25 15:23:36.730445, 1.70577
2022-11-25 15:23:36.730701, 1.70088
2022-11-25 15:23:36.730988, 1.70577
2022-11-25 15:23:36.731139, 1.70088
2022-11-25 15:23:36.764164, 1.70088
2022-11-25 15:23:36.764514, 1.70088
2022-11-25 15:23:36.764691, 1.69599
2022-11-25 15:23:36.764880, 1.70088
2022-11-25 15:23:36.797339, 1.73021
2022-11-25 15:23:36.797627, 1.70577
2022-11-25 15:23:36.797795, 1.69599
2022-11-25 15:23:36.830715, 1.69599
2022-11-25 15:23:36.831043, 1.69110
2022-11-25 15:23:36.831224, 1.69110
2022-11-25 15:23:36.831386, 1.69110
2022-11-25 15:23:36.864123, 1.68133
2022-11-25 15:23:36.864460, 1.71554
2022-11-25 15:23:36.864695, 1.68133
2022-11-25 15:23:36.897266, 1.67644
2022-11-25 15:23:36.897626, 1.67155
2022-11-25 15:23:36.897799, 1.67155
2022-11-25 15:23:36.897961, 1.66178
2022-11-25 15:23:36.930661, 1.66667
2022-11-25 15:23:36.931007, 1.69599
2022-11-25 15:23:36.931181, 1.66178
2022-11-25 15:23:36.963642, 1.66178
2022-11-25 15:23:36.963906, 1.67644
2022-11-25 15:23:36.964069, 1.66178
2022-11-25 15:23:36.964226, 1.65689
2022-11-25 15:23:36.997013, 1.67644
2022-11-25 15:23:36.997250, 1.65689
2022-11-25 15:23:36.997408, 1.65689
2022-11-25 15:23:37.030446, 1.67644
2022-11-25 15:23:37.030818, 1.65200
2022-11-25 15:23:37.030993, 1.65200
2022-11-25 15:23:37.031151, 1.65200
2022-11-25 15:23:37.063852, 1.63734
2022-11-25 15:23:37.064212, 1.64712
2022-11-25 15:23:37.064392, 1.64223
2022-11-25 15:23:37.064555, 1.65200
2022-11-25 15:23:37.097170, 1.64223
2022-11-25 15:23:37.097522, 1.67644
2022-11-25 15:23:37.097699, 1.63734
2022-11-25 15:23:37.130443, 1.64712
2022-11-25 15:23:37.130782, 1.64223
2022-11-25 15:23:37.130949, 1.64223
2022-11-25 15:23:37.131116, 1.64223
2022-11-25 15:23:37.163819, 1.63734
2022-11-25 15:23:37.164176, 1.63245
2022-11-25 15:23:37.164352, 1.63734
2022-11-25 15:23:37.196962, 1.63734
2022-11-25 15:23:37.197272, 1.64223
2022-11-25 15:23:37.197496, 1.65689
2022-11-25 15:23:37.197608, 1.65689
2022-11-25 15:23:37.230391, 1.66667
2022-11-25 15:23:37.230744, 1.69110
2022-11-25 15:23:37.230923, 1.69110
2022-11-25 15:23:37.263597, 1.70577
2022-11-25 15:23:37.263951, 1.71065
2022-11-25 15:23:37.264128, 1.71554
2022-11-25 15:23:37.264290, 1.72043
2022-11-25 15:23:37.296938, 1.71554
2022-11-25 15:23:37.297255, 1.71554
2022-11-25 15:23:37.297426, 1.74976
2022-11-25 15:23:37.330099, 1.72532
2022-11-25 15:23:37.330460, 1.71554
2022-11-25 15:23:37.330639, 1.71065
2022-11-25 15:23:37.330802, 1.71065
2022-11-25 15:23:37.363546, 1.71554
2022-11-25 15:23:37.363880, 1.71554
2022-11-25 15:23:37.364047, 1.71554
2022-11-25 15:23:37.364207, 1.72043
2022-11-25 15:23:37.396912, 1.72043
2022-11-25 15:23:37.397265, 1.72532
2022-11-25 15:23:37.397448, 1.72043
2022-11-25 15:23:37.429943, 1.72532
2022-11-25 15:23:37.430189, 1.72043
2022-11-25 15:23:37.430424, 1.75464
2022-11-25 15:23:37.430535, 1.75464
2022-11-25 15:23:37.463435, 1.74976
2022-11-25 15:23:37.464047, 1.74976
2022-11-25 15:23:37.464153, 1.73509
2022-11-25 15:23:37.496772, 1.72043
2022-11-25 15:23:37.497049, 1.72043
2022-11-25 15:23:37.497172, 1.71554
2022-11-25 15:23:37.497246, 1.72043
2022-11-25 15:23:37.529994, 1.71065
2022-11-25 15:23:37.530303, 1.71065
2022-11-25 15:23:37.530498, 1.71554
2022-11-25 15:23:37.563334, 1.71065
2022-11-25 15:23:37.563658, 1.72532
2022-11-25 15:23:37.563816, 1.71554
2022-11-25 15:23:37.563919, 1.71065
2022-11-25 15:23:37.596350, 1.70088
2022-11-25 15:23:37.596763, 1.70088
2022-11-25 15:23:37.596969, 1.72532
2022-11-25 15:23:37.629875, 1.69599
2022-11-25 15:23:37.630284, 1.69110
2022-11-25 15:23:37.630466, 1.70088
2022-11-25 15:23:37.630631, 1.68622
2022-11-25 15:23:37.663119, 1.68622
2022-11-25 15:23:37.663399, 1.68622
2022-11-25 15:23:37.663568, 1.68622
2022-11-25 15:23:37.663727, 1.67644
2022-11-25 15:23:37.696472, 1.68133
2022-11-25 15:23:37.696749, 1.71554
2022-11-25 15:23:37.696909, 1.67644
2022-11-25 15:23:37.729853, 1.67644
2022-11-25 15:23:37.730204, 1.67644
2022-11-25 15:23:37.730413, 1.67155
2022-11-25 15:23:37.730651, 1.67155
2022-11-25 15:23:37.763244, 1.67644
2022-11-25 15:23:37.763587, 1.67155
2022-11-25 15:23:37.763816, 1.66667
2022-11-25 15:23:37.796425, 1.67155
2022-11-25 15:23:37.796744, 1.70577
2022-11-25 15:23:37.796918, 1.66667
2022-11-25 15:23:37.797075, 1.66667
2022-11-25 15:23:37.829792, 1.67155
2022-11-25 15:23:37.830157, 1.67155
2022-11-25 15:23:37.830338, 1.66178
2022-11-25 15:23:37.863048, 1.65689
2022-11-25 15:23:37.863407, 1.69110
2022-11-25 15:23:37.863583, 1.65689
2022-11-25 15:23:37.863747, 1.64712
2022-11-25 15:23:37.896474, 1.67155
2022-11-25 15:23:37.896844, 1.65200
2022-11-25 15:23:37.897029, 1.64223
2022-11-25 15:23:37.929554, 1.65200
2022-11-25 15:23:37.929924, 1.64712
2022-11-25 15:23:37.930114, 1.65200
2022-11-25 15:23:37.930275, 1.67155
2022-11-25 15:23:37.962879, 1.66667
2022-11-25 15:23:37.963224, 1.67644
2022-11-25 15:23:37.963409, 1.69599
2022-11-25 15:23:37.963572, 1.70088
2022-11-25 15:23:37.996323, 1.70577
2022-11-25 15:23:37.996659, 1.72043
2022-11-25 15:23:37.996827, 1.72043
2022-11-25 15:23:38.029541, 1.72532
2022-11-25 15:23:38.029870, 1.72532
2022-11-25 15:23:38.030047, 1.73998
2022-11-25 15:23:38.030218, 1.75464
2022-11-25 15:23:38.062806, 1.72532
2022-11-25 15:23:38.063201, 1.72043
2022-11-25 15:23:38.063379, 1.72043
2022-11-25 15:23:38.096162, 1.72043
2022-11-25 15:23:38.096521, 1.72043
2022-11-25 15:23:38.096702, 1.72043
2022-11-25 15:23:38.096866, 1.72043
2022-11-25 15:23:38.129515, 1.72043
2022-11-25 15:23:38.129876, 1.72532
2022-11-25 15:23:38.130059, 1.72532
2022-11-25 15:23:38.162724, 1.72532
2022-11-25 15:23:38.163089, 1.72043
2022-11-25 15:23:38.163271, 1.72532
2022-11-25 15:23:38.163434, 1.72043
2022-11-25 15:23:38.196110, 1.72532
2022-11-25 15:23:38.196461, 1.75464
2022-11-25 15:23:38.196667, 1.73509
2022-11-25 15:23:38.229347, 1.72043
2022-11-25 15:23:38.229728, 1.71554
2022-11-25 15:23:38.229912, 1.71065
2022-11-25 15:23:38.230074, 1.70577
2022-11-25 15:23:38.262665, 1.71065
2022-11-25 15:23:38.262997, 1.71554
2022-11-25 15:23:38.263173, 1.71065
2022-11-25 15:23:38.263335, 1.70577
2022-11-25 15:23:38.296016, 1.72532
2022-11-25 15:23:38.296350, 1.72043
2022-11-25 15:23:38.296522, 1.70088
2022-11-25 15:23:38.329266, 1.74487
2022-11-25 15:23:38.329602, 1.70088
2022-11-25 15:23:38.329777, 1.70088
2022-11-25 15:23:38.329938, 1.70088
2022-11-25 15:23:38.362647, 1.72043
2022-11-25 15:23:38.362996, 1.69110
2022-11-25 15:23:38.363172, 1.69110
2022-11-25 15:23:38.395851, 1.70088
2022-11-25 15:23:38.396187, 1.69110
2022-11-25 15:23:38.396359, 1.68622
2022-11-25 15:23:38.396521, 1.69110
2022-11-25 15:23:38.429226, 1.68622
2022-11-25 15:23:38.429565, 1.68133
2022-11-25 15:23:38.429736, 1.67644
2022-11-25 15:23:38.462478, 1.67644
2022-11-25 15:23:38.462824, 1.67644
2022-11-25 15:23:38.463000, 1.68133
2022-11-25 15:23:38.463167, 1.67155
2022-11-25 15:23:38.495820, 1.66667
2022-11-25 15:23:38.496159, 1.67155
2022-11-25 15:23:38.496338, 1.66667
2022-11-25 15:23:38.529014, 1.66667
2022-11-25 15:23:38.529407, 1.67155
2022-11-25 15:23:38.529594, 1.69110
2022-11-25 15:23:38.529758, 1.66667
2022-11-25 15:23:38.562453, 1.66667
2022-11-25 15:23:38.562815, 1.67155
2022-11-25 15:23:38.562996, 1.66178
2022-11-25 15:23:38.563154, 1.65689
2022-11-25 15:23:38.595741, 1.67155
2022-11-25 15:23:38.596090, 1.66178
2022-11-25 15:23:38.596272, 1.65689
2022-11-25 15:23:38.628936, 1.69599
2022-11-25 15:23:38.629496, 1.66178
2022-11-25 15:23:38.629725, 1.64712
2022-11-25 15:23:38.629889, 1.65689
2022-11-25 15:23:38.662323, 1.65689
2022-11-25 15:23:38.662653, 1.66178
2022-11-25 15:23:38.663043, 1.67155
2022-11-25 15:23:38.695508, 1.66667
2022-11-25 15:23:38.695767, 1.66178
2022-11-25 15:23:38.695895, 1.70577
2022-11-25 15:23:38.696009, 1.67644
2022-11-25 15:23:38.728807, 1.67644
2022-11-25 15:23:38.729125, 1.70088
2022-11-25 15:23:38.729304, 1.70577
2022-11-25 15:23:38.762118, 1.72532
2022-11-25 15:23:38.762467, 1.73998
2022-11-25 15:23:38.762659, 1.74487
2022-11-25 15:23:38.762825, 1.74487
2022-11-25 15:23:38.795522, 1.73998
2022-11-25 15:23:38.795881, 1.73509
2022-11-25 15:23:38.796058, 1.73021
2022-11-25 15:23:38.828717, 1.72532
2022-11-25 15:23:38.829127, 1.72532
2022-11-25 15:23:38.829315, 1.72532
2022-11-25 15:23:38.829480, 1.75464
2022-11-25 15:23:38.862042, 1.74976
2022-11-25 15:23:38.862396, 1.72532
2022-11-25 15:23:38.862583, 1.72532
2022-11-25 15:23:38.862748, 1.73021
2022-11-25 15:23:38.895457, 1.72043
2022-11-25 15:23:38.895809, 1.72532
2022-11-25 15:23:38.895985, 1.73021
2022-11-25 15:23:38.928614, 1.73021
2022-11-25 15:23:38.928964, 1.73021
2022-11-25 15:23:38.929158, 1.73021
2022-11-25 15:23:38.929319, 1.72532
2022-11-25 15:23:38.962116, 1.72043
2022-11-25 15:23:38.962426, 1.72043
2022-11-25 15:23:38.962600, 1.73021
2022-11-25 15:23:38.995122, 1.72043
2022-11-25 15:23:38.995404, 1.70088
2022-11-25 15:23:38.995572, 1.69599
2022-11-25 15:23:38.995727, 1.70577
2022-11-25 15:23:39.028643, 1.70088
2022-11-25 15:23:39.028996, 1.70088
2022-11-25 15:23:39.029176, 1.70088
2022-11-25 15:23:39.061786, 1.70088
2022-11-25 15:23:39.062140, 1.68622
2022-11-25 15:23:39.062320, 1.69110
2022-11-25 15:23:39.062482, 1.72043
2022-11-25 15:23:39.095174, 1.68622
2022-11-25 15:23:39.095533, 1.68133
2022-11-25 15:23:39.095709, 1.72043
2022-11-25 15:23:39.128439, 1.68133
2022-11-25 15:23:39.128797, 1.67644
2022-11-25 15:23:39.128981, 1.68133
2022-11-25 15:23:39.129148, 1.70577
2022-11-25 15:23:39.161683, 1.66667
2022-11-25 15:23:39.162018, 1.66178
2022-11-25 15:23:39.162197, 1.65200
2022-11-25 15:23:39.162363, 1.65200
2022-11-25 15:23:39.195118, 1.65200
2022-11-25 15:23:39.195638, 1.64712
2022-11-25 15:23:39.195957, 1.63734
2022-11-25 15:23:39.228349, 1.65689
2022-11-25 15:23:39.228678, 1.64223
2022-11-25 15:23:39.228964, 1.64223
2022-11-25 15:23:39.229131, 1.65689
2022-11-25 15:23:39.261729, 1.64223
2022-11-25 15:23:39.262092, 1.64712
2022-11-25 15:23:39.262272, 1.68622
2022-11-25 15:23:39.294998, 1.65689
2022-11-25 15:23:39.295366, 1.65689
2022-11-25 15:23:39.295546, 1.65200
2022-11-25 15:23:39.295709, 1.64712
2022-11-25 15:23:39.328342, 1.67644
2022-11-25 15:23:39.328699, 1.65689
2022-11-25 15:23:39.328875, 1.65689
2022-11-25 15:23:39.361571, 1.66667
2022-11-25 15:23:39.361914, 1.65689
2022-11-25 15:23:39.362084, 1.66178
2022-11-25 15:23:39.362247, 1.70088
2022-11-25 15:23:39.394890, 1.66667
2022-11-25 15:23:39.395238, 1.67155
2022-11-25 15:23:39.395412, 1.70088
2022-11-25 15:23:39.428140, 1.69110
2022-11-25 15:23:39.428526, 1.71554
2022-11-25 15:23:39.428702, 1.73021
2022-11-25 15:23:39.428865, 1.73509
2022-11-25 15:23:39.461517, 1.74487
2022-11-25 15:23:39.461858, 1.74976
2022-11-25 15:23:39.462030, 1.75464
2022-11-25 15:23:39.462193, 1.74976
2022-11-25 15:23:39.494891, 1.74976
2022-11-25 15:23:39.495232, 1.74976
2022-11-25 15:23:39.495406, 1.73509
2022-11-25 15:23:39.528089, 1.72532
2022-11-25 15:23:39.528423, 1.73021
2022-11-25 15:23:39.528604, 1.73021
2022-11-25 15:23:39.528764, 1.76442
2022-11-25 15:23:39.561465, 1.74487
2022-11-25 15:23:39.561803, 1.73509
2022-11-25 15:23:39.561975, 1.73998
2022-11-25 15:23:39.594672, 1.73021
2022-11-25 15:23:39.595016, 1.73021
2022-11-25 15:23:39.595183, 1.73509
2022-11-25 15:23:39.595343, 1.73509
2022-11-25 15:23:39.628091, 1.73509
2022-11-25 15:23:39.628427, 1.73509
2022-11-25 15:23:39.628600, 1.73021
2022-11-25 15:23:39.661223, 1.73021
2022-11-25 15:23:39.661556, 1.73021
2022-11-25 15:23:39.661730, 1.73021
2022-11-25 15:23:39.661888, 1.74487
2022-11-25 15:23:39.694602, 1.72532
2022-11-25 15:23:39.694957, 1.72043
2022-11-25 15:23:39.695140, 1.72043
2022-11-25 15:23:39.727661, 1.72043
2022-11-25 15:23:39.727952, 1.71554
2022-11-25 15:23:39.728122, 1.71554
2022-11-25 15:23:39.728278, 1.75953
2022-11-25 15:23:39.761003, 1.71554
2022-11-25 15:23:39.761260, 1.71554
2022-11-25 15:23:39.761432, 1.71065
2022-11-25 15:23:39.761591, 1.73998
2022-11-25 15:23:39.794582, 1.70577
2022-11-25 15:23:39.794919, 1.69599
2022-11-25 15:23:39.795096, 1.70577
2022-11-25 15:23:39.827737, 1.69599
2022-11-25 15:23:39.828061, 1.69599
2022-11-25 15:23:39.828235, 1.69110
2022-11-25 15:23:39.828393, 1.71065
2022-11-25 15:23:39.861180, 1.68622
2022-11-25 15:23:39.861517, 1.68133
2022-11-25 15:23:39.861699, 1.68622
2022-11-25 15:23:39.894378, 1.67644
2022-11-25 15:23:39.894718, 1.67155
2022-11-25 15:23:39.894917, 1.68133
2022-11-25 15:23:39.895079, 1.67155
2022-11-25 15:23:39.927782, 1.67155
2022-11-25 15:23:39.928144, 1.67155
2022-11-25 15:23:39.928324, 1.67155
2022-11-25 15:23:39.960970, 1.68133
2022-11-25 15:23:39.961316, 1.66667
2022-11-25 15:23:39.961491, 1.67644
2022-11-25 15:23:39.961653, 1.66667
2022-11-25 15:23:39.994300, 1.66667
2022-11-25 15:23:39.994648, 1.66178
2022-11-25 15:23:39.994824, 1.66667
2022-11-25 15:23:40.027495, 1.66178
2022-11-25 15:23:40.027810, 1.66178
2022-11-25 15:23:40.027934, 1.69599
2022-11-25 15:23:40.028047, 1.65689
2022-11-25 15:23:40.060979, 1.65689
2022-11-25 15:23:40.061339, 1.65689
2022-11-25 15:23:40.061512, 1.65689
2022-11-25 15:23:40.061678, 1.66178
2022-11-25 15:23:40.094245, 1.70088
2022-11-25 15:23:40.094583, 1.68133
2022-11-25 15:23:40.094754, 1.70088
2022-11-25 15:23:40.127459, 1.71554
2022-11-25 15:23:40.127778, 1.72532
2022-11-25 15:23:40.127951, 1.74487
2022-11-25 15:23:40.128109, 1.74487
2022-11-25 15:23:40.160737, 1.74487
2022-11-25 15:23:40.161058, 1.74976
2022-11-25 15:23:40.161223, 1.73998
2022-11-25 15:23:40.194071, 1.74487
2022-11-25 15:23:40.194401, 1.73021
2022-11-25 15:23:40.194574, 1.74487
2022-11-25 15:23:40.194739, 1.73998
2022-11-25 15:23:40.227430, 1.73998
2022-11-25 15:23:40.227735, 1.73509
2022-11-25 15:23:40.227911, 1.73509
2022-11-25 15:23:40.260657, 1.73998
2022-11-25 15:23:40.261050, 1.73998
2022-11-25 15:23:40.261237, 1.73509
2022-11-25 15:23:40.261399, 1.77908
2022-11-25 15:23:40.293972, 1.75464
2022-11-25 15:23:40.294268, 1.75953
2022-11-25 15:23:40.294439, 1.75953
2022-11-25 15:23:40.327217, 1.74487
2022-11-25 15:23:40.327597, 1.73021
2022-11-25 15:23:40.327778, 1.73021
2022-11-25 15:23:40.327933, 1.73021
2022-11-25 15:23:40.360578, 1.73021
2022-11-25 15:23:40.360911, 1.72532
2022-11-25 15:23:40.361081, 1.72532
2022-11-25 15:23:40.361238, 1.74976
2022-11-25 15:23:40.393948, 1.72532
2022-11-25 15:23:40.394284, 1.72043
2022-11-25 15:23:40.394455, 1.73021
2022-11-25 15:23:40.427196, 1.71554
2022-11-25 15:23:40.427616, 1.71554
2022-11-25 15:23:40.427834, 1.71065
2022-11-25 15:23:40.427993, 1.74487
2022-11-25 15:23:40.460558, 1.71065
2022-11-25 15:23:40.460896, 1.71065
2022-11-25 15:23:40.461066, 1.71554
2022-11-25 15:23:40.493765, 1.70577
2022-11-25 15:23:40.494106, 1.70577
2022-11-25 15:23:40.494280, 1.69599
2022-11-25 15:23:40.494439, 1.69599
2022-11-25 15:23:40.527170, 1.69110
2022-11-25 15:23:40.527523, 1.68622
2022-11-25 15:23:40.527693, 1.68622
2022-11-25 15:23:40.560359, 1.67644
2022-11-25 15:23:40.560699, 1.70088
2022-11-25 15:23:40.560868, 1.67644
2022-11-25 15:23:40.561028, 1.67155
2022-11-25 15:23:40.593778, 1.67644
2022-11-25 15:23:40.594118, 1.66667
2022-11-25 15:23:40.594293, 1.66667
2022-11-25 15:23:40.626873, 1.69599
2022-11-25 15:23:40.627214, 1.66178
2022-11-25 15:23:40.627498, 1.66178
2022-11-25 15:23:40.627773, 1.65200
2022-11-25 15:23:40.660341, 1.65689
2022-11-25 15:23:40.660669, 1.66667
2022-11-25 15:23:40.660839, 1.65689
2022-11-25 15:23:40.660999, 1.65200
2022-11-25 15:23:40.693676, 1.69110
2022-11-25 15:23:40.694020, 1.65200
2022-11-25 15:23:40.694195, 1.65200
2022-11-25 15:23:40.726917, 1.65689
2022-11-25 15:23:40.727239, 1.63734
2022-11-25 15:23:40.727417, 1.64712
2022-11-25 15:23:40.727574, 1.63734
2022-11-25 15:23:40.760167, 1.64223
2022-11-25 15:23:40.760465, 1.63734
2022-11-25 15:23:40.760629, 1.64223
2022-11-25 15:23:40.793320, 1.64223
2022-11-25 15:23:40.793564, 1.64712
2022-11-25 15:23:40.793885, 1.69599
2022-11-25 15:23:40.794045, 1.67155
2022-11-25 15:23:40.826640, 1.68133
2022-11-25 15:23:40.826888, 1.70088
2022-11-25 15:23:40.827059, 1.72043
2022-11-25 15:23:40.860025, 1.72532
2022-11-25 15:23:40.860359, 1.73509
2022-11-25 15:23:40.860545, 1.73998
2022-11-25 15:23:40.860704, 1.73998
2022-11-25 15:23:40.893412, 1.73509
2022-11-25 15:23:40.893740, 1.73021
2022-11-25 15:23:40.893903, 1.76931
2022-11-25 15:23:40.926617, 1.75953
2022-11-25 15:23:40.927008, 1.75953
2022-11-25 15:23:40.927185, 1.73509
2022-11-25 15:23:40.927349, 1.72532
2022-11-25 15:23:40.959871, 1.72043
2022-11-25 15:23:40.960146, 1.72043
2022-11-25 15:23:40.960318, 1.72043
2022-11-25 15:23:40.960477, 1.71554
2022-11-25 15:23:40.993199, 1.71554
2022-11-25 15:23:40.993431, 1.72532
2022-11-25 15:23:40.993601, 1.73509
2022-11-25 15:23:41.026624, 1.73021
2022-11-25 15:23:41.026967, 1.75464
2022-11-25 15:23:41.027145, 1.74976
2022-11-25 15:23:41.027310, 1.73998
2022-11-25 15:23:41.059954, 1.73021
2022-11-25 15:23:41.060283, 1.71554
2022-11-25 15:23:41.060448, 1.70577
2022-11-25 15:23:41.093166, 1.70577
2022-11-25 15:23:41.093502, 1.70577
2022-11-25 15:23:41.093684, 1.71554
2022-11-25 15:23:41.093846, 1.71065
2022-11-25 15:23:41.126578, 1.71554
2022-11-25 15:23:41.126908, 1.70577
2022-11-25 15:23:41.127075, 1.70577
2022-11-25 15:23:41.159811, 1.70088
2022-11-25 15:23:41.160149, 1.73509
2022-11-25 15:23:41.160320, 1.69599
2022-11-25 15:23:41.160486, 1.69599
2022-11-25 15:23:41.193085, 1.69599
2022-11-25 15:23:41.193399, 1.68622
2022-11-25 15:23:41.193576, 1.68133
2022-11-25 15:23:41.226390, 1.68133
2022-11-25 15:23:41.226779, 1.67644
2022-11-25 15:23:41.226961, 1.67644
2022-11-25 15:23:41.227122, 1.67155
2022-11-25 15:23:41.259733, 1.67644
2022-11-25 15:23:41.260067, 1.66667
2022-11-25 15:23:41.260241, 1.66178
2022-11-25 15:23:41.260477, 1.66178
2022-11-25 15:23:41.293051, 1.65689
2022-11-25 15:23:41.293353, 1.67644
2022-11-25 15:23:41.293520, 1.66178
2022-11-25 15:23:41.326285, 1.65689
2022-11-25 15:23:41.326602, 1.67155
2022-11-25 15:23:41.326775, 1.65200
2022-11-25 15:23:41.326938, 1.65200
2022-11-25 15:23:41.359700, 1.65200
2022-11-25 15:23:41.360018, 1.64712
2022-11-25 15:23:41.360189, 1.66178
2022-11-25 15:23:41.392883, 1.64223
2022-11-25 15:23:41.393215, 1.64223
2022-11-25 15:23:41.393406, 1.64223
2022-11-25 15:23:41.393565, 1.63245
2022-11-25 15:23:41.426244, 1.64223
2022-11-25 15:23:41.426579, 1.63734
2022-11-25 15:23:41.426748, 1.63734
2022-11-25 15:23:41.459478, 1.63245
2022-11-25 15:23:41.459824, 1.66667
2022-11-25 15:23:41.460020, 1.62757
2022-11-25 15:23:41.460184, 1.62757
2022-11-25 15:23:41.492842, 1.63734
2022-11-25 15:23:41.493166, 1.62757
2022-11-25 15:23:41.493336, 1.62757
2022-11-25 15:23:41.526030, 1.67155
2022-11-25 15:23:41.526399, 1.64712
2022-11-25 15:23:41.526577, 1.66178
2022-11-25 15:23:41.526739, 1.67644
2022-11-25 15:23:41.559459, 1.69599
2022-11-25 15:23:41.559788, 1.71065
2022-11-25 15:23:41.559966, 1.74976
2022-11-25 15:23:41.560130, 1.71554
2022-11-25 15:23:41.592830, 1.72043
2022-11-25 15:23:41.593180, 1.75953
2022-11-25 15:23:41.593354, 1.72043
2022-11-25 15:23:41.626010, 1.71065
2022-11-25 15:23:41.626327, 1.71065
2022-11-25 15:23:41.626497, 1.71065
2022-11-25 15:23:41.626657, 1.71065
2022-11-25 15:23:41.659401, 1.70577
2022-11-25 15:23:41.659881, 1.71065
2022-11-25 15:23:41.660120, 1.71065
2022-11-25 15:23:41.692655, 1.73509
2022-11-25 15:23:41.693002, 1.72532
2022-11-25 15:23:41.693179, 1.72043
2022-11-25 15:23:41.693347, 1.71554
2022-11-25 15:23:41.725993, 1.72043
2022-11-25 15:23:41.726327, 1.71554
2022-11-25 15:23:41.726509, 1.71554
2022-11-25 15:23:41.759205, 1.71554
2022-11-25 15:23:41.759487, 1.72043
2022-11-25 15:23:41.759643, 1.73998
2022-11-25 15:23:41.759769, 1.72043
2022-11-25 15:23:41.792492, 1.71554
2022-11-25 15:23:41.792775, 1.70577
2022-11-25 15:23:41.792905, 1.70577
2022-11-25 15:23:41.825695, 1.70088
2022-11-25 15:23:41.826045, 1.69599
2022-11-25 15:23:41.826189, 1.69599
2022-11-25 15:23:41.826309, 1.69599
2022-11-25 15:23:41.859122, 1.69599
2022-11-25 15:23:41.859374, 1.70088
2022-11-25 15:23:41.859508, 1.69110
2022-11-25 15:23:41.859631, 1.69110
2022-11-25 15:23:41.892602, 1.68622
2022-11-25 15:23:41.893011, 1.69599
2022-11-25 15:23:41.893237, 1.69110
2022-11-25 15:23:41.925772, 1.68133
2022-11-25 15:23:41.926114, 1.68622
2022-11-25 15:23:41.926296, 1.67644
2022-11-25 15:23:41.926459, 1.67644
2022-11-25 15:23:41.959123, 1.68133
2022-11-25 15:23:41.959461, 1.71065
2022-11-25 15:23:41.959647, 1.67155
2022-11-25 15:23:41.992368, 1.66667
2022-11-25 15:23:41.992691, 1.66667
2022-11-25 15:23:41.992834, 1.67155
2022-11-25 15:23:41.992952, 1.65689
2022-11-25 15:23:42.025736, 1.69599
2022-11-25 15:23:42.026210, 1.65689
2022-11-25 15:23:42.026434, 1.66178
2022-11-25 15:23:42.058980, 1.65689
2022-11-25 15:23:42.059482, 1.65200
2022-11-25 15:23:42.059676, 1.67155
2022-11-25 15:23:42.059874, 1.65200
2022-11-25 15:23:42.092288, 1.64712
2022-11-25 15:23:42.092809, 1.65200
2022-11-25 15:23:42.092995, 1.63734
2022-11-25 15:23:42.125445, 1.64712
2022-11-25 15:23:42.125898, 1.66667
2022-11-25 15:23:42.126161, 1.64223
2022-11-25 15:23:42.126385, 1.64223
2022-11-25 15:23:42.158836, 1.66178
2022-11-25 15:23:42.159300, 1.64223
2022-11-25 15:23:42.159493, 1.65689
2022-11-25 15:23:42.159656, 1.67155
2022-11-25 15:23:42.192192, 1.68133
2022-11-25 15:23:42.192421, 1.69110
2022-11-25 15:23:42.192516, 1.73021
2022-11-25 15:23:42.225350, 1.71554
2022-11-25 15:23:42.225628, 1.73021
2022-11-25 15:23:42.225800, 1.73509
2022-11-25 15:23:42.225962, 1.73509
2022-11-25 15:23:42.258714, 1.73509
2022-11-25 15:23:42.258972, 1.73509
2022-11-25 15:23:42.259103, 1.73509
2022-11-25 15:23:42.292092, 1.73021
2022-11-25 15:23:42.292454, 1.73021
2022-11-25 15:23:42.292633, 1.72532
2022-11-25 15:23:42.292795, 1.72532
2022-11-25 15:23:42.325486, 1.72532
2022-11-25 15:23:42.325828, 1.72043
2022-11-25 15:23:42.326009, 1.72532
2022-11-25 15:23:42.358669, 1.72532
2022-11-25 15:23:42.359026, 1.74487
2022-11-25 15:23:42.359199, 1.73998
2022-11-25 15:23:42.359361, 1.73509
2022-11-25 15:23:42.391984, 1.72532
2022-11-25 15:23:42.392321, 1.72532
2022-11-25 15:23:42.392496, 1.72532
2022-11-25 15:23:42.425242, 1.72532
2022-11-25 15:23:42.425627, 1.72043
2022-11-25 15:23:42.425805, 1.71554
2022-11-25 15:23:42.425968, 1.71065
2022-11-25 15:23:42.458576, 1.71554
2022-11-25 15:23:42.458905, 1.71554
2022-11-25 15:23:42.459077, 1.71554
2022-11-25 15:23:42.459235, 1.74976
2022-11-25 15:23:42.491867, 1.71554
2022-11-25 15:23:42.492202, 1.71065
2022-11-25 15:23:42.492378, 1.71065
2022-11-25 15:23:42.525145, 1.71554
2022-11-25 15:23:42.525486, 1.70577
2022-11-25 15:23:42.525673, 1.70577
2022-11-25 15:23:42.525832, 1.72043
2022-11-25 15:23:42.558529, 1.70577
2022-11-25 15:23:42.558870, 1.69599
2022-11-25 15:23:42.559043, 1.69110
2022-11-25 15:23:42.591717, 1.72532
2022-11-25 15:23:42.592035, 1.69110
2022-11-25 15:23:42.592208, 1.69599
2022-11-25 15:23:42.592410, 1.72532
2022-11-25 15:23:42.625129, 1.68133
2022-11-25 15:23:42.625463, 1.69110
2022-11-25 15:23:42.625635, 1.71065
2022-11-25 15:23:42.658366, 1.68133
2022-11-25 15:23:42.658710, 1.67644
2022-11-25 15:23:42.658888, 1.66667
2022-11-25 15:23:42.659054, 1.71065
2022-11-25 15:23:42.691667, 1.67155
2022-11-25 15:23:42.691997, 1.66667
2022-11-25 15:23:42.692169, 1.70577
2022-11-25 15:23:42.724906, 1.66667
2022-11-25 15:23:42.725291, 1.66667
2022-11-25 15:23:42.725470, 1.65689
2022-11-25 15:23:42.725634, 1.65689
2022-11-25 15:23:42.758275, 1.66667
2022-11-25 15:23:42.758611, 1.65689
2022-11-25 15:23:42.758788, 1.65689
2022-11-25 15:23:42.758958, 1.66178
2022-11-25 15:23:42.791595, 1.65689
2022-11-25 15:23:42.791873, 1.65200
2022-11-25 15:23:42.792000, 1.65689
2022-11-25 15:23:42.824888, 1.65689
2022-11-25 15:23:42.825231, 1.65200
2022-11-25 15:23:42.825416, 1.66667
2022-11-25 15:23:42.825606, 1.68622
2022-11-25 15:23:42.858019, 1.69110
2022-11-25 15:23:42.858278, 1.70088
2022-11-25 15:23:42.858448, 1.74487
2022-11-25 15:23:42.891487, 1.72532
2022-11-25 15:23:42.891856, 1.73509
2022-11-25 15:23:42.892032, 1.75464
2022-11-25 15:23:42.892193, 1.74487
2022-11-25 15:23:42.924856, 1.74487
2022-11-25 15:23:42.925416, 1.73998
2022-11-25 15:23:42.925678, 1.73509
2022-11-25 15:23:42.957848, 1.73509
2022-11-25 15:23:42.958110, 1.73021
2022-11-25 15:23:42.958278, 1.72532
2022-11-25 15:23:42.958434, 1.72532
2022-11-25 15:23:42.991180, 1.72043
2022-11-25 15:23:42.991419, 1.72532
2022-11-25 15:23:42.991591, 1.72532
2022-11-25 15:23:43.024585, 1.73021
2022-11-25 15:23:43.024930, 1.72532
2022-11-25 15:23:43.025067, 1.73021
2022-11-25 15:23:43.025212, 1.72532
2022-11-25 15:23:43.057984, 1.72532
2022-11-25 15:23:43.058295, 1.76442
2022-11-25 15:23:43.058462, 1.73021
2022-11-25 15:23:43.058622, 1.72043
2022-11-25 15:23:43.091335, 1.72043
2022-11-25 15:23:43.091673, 1.71554
2022-11-25 15:23:43.091845, 1.71554
2022-11-25 15:23:43.124554, 1.71554
2022-11-25 15:23:43.124802, 1.71554
2022-11-25 15:23:43.124903, 1.71554
2022-11-25 15:23:43.124991, 1.72043
2022-11-25 15:23:43.157908, 1.71554
2022-11-25 15:23:43.158231, 1.71554
2022-11-25 15:23:43.158397, 1.71065
2022-11-25 15:23:43.191177, 1.71065
2022-11-25 15:23:43.191534, 1.71065
2022-11-25 15:23:43.191713, 1.73998
2022-11-25 15:23:43.191874, 1.70577
2022-11-25 15:23:43.224502, 1.70088
2022-11-25 15:23:43.224832, 1.71554
2022-11-25 15:23:43.225008, 1.69599
2022-11-25 15:23:43.257734, 1.69110
2022-11-25 15:23:43.258081, 1.69599
2022-11-25 15:23:43.258250, 1.69110
2022-11-25 15:23:43.258415, 1.69110
2022-11-25 15:23:43.291083, 1.69110
2022-11-25 15:23:43.291411, 1.68622
2022-11-25 15:23:43.291599, 1.67644
2022-11-25 15:23:43.324264, 1.67155
2022-11-25 15:23:43.324589, 1.67644
2022-11-25 15:23:43.324761, 1.67644
2022-11-25 15:23:43.324920, 1.67644
2022-11-25 15:23:43.357659, 1.67155
2022-11-25 15:23:43.357973, 1.67155
2022-11-25 15:23:43.358143, 1.67644
2022-11-25 15:23:43.358301, 1.66178
2022-11-25 15:23:43.391043, 1.66667
2022-11-25 15:23:43.391387, 1.67644
2022-11-25 15:23:43.391566, 1.66667
2022-11-25 15:23:43.424299, 1.66667
2022-11-25 15:23:43.424678, 1.66667
2022-11-25 15:23:43.424871, 1.67155
2022-11-25 15:23:43.425044, 1.66178
2022-11-25 15:23:43.457661, 1.67644
2022-11-25 15:23:43.458020, 1.66178
2022-11-25 15:23:43.458285, 1.66178
2022-11-25 15:23:43.490777, 1.67155
2022-11-25 15:23:43.491235, 1.65689
2022-11-25 15:23:43.491478, 1.65689
2022-11-25 15:23:43.491776, 1.67644
2022-11-25 15:23:43.524223, 1.67644
2022-11-25 15:23:43.524813, 1.69110
2022-11-25 15:23:43.525007, 1.70577
2022-11-25 15:23:43.557291, 1.72532
2022-11-25 15:23:43.557514, 1.73998
2022-11-25 15:23:43.557585, 1.74487
2022-11-25 15:23:43.557648, 1.74976
2022-11-25 15:23:43.590691, 1.74976
2022-11-25 15:23:43.590950, 1.74487
2022-11-25 15:23:43.591043, 1.74487
2022-11-25 15:23:43.623998, 1.74487
2022-11-25 15:23:43.624387, 1.73998
2022-11-25 15:23:43.624573, 1.73509
2022-11-25 15:23:43.624743, 1.73021
2022-11-25 15:23:43.657284, 1.76442
2022-11-25 15:23:43.657570, 1.73998
2022-11-25 15:23:43.657747, 1.73509
2022-11-25 15:23:43.657911, 1.73998
2022-11-25 15:23:43.690793, 1.73021
2022-11-25 15:23:43.691125, 1.73509
2022-11-25 15:23:43.691299, 1.73509
2022-11-25 15:23:43.724003, 1.73021
2022-11-25 15:23:43.724338, 1.73021
2022-11-25 15:23:43.724514, 1.72532
2022-11-25 15:23:43.724673, 1.72532
2022-11-25 15:23:43.757340, 1.72532
2022-11-25 15:23:43.757665, 1.72532
2022-11-25 15:23:43.757835, 1.72532
2022-11-25 15:23:43.790528, 1.73509
2022-11-25 15:23:43.790842, 1.75953
2022-11-25 15:23:43.791015, 1.73021
2022-11-25 15:23:43.791182, 1.73509
2022-11-25 15:23:43.823913, 1.72043
2022-11-25 15:23:43.824247, 1.72043
2022-11-25 15:23:43.824419, 1.73509
2022-11-25 15:23:43.857128, 1.71554
2022-11-25 15:23:43.857451, 1.71554
2022-11-25 15:23:43.857621, 1.71065
2022-11-25 15:23:43.857779, 1.70577
2022-11-25 15:23:43.890525, 1.70577
2022-11-25 15:23:43.890875, 1.70577
2022-11-25 15:23:43.891054, 1.70088
2022-11-25 15:23:43.923575, 1.69110
2022-11-25 15:23:43.923883, 1.69599
2022-11-25 15:23:43.924060, 1.73021
2022-11-25 15:23:43.924227, 1.69110
2022-11-25 15:23:43.956939, 1.68133
2022-11-25 15:23:43.957202, 1.71554
2022-11-25 15:23:43.957375, 1.67644
2022-11-25 15:23:43.957537, 1.67155
2022-11-25 15:23:43.990442, 1.70577
2022-11-25 15:23:43.990781, 1.67155
2022-11-25 15:23:43.990956, 1.67155
2022-11-25 15:23:44.023687, 1.67155
2022-11-25 15:23:44.024014, 1.67155
2022-11-25 15:23:44.024186, 1.66667
2022-11-25 15:23:44.024350, 1.70088
2022-11-25 15:23:44.057047, 1.66667
2022-11-25 15:23:44.057380, 1.66667
2022-11-25 15:23:44.057557, 1.66178
2022-11-25 15:23:44.090254, 1.65689
2022-11-25 15:23:44.090571, 1.65689
2022-11-25 15:23:44.090749, 1.65689
2022-11-25 15:23:44.090912, 1.65689
2022-11-25 15:23:44.123660, 1.65689
2022-11-25 15:23:44.124020, 1.65200
2022-11-25 15:23:44.124192, 1.67644
2022-11-25 15:23:44.156837, 1.65200
2022-11-25 15:23:44.157161, 1.65200
2022-11-25 15:23:44.157349, 1.64712
2022-11-25 15:23:44.157513, 1.65200
2022-11-25 15:23:44.190249, 1.68133
2022-11-25 15:23:44.190576, 1.67644
2022-11-25 15:23:44.190749, 1.69110
2022-11-25 15:23:44.223405, 1.70088
2022-11-25 15:23:44.223761, 1.72043
2022-11-25 15:23:44.223938, 1.73021
2022-11-25 15:23:44.224097, 1.76931
2022-11-25 15:23:44.256862, 1.74976
2022-11-25 15:23:44.257212, 1.77419
2022-11-25 15:23:44.257387, 1.76931
2022-11-25 15:23:44.257552, 1.75464
2022-11-25 15:23:44.290210, 1.74487
2022-11-25 15:23:44.290570, 1.74487
2022-11-25 15:23:44.290752, 1.73509
2022-11-25 15:23:44.323438, 1.73509
2022-11-25 15:23:44.323791, 1.73998
2022-11-25 15:23:44.323975, 1.73998
2022-11-25 15:23:44.324138, 1.73509
2022-11-25 15:23:44.356729, 1.73509
2022-11-25 15:23:44.357153, 1.73509
2022-11-25 15:23:44.357321, 1.73998
2022-11-25 15:23:44.389994, 1.73998
2022-11-25 15:23:44.390225, 1.73998
2022-11-25 15:23:44.390309, 1.74487
2022-11-25 15:23:44.390401, 1.77419
2022-11-25 15:23:44.423172, 1.75953
2022-11-25 15:23:44.423403, 1.75953
2022-11-25 15:23:44.423483, 1.74976
2022-11-25 15:23:44.456535, 1.74487
2022-11-25 15:23:44.456877, 1.73509
2022-11-25 15:23:44.457049, 1.72532
2022-11-25 15:23:44.457295, 1.72532
2022-11-25 15:23:44.489789, 1.72532
2022-11-25 15:23:44.490019, 1.72043
2022-11-25 15:23:44.490166, 1.72532
2022-11-25 15:23:44.523010, 1.72043
2022-11-25 15:23:44.523272, 1.72043
2022-11-25 15:23:44.523436, 1.75464
2022-11-25 15:23:44.523602, 1.71554
2022-11-25 15:23:44.556527, 1.71554
2022-11-25 15:23:44.556887, 1.71065
2022-11-25 15:23:44.557060, 1.70577
2022-11-25 15:23:44.557223, 1.70088
2022-11-25 15:23:44.589902, 1.70088
2022-11-25 15:23:44.590260, 1.69599
2022-11-25 15:23:44.590434, 1.69599
2022-11-25 15:23:44.623138, 1.69599
2022-11-25 15:23:44.623488, 1.68622
2022-11-25 15:23:44.623667, 1.68622
2022-11-25 15:23:44.623828, 1.68133
2022-11-25 15:23:44.656531, 1.68133
2022-11-25 15:23:44.656898, 1.67155
2022-11-25 15:23:44.657079, 1.68622
2022-11-25 15:23:44.689495, 1.66667
2022-11-25 15:23:44.689785, 1.66667
2022-11-25 15:23:44.689948, 1.67644
2022-11-25 15:23:44.690105, 1.66667
2022-11-25 15:23:44.722870, 1.67155
2022-11-25 15:23:44.723134, 1.66178
2022-11-25 15:23:44.723307, 1.65689
2022-11-25 15:23:44.756339, 1.67155
2022-11-25 15:23:44.756741, 1.66178
2022-11-25 15:23:44.756956, 1.65689
2022-11-25 15:23:44.757126, 1.68622
2022-11-25 15:23:44.789572, 1.66667
2022-11-25 15:23:44.789907, 1.65689
2022-11-25 15:23:44.790084, 1.66667
2022-11-25 15:23:44.822850, 1.66667
2022-11-25 15:23:44.823240, 1.65200
2022-11-25 15:23:44.823418, 1.67155
2022-11-25 15:23:44.823587, 1.65200
2022-11-25 15:23:44.856208, 1.64712
2022-11-25 15:23:44.856538, 1.65200
2022-11-25 15:23:44.857014, 1.64712
2022-11-25 15:23:44.857863, 1.66178
2022-11-25 15:23:44.889478, 1.66178
2022-11-25 15:23:44.889818, 1.66667
2022-11-25 15:23:44.890019, 1.67644
2022-11-25 15:23:44.922661, 1.69110
2022-11-25 15:23:44.922892, 1.70088
2022-11-25 15:23:44.923031, 1.71554
2022-11-25 15:23:44.923121, 1.72532
2022-11-25 15:23:44.955986, 1.73509
2022-11-25 15:23:44.956216, 1.73509
2022-11-25 15:23:44.956289, 1.73509
2022-11-25 15:23:44.989412, 1.73509
2022-11-25 15:23:44.989764, 1.73509
2022-11-25 15:23:44.989937, 1.73021
2022-11-25 15:23:44.990099, 1.73021
2022-11-25 15:23:45.022780, 1.73509
2022-11-25 15:23:45.023134, 1.76442
2022-11-25 15:23:45.023308, 1.74487
2022-11-25 15:23:45.055998, 1.73021
2022-11-25 15:23:45.056538, 1.73021
2022-11-25 15:23:45.056725, 1.72532
2022-11-25 15:23:45.056897, 1.73509
2022-11-25 15:23:45.089429, 1.73509
2022-11-25 15:23:45.089792, 1.73998
2022-11-25 15:23:45.089975, 1.73998
2022-11-25 15:23:45.122566, 1.73998
2022-11-25 15:23:45.122971, 1.73998
2022-11-25 15:23:45.123155, 1.73998
2022-11-25 15:23:45.123318, 1.73509
2022-11-25 15:23:45.155998, 1.76931
2022-11-25 15:23:45.156378, 1.73998
2022-11-25 15:23:45.156557, 1.73509
2022-11-25 15:23:45.156718, 1.73509
2022-11-25 15:23:45.189336, 1.73021
2022-11-25 15:23:45.189703, 1.72043
2022-11-25 15:23:45.189878, 1.73021
2022-11-25 15:23:45.222583, 1.72532
2022-11-25 15:23:45.222933, 1.73021
2022-11-25 15:23:45.223113, 1.72532
2022-11-25 15:23:45.223276, 1.76442
2022-11-25 15:23:45.255829, 1.73509
2022-11-25 15:23:45.256154, 1.72043
2022-11-25 15:23:45.256325, 1.72043
2022-11-25 15:23:45.289147, 1.71554
2022-11-25 15:23:45.289520, 1.71065
2022-11-25 15:23:45.289704, 1.71065
2022-11-25 15:23:45.289863, 1.70577
2022-11-25 15:23:45.322447, 1.69599
2022-11-25 15:23:45.322743, 1.71554
2022-11-25 15:23:45.322880, 1.69599
2022-11-25 15:23:45.355517, 1.69110
2022-11-25 15:23:45.355740, 1.72532
2022-11-25 15:23:45.356093, 1.68622
2022-11-25 15:23:45.356203, 1.68133
2022-11-25 15:23:45.388643, 1.69110
2022-11-25 15:23:45.388848, 1.68133
2022-11-25 15:23:45.388936, 1.68133
2022-11-25 15:23:45.422294, 1.69110
2022-11-25 15:23:45.422678, 1.68133
2022-11-25 15:23:45.422864, 1.67644
2022-11-25 15:23:45.423030, 1.68622
2022-11-25 15:23:45.455595, 1.67644
2022-11-25 15:23:45.455937, 1.67644
2022-11-25 15:23:45.456121, 1.70577
2022-11-25 15:23:45.456288, 1.66667
2022-11-25 15:23:45.489018, 1.68133
2022-11-25 15:23:45.489371, 1.67155
2022-11-25 15:23:45.489550, 1.66667
2022-11-25 15:23:45.522271, 1.67155
2022-11-25 15:23:45.522616, 1.66667
2022-11-25 15:23:45.522798, 1.66667
2022-11-25 15:23:45.522962, 1.66667
2022-11-25 15:23:45.555618, 1.65689
2022-11-25 15:23:45.555982, 1.65200
2022-11-25 15:23:45.556157, 1.65689
2022-11-25 15:23:45.588785, 1.65689
2022-11-25 15:23:45.589056, 1.65689
2022-11-25 15:23:45.589150, 1.65200
2022-11-25 15:23:45.589239, 1.65689
2022-11-25 15:23:45.622210, 1.67155
2022-11-25 15:23:45.622557, 1.66667
2022-11-25 15:23:45.622736, 1.68133
2022-11-25 15:23:45.655390, 1.69599
2022-11-25 15:23:45.655774, 1.70088
2022-11-25 15:23:45.655944, 1.71554
2022-11-25 15:23:45.656107, 1.72043
2022-11-25 15:23:45.688712, 1.73021
2022-11-25 15:23:45.689042, 1.73509
2022-11-25 15:23:45.689220, 1.73021
2022-11-25 15:23:45.721889, 1.73021
2022-11-25 15:23:45.722212, 1.72043
2022-11-25 15:23:45.722382, 1.72043
2022-11-25 15:23:45.722539, 1.71554
2022-11-25 15:23:45.755018, 1.71065
2022-11-25 15:23:45.755173, 1.71554
2022-11-25 15:23:45.755276, 1.70577
2022-11-25 15:23:45.755361, 1.71065
2022-11-25 15:23:45.788245, 1.74487
2022-11-25 15:23:45.788558, 1.72043
2022-11-25 15:23:45.788769, 1.72043
2022-11-25 15:23:45.821654, 1.72532
2022-11-25 15:23:45.821966, 1.72532
2022-11-25 15:23:45.822177, 1.72532
2022-11-25 15:23:45.822298, 1.72532
2022-11-25 15:23:45.855139, 1.72532
2022-11-25 15:23:45.855378, 1.72532
2022-11-25 15:23:45.855545, 1.72532
2022-11-25 15:23:45.888347, 1.72043
2022-11-25 15:23:45.888559, 1.72532
2022-11-25 15:23:45.888721, 1.72043
2022-11-25 15:23:45.888875, 1.72532
2022-11-25 15:23:45.921667, 1.72532
2022-11-25 15:23:45.921907, 1.72532
2022-11-25 15:23:45.922070, 1.72532
2022-11-25 15:23:45.955156, 1.72532
2022-11-25 15:23:45.955479, 1.71554
2022-11-25 15:23:45.955674, 1.72532
2022-11-25 15:23:45.955837, 1.72043
2022-11-25 15:23:45.988272, 1.73021
2022-11-25 15:23:45.988568, 1.71554
2022-11-25 15:23:45.988739, 1.70577
2022-11-25 15:23:46.021697, 1.70577
2022-11-25 15:23:46.022095, 1.70577
2022-11-25 15:23:46.022282, 1.70577
2022-11-25 15:23:46.022447, 1.69599
2022-11-25 15:23:46.055019, 1.70577
2022-11-25 15:23:46.055347, 1.73509
2022-11-25 15:23:46.055522, 1.69599
2022-11-25 15:23:46.055683, 1.69110
2022-11-25 15:23:46.088274, 1.70577
2022-11-25 15:23:46.088525, 1.68622
2022-11-25 15:23:46.088688, 1.67644
2022-11-25 15:23:46.121519, 1.68133
2022-11-25 15:23:46.121797, 1.68133
2022-11-25 15:23:46.121965, 1.67644
2022-11-25 15:23:46.122121, 1.67644
2022-11-25 15:23:46.154817, 1.67644
2022-11-25 15:23:46.155063, 1.67644
2022-11-25 15:23:46.155167, 1.67155
2022-11-25 15:23:46.188274, 1.66667
2022-11-25 15:23:46.188634, 1.67155
2022-11-25 15:23:46.188812, 1.67155
2022-11-25 15:23:46.189005, 1.66667
2022-11-25 15:23:46.221615, 1.65689
2022-11-25 15:23:46.221991, 1.68133
2022-11-25 15:23:46.222094, 1.65200
2022-11-25 15:23:46.254814, 1.65689
2022-11-25 15:23:46.255082, 1.65689
2022-11-25 15:23:46.255183, 1.65200
2022-11-25 15:23:46.255273, 1.65200
2022-11-25 15:23:46.288012, 1.65689
2022-11-25 15:23:46.288254, 1.65200
2022-11-25 15:23:46.288448, 1.64223
2022-11-25 15:23:46.321017, 1.66178
2022-11-25 15:23:46.321178, 1.64223
2022-11-25 15:23:46.321251, 1.63245
2022-11-25 15:23:46.321314, 1.67155
2022-11-25 15:23:46.354561, 1.63734
2022-11-25 15:23:46.354802, 1.65200
2022-11-25 15:23:46.354959, 1.63734
2022-11-25 15:23:46.355078, 1.65200
2022-11-25 15:23:46.388023, 1.65200
2022-11-25 15:23:46.388289, 1.66178
2022-11-25 15:23:46.388465, 1.68133
2022-11-25 15:23:46.421229, 1.68622
2022-11-25 15:23:46.421478, 1.71065
2022-11-25 15:23:46.421648, 1.71554
2022-11-25 15:23:46.421805, 1.72532
2022-11-25 15:23:46.454647, 1.73509
2022-11-25 15:23:46.454962, 1.73998
2022-11-25 15:23:46.455139, 1.73998
2022-11-25 15:23:46.487908, 1.73509
2022-11-25 15:23:46.488231, 1.73509
