2022-11-25 15:23:15.285003
2022-11-25 15:23:15.285253
2022-11-25 15:23:15.285421
2022-11-25 15:23:15.318225
2022-11-25 15:23:15.318495
2022-11-25 15:23:15.318681
2022-11-25 15:23:15.318844
2022-11-25 15:23:15.351548
2022-11-25 15:23:15.351801
2022-11-25 15:23:15.351980
2022-11-25 15:23:15.384807
2022-11-25 15:23:15.385092
2022-11-25 15:23:15.385331
2022-11-25 15:23:15.385540
2022-11-25 15:23:15.418171
2022-11-25 15:23:15.418436
2022-11-25 15:23:15.418612
2022-11-25 15:23:15.451363
2022-11-25 15:23:15.451635
2022-11-25 15:23:15.451807
2022-11-25 15:23:15.451960
2022-11-25 15:23:15.484760
2022-11-25 15:23:15.485020
2022-11-25 15:23:15.485203
2022-11-25 15:23:15.485367
2022-11-25 15:23:15.518092
2022-11-25 15:23:15.518347
2022-11-25 15:23:15.518524
2022-11-25 15:23:15.551337
2022-11-25 15:23:15.551604
2022-11-25 15:23:15.551776
2022-11-25 15:23:15.551939
2022-11-25 15:23:15.584673
2022-11-25 15:23:15.584908
2022-11-25 15:23:15.585074
2022-11-25 15:23:15.617907
2022-11-25 15:23:15.618121
2022-11-25 15:23:15.618246
2022-11-25 15:23:15.618361
2022-11-25 15:23:15.651281
2022-11-25 15:23:15.651540
2022-11-25 15:23:15.651712
2022-11-25 15:23:15.684508
2022-11-25 15:23:15.684774
2022-11-25 15:23:15.684946
2022-11-25 15:23:15.685106
2022-11-25 15:23:15.717860
2022-11-25 15:23:15.718116
2022-11-25 15:23:15.718283
2022-11-25 15:23:15.751052
2022-11-25 15:23:15.751291
2022-11-25 15:23:15.751419
2022-11-25 15:23:15.751537
2022-11-25 15:23:15.784429
2022-11-25 15:23:15.784680
2022-11-25 15:23:15.784849
2022-11-25 15:23:15.785007
2022-11-25 15:23:15.817807
2022-11-25 15:23:15.818063
2022-11-25 15:23:15.818227
2022-11-25 15:23:15.851020
2022-11-25 15:23:15.851282
2022-11-25 15:23:15.851455
2022-11-25 15:23:15.851619
2022-11-25 15:23:15.884347
2022-11-25 15:23:15.884661
2022-11-25 15:23:15.884842
2022-11-25 15:23:15.917621
2022-11-25 15:23:15.917884
2022-11-25 15:23:15.918059
2022-11-25 15:23:15.918220
2022-11-25 15:23:15.950980
2022-11-25 15:23:15.951254
2022-11-25 15:23:15.951422
2022-11-25 15:23:15.984184
2022-11-25 15:23:15.984458
2022-11-25 15:23:15.984632
2022-11-25 15:23:15.984792
2022-11-25 15:23:16.017557
2022-11-25 15:23:16.017803
2022-11-25 15:23:16.017963
2022-11-25 15:23:16.050783
2022-11-25 15:23:16.051069
2022-11-25 15:23:16.051244
2022-11-25 15:23:16.051400
2022-11-25 15:23:16.084138
2022-11-25 15:23:16.084409
2022-11-25 15:23:16.084578
2022-11-25 15:23:16.084746
2022-11-25 15:23:16.117527
2022-11-25 15:23:16.117781
2022-11-25 15:23:16.117951
2022-11-25 15:23:16.150744
2022-11-25 15:23:16.151033
2022-11-25 15:23:16.151208
2022-11-25 15:23:16.151372
2022-11-25 15:23:16.184140
2022-11-25 15:23:16.184404
2022-11-25 15:23:16.184574
2022-11-25 15:23:16.217349
2022-11-25 15:23:16.217604
2022-11-25 15:23:16.217769
2022-11-25 15:23:16.217930
2022-11-25 15:23:16.250683
2022-11-25 15:23:16.250924
2022-11-25 15:23:16.251087
2022-11-25 15:23:16.283920
2022-11-25 15:23:16.284185
2022-11-25 15:23:16.284350
2022-11-25 15:23:16.284517
2022-11-25 15:23:16.317320
2022-11-25 15:23:16.317567
2022-11-25 15:23:16.317744
2022-11-25 15:23:16.350456
2022-11-25 15:23:16.350737
2022-11-25 15:23:16.350911
2022-11-25 15:23:16.351067
2022-11-25 15:23:16.383866
2022-11-25 15:23:16.384108
2022-11-25 15:23:16.384280
2022-11-25 15:23:16.384439
2022-11-25 15:23:16.417209
2022-11-25 15:23:16.417470
2022-11-25 15:23:16.417646
2022-11-25 15:23:16.450457
2022-11-25 15:23:16.450713
2022-11-25 15:23:16.450881
2022-11-25 15:23:16.451045
2022-11-25 15:23:16.483817
2022-11-25 15:23:16.484072
2022-11-25 15:23:16.484244
2022-11-25 15:23:16.517040
2022-11-25 15:23:16.517299
2022-11-25 15:23:16.517462
2022-11-25 15:23:16.517617
2022-11-25 15:23:16.550370
2022-11-25 15:23:16.550645
2022-11-25 15:23:16.550818
2022-11-25 15:23:16.583715
2022-11-25 15:23:16.584210
2022-11-25 15:23:16.584414
2022-11-25 15:23:16.584586
2022-11-25 15:23:16.616994
2022-11-25 15:23:16.617308
2022-11-25 15:23:16.617482
2022-11-25 15:23:16.650256
2022-11-25 15:23:16.650495
2022-11-25 15:23:16.650624
2022-11-25 15:23:16.650773
2022-11-25 15:23:16.683602
2022-11-25 15:23:16.683891
2022-11-25 15:23:16.684088
2022-11-25 15:23:16.684256
2022-11-25 15:23:16.716931
2022-11-25 15:23:16.717191
2022-11-25 15:23:16.717411
2022-11-25 15:23:16.750170
2022-11-25 15:23:16.750382
2022-11-25 15:23:16.750547
2022-11-25 15:23:16.750692
2022-11-25 15:23:16.783505
2022-11-25 15:23:16.783717
2022-11-25 15:23:16.783839
2022-11-25 15:23:16.816786
2022-11-25 15:23:16.817056
2022-11-25 15:23:16.817238
2022-11-25 15:23:16.817426
2022-11-25 15:23:16.850101
2022-11-25 15:23:16.850309
2022-11-25 15:23:16.850452
2022-11-25 15:23:16.883338
2022-11-25 15:23:16.883612
2022-11-25 15:23:16.883799
2022-11-25 15:23:16.884025
2022-11-25 15:23:16.916736
2022-11-25 15:23:16.917000
2022-11-25 15:23:16.917243
2022-11-25 15:23:16.949821
2022-11-25 15:23:16.950077
2022-11-25 15:23:16.950276
2022-11-25 15:23:16.950511
2022-11-25 15:23:16.983317
2022-11-25 15:23:16.983620
2022-11-25 15:23:16.983930
2022-11-25 15:23:16.984099
2022-11-25 15:23:17.016564
2022-11-25 15:23:17.016777
2022-11-25 15:23:17.016902
2022-11-25 15:23:17.049877
2022-11-25 15:23:17.050153
2022-11-25 15:23:17.050328
2022-11-25 15:23:17.050489
2022-11-25 15:23:17.083160
2022-11-25 15:23:17.083409
2022-11-25 15:23:17.083575
2022-11-25 15:23:17.116452
2022-11-25 15:23:17.116728
2022-11-25 15:23:17.116901
2022-11-25 15:23:17.117061
2022-11-25 15:23:17.149817
2022-11-25 15:23:17.150080
2022-11-25 15:23:17.150254
2022-11-25 15:23:17.183023
2022-11-25 15:23:17.183294
2022-11-25 15:23:17.183466
2022-11-25 15:23:17.183622
2022-11-25 15:23:17.216389
2022-11-25 15:23:17.216648
2022-11-25 15:23:17.216821
2022-11-25 15:23:17.249651
2022-11-25 15:23:17.249884
2022-11-25 15:23:17.250013
2022-11-25 15:23:17.250230
2022-11-25 15:23:17.282988
2022-11-25 15:23:17.283256
2022-11-25 15:23:17.283428
2022-11-25 15:23:17.283594
2022-11-25 15:23:17.316384
2022-11-25 15:23:17.316645
2022-11-25 15:23:17.316825
2022-11-25 15:23:17.349539
2022-11-25 15:23:17.349804
2022-11-25 15:23:17.349974
2022-11-25 15:23:17.350131
2022-11-25 15:23:17.382911
2022-11-25 15:23:17.383157
2022-11-25 15:23:17.383321
2022-11-25 15:23:17.416204
2022-11-25 15:23:17.416657
2022-11-25 15:23:17.416834
2022-11-25 15:23:17.416996
2022-11-25 15:23:17.449482
2022-11-25 15:23:17.449675
2022-11-25 15:23:17.449792
2022-11-25 15:23:17.482749
2022-11-25 15:23:17.483008
2022-11-25 15:23:17.483175
2022-11-25 15:23:17.483332
2022-11-25 15:23:17.516106
2022-11-25 15:23:17.516345
2022-11-25 15:23:17.516510
2022-11-25 15:23:17.549312
2022-11-25 15:23:17.549584
2022-11-25 15:23:17.549752
2022-11-25 15:23:17.549926
2022-11-25 15:23:17.582700
2022-11-25 15:23:17.582956
2022-11-25 15:23:17.583125
2022-11-25 15:23:17.583284
2022-11-25 15:23:17.616076
2022-11-25 15:23:17.616348
2022-11-25 15:23:17.616518
2022-11-25 15:23:17.649296
2022-11-25 15:23:17.649550
2022-11-25 15:23:17.649775
2022-11-25 15:23:17.650005
2022-11-25 15:23:17.682609
2022-11-25 15:23:17.682869
2022-11-25 15:23:17.683037
2022-11-25 15:23:17.715864
2022-11-25 15:23:17.716120
2022-11-25 15:23:17.716283
2022-11-25 15:23:17.716447
2022-11-25 15:23:17.749177
2022-11-25 15:23:17.749351
2022-11-25 15:23:17.749446
2022-11-25 15:23:17.782402
2022-11-25 15:23:17.782653
2022-11-25 15:23:17.782821
2022-11-25 15:23:17.782977
2022-11-25 15:23:17.815810
2022-11-25 15:23:17.816069
2022-11-25 15:23:17.816237
2022-11-25 15:23:17.849003
2022-11-25 15:23:17.849302
2022-11-25 15:23:17.849475
2022-11-25 15:23:17.849636
2022-11-25 15:23:17.882395
2022-11-25 15:23:17.882656
2022-11-25 15:23:17.882826
2022-11-25 15:23:17.882987
2022-11-25 15:23:17.915762
2022-11-25 15:23:17.916033
2022-11-25 15:23:17.916207
2022-11-25 15:23:17.949027
2022-11-25 15:23:17.949294
2022-11-25 15:23:17.949466
2022-11-25 15:23:17.949628
2022-11-25 15:23:17.982378
2022-11-25 15:23:17.982643
2022-11-25 15:23:17.982816
2022-11-25 15:23:18.015587
2022-11-25 15:23:18.015924
2022-11-25 15:23:18.016098
2022-11-25 15:23:18.016257
2022-11-25 15:23:18.048912
2022-11-25 15:23:18.049164
2022-11-25 15:23:18.049328
2022-11-25 15:23:18.082094
2022-11-25 15:23:18.082352
2022-11-25 15:23:18.082542
2022-11-25 15:23:18.082705
2022-11-25 15:23:18.115520
2022-11-25 15:23:18.115788
2022-11-25 15:23:18.115961
2022-11-25 15:23:18.148747
2022-11-25 15:23:18.149018
2022-11-25 15:23:18.149187
2022-11-25 15:23:18.149353
2022-11-25 15:23:18.182024
2022-11-25 15:23:18.182221
2022-11-25 15:23:18.182338
2022-11-25 15:23:18.182452
2022-11-25 15:23:18.215458
2022-11-25 15:23:18.215716
2022-11-25 15:23:18.215881
2022-11-25 15:23:18.248655
2022-11-25 15:23:18.248824
2022-11-25 15:23:18.248915
2022-11-25 15:23:18.249000
2022-11-25 15:23:18.282029
2022-11-25 15:23:18.282210
2022-11-25 15:23:18.282306
2022-11-25 15:23:18.315276
2022-11-25 15:23:18.315535
2022-11-25 15:23:18.315709
2022-11-25 15:23:18.315873
2022-11-25 15:23:18.348652
2022-11-25 15:23:18.348926
2022-11-25 15:23:18.349097
2022-11-25 15:23:18.381870
2022-11-25 15:23:18.382128
2022-11-25 15:23:18.382296
2022-11-25 15:23:18.382457
2022-11-25 15:23:18.415213
2022-11-25 15:23:18.415462
2022-11-25 15:23:18.415646
2022-11-25 15:23:18.448421
2022-11-25 15:23:18.448706
2022-11-25 15:23:18.448885
2022-11-25 15:23:18.449043
2022-11-25 15:23:18.481768
2022-11-25 15:23:18.481970
2022-11-25 15:23:18.482087
2022-11-25 15:23:18.482211
2022-11-25 15:23:18.515120
2022-11-25 15:23:18.515322
2022-11-25 15:23:18.515440
2022-11-25 15:23:18.548399
2022-11-25 15:23:18.548648
2022-11-25 15:23:18.548817
2022-11-25 15:23:18.548979
2022-11-25 15:23:18.581746
2022-11-25 15:23:18.582004
2022-11-25 15:23:18.582168
2022-11-25 15:23:18.615007
2022-11-25 15:23:18.615271
2022-11-25 15:23:18.615433
2022-11-25 15:23:18.615589
2022-11-25 15:23:18.648342
2022-11-25 15:23:18.648606
2022-11-25 15:23:18.648775
2022-11-25 15:23:18.681611
2022-11-25 15:23:18.681875
2022-11-25 15:23:18.682039
2022-11-25 15:23:18.682204
2022-11-25 15:23:18.714925
2022-11-25 15:23:18.715193
2022-11-25 15:23:18.715367
2022-11-25 15:23:18.748138
2022-11-25 15:23:18.748366
2022-11-25 15:23:18.748506
2022-11-25 15:23:18.748623
2022-11-25 15:23:18.781523
2022-11-25 15:23:18.781785
2022-11-25 15:23:18.781957
2022-11-25 15:23:18.782123
2022-11-25 15:23:18.814870
2022-11-25 15:23:18.815076
2022-11-25 15:23:18.815201
2022-11-25 15:23:18.848095
2022-11-25 15:23:18.848364
2022-11-25 15:23:18.848541
2022-11-25 15:23:18.848704
2022-11-25 15:23:18.881490
2022-11-25 15:23:18.881760
2022-11-25 15:23:18.881938
2022-11-25 15:23:18.914722
2022-11-25 15:23:18.914993
2022-11-25 15:23:18.915164
2022-11-25 15:23:18.915323
2022-11-25 15:23:18.948047
2022-11-25 15:23:18.948315
2022-11-25 15:23:18.948492
2022-11-25 15:23:18.981290
2022-11-25 15:23:18.981551
2022-11-25 15:23:18.981719
2022-11-25 15:23:18.981880
2022-11-25 15:23:19.014655
2022-11-25 15:23:19.014916
2022-11-25 15:23:19.015090
2022-11-25 15:23:19.047858
2022-11-25 15:23:19.048158
2022-11-25 15:23:19.048341
2022-11-25 15:23:19.048504
2022-11-25 15:23:19.081229
2022-11-25 15:23:19.081490
2022-11-25 15:23:19.081661
2022-11-25 15:23:19.081818
2022-11-25 15:23:19.114581
2022-11-25 15:23:19.114842
2022-11-25 15:23:19.115005
2022-11-25 15:23:19.147818
2022-11-25 15:23:19.148076
2022-11-25 15:23:19.148241
2022-11-25 15:23:19.148395
2022-11-25 15:23:19.181119
2022-11-25 15:23:19.181386
2022-11-25 15:23:19.181562
2022-11-25 15:23:19.214424
2022-11-25 15:23:19.214683
2022-11-25 15:23:19.214851
2022-11-25 15:23:19.215010
2022-11-25 15:23:19.247692
2022-11-25 15:23:19.247865
2022-11-25 15:23:19.247958
2022-11-25 15:23:19.280897
2022-11-25 15:23:19.281153
2022-11-25 15:23:19.281327
2022-11-25 15:23:19.281491
2022-11-25 15:23:19.314362
2022-11-25 15:23:19.314627
2022-11-25 15:23:19.314800
2022-11-25 15:23:19.347560
2022-11-25 15:23:19.347892
2022-11-25 15:23:19.348068
2022-11-25 15:23:19.348228
2022-11-25 15:23:19.380947
2022-11-25 15:23:19.381207
2022-11-25 15:23:19.381376
2022-11-25 15:23:19.381538
2022-11-25 15:23:19.414300
2022-11-25 15:23:19.414559
2022-11-25 15:23:19.414734
2022-11-25 15:23:19.447519
2022-11-25 15:23:19.447790
2022-11-25 15:23:19.447963
2022-11-25 15:23:19.448121
2022-11-25 15:23:19.480890
2022-11-25 15:23:19.481148
2022-11-25 15:23:19.481317
2022-11-25 15:23:19.514100
2022-11-25 15:23:19.514300
2022-11-25 15:23:19.514427
2022-11-25 15:23:19.514537
2022-11-25 15:23:19.547490
2022-11-25 15:23:19.547767
2022-11-25 15:23:19.547938
2022-11-25 15:23:19.580703
2022-11-25 15:23:19.580965
2022-11-25 15:23:19.581137
2022-11-25 15:23:19.581305
2022-11-25 15:23:19.614042
2022-11-25 15:23:19.614293
2022-11-25 15:23:19.614460
2022-11-25 15:23:19.647257
2022-11-25 15:23:19.647534
2022-11-25 15:23:19.647704
2022-11-25 15:23:19.647949
2022-11-25 15:23:19.680644
2022-11-25 15:23:19.680900
2022-11-25 15:23:19.681075
2022-11-25 15:23:19.681240
2022-11-25 15:23:19.714003
2022-11-25 15:23:19.714260
2022-11-25 15:23:19.714429
2022-11-25 15:23:19.747189
2022-11-25 15:23:19.747362
2022-11-25 15:23:19.747451
2022-11-25 15:23:19.747535
2022-11-25 15:23:19.780604
2022-11-25 15:23:19.780859
2022-11-25 15:23:19.781026
2022-11-25 15:23:19.813786
2022-11-25 15:23:19.814060
2022-11-25 15:23:19.814236
2022-11-25 15:23:19.814402
2022-11-25 15:23:19.847192
2022-11-25 15:23:19.847461
2022-11-25 15:23:19.847630
2022-11-25 15:23:19.880418
2022-11-25 15:23:19.880688
2022-11-25 15:23:19.880860
2022-11-25 15:23:19.881018
2022-11-25 15:23:19.913743
2022-11-25 15:23:19.914006
2022-11-25 15:23:19.914175
2022-11-25 15:23:19.946990
2022-11-25 15:23:19.947276
2022-11-25 15:23:19.947448
2022-11-25 15:23:19.947610
2022-11-25 15:23:19.980336
2022-11-25 15:23:19.980592
2022-11-25 15:23:19.980762
2022-11-25 15:23:19.980924
2022-11-25 15:23:20.013701
2022-11-25 15:23:20.013964
2022-11-25 15:23:20.014134
2022-11-25 15:23:20.046951
2022-11-25 15:23:20.047220
2022-11-25 15:23:20.047396
2022-11-25 15:23:20.047555
2022-11-25 15:23:20.080326
2022-11-25 15:23:20.080602
2022-11-25 15:23:20.080770
2022-11-25 15:23:20.113531
2022-11-25 15:23:20.113782
2022-11-25 15:23:20.113949
2022-11-25 15:23:20.114108
2022-11-25 15:23:20.146909
2022-11-25 15:23:20.147182
2022-11-25 15:23:20.147357
2022-11-25 15:23:20.180147
2022-11-25 15:23:20.180421
2022-11-25 15:23:20.180595
2022-11-25 15:23:20.180757
2022-11-25 15:23:20.213455
2022-11-25 15:23:20.213661
2022-11-25 15:23:20.213783
2022-11-25 15:23:20.246669
2022-11-25 15:23:20.246857
2022-11-25 15:23:20.246954
2022-11-25 15:23:20.247041
2022-11-25 15:23:20.279874
2022-11-25 15:23:20.280025
2022-11-25 15:23:20.280123
2022-11-25 15:23:20.280212
2022-11-25 15:23:20.313413
2022-11-25 15:23:20.313677
2022-11-25 15:23:20.313852
2022-11-25 15:23:20.346642
2022-11-25 15:23:20.346909
2022-11-25 15:23:20.347174
2022-11-25 15:23:20.347442
2022-11-25 15:23:20.379932
2022-11-25 15:23:20.380205
2022-11-25 15:23:20.380380
2022-11-25 15:23:20.413291
2022-11-25 15:23:20.413560
2022-11-25 15:23:20.413752
2022-11-25 15:23:20.413916
2022-11-25 15:23:20.446615
2022-11-25 15:23:20.446879
2022-11-25 15:23:20.447046
2022-11-25 15:23:20.479801
2022-11-25 15:23:20.480060
2022-11-25 15:23:20.480229
2022-11-25 15:23:20.480387
2022-11-25 15:23:20.513169
2022-11-25 15:23:20.513432
2022-11-25 15:23:20.513601
2022-11-25 15:23:20.546389
2022-11-25 15:23:20.546614
2022-11-25 15:23:20.546758
2022-11-25 15:23:20.546875
2022-11-25 15:23:20.579773
2022-11-25 15:23:20.580037
2022-11-25 15:23:20.580211
2022-11-25 15:23:20.580366
2022-11-25 15:23:20.613133
2022-11-25 15:23:20.613400
2022-11-25 15:23:20.613567
2022-11-25 15:23:20.646360
2022-11-25 15:23:20.646625
2022-11-25 15:23:20.646796
2022-11-25 15:23:20.646956
2022-11-25 15:23:20.679734
2022-11-25 15:23:20.680002
2022-11-25 15:23:20.680169
2022-11-25 15:23:20.712959
2022-11-25 15:23:20.713227
2022-11-25 15:23:20.713403
2022-11-25 15:23:20.713573
2022-11-25 15:23:20.746296
2022-11-25 15:23:20.746463
2022-11-25 15:23:20.746558
2022-11-25 15:23:20.779523
2022-11-25 15:23:20.779796
2022-11-25 15:23:20.779973
2022-11-25 15:23:20.780141
2022-11-25 15:23:20.812900
2022-11-25 15:23:20.813154
2022-11-25 15:23:20.813326
2022-11-25 15:23:20.846125
2022-11-25 15:23:20.846421
2022-11-25 15:23:20.846599
2022-11-25 15:23:20.846761
2022-11-25 15:23:20.879472
2022-11-25 15:23:20.879735
2022-11-25 15:23:20.879908
2022-11-25 15:23:20.880075
2022-11-25 15:23:20.912812
2022-11-25 15:23:20.913068
2022-11-25 15:23:20.913238
2022-11-25 15:23:20.946063
2022-11-25 15:23:20.946317
2022-11-25 15:23:20.946485
2022-11-25 15:23:20.946648
2022-11-25 15:23:20.979441
2022-11-25 15:23:20.979704
2022-11-25 15:23:20.979871
2022-11-25 15:23:21.012656
2022-11-25 15:23:21.012924
2022-11-25 15:23:21.013088
2022-11-25 15:23:21.013241
2022-11-25 15:23:21.045981
2022-11-25 15:23:21.046239
2022-11-25 15:23:21.046405
2022-11-25 15:23:21.079314
2022-11-25 15:23:21.079584
2022-11-25 15:23:21.079750
2022-11-25 15:23:21.079910
2022-11-25 15:23:21.112606
2022-11-25 15:23:21.112856
2022-11-25 15:23:21.113027
2022-11-25 15:23:21.145796
2022-11-25 15:23:21.146069
2022-11-25 15:23:21.146239
2022-11-25 15:23:21.146396
2022-11-25 15:23:21.179190
2022-11-25 15:23:21.179442
2022-11-25 15:23:21.179611
2022-11-25 15:23:21.179772
2022-11-25 15:23:21.212510
2022-11-25 15:23:21.212719
2022-11-25 15:23:21.212846
2022-11-25 15:23:21.245727
2022-11-25 15:23:21.245887
2022-11-25 15:23:21.245978
2022-11-25 15:23:21.246060
2022-11-25 15:23:21.278953
2022-11-25 15:23:21.279174
2022-11-25 15:23:21.279306
2022-11-25 15:23:21.312348
2022-11-25 15:23:21.312519
2022-11-25 15:23:21.312612
2022-11-25 15:23:21.312697
2022-11-25 15:23:21.345716
2022-11-25 15:23:21.345985
2022-11-25 15:23:21.346164
2022-11-25 15:23:21.378893
2022-11-25 15:23:21.379161
2022-11-25 15:23:21.379347
2022-11-25 15:23:21.379506
2022-11-25 15:23:21.412348
2022-11-25 15:23:21.412618
2022-11-25 15:23:21.412789
2022-11-25 15:23:21.445492
2022-11-25 15:23:21.445763
2022-11-25 15:23:21.445929
2022-11-25 15:23:21.446085
2022-11-25 15:23:21.478915
2022-11-25 15:23:21.479182
2022-11-25 15:23:21.479357
2022-11-25 15:23:21.479517
2022-11-25 15:23:21.512205
2022-11-25 15:23:21.512411
2022-11-25 15:23:21.512548
2022-11-25 15:23:21.545470
2022-11-25 15:23:21.545728
2022-11-25 15:23:21.545898
2022-11-25 15:23:21.546051
2022-11-25 15:23:21.578834
2022-11-25 15:23:21.579106
2022-11-25 15:23:21.579282
2022-11-25 15:23:21.612059
2022-11-25 15:23:21.612261
2022-11-25 15:23:21.612386
2022-11-25 15:23:21.612500
2022-11-25 15:23:21.645421
2022-11-25 15:23:21.645677
2022-11-25 15:23:21.645844
2022-11-25 15:23:21.678655
2022-11-25 15:23:21.678928
2022-11-25 15:23:21.679093
2022-11-25 15:23:21.679248
2022-11-25 15:23:21.712006
2022-11-25 15:23:21.712253
2022-11-25 15:23:21.712374
2022-11-25 15:23:21.745236
2022-11-25 15:23:21.745467
2022-11-25 15:23:21.745596
2022-11-25 15:23:21.745715
2022-11-25 15:23:21.778596
2022-11-25 15:23:21.778850
2022-11-25 15:23:21.779019
2022-11-25 15:23:21.779176
2022-11-25 15:23:21.811931
2022-11-25 15:23:21.812139
2022-11-25 15:23:21.812263
2022-11-25 15:23:21.845183
2022-11-25 15:23:21.845387
2022-11-25 15:23:21.845506
2022-11-25 15:23:21.845623
2022-11-25 15:23:21.878575
2022-11-25 15:23:21.878854
2022-11-25 15:23:21.879029
2022-11-25 15:23:21.911793
2022-11-25 15:23:21.912069
2022-11-25 15:23:21.912244
2022-11-25 15:23:21.912404
2022-11-25 15:23:21.945137
2022-11-25 15:23:21.945391
2022-11-25 15:23:21.945564
2022-11-25 15:23:21.978368
2022-11-25 15:23:21.978634
2022-11-25 15:23:21.978804
2022-11-25 15:23:21.978960
2022-11-25 15:23:22.011753
2022-11-25 15:23:22.012013
2022-11-25 15:23:22.012183
2022-11-25 15:23:22.044928
2022-11-25 15:23:22.045237
2022-11-25 15:23:22.045405
2022-11-25 15:23:22.045561
2022-11-25 15:23:22.078320
2022-11-25 15:23:22.078580
2022-11-25 15:23:22.078751
2022-11-25 15:23:22.078910
2022-11-25 15:23:22.111674
2022-11-25 15:23:22.111948
2022-11-25 15:23:22.112124
2022-11-25 15:23:22.144909
2022-11-25 15:23:22.145170
2022-11-25 15:23:22.145349
2022-11-25 15:23:22.145510
2022-11-25 15:23:22.178278
2022-11-25 15:23:22.178551
2022-11-25 15:23:22.178722
2022-11-25 15:23:22.211494
2022-11-25 15:23:22.211751
2022-11-25 15:23:22.211918
2022-11-25 15:23:22.212080
2022-11-25 15:23:22.244769
2022-11-25 15:23:22.244932
2022-11-25 15:23:22.245028
2022-11-25 15:23:22.278022
2022-11-25 15:23:22.278182
2022-11-25 15:23:22.278278
2022-11-25 15:23:22.278363
2022-11-25 15:23:22.311407
2022-11-25 15:23:22.311680
2022-11-25 15:23:22.311845
2022-11-25 15:23:22.344671
2022-11-25 15:23:22.344980
2022-11-25 15:23:22.345160
2022-11-25 15:23:22.345318
2022-11-25 15:23:22.378052
2022-11-25 15:23:22.378319
2022-11-25 15:23:22.378487
2022-11-25 15:23:22.378646
2022-11-25 15:23:22.411358
2022-11-25 15:23:22.411626
2022-11-25 15:23:22.411801
2022-11-25 15:23:22.444609
2022-11-25 15:23:22.444877
2022-11-25 15:23:22.445053
2022-11-25 15:23:22.445221
2022-11-25 15:23:22.477968
2022-11-25 15:23:22.478226
2022-11-25 15:23:22.478393
2022-11-25 15:23:22.511153
2022-11-25 15:23:22.511359
2022-11-25 15:23:22.511478
2022-11-25 15:23:22.511591
2022-11-25 15:23:22.544499
2022-11-25 15:23:22.544756
2022-11-25 15:23:22.544925
2022-11-25 15:23:22.577764
2022-11-25 15:23:22.578043
2022-11-25 15:23:22.578214
2022-11-25 15:23:22.578373
2022-11-25 15:23:22.611086
2022-11-25 15:23:22.611295
2022-11-25 15:23:22.611420
2022-11-25 15:23:22.644333
2022-11-25 15:23:22.644612
2022-11-25 15:23:22.644781
2022-11-25 15:23:22.644940
2022-11-25 15:23:22.677716
2022-11-25 15:23:22.677993
2022-11-25 15:23:22.678171
2022-11-25 15:23:22.678327
2022-11-25 15:23:22.711044
2022-11-25 15:23:22.711289
2022-11-25 15:23:22.711459
2022-11-25 15:23:22.744286
2022-11-25 15:23:22.744472
2022-11-25 15:23:22.744570
2022-11-25 15:23:22.744659
2022-11-25 15:23:22.777678
2022-11-25 15:23:22.777921
2022-11-25 15:23:22.778087
2022-11-25 15:23:22.810918
2022-11-25 15:23:22.811183
2022-11-25 15:23:22.811355
2022-11-25 15:23:22.811513
2022-11-25 15:23:22.844248
2022-11-25 15:23:22.844518
2022-11-25 15:23:22.844689
2022-11-25 15:23:22.877471
2022-11-25 15:23:22.877748
2022-11-25 15:23:22.877924
2022-11-25 15:23:22.878083
2022-11-25 15:23:22.910798
2022-11-25 15:23:22.911010
2022-11-25 15:23:22.911131
2022-11-25 15:23:22.944039
2022-11-25 15:23:22.944326
2022-11-25 15:23:22.944503
2022-11-25 15:23:22.944670
2022-11-25 15:23:22.977436
2022-11-25 15:23:22.977695
2022-11-25 15:23:22.977862
2022-11-25 15:23:22.978019
2022-11-25 15:23:23.010625
2022-11-25 15:23:23.010787
2022-11-25 15:23:23.010871
2022-11-25 15:23:23.044003
2022-11-25 15:23:23.044257
2022-11-25 15:23:23.044421
2022-11-25 15:23:23.044580
2022-11-25 15:23:23.077333
2022-11-25 15:23:23.077547
2022-11-25 15:23:23.077675
2022-11-25 15:23:23.110598
2022-11-25 15:23:23.110813
2022-11-25 15:23:23.110937
2022-11-25 15:23:23.111051
2022-11-25 15:23:23.143929
2022-11-25 15:23:23.144136
2022-11-25 15:23:23.144259
2022-11-25 15:23:23.177197
2022-11-25 15:23:23.177459
2022-11-25 15:23:23.177628
2022-11-25 15:23:23.177782
2022-11-25 15:23:23.210543
2022-11-25 15:23:23.210763
2022-11-25 15:23:23.210884
2022-11-25 15:23:23.243678
2022-11-25 15:23:23.243863
2022-11-25 15:23:23.243966
2022-11-25 15:23:23.244053
2022-11-25 15:23:23.277052
2022-11-25 15:23:23.277240
2022-11-25 15:23:23.277435
2022-11-25 15:23:23.277554
2022-11-25 15:23:23.310514
2022-11-25 15:23:23.310781
2022-11-25 15:23:23.310951
2022-11-25 15:23:23.343707
2022-11-25 15:23:23.343896
2022-11-25 15:23:23.344016
2022-11-25 15:23:23.344129
2022-11-25 15:23:23.376990
2022-11-25 15:23:23.377204
2022-11-25 15:23:23.377327
2022-11-25 15:23:23.410281
2022-11-25 15:23:23.410486
2022-11-25 15:23:23.410615
2022-11-25 15:23:23.410728
2022-11-25 15:23:23.443669
2022-11-25 15:23:23.443930
2022-11-25 15:23:23.444095
2022-11-25 15:23:23.476887
2022-11-25 15:23:23.477144
2022-11-25 15:23:23.477315
2022-11-25 15:23:23.477475
2022-11-25 15:23:23.510337
2022-11-25 15:23:23.510602
2022-11-25 15:23:23.510769
2022-11-25 15:23:23.543385
2022-11-25 15:23:23.543614
2022-11-25 15:23:23.543739
2022-11-25 15:23:23.543862
2022-11-25 15:23:23.576777
2022-11-25 15:23:23.577024
2022-11-25 15:23:23.577196
2022-11-25 15:23:23.577359
2022-11-25 15:23:23.610191
2022-11-25 15:23:23.610453
2022-11-25 15:23:23.610620
2022-11-25 15:23:23.643375
2022-11-25 15:23:23.643584
2022-11-25 15:23:23.643707
2022-11-25 15:23:23.643820
2022-11-25 15:23:23.676698
2022-11-25 15:23:23.676909
2022-11-25 15:23:23.677034
2022-11-25 15:23:23.710009
2022-11-25 15:23:23.710276
2022-11-25 15:23:23.710440
2022-11-25 15:23:23.710600
2022-11-25 15:23:23.743197
2022-11-25 15:23:23.743353
2022-11-25 15:23:23.743439
2022-11-25 15:23:23.776598
2022-11-25 15:23:23.776851
2022-11-25 15:23:23.777018
2022-11-25 15:23:23.777387
2022-11-25 15:23:23.809882
2022-11-25 15:23:23.810123
2022-11-25 15:23:23.810293
2022-11-25 15:23:23.843176
2022-11-25 15:23:23.843415
2022-11-25 15:23:23.843540
2022-11-25 15:23:23.843656
2022-11-25 15:23:23.876445
2022-11-25 15:23:23.876654
2022-11-25 15:23:23.876777
2022-11-25 15:23:23.876894
2022-11-25 15:23:23.909820
2022-11-25 15:23:23.910025
2022-11-25 15:23:23.910148
2022-11-25 15:23:23.943110
2022-11-25 15:23:23.943378
2022-11-25 15:23:23.943547
2022-11-25 15:23:23.943716
2022-11-25 15:23:23.976388
2022-11-25 15:23:23.976597
2022-11-25 15:23:23.976718
2022-11-25 15:23:24.009700
2022-11-25 15:23:24.009948
2022-11-25 15:23:24.010121
2022-11-25 15:23:24.010274
2022-11-25 15:23:24.042982
2022-11-25 15:23:24.043181
2022-11-25 15:23:24.043300
2022-11-25 15:23:24.076215
2022-11-25 15:23:24.076438
2022-11-25 15:23:24.076564
2022-11-25 15:23:24.076681
2022-11-25 15:23:24.109566
2022-11-25 15:23:24.109782
2022-11-25 15:23:24.109904
2022-11-25 15:23:24.142850
2022-11-25 15:23:24.143126
2022-11-25 15:23:24.143298
2022-11-25 15:23:24.143457
2022-11-25 15:23:24.176311
2022-11-25 15:23:24.176590
2022-11-25 15:23:24.176763
2022-11-25 15:23:24.176921
2022-11-25 15:23:24.209534
2022-11-25 15:23:24.209749
2022-11-25 15:23:24.209872
2022-11-25 15:23:24.242782
2022-11-25 15:23:24.242949
2022-11-25 15:23:24.243042
2022-11-25 15:23:24.243129
2022-11-25 15:23:24.276080
2022-11-25 15:23:24.276274
2022-11-25 15:23:24.276381
2022-11-25 15:23:24.309441
2022-11-25 15:23:24.309723
2022-11-25 15:23:24.309899
2022-11-25 15:23:24.310057
2022-11-25 15:23:24.342773
2022-11-25 15:23:24.343028
2022-11-25 15:23:24.343199
2022-11-25 15:23:24.375991
2022-11-25 15:23:24.376212
2022-11-25 15:23:24.376346
2022-11-25 15:23:24.376463
2022-11-25 15:23:24.409382
2022-11-25 15:23:24.409654
2022-11-25 15:23:24.409829
2022-11-25 15:23:24.442572
2022-11-25 15:23:24.442818
2022-11-25 15:23:24.442944
2022-11-25 15:23:24.443063
2022-11-25 15:23:24.476005
2022-11-25 15:23:24.476221
2022-11-25 15:23:24.476351
2022-11-25 15:23:24.476471
2022-11-25 15:23:24.509375
2022-11-25 15:23:24.509629
2022-11-25 15:23:24.509796
2022-11-25 15:23:24.542565
2022-11-25 15:23:24.542805
2022-11-25 15:23:24.542967
2022-11-25 15:23:24.543122
2022-11-25 15:23:24.575889
2022-11-25 15:23:24.576061
2022-11-25 15:23:24.576154
2022-11-25 15:23:24.609188
2022-11-25 15:23:24.609367
2022-11-25 15:23:24.609460
2022-11-25 15:23:24.609548
2022-11-25 15:23:24.642524
2022-11-25 15:23:24.642729
2022-11-25 15:23:24.642854
2022-11-25 15:23:24.675763
2022-11-25 15:23:24.675930
2022-11-25 15:23:24.676022
2022-11-25 15:23:24.676111
2022-11-25 15:23:24.709039
2022-11-25 15:23:24.709299
2022-11-25 15:23:24.709423
2022-11-25 15:23:24.742171
2022-11-25 15:23:24.742473
2022-11-25 15:23:24.742593
2022-11-25 15:23:24.742680
2022-11-25 15:23:24.775733
2022-11-25 15:23:24.776066
2022-11-25 15:23:24.776246
2022-11-25 15:23:24.776408
2022-11-25 15:23:24.808878
2022-11-25 15:23:24.809176
2022-11-25 15:23:24.809285
2022-11-25 15:23:24.842329
2022-11-25 15:23:24.842685
2022-11-25 15:23:24.842880
2022-11-25 15:23:24.843041
2022-11-25 15:23:24.875696
2022-11-25 15:23:24.876045
2022-11-25 15:23:24.876238
2022-11-25 15:23:24.908840
2022-11-25 15:23:24.909163
2022-11-25 15:23:24.909341
2022-11-25 15:23:24.909464
2022-11-25 15:23:24.942161
2022-11-25 15:23:24.942435
2022-11-25 15:23:24.942603
2022-11-25 15:23:24.975428
2022-11-25 15:23:24.975742
2022-11-25 15:23:24.975987
2022-11-25 15:23:24.976166
2022-11-25 15:23:25.008789
2022-11-25 15:23:25.009052
2022-11-25 15:23:25.009243
2022-11-25 15:23:25.042011
2022-11-25 15:23:25.042232
2022-11-25 15:23:25.042440
2022-11-25 15:23:25.042586
2022-11-25 15:23:25.075414
2022-11-25 15:23:25.075704
2022-11-25 15:23:25.076054
2022-11-25 15:23:25.076250
2022-11-25 15:23:25.108682
2022-11-25 15:23:25.108896
2022-11-25 15:23:25.109068
2022-11-25 15:23:25.141958
2022-11-25 15:23:25.142166
2022-11-25 15:23:25.142294
2022-11-25 15:23:25.142535
2022-11-25 15:23:25.175331
2022-11-25 15:23:25.175547
2022-11-25 15:23:25.175693
2022-11-25 15:23:25.208569
2022-11-25 15:23:25.208794
2022-11-25 15:23:25.208925
2022-11-25 15:23:25.209111
2022-11-25 15:23:25.241777
2022-11-25 15:23:25.241953
2022-11-25 15:23:25.242091
2022-11-25 15:23:25.275162
2022-11-25 15:23:25.275389
2022-11-25 15:23:25.275572
2022-11-25 15:23:25.275833
2022-11-25 15:23:25.308447
2022-11-25 15:23:25.308661
2022-11-25 15:23:25.308785
2022-11-25 15:23:25.341710
2022-11-25 15:23:25.341930
2022-11-25 15:23:25.342053
2022-11-25 15:23:25.342173
2022-11-25 15:23:25.375085
2022-11-25 15:23:25.375297
2022-11-25 15:23:25.375429
2022-11-25 15:23:25.375588
2022-11-25 15:23:25.408427
2022-11-25 15:23:25.408688
2022-11-25 15:23:25.408862
2022-11-25 15:23:25.441646
2022-11-25 15:23:25.441919
2022-11-25 15:23:25.442092
2022-11-25 15:23:25.442258
2022-11-25 15:23:25.475018
2022-11-25 15:23:25.475279
2022-11-25 15:23:25.475451
2022-11-25 15:23:25.508252
2022-11-25 15:23:25.508463
2022-11-25 15:23:25.508594
2022-11-25 15:23:25.508717
2022-11-25 15:23:25.541582
2022-11-25 15:23:25.541753
2022-11-25 15:23:25.541851
2022-11-25 15:23:25.574847
2022-11-25 15:23:25.575069
2022-11-25 15:23:25.575197
2022-11-25 15:23:25.575309
2022-11-25 15:23:25.608207
2022-11-25 15:23:25.608465
2022-11-25 15:23:25.608632
2022-11-25 15:23:25.641401
2022-11-25 15:23:25.641621
2022-11-25 15:23:25.641746
2022-11-25 15:23:25.641862
2022-11-25 15:23:25.674778
2022-11-25 15:23:25.675050
2022-11-25 15:23:25.675219
2022-11-25 15:23:25.675382
2022-11-25 15:23:25.708080
2022-11-25 15:23:25.708257
2022-11-25 15:23:25.708349
2022-11-25 15:23:25.741249
2022-11-25 15:23:25.741431
2022-11-25 15:23:25.741523
2022-11-25 15:23:25.741613
2022-11-25 15:23:25.774697
2022-11-25 15:23:25.774908
2022-11-25 15:23:25.775035
2022-11-25 15:23:25.807897
2022-11-25 15:23:25.808108
2022-11-25 15:23:25.808240
2022-11-25 15:23:25.808358
2022-11-25 15:23:25.841267
2022-11-25 15:23:25.841451
2022-11-25 15:23:25.841549
2022-11-25 15:23:25.874557
2022-11-25 15:23:25.874829
2022-11-25 15:23:25.875009
2022-11-25 15:23:25.875168
2022-11-25 15:23:25.907854
2022-11-25 15:23:25.908135
2022-11-25 15:23:25.908554
2022-11-25 15:23:25.941140
2022-11-25 15:23:25.941378
2022-11-25 15:23:25.941517
2022-11-25 15:23:25.941634
2022-11-25 15:23:25.974478
2022-11-25 15:23:25.974694
2022-11-25 15:23:25.974822
2022-11-25 15:23:25.974940
2022-11-25 15:23:26.007814
2022-11-25 15:23:26.008020
2022-11-25 15:23:26.008142
2022-11-25 15:23:26.041067
2022-11-25 15:23:26.041278
2022-11-25 15:23:26.041402
2022-11-25 15:23:26.041519
2022-11-25 15:23:26.074442
2022-11-25 15:23:26.074711
2022-11-25 15:23:26.074895
2022-11-25 15:23:26.107662
2022-11-25 15:23:26.107873
2022-11-25 15:23:26.107997
2022-11-25 15:23:26.108116
2022-11-25 15:23:26.141004
2022-11-25 15:23:26.141213
2022-11-25 15:23:26.141340
2022-11-25 15:23:26.174290
2022-11-25 15:23:26.174574
2022-11-25 15:23:26.174750
2022-11-25 15:23:26.174917
2022-11-25 15:23:26.207629
2022-11-25 15:23:26.207901
2022-11-25 15:23:26.208077
2022-11-25 15:23:26.240756
2022-11-25 15:23:26.240967
2022-11-25 15:23:26.241093
2022-11-25 15:23:26.241232
2022-11-25 15:23:26.274178
2022-11-25 15:23:26.274398
2022-11-25 15:23:26.274521
2022-11-25 15:23:26.274636
2022-11-25 15:23:26.307538
2022-11-25 15:23:26.307741
2022-11-25 15:23:26.307860
2022-11-25 15:23:26.340836
2022-11-25 15:23:26.341111
2022-11-25 15:23:26.341284
2022-11-25 15:23:26.341442
2022-11-25 15:23:26.374108
2022-11-25 15:23:26.374316
2022-11-25 15:23:26.374444
2022-11-25 15:23:26.407374
2022-11-25 15:23:26.407593
2022-11-25 15:23:26.407721
2022-11-25 15:23:26.407846
2022-11-25 15:23:26.440719
2022-11-25 15:23:26.440925
2022-11-25 15:23:26.441045
2022-11-25 15:23:26.473942
2022-11-25 15:23:26.474115
2022-11-25 15:23:26.474208
2022-11-25 15:23:26.474293
2022-11-25 15:23:26.507283
2022-11-25 15:23:26.507455
2022-11-25 15:23:26.507589
2022-11-25 15:23:26.540545
2022-11-25 15:23:26.540775
2022-11-25 15:23:26.540900
2022-11-25 15:23:26.541015
2022-11-25 15:23:26.573875
2022-11-25 15:23:26.574072
2022-11-25 15:23:26.574189
2022-11-25 15:23:26.574301
2022-11-25 15:23:26.607251
2022-11-25 15:23:26.607468
2022-11-25 15:23:26.607597
2022-11-25 15:23:26.640459
2022-11-25 15:23:26.640664
2022-11-25 15:23:26.640783
2022-11-25 15:23:26.640899
2022-11-25 15:23:26.673834
2022-11-25 15:23:26.674039
2022-11-25 15:23:26.674173
2022-11-25 15:23:26.707056
2022-11-25 15:23:26.707275
2022-11-25 15:23:26.707399
2022-11-25 15:23:26.707525
2022-11-25 15:23:26.740315
2022-11-25 15:23:26.740488
2022-11-25 15:23:26.740582
2022-11-25 15:23:26.773706
2022-11-25 15:23:26.773988
2022-11-25 15:23:26.774173
2022-11-25 15:23:26.774334
2022-11-25 15:23:26.807029
2022-11-25 15:23:26.807230
2022-11-25 15:23:26.807345
2022-11-25 15:23:26.840193
2022-11-25 15:23:26.840420
2022-11-25 15:23:26.840556
2022-11-25 15:23:26.840674
2022-11-25 15:23:26.873644
2022-11-25 15:23:26.873922
2022-11-25 15:23:26.874098
2022-11-25 15:23:26.874261
2022-11-25 15:23:26.906866
2022-11-25 15:23:26.907035
2022-11-25 15:23:26.907127
2022-11-25 15:23:26.940249
2022-11-25 15:23:26.940429
2022-11-25 15:23:26.940522
2022-11-25 15:23:26.940607
2022-11-25 15:23:26.973565
2022-11-25 15:23:26.973783
2022-11-25 15:23:26.973905
2022-11-25 15:23:27.006666
2022-11-25 15:23:27.006879
2022-11-25 15:23:27.007003
2022-11-25 15:23:27.007119
2022-11-25 15:23:27.040179
2022-11-25 15:23:27.040438
2022-11-25 15:23:27.040615
2022-11-25 15:23:27.073346
2022-11-25 15:23:27.073554
2022-11-25 15:23:27.073671
2022-11-25 15:23:27.073783
2022-11-25 15:23:27.106681
2022-11-25 15:23:27.106886
2022-11-25 15:23:27.107016
2022-11-25 15:23:27.139948
2022-11-25 15:23:27.140165
2022-11-25 15:23:27.140298
2022-11-25 15:23:27.140408
2022-11-25 15:23:27.173319
2022-11-25 15:23:27.173542
2022-11-25 15:23:27.173669
2022-11-25 15:23:27.173785
2022-11-25 15:23:27.206656
2022-11-25 15:23:27.206869
2022-11-25 15:23:27.206992
2022-11-25 15:23:27.239881
2022-11-25 15:23:27.240108
2022-11-25 15:23:27.240238
2022-11-25 15:23:27.240377
2022-11-25 15:23:27.273326
2022-11-25 15:23:27.273547
2022-11-25 15:23:27.273676
2022-11-25 15:23:27.306505
2022-11-25 15:23:27.306681
2022-11-25 15:23:27.306778
2022-11-25 15:23:27.306873
2022-11-25 15:23:27.339850
2022-11-25 15:23:27.340066
2022-11-25 15:23:27.340201
2022-11-25 15:23:27.373112
2022-11-25 15:23:27.373374
2022-11-25 15:23:27.373545
2022-11-25 15:23:27.373704
2022-11-25 15:23:27.406419
2022-11-25 15:23:27.406637
2022-11-25 15:23:27.406759
2022-11-25 15:23:27.439662
2022-11-25 15:23:27.439859
2022-11-25 15:23:27.439950
2022-11-25 15:23:27.440039
2022-11-25 15:23:27.473029
2022-11-25 15:23:27.473238
2022-11-25 15:23:27.473354
2022-11-25 15:23:27.473472
2022-11-25 15:23:27.506319
2022-11-25 15:23:27.506484
2022-11-25 15:23:27.506574
2022-11-25 15:23:27.539650
2022-11-25 15:23:27.539912
2022-11-25 15:23:27.540079
2022-11-25 15:23:27.540242
2022-11-25 15:23:27.572949
2022-11-25 15:23:27.573160
2022-11-25 15:23:27.573281
2022-11-25 15:23:27.606207
2022-11-25 15:23:27.606381
2022-11-25 15:23:27.606471
2022-11-25 15:23:27.606560
2022-11-25 15:23:27.639507
2022-11-25 15:23:27.639712
2022-11-25 15:23:27.639836
2022-11-25 15:23:27.672749
2022-11-25 15:23:27.672920
2022-11-25 15:23:27.673012
2022-11-25 15:23:27.673098
2022-11-25 15:23:27.706182
2022-11-25 15:23:27.706445
2022-11-25 15:23:27.706636
2022-11-25 15:23:27.739310
2022-11-25 15:23:27.739544
2022-11-25 15:23:27.739675
2022-11-25 15:23:27.739789
2022-11-25 15:23:27.772630
2022-11-25 15:23:27.772715
2022-11-25 15:23:27.772779
2022-11-25 15:23:27.772842
2022-11-25 15:23:27.805814
2022-11-25 15:23:27.805948
2022-11-25 15:23:27.806024
2022-11-25 15:23:27.839175
2022-11-25 15:23:27.839341
2022-11-25 15:23:27.839437
2022-11-25 15:23:27.839521
2022-11-25 15:23:27.872527
2022-11-25 15:23:27.872699
2022-11-25 15:23:27.872793
2022-11-25 15:23:27.905844
2022-11-25 15:23:27.906054
2022-11-25 15:23:27.906178
2022-11-25 15:23:27.906292
2022-11-25 15:23:27.939131
2022-11-25 15:23:27.939302
2022-11-25 15:23:27.939397
2022-11-25 15:23:27.972377
2022-11-25 15:23:27.972554
2022-11-25 15:23:27.972647
2022-11-25 15:23:27.972736
2022-11-25 15:23:28.005793
2022-11-25 15:23:28.006059
2022-11-25 15:23:28.006233
2022-11-25 15:23:28.038970
2022-11-25 15:23:28.039164
2022-11-25 15:23:28.039418
2022-11-25 15:23:28.039508
2022-11-25 15:23:28.072372
2022-11-25 15:23:28.072593
2022-11-25 15:23:28.072724
2022-11-25 15:23:28.072841
2022-11-25 15:23:28.105705
2022-11-25 15:23:28.105906
2022-11-25 15:23:28.106028
2022-11-25 15:23:28.138919
2022-11-25 15:23:28.139124
2022-11-25 15:23:28.139263
2022-11-25 15:23:28.139380
2022-11-25 15:23:28.172328
2022-11-25 15:23:28.172536
2022-11-25 15:23:28.172660
2022-11-25 15:23:28.205568
2022-11-25 15:23:28.205771
2022-11-25 15:23:28.205894
2022-11-25 15:23:28.206006
2022-11-25 15:23:28.238903
2022-11-25 15:23:28.239110
2022-11-25 15:23:28.239240
2022-11-25 15:23:28.272190
2022-11-25 15:23:28.272407
2022-11-25 15:23:28.272538
2022-11-25 15:23:28.272658
2022-11-25 15:23:28.305407
2022-11-25 15:23:28.305577
2022-11-25 15:23:28.305668
2022-11-25 15:23:28.338713
2022-11-25 15:23:28.338941
2022-11-25 15:23:28.339069
2022-11-25 15:23:28.339183
2022-11-25 15:23:28.372078
2022-11-25 15:23:28.372270
2022-11-25 15:23:28.372393
2022-11-25 15:23:28.372518
2022-11-25 15:23:28.405375
2022-11-25 15:23:28.405560
2022-11-25 15:23:28.405677
2022-11-25 15:23:28.438620
2022-11-25 15:23:28.438828
2022-11-25 15:23:28.438953
2022-11-25 15:23:28.439071
2022-11-25 15:23:28.471937
2022-11-25 15:23:28.472099
2022-11-25 15:23:28.472188
2022-11-25 15:23:28.505238
2022-11-25 15:23:28.505459
2022-11-25 15:23:28.505583
2022-11-25 15:23:28.505701
2022-11-25 15:23:28.538567
2022-11-25 15:23:28.538772
2022-11-25 15:23:28.538900
2022-11-25 15:23:28.571841
2022-11-25 15:23:28.572022
2022-11-25 15:23:28.572114
2022-11-25 15:23:28.572198
2022-11-25 15:23:28.605209
2022-11-25 15:23:28.605420
2022-11-25 15:23:28.605547
2022-11-25 15:23:28.638451
2022-11-25 15:23:28.638662
2022-11-25 15:23:28.638791
2022-11-25 15:23:28.638907
2022-11-25 15:23:28.671811
2022-11-25 15:23:28.672022
2022-11-25 15:23:28.672145
2022-11-25 15:23:28.672268
2022-11-25 15:23:28.705116
2022-11-25 15:23:28.705287
2022-11-25 15:23:28.705377
2022-11-25 15:23:28.738388
2022-11-25 15:23:28.738596
2022-11-25 15:23:28.738721
2022-11-25 15:23:28.738835
2022-11-25 15:23:28.771833
2022-11-25 15:23:28.772098
2022-11-25 15:23:28.772267
2022-11-25 15:23:28.804962
2022-11-25 15:23:28.805134
2022-11-25 15:23:28.805226
2022-11-25 15:23:28.805313
2022-11-25 15:23:28.838343
2022-11-25 15:23:28.838554
2022-11-25 15:23:28.838684
2022-11-25 15:23:28.871646
2022-11-25 15:23:28.871916
2022-11-25 15:23:28.872097
2022-11-25 15:23:28.872259
2022-11-25 15:23:28.904930
2022-11-25 15:23:28.905108
2022-11-25 15:23:28.905206
2022-11-25 15:23:28.938205
2022-11-25 15:23:28.938429
2022-11-25 15:23:28.938557
2022-11-25 15:23:28.938671
2022-11-25 15:23:28.971543
2022-11-25 15:23:28.971754
2022-11-25 15:23:28.971877
2022-11-25 15:23:28.971988
2022-11-25 15:23:29.004889
2022-11-25 15:23:29.005091
2022-11-25 15:23:29.005218
2022-11-25 15:23:29.038131
2022-11-25 15:23:29.038328
2022-11-25 15:23:29.038454
2022-11-25 15:23:29.038571
2022-11-25 15:23:29.071459
2022-11-25 15:23:29.071663
2022-11-25 15:23:29.071796
2022-11-25 15:23:29.104731
2022-11-25 15:23:29.104928
2022-11-25 15:23:29.105047
2022-11-25 15:23:29.105162
2022-11-25 15:23:29.138071
2022-11-25 15:23:29.138285
2022-11-25 15:23:29.138408
2022-11-25 15:23:29.171314
2022-11-25 15:23:29.171526
2022-11-25 15:23:29.171644
2022-11-25 15:23:29.171736
2022-11-25 15:23:29.204653
2022-11-25 15:23:29.204876
2022-11-25 15:23:29.205005
2022-11-25 15:23:29.237827
2022-11-25 15:23:29.238043
2022-11-25 15:23:29.238170
2022-11-25 15:23:29.238333
2022-11-25 15:23:29.271282
2022-11-25 15:23:29.271501
2022-11-25 15:23:29.271623
2022-11-25 15:23:29.271734
2022-11-25 15:23:29.304601
2022-11-25 15:23:29.304764
2022-11-25 15:23:29.304847
2022-11-25 15:23:29.337835
2022-11-25 15:23:29.338006
2022-11-25 15:23:29.338099
2022-11-25 15:23:29.338182
2022-11-25 15:23:29.371169
2022-11-25 15:23:29.371331
2022-11-25 15:23:29.371420
2022-11-25 15:23:29.404439
2022-11-25 15:23:29.404614
2022-11-25 15:23:29.404706
2022-11-25 15:23:29.404791
2022-11-25 15:23:29.437819
2022-11-25 15:23:29.438088
2022-11-25 15:23:29.438255
2022-11-25 15:23:29.471014
2022-11-25 15:23:29.471182
2022-11-25 15:23:29.471275
2022-11-25 15:23:29.471360
2022-11-25 15:23:29.504378
2022-11-25 15:23:29.504641
2022-11-25 15:23:29.504810
2022-11-25 15:23:29.537599
2022-11-25 15:23:29.537824
2022-11-25 15:23:29.537954
2022-11-25 15:23:29.538070
2022-11-25 15:23:29.571002
2022-11-25 15:23:29.571238
2022-11-25 15:23:29.571400
2022-11-25 15:23:29.571578
2022-11-25 15:23:29.604316
2022-11-25 15:23:29.604491
2022-11-25 15:23:29.604581
2022-11-25 15:23:29.637560
2022-11-25 15:23:29.637798
2022-11-25 15:23:29.637962
2022-11-25 15:23:29.638120
2022-11-25 15:23:29.670919
2022-11-25 15:23:29.671175
2022-11-25 15:23:29.671427
2022-11-25 15:23:29.704132
2022-11-25 15:23:29.704335
2022-11-25 15:23:29.704455
2022-11-25 15:23:29.704569
2022-11-25 15:23:29.737515
2022-11-25 15:23:29.737769
2022-11-25 15:23:29.737940
2022-11-25 15:23:29.770748
2022-11-25 15:23:29.770925
2022-11-25 15:23:29.771019
2022-11-25 15:23:29.771108
2022-11-25 15:23:29.804108
2022-11-25 15:23:29.804370
2022-11-25 15:23:29.804540
2022-11-25 15:23:29.837299
2022-11-25 15:23:29.837483
2022-11-25 15:23:29.837578
2022-11-25 15:23:29.837665
2022-11-25 15:23:29.870663
2022-11-25 15:23:29.870918
2022-11-25 15:23:29.871085
2022-11-25 15:23:29.871259
2022-11-25 15:23:29.903981
2022-11-25 15:23:29.904149
2022-11-25 15:23:29.904242
2022-11-25 15:23:29.937271
2022-11-25 15:23:29.937529
2022-11-25 15:23:29.937700
2022-11-25 15:23:29.937856
2022-11-25 15:23:29.970628
2022-11-25 15:23:29.970869
2022-11-25 15:23:29.971034
2022-11-25 15:23:30.003850
2022-11-25 15:23:30.004016
2022-11-25 15:23:30.004108
2022-11-25 15:23:30.004192
2022-11-25 15:23:30.037220
2022-11-25 15:23:30.037478
2022-11-25 15:23:30.037645
2022-11-25 15:23:30.070449
2022-11-25 15:23:30.070621
2022-11-25 15:23:30.070720
2022-11-25 15:23:30.070812
2022-11-25 15:23:30.103807
2022-11-25 15:23:30.104063
2022-11-25 15:23:30.104231
2022-11-25 15:23:30.137021
2022-11-25 15:23:30.137216
2022-11-25 15:23:30.137308
2022-11-25 15:23:30.137407
2022-11-25 15:23:30.170425
2022-11-25 15:23:30.170890
2022-11-25 15:23:30.171061
2022-11-25 15:23:30.171221
2022-11-25 15:23:30.203683
2022-11-25 15:23:30.203844
2022-11-25 15:23:30.203933
2022-11-25 15:23:30.236926
2022-11-25 15:23:30.237183
2022-11-25 15:23:30.237358
2022-11-25 15:23:30.237518
2022-11-25 15:23:30.270359
2022-11-25 15:23:30.270628
2022-11-25 15:23:30.270794
2022-11-25 15:23:30.303584
2022-11-25 15:23:30.303762
2022-11-25 15:23:30.303857
2022-11-25 15:23:30.303948
2022-11-25 15:23:30.336878
2022-11-25 15:23:30.337144
2022-11-25 15:23:30.337310
2022-11-25 15:23:30.370153
2022-11-25 15:23:30.370363
2022-11-25 15:23:30.370481
2022-11-25 15:23:30.370595
2022-11-25 15:23:30.403476
2022-11-25 15:23:30.403727
2022-11-25 15:23:30.403889
2022-11-25 15:23:30.436746
2022-11-25 15:23:30.436943
2022-11-25 15:23:30.437043
2022-11-25 15:23:30.437130
2022-11-25 15:23:30.470109
2022-11-25 15:23:30.470373
2022-11-25 15:23:30.470548
2022-11-25 15:23:30.470711
2022-11-25 15:23:30.503374
2022-11-25 15:23:30.503539
2022-11-25 15:23:30.503629
2022-11-25 15:23:30.536671
2022-11-25 15:23:30.536924
2022-11-25 15:23:30.537087
2022-11-25 15:23:30.537246
2022-11-25 15:23:30.569990
2022-11-25 15:23:30.570151
2022-11-25 15:23:30.570241
2022-11-25 15:23:30.603284
2022-11-25 15:23:30.603550
2022-11-25 15:23:30.603721
2022-11-25 15:23:30.603897
2022-11-25 15:23:30.636614
2022-11-25 15:23:30.636773
2022-11-25 15:23:30.636861
2022-11-25 15:23:30.669848
2022-11-25 15:23:30.670103
2022-11-25 15:23:30.670266
2022-11-25 15:23:30.670423
2022-11-25 15:23:30.703228
2022-11-25 15:23:30.703494
2022-11-25 15:23:30.703668
2022-11-25 15:23:30.736423
2022-11-25 15:23:30.736705
2022-11-25 15:23:30.736874
2022-11-25 15:23:30.737029
2022-11-25 15:23:30.769671
2022-11-25 15:23:30.769824
2022-11-25 15:23:30.769898
2022-11-25 15:23:30.769969
2022-11-25 15:23:30.803094
2022-11-25 15:23:30.803248
2022-11-25 15:23:30.803336
2022-11-25 15:23:30.836348
2022-11-25 15:23:30.836509
2022-11-25 15:23:30.836596
2022-11-25 15:23:30.836680
2022-11-25 15:23:30.869789
2022-11-25 15:23:30.870043
2022-11-25 15:23:30.870214
2022-11-25 15:23:30.902969
2022-11-25 15:23:30.903143
2022-11-25 15:23:30.903237
2022-11-25 15:23:30.903323
2022-11-25 15:23:30.936340
2022-11-25 15:23:30.936611
2022-11-25 15:23:30.936778
2022-11-25 15:23:30.969566
2022-11-25 15:23:30.969737
2022-11-25 15:23:30.969830
2022-11-25 15:23:30.969914
2022-11-25 15:23:31.002912
2022-11-25 15:23:31.003168
2022-11-25 15:23:31.003337
2022-11-25 15:23:31.036193
2022-11-25 15:23:31.036388
2022-11-25 15:23:31.036483
2022-11-25 15:23:31.036566
2022-11-25 15:23:31.069484
2022-11-25 15:23:31.069690
2022-11-25 15:23:31.069808
2022-11-25 15:23:31.069928
2022-11-25 15:23:31.102777
2022-11-25 15:23:31.102944
2022-11-25 15:23:31.103037
2022-11-25 15:23:31.136097
2022-11-25 15:23:31.136366
2022-11-25 15:23:31.136536
2022-11-25 15:23:31.136695
2022-11-25 15:23:31.169389
2022-11-25 15:23:31.169563
2022-11-25 15:23:31.169660
2022-11-25 15:23:31.202676
2022-11-25 15:23:31.202944
2022-11-25 15:23:31.203118
2022-11-25 15:23:31.203281
2022-11-25 15:23:31.236009
2022-11-25 15:23:31.236185
2022-11-25 15:23:31.236278
2022-11-25 15:23:31.269271
2022-11-25 15:23:31.269479
2022-11-25 15:23:31.269602
2022-11-25 15:23:31.269715
2022-11-25 15:23:31.302666
2022-11-25 15:23:31.302856
2022-11-25 15:23:31.302976
2022-11-25 15:23:31.335793
2022-11-25 15:23:31.336100
2022-11-25 15:23:31.336294
2022-11-25 15:23:31.336465
2022-11-25 15:23:31.369307
2022-11-25 15:23:31.369578
2022-11-25 15:23:31.369755
2022-11-25 15:23:31.369918
2022-11-25 15:23:31.402571
2022-11-25 15:23:31.402786
2022-11-25 15:23:31.402917
2022-11-25 15:23:31.435814
2022-11-25 15:23:31.435985
2022-11-25 15:23:31.436077
2022-11-25 15:23:31.436163
2022-11-25 15:23:31.469182
2022-11-25 15:23:31.469492
2022-11-25 15:23:31.469668
2022-11-25 15:23:31.502396
2022-11-25 15:23:31.502564
2022-11-25 15:23:31.502661
2022-11-25 15:23:31.502745
2022-11-25 15:23:31.535779
2022-11-25 15:23:31.536039
2022-11-25 15:23:31.536211
2022-11-25 15:23:31.568991
2022-11-25 15:23:31.569166
2022-11-25 15:23:31.569258
2022-11-25 15:23:31.569343
2022-11-25 15:23:31.602348
2022-11-25 15:23:31.602592
2022-11-25 15:23:31.602754
2022-11-25 15:23:31.635556
2022-11-25 15:23:31.635748
2022-11-25 15:23:31.635847
2022-11-25 15:23:31.635937
2022-11-25 15:23:31.668937
2022-11-25 15:23:31.669189
2022-11-25 15:23:31.669356
2022-11-25 15:23:31.669511
2022-11-25 15:23:31.702279
2022-11-25 15:23:31.702451
2022-11-25 15:23:31.702549
2022-11-25 15:23:31.735533
2022-11-25 15:23:31.735797
2022-11-25 15:23:31.735967
2022-11-25 15:23:31.736130
2022-11-25 15:23:31.768855
2022-11-25 15:23:31.769025
2022-11-25 15:23:31.769116
2022-11-25 15:23:31.802121
2022-11-25 15:23:31.802388
2022-11-25 15:23:31.802558
2022-11-25 15:23:31.802757
2022-11-25 15:23:31.835472
2022-11-25 15:23:31.835669
2022-11-25 15:23:31.835795
2022-11-25 15:23:31.868694
2022-11-25 15:23:31.868867
2022-11-25 15:23:31.868970
2022-11-25 15:23:31.869057
2022-11-25 15:23:31.902036
2022-11-25 15:23:31.902214
2022-11-25 15:23:31.902306
2022-11-25 15:23:31.935269
2022-11-25 15:23:31.935561
2022-11-25 15:23:31.935729
2022-11-25 15:23:31.935890
2022-11-25 15:23:31.968670
2022-11-25 15:23:31.968924
2022-11-25 15:23:31.969102
2022-11-25 15:23:31.969264
2022-11-25 15:23:32.002024
2022-11-25 15:23:32.002273
2022-11-25 15:23:32.002440
2022-11-25 15:23:32.035251
2022-11-25 15:23:32.035462
2022-11-25 15:23:32.035593
2022-11-25 15:23:32.035710
2022-11-25 15:23:32.068597
2022-11-25 15:23:32.068858
2022-11-25 15:23:32.069024
2022-11-25 15:23:32.101852
2022-11-25 15:23:32.102147
2022-11-25 15:23:32.102328
2022-11-25 15:23:32.102604
2022-11-25 15:23:32.135125
2022-11-25 15:23:32.135299
2022-11-25 15:23:32.135391
2022-11-25 15:23:32.168441
2022-11-25 15:23:32.168721
2022-11-25 15:23:32.168893
2022-11-25 15:23:32.169062
2022-11-25 15:23:32.201758
2022-11-25 15:23:32.201973
2022-11-25 15:23:32.202097
2022-11-25 15:23:32.234997
2022-11-25 15:23:32.235297
2022-11-25 15:23:32.235471
2022-11-25 15:23:32.235630
2022-11-25 15:23:32.268302
2022-11-25 15:23:32.268454
2022-11-25 15:23:32.268532
2022-11-25 15:23:32.268608
2022-11-25 15:23:32.301655
2022-11-25 15:23:32.301828
2022-11-25 15:23:32.301919
2022-11-25 15:23:32.334912
2022-11-25 15:23:32.335082
2022-11-25 15:23:32.335173
2022-11-25 15:23:32.335257
2022-11-25 15:23:32.368331
2022-11-25 15:23:32.368589
2022-11-25 15:23:32.368753
2022-11-25 15:23:32.401548
2022-11-25 15:23:32.401810
2022-11-25 15:23:32.401976
2022-11-25 15:23:32.402136
2022-11-25 15:23:32.434802
2022-11-25 15:23:32.435053
2022-11-25 15:23:32.435215
2022-11-25 15:23:32.468123
2022-11-25 15:23:32.468329
2022-11-25 15:23:32.468449
2022-11-25 15:23:32.468572
2022-11-25 15:23:32.501475
2022-11-25 15:23:32.501745
2022-11-25 15:23:32.501912
2022-11-25 15:23:32.534626
2022-11-25 15:23:32.534824
2022-11-25 15:23:32.534920
2022-11-25 15:23:32.535008
2022-11-25 15:23:32.568057
2022-11-25 15:23:32.568331
2022-11-25 15:23:32.568508
2022-11-25 15:23:32.568668
2022-11-25 15:23:32.601426
2022-11-25 15:23:32.601690
2022-11-25 15:23:32.601860
2022-11-25 15:23:32.634649
2022-11-25 15:23:32.634924
2022-11-25 15:23:32.635094
2022-11-25 15:23:32.635261
2022-11-25 15:23:32.668000
2022-11-25 15:23:32.668240
2022-11-25 15:23:32.668402
2022-11-25 15:23:32.701227
2022-11-25 15:23:32.701477
2022-11-25 15:23:32.701650
2022-11-25 15:23:32.701806
2022-11-25 15:23:32.734609
2022-11-25 15:23:32.734876
2022-11-25 15:23:32.735044
2022-11-25 15:23:32.767841
2022-11-25 15:23:32.768020
2022-11-25 15:23:32.768119
2022-11-25 15:23:32.768209
2022-11-25 15:23:32.801174
2022-11-25 15:23:32.801375
2022-11-25 15:23:32.801497
2022-11-25 15:23:32.834379
2022-11-25 15:23:32.834656
2022-11-25 15:23:32.834827
2022-11-25 15:23:32.834981
2022-11-25 15:23:32.867787
2022-11-25 15:23:32.868000
2022-11-25 15:23:32.868123
2022-11-25 15:23:32.868237
2022-11-25 15:23:32.901125
2022-11-25 15:23:32.901392
2022-11-25 15:23:32.901565
2022-11-25 15:23:32.934322
2022-11-25 15:23:32.934495
2022-11-25 15:23:32.934587
2022-11-25 15:23:32.934681
2022-11-25 15:23:32.967679
2022-11-25 15:23:32.968142
2022-11-25 15:23:32.968355
2022-11-25 15:23:33.000838
2022-11-25 15:23:33.001014
2022-11-25 15:23:33.001116
2022-11-25 15:23:33.001202
2022-11-25 15:23:33.034223
2022-11-25 15:23:33.034438
2022-11-25 15:23:33.034563
2022-11-25 15:23:33.067552
2022-11-25 15:23:33.067772
2022-11-25 15:23:33.067896
2022-11-25 15:23:33.068010
2022-11-25 15:23:33.100846
2022-11-25 15:23:33.101093
2022-11-25 15:23:33.101270
2022-11-25 15:23:33.134071
2022-11-25 15:23:33.134270
2022-11-25 15:23:33.134365
2022-11-25 15:23:33.134449
2022-11-25 15:23:33.167450
2022-11-25 15:23:33.167707
2022-11-25 15:23:33.167874
2022-11-25 15:23:33.168041
2022-11-25 15:23:33.200780
2022-11-25 15:23:33.200984
2022-11-25 15:23:33.201107
2022-11-25 15:23:33.234063
2022-11-25 15:23:33.234332
2022-11-25 15:23:33.234506
2022-11-25 15:23:33.234681
2022-11-25 15:23:33.267354
2022-11-25 15:23:33.267528
2022-11-25 15:23:33.267618
2022-11-25 15:23:33.300672
2022-11-25 15:23:33.300937
2022-11-25 15:23:33.301108
2022-11-25 15:23:33.301267
2022-11-25 15:23:33.333943
2022-11-25 15:23:33.334120
2022-11-25 15:23:33.334212
2022-11-25 15:23:33.367224
2022-11-25 15:23:33.367494
2022-11-25 15:23:33.367669
2022-11-25 15:23:33.367844
2022-11-25 15:23:33.400563
2022-11-25 15:23:33.400734
2022-11-25 15:23:33.400827
2022-11-25 15:23:33.433790
2022-11-25 15:23:33.434056
2022-11-25 15:23:33.434227
2022-11-25 15:23:33.434390
2022-11-25 15:23:33.467207
2022-11-25 15:23:33.467467
2022-11-25 15:23:33.467635
2022-11-25 15:23:33.467796
2022-11-25 15:23:33.500524
2022-11-25 15:23:33.500772
2022-11-25 15:23:33.500937
2022-11-25 15:23:33.533707
2022-11-25 15:23:33.533921
2022-11-25 15:23:33.534045
2022-11-25 15:23:33.534162
2022-11-25 15:23:33.567084
2022-11-25 15:23:33.567351
2022-11-25 15:23:33.567522
2022-11-25 15:23:33.600374
2022-11-25 15:23:33.600656
2022-11-25 15:23:33.600836
2022-11-25 15:23:33.600992
2022-11-25 15:23:33.633645
2022-11-25 15:23:33.633913
2022-11-25 15:23:33.634085
2022-11-25 15:23:33.666978
2022-11-25 15:23:33.667262
2022-11-25 15:23:33.667441
2022-11-25 15:23:33.667608
2022-11-25 15:23:33.700289
2022-11-25 15:23:33.700536
2022-11-25 15:23:33.700701
2022-11-25 15:23:33.733514
2022-11-25 15:23:33.733708
2022-11-25 15:23:33.733802
2022-11-25 15:23:33.733892
2022-11-25 15:23:33.766855
2022-11-25 15:23:33.767029
2022-11-25 15:23:33.767125
2022-11-25 15:23:33.767212
2022-11-25 15:23:33.800345
2022-11-25 15:23:33.800611
2022-11-25 15:23:33.800784
2022-11-25 15:23:33.833485
2022-11-25 15:23:33.833754
2022-11-25 15:23:33.833927
2022-11-25 15:23:33.834100
2022-11-25 15:23:33.866815
2022-11-25 15:23:33.867015
2022-11-25 15:23:33.867138
2022-11-25 15:23:33.900097
2022-11-25 15:23:33.900372
2022-11-25 15:23:33.900548
2022-11-25 15:23:33.900721
2022-11-25 15:23:33.933406
2022-11-25 15:23:33.933619
2022-11-25 15:23:33.933747
2022-11-25 15:23:33.966638
2022-11-25 15:23:33.966918
2022-11-25 15:23:33.967104
2022-11-25 15:23:33.967281
2022-11-25 15:23:33.999991
2022-11-25 15:23:34.000154
2022-11-25 15:23:34.000245
2022-11-25 15:23:34.033223
2022-11-25 15:23:34.033525
2022-11-25 15:23:34.033698
2022-11-25 15:23:34.033875
2022-11-25 15:23:34.066568
2022-11-25 15:23:34.066747
2022-11-25 15:23:34.066843
2022-11-25 15:23:34.066928
2022-11-25 15:23:34.099945
2022-11-25 15:23:34.100208
2022-11-25 15:23:34.100392
2022-11-25 15:23:34.133222
2022-11-25 15:23:34.133734
2022-11-25 15:23:34.133948
2022-11-25 15:23:34.134392
2022-11-25 15:23:34.166441
2022-11-25 15:23:34.166655
2022-11-25 15:23:34.166748
2022-11-25 15:23:34.199812
2022-11-25 15:23:34.200094
2022-11-25 15:23:34.200263
2022-11-25 15:23:34.200433
2022-11-25 15:23:34.233090
2022-11-25 15:23:34.233276
2022-11-25 15:23:34.233372
2022-11-25 15:23:34.266331
2022-11-25 15:23:34.266518
2022-11-25 15:23:34.266614
2022-11-25 15:23:34.266698
2022-11-25 15:23:34.299726
2022-11-25 15:23:34.299936
2022-11-25 15:23:34.300059
2022-11-25 15:23:34.332950
2022-11-25 15:23:34.333258
2022-11-25 15:23:34.333431
2022-11-25 15:23:34.333595
2022-11-25 15:23:34.366248
2022-11-25 15:23:34.366431
2022-11-25 15:23:34.366521
2022-11-25 15:23:34.366607
2022-11-25 15:23:34.399640
2022-11-25 15:23:34.399851
2022-11-25 15:23:34.399979
2022-11-25 15:23:34.432920
2022-11-25 15:23:34.433196
2022-11-25 15:23:34.433366
2022-11-25 15:23:34.433531
2022-11-25 15:23:34.466288
2022-11-25 15:23:34.466511
2022-11-25 15:23:34.466641
2022-11-25 15:23:34.499473
2022-11-25 15:23:34.499652
2022-11-25 15:23:34.499747
2022-11-25 15:23:34.499835
2022-11-25 15:23:34.532847
2022-11-25 15:23:34.533117
2022-11-25 15:23:34.533287
2022-11-25 15:23:34.566051
2022-11-25 15:23:34.566271
2022-11-25 15:23:34.566394
2022-11-25 15:23:34.566514
2022-11-25 15:23:34.599446
2022-11-25 15:23:34.599713
2022-11-25 15:23:34.599891
2022-11-25 15:23:34.632606
2022-11-25 15:23:34.632792
2022-11-25 15:23:34.632885
2022-11-25 15:23:34.632973
2022-11-25 15:23:34.666028
2022-11-25 15:23:34.666297
2022-11-25 15:23:34.666469
2022-11-25 15:23:34.666630
2022-11-25 15:23:34.699350
2022-11-25 15:23:34.699524
2022-11-25 15:23:34.699614
2022-11-25 15:23:34.732645
2022-11-25 15:23:34.732917
2022-11-25 15:23:34.733086
2022-11-25 15:23:34.733246
2022-11-25 15:23:34.765930
2022-11-25 15:23:34.766110
2022-11-25 15:23:34.766205
2022-11-25 15:23:34.799257
2022-11-25 15:23:34.799525
2022-11-25 15:23:34.799700
2022-11-25 15:23:34.799865
2022-11-25 15:23:34.832412
2022-11-25 15:23:34.832588
2022-11-25 15:23:34.832697
2022-11-25 15:23:34.865461
2022-11-25 15:23:34.865534
2022-11-25 15:23:34.865605
2022-11-25 15:23:34.865719
2022-11-25 15:23:34.898956
2022-11-25 15:23:34.899185
2022-11-25 15:23:34.899356
2022-11-25 15:23:34.932322
2022-11-25 15:23:34.932607
2022-11-25 15:23:34.932775
2022-11-25 15:23:34.932932
2022-11-25 15:23:34.965596
2022-11-25 15:23:34.965766
2022-11-25 15:23:34.965858
2022-11-25 15:23:34.965944
2022-11-25 15:23:34.999221
2022-11-25 15:23:34.999543
2022-11-25 15:23:34.999717
2022-11-25 15:23:35.032112
2022-11-25 15:23:35.032275
2022-11-25 15:23:35.032367
2022-11-25 15:23:35.032457
2022-11-25 15:23:35.065834
2022-11-25 15:23:35.066193
2022-11-25 15:23:35.066368
2022-11-25 15:23:35.098747
2022-11-25 15:23:35.099004
2022-11-25 15:23:35.099175
2022-11-25 15:23:35.099337
2022-11-25 15:23:35.132427
2022-11-25 15:23:35.132783
2022-11-25 15:23:35.132962
2022-11-25 15:23:35.165322
2022-11-25 15:23:35.165487
2022-11-25 15:23:35.165583
2022-11-25 15:23:35.165672
2022-11-25 15:23:35.199009
2022-11-25 15:23:35.199369
2022-11-25 15:23:35.199548
2022-11-25 15:23:35.231924
2022-11-25 15:23:35.232104
2022-11-25 15:23:35.232197
2022-11-25 15:23:35.232281
2022-11-25 15:23:35.265578
2022-11-25 15:23:35.265837
2022-11-25 15:23:35.265930
2022-11-25 15:23:35.266026
2022-11-25 15:23:35.298684
2022-11-25 15:23:35.298943
2022-11-25 15:23:35.299115
2022-11-25 15:23:35.331860
2022-11-25 15:23:35.332021
2022-11-25 15:23:35.332116
2022-11-25 15:23:35.332200
2022-11-25 15:23:35.365555
2022-11-25 15:23:35.365915
2022-11-25 15:23:35.366093
2022-11-25 15:23:35.398565
2022-11-25 15:23:35.398927
2022-11-25 15:23:35.399187
2022-11-25 15:23:35.399411
2022-11-25 15:23:35.431600
2022-11-25 15:23:35.431687
2022-11-25 15:23:35.431738
2022-11-25 15:23:35.464940
2022-11-25 15:23:35.465079
2022-11-25 15:23:35.465197
2022-11-25 15:23:35.465268
2022-11-25 15:23:35.498430
2022-11-25 15:23:35.498657
2022-11-25 15:23:35.498744
2022-11-25 15:23:35.531776
2022-11-25 15:23:35.532027
2022-11-25 15:23:35.532206
2022-11-25 15:23:35.532363
2022-11-25 15:23:35.565055
2022-11-25 15:23:35.565312
2022-11-25 15:23:35.565483
2022-11-25 15:23:35.565641
2022-11-25 15:23:35.598382
2022-11-25 15:23:35.598619
2022-11-25 15:23:35.598782
2022-11-25 15:23:35.631719
2022-11-25 15:23:35.632007
2022-11-25 15:23:35.632182
2022-11-25 15:23:35.632337
2022-11-25 15:23:35.664967
2022-11-25 15:23:35.665181
2022-11-25 15:23:35.665335
2022-11-25 15:23:35.698169
2022-11-25 15:23:35.698374
2022-11-25 15:23:35.698524
2022-11-25 15:23:35.698671
2022-11-25 15:23:35.731685
2022-11-25 15:23:35.731956
2022-11-25 15:23:35.732107
2022-11-25 15:23:35.764757
2022-11-25 15:23:35.765011
2022-11-25 15:23:35.765170
2022-11-25 15:23:35.765322
2022-11-25 15:23:35.798198
2022-11-25 15:23:35.798431
2022-11-25 15:23:35.798587
2022-11-25 15:23:35.831264
2022-11-25 15:23:35.831467
2022-11-25 15:23:35.831620
2022-11-25 15:23:35.831764
2022-11-25 15:23:35.864707
2022-11-25 15:23:35.864940
2022-11-25 15:23:35.865087
2022-11-25 15:23:35.865237
2022-11-25 15:23:35.898124
2022-11-25 15:23:35.898388
2022-11-25 15:23:35.898540
2022-11-25 15:23:36.570403
2022-11-25 15:23:36.570550
2022-11-25 15:23:36.570627
2022-11-25 15:23:36.570773
2022-11-25 15:23:36.570883
2022-11-25 15:23:36.571056
2022-11-25 15:23:36.571135
2022-11-25 15:23:36.571203
2022-11-25 15:23:36.571269
2022-11-25 15:23:36.571336
2022-11-25 15:23:36.571408
2022-11-25 15:23:36.571498
2022-11-25 15:23:36.571591
2022-11-25 15:23:36.571664
2022-11-25 15:23:36.571742
2022-11-25 15:23:36.571808
2022-11-25 15:23:36.571909
2022-11-25 15:23:36.572054
2022-11-25 15:23:36.572197
2022-11-25 15:23:36.572339
2022-11-25 15:23:36.572481
2022-11-25 15:23:36.572624
2022-11-25 15:23:36.572761
2022-11-25 15:23:36.573490
2022-11-25 15:23:36.573606
2022-11-25 15:23:36.573682
2022-11-25 15:23:36.573753
2022-11-25 15:23:36.573822
2022-11-25 15:23:36.573891
2022-11-25 15:23:36.573959
2022-11-25 15:23:36.574026
2022-11-25 15:23:36.574094
2022-11-25 15:23:36.574162
2022-11-25 15:23:36.574230
2022-11-25 15:23:36.575055
2022-11-25 15:23:36.575252
2022-11-25 15:23:36.575526
2022-11-25 15:23:36.575792
2022-11-25 15:23:36.578605
2022-11-25 15:23:36.578879
2022-11-25 15:23:36.578967
2022-11-25 15:23:36.579041
2022-11-25 15:23:36.579112
2022-11-25 15:23:36.579184
2022-11-25 15:23:36.579251
2022-11-25 15:23:36.579320
2022-11-25 15:23:36.579488
2022-11-25 15:23:36.579568
2022-11-25 15:23:36.579638
2022-11-25 15:23:36.579707
2022-11-25 15:23:36.579777
2022-11-25 15:23:36.579913
2022-11-25 15:23:36.580006
2022-11-25 15:23:36.580078
2022-11-25 15:23:36.580642
2022-11-25 15:23:36.580885
2022-11-25 15:23:36.581016
2022-11-25 15:23:36.581081
2022-11-25 15:23:36.581138
2022-11-25 15:23:36.581194
2022-11-25 15:23:36.581267
2022-11-25 15:23:36.581355
2022-11-25 15:23:36.581414
2022-11-25 15:23:36.581472
2022-11-25 15:23:36.581528
2022-11-25 15:23:36.581665
2022-11-25 15:23:36.581729
2022-11-25 15:23:36.581903
2022-11-25 15:23:36.581965
2022-11-25 15:23:36.582022
2022-11-25 15:23:36.582080
2022-11-25 15:23:36.597397
2022-11-25 15:23:36.597598
2022-11-25 15:23:36.597876
2022-11-25 15:23:36.597991
2022-11-25 15:23:36.630701
2022-11-25 15:23:36.630891
2022-11-25 15:23:36.630981
2022-11-25 15:23:36.663965
2022-11-25 15:23:36.664171
2022-11-25 15:23:36.664280
2022-11-25 15:23:36.664372
2022-11-25 15:23:36.697202
2022-11-25 15:23:36.697370
2022-11-25 15:23:36.697449
2022-11-25 15:23:36.730445
2022-11-25 15:23:36.730701
2022-11-25 15:23:36.730988
2022-11-25 15:23:36.731139
2022-11-25 15:23:36.764164
2022-11-25 15:23:36.764514
2022-11-25 15:23:36.764691
2022-11-25 15:23:36.764880
2022-11-25 15:23:36.797339
2022-11-25 15:23:36.797627
2022-11-25 15:23:36.797795
2022-11-25 15:23:36.830715
2022-11-25 15:23:36.831043
2022-11-25 15:23:36.831224
2022-11-25 15:23:36.831386
2022-11-25 15:23:36.864123
2022-11-25 15:23:36.864460
2022-11-25 15:23:36.864695
2022-11-25 15:23:36.897266
2022-11-25 15:23:36.897626
2022-11-25 15:23:36.897799
2022-11-25 15:23:36.897961
2022-11-25 15:23:36.930661
2022-11-25 15:23:36.931007
2022-11-25 15:23:36.931181
2022-11-25 15:23:36.963642
2022-11-25 15:23:36.963906
2022-11-25 15:23:36.964069
2022-11-25 15:23:36.964226
2022-11-25 15:23:36.997013
2022-11-25 15:23:36.997250
2022-11-25 15:23:36.997408
2022-11-25 15:23:37.030446
2022-11-25 15:23:37.030818
2022-11-25 15:23:37.030993
2022-11-25 15:23:37.031151
2022-11-25 15:23:37.063852
2022-11-25 15:23:37.064212
2022-11-25 15:23:37.064392
2022-11-25 15:23:37.064555
2022-11-25 15:23:37.097170
2022-11-25 15:23:37.097522
2022-11-25 15:23:37.097699
2022-11-25 15:23:37.130443
2022-11-25 15:23:37.130782
2022-11-25 15:23:37.130949
2022-11-25 15:23:37.131116
2022-11-25 15:23:37.163819
2022-11-25 15:23:37.164176
2022-11-25 15:23:37.164352
2022-11-25 15:23:37.196962
2022-11-25 15:23:37.197272
2022-11-25 15:23:37.197496
2022-11-25 15:23:37.197608
2022-11-25 15:23:37.230391
2022-11-25 15:23:37.230744
2022-11-25 15:23:37.230923
2022-11-25 15:23:37.263597
2022-11-25 15:23:37.263951
2022-11-25 15:23:37.264128
2022-11-25 15:23:37.264290
2022-11-25 15:23:37.296938
2022-11-25 15:23:37.297255
2022-11-25 15:23:37.297426
2022-11-25 15:23:37.330099
2022-11-25 15:23:37.330460
2022-11-25 15:23:37.330639
2022-11-25 15:23:37.330802
2022-11-25 15:23:37.363546
2022-11-25 15:23:37.363880
2022-11-25 15:23:37.364047
2022-11-25 15:23:37.364207
2022-11-25 15:23:37.396912
2022-11-25 15:23:37.397265
2022-11-25 15:23:37.397448
2022-11-25 15:23:37.429943
2022-11-25 15:23:37.430189
2022-11-25 15:23:37.430424
2022-11-25 15:23:37.430535
2022-11-25 15:23:37.463435
2022-11-25 15:23:37.464047
2022-11-25 15:23:37.464153
2022-11-25 15:23:37.496772
2022-11-25 15:23:37.497049
2022-11-25 15:23:37.497172
2022-11-25 15:23:37.497246
2022-11-25 15:23:37.529994
2022-11-25 15:23:37.530303
2022-11-25 15:23:37.530498
2022-11-25 15:23:37.563334
2022-11-25 15:23:37.563658
2022-11-25 15:23:37.563816
2022-11-25 15:23:37.563919
2022-11-25 15:23:37.596350
2022-11-25 15:23:37.596763
2022-11-25 15:23:37.596969
2022-11-25 15:23:37.629875
2022-11-25 15:23:37.630284
2022-11-25 15:23:37.630466
2022-11-25 15:23:37.630631
2022-11-25 15:23:37.663119
2022-11-25 15:23:37.663399
2022-11-25 15:23:37.663568
2022-11-25 15:23:37.663727
2022-11-25 15:23:37.696472
2022-11-25 15:23:37.696749
2022-11-25 15:23:37.696909
2022-11-25 15:23:37.729853
2022-11-25 15:23:37.730204
2022-11-25 15:23:37.730413
2022-11-25 15:23:37.730651
2022-11-25 15:23:37.763244
2022-11-25 15:23:37.763587
2022-11-25 15:23:37.763816
2022-11-25 15:23:37.796425
2022-11-25 15:23:37.796744
2022-11-25 15:23:37.796918
2022-11-25 15:23:37.797075
2022-11-25 15:23:37.829792
2022-11-25 15:23:37.830157
2022-11-25 15:23:37.830338
2022-11-25 15:23:37.863048
2022-11-25 15:23:37.863407
2022-11-25 15:23:37.863583
2022-11-25 15:23:37.863747
2022-11-25 15:23:37.896474
2022-11-25 15:23:37.896844
2022-11-25 15:23:37.897029
2022-11-25 15:23:37.929554
2022-11-25 15:23:37.929924
2022-11-25 15:23:37.930114
2022-11-25 15:23:37.930275
2022-11-25 15:23:37.962879
2022-11-25 15:23:37.963224
2022-11-25 15:23:37.963409
2022-11-25 15:23:37.963572
2022-11-25 15:23:37.996323
2022-11-25 15:23:37.996659
2022-11-25 15:23:37.996827
2022-11-25 15:23:38.029541
2022-11-25 15:23:38.029870
2022-11-25 15:23:38.030047
2022-11-25 15:23:38.030218
2022-11-25 15:23:38.062806
2022-11-25 15:23:38.063201
2022-11-25 15:23:38.063379
2022-11-25 15:23:38.096162
2022-11-25 15:23:38.096521
2022-11-25 15:23:38.096702
2022-11-25 15:23:38.096866
2022-11-25 15:23:38.129515
2022-11-25 15:23:38.129876
2022-11-25 15:23:38.130059
2022-11-25 15:23:38.162724
2022-11-25 15:23:38.163089
2022-11-25 15:23:38.163271
2022-11-25 15:23:38.163434
2022-11-25 15:23:38.196110
2022-11-25 15:23:38.196461
2022-11-25 15:23:38.196667
2022-11-25 15:23:38.229347
2022-11-25 15:23:38.229728
2022-11-25 15:23:38.229912
2022-11-25 15:23:38.230074
2022-11-25 15:23:38.262665
2022-11-25 15:23:38.262997
2022-11-25 15:23:38.263173
2022-11-25 15:23:38.263335
2022-11-25 15:23:38.296016
2022-11-25 15:23:38.296350
2022-11-25 15:23:38.296522
2022-11-25 15:23:38.329266
2022-11-25 15:23:38.329602
2022-11-25 15:23:38.329777
2022-11-25 15:23:38.329938
2022-11-25 15:23:38.362647
2022-11-25 15:23:38.362996
2022-11-25 15:23:38.363172
2022-11-25 15:23:38.395851
2022-11-25 15:23:38.396187
2022-11-25 15:23:38.396359
2022-11-25 15:23:38.396521
2022-11-25 15:23:38.429226
2022-11-25 15:23:38.429565
2022-11-25 15:23:38.429736
2022-11-25 15:23:38.462478
2022-11-25 15:23:38.462824
2022-11-25 15:23:38.463000
2022-11-25 15:23:38.463167
2022-11-25 15:23:38.495820
2022-11-25 15:23:38.496159
2022-11-25 15:23:38.496338
2022-11-25 15:23:38.529014
2022-11-25 15:23:38.529407
2022-11-25 15:23:38.529594
2022-11-25 15:23:38.529758
2022-11-25 15:23:38.562453
2022-11-25 15:23:38.562815
2022-11-25 15:23:38.562996
2022-11-25 15:23:38.563154
2022-11-25 15:23:38.595741
2022-11-25 15:23:38.596090
2022-11-25 15:23:38.596272
2022-11-25 15:23:38.628936
2022-11-25 15:23:38.629496
2022-11-25 15:23:38.629725
2022-11-25 15:23:38.629889
2022-11-25 15:23:38.662323
2022-11-25 15:23:38.662653
2022-11-25 15:23:38.663043
2022-11-25 15:23:38.695508
2022-11-25 15:23:38.695767
2022-11-25 15:23:38.695895
2022-11-25 15:23:38.696009
2022-11-25 15:23:38.728807
2022-11-25 15:23:38.729125
2022-11-25 15:23:38.729304
2022-11-25 15:23:38.762118
2022-11-25 15:23:38.762467
2022-11-25 15:23:38.762659
2022-11-25 15:23:38.762825
2022-11-25 15:23:38.795522
2022-11-25 15:23:38.795881
2022-11-25 15:23:38.796058
2022-11-25 15:23:38.828717
2022-11-25 15:23:38.829127
2022-11-25 15:23:38.829315
2022-11-25 15:23:38.829480
2022-11-25 15:23:38.862042
2022-11-25 15:23:38.862396
2022-11-25 15:23:38.862583
2022-11-25 15:23:38.862748
2022-11-25 15:23:38.895457
2022-11-25 15:23:38.895809
2022-11-25 15:23:38.895985
2022-11-25 15:23:38.928614
2022-11-25 15:23:38.928964
2022-11-25 15:23:38.929158
2022-11-25 15:23:38.929319
2022-11-25 15:23:38.962116
2022-11-25 15:23:38.962426
2022-11-25 15:23:38.962600
2022-11-25 15:23:38.995122
2022-11-25 15:23:38.995404
2022-11-25 15:23:38.995572
2022-11-25 15:23:38.995727
2022-11-25 15:23:39.028643
2022-11-25 15:23:39.028996
2022-11-25 15:23:39.029176
2022-11-25 15:23:39.061786
2022-11-25 15:23:39.062140
2022-11-25 15:23:39.062320
2022-11-25 15:23:39.062482
2022-11-25 15:23:39.095174
2022-11-25 15:23:39.095533
2022-11-25 15:23:39.095709
2022-11-25 15:23:39.128439
2022-11-25 15:23:39.128797
2022-11-25 15:23:39.128981
2022-11-25 15:23:39.129148
2022-11-25 15:23:39.161683
2022-11-25 15:23:39.162018
2022-11-25 15:23:39.162197
2022-11-25 15:23:39.162363
2022-11-25 15:23:39.195118
2022-11-25 15:23:39.195638
2022-11-25 15:23:39.195957
2022-11-25 15:23:39.228349
2022-11-25 15:23:39.228678
2022-11-25 15:23:39.228964
2022-11-25 15:23:39.229131
2022-11-25 15:23:39.261729
2022-11-25 15:23:39.262092
2022-11-25 15:23:39.262272
2022-11-25 15:23:39.294998
2022-11-25 15:23:39.295366
2022-11-25 15:23:39.295546
2022-11-25 15:23:39.295709
2022-11-25 15:23:39.328342
2022-11-25 15:23:39.328699
2022-11-25 15:23:39.328875
2022-11-25 15:23:39.361571
2022-11-25 15:23:39.361914
2022-11-25 15:23:39.362084
2022-11-25 15:23:39.362247
2022-11-25 15:23:39.394890
2022-11-25 15:23:39.395238
2022-11-25 15:23:39.395412
2022-11-25 15:23:39.428140
2022-11-25 15:23:39.428526
2022-11-25 15:23:39.428702
2022-11-25 15:23:39.428865
2022-11-25 15:23:39.461517
2022-11-25 15:23:39.461858
2022-11-25 15:23:39.462030
2022-11-25 15:23:39.462193
2022-11-25 15:23:39.494891
2022-11-25 15:23:39.495232
2022-11-25 15:23:39.495406
2022-11-25 15:23:39.528089
2022-11-25 15:23:39.528423
2022-11-25 15:23:39.528604
2022-11-25 15:23:39.528764
2022-11-25 15:23:39.561465
2022-11-25 15:23:39.561803
2022-11-25 15:23:39.561975
2022-11-25 15:23:39.594672
2022-11-25 15:23:39.595016
2022-11-25 15:23:39.595183
2022-11-25 15:23:39.595343
2022-11-25 15:23:39.628091
2022-11-25 15:23:39.628427
2022-11-25 15:23:39.628600
2022-11-25 15:23:39.661223
2022-11-25 15:23:39.661556
2022-11-25 15:23:39.661730
2022-11-25 15:23:39.661888
2022-11-25 15:23:39.694602
2022-11-25 15:23:39.694957
2022-11-25 15:23:39.695140
2022-11-25 15:23:39.727661
2022-11-25 15:23:39.727952
2022-11-25 15:23:39.728122
2022-11-25 15:23:39.728278
2022-11-25 15:23:39.761003
2022-11-25 15:23:39.761260
2022-11-25 15:23:39.761432
2022-11-25 15:23:39.761591
2022-11-25 15:23:39.794582
2022-11-25 15:23:39.794919
2022-11-25 15:23:39.795096
2022-11-25 15:23:39.827737
2022-11-25 15:23:39.828061
2022-11-25 15:23:39.828235
2022-11-25 15:23:39.828393
2022-11-25 15:23:39.861180
2022-11-25 15:23:39.861517
2022-11-25 15:23:39.861699
2022-11-25 15:23:39.894378
2022-11-25 15:23:39.894718
2022-11-25 15:23:39.894917
2022-11-25 15:23:39.895079
2022-11-25 15:23:39.927782
2022-11-25 15:23:39.928144
2022-11-25 15:23:39.928324
2022-11-25 15:23:39.960970
2022-11-25 15:23:39.961316
2022-11-25 15:23:39.961491
2022-11-25 15:23:39.961653
2022-11-25 15:23:39.994300
2022-11-25 15:23:39.994648
2022-11-25 15:23:39.994824
2022-11-25 15:23:40.027495
2022-11-25 15:23:40.027810
2022-11-25 15:23:40.027934
2022-11-25 15:23:40.028047
2022-11-25 15:23:40.060979
2022-11-25 15:23:40.061339
2022-11-25 15:23:40.061512
2022-11-25 15:23:40.061678
2022-11-25 15:23:40.094245
2022-11-25 15:23:40.094583
2022-11-25 15:23:40.094754
2022-11-25 15:23:40.127459
2022-11-25 15:23:40.127778
2022-11-25 15:23:40.127951
2022-11-25 15:23:40.128109
2022-11-25 15:23:40.160737
2022-11-25 15:23:40.161058
2022-11-25 15:23:40.161223
2022-11-25 15:23:40.194071
2022-11-25 15:23:40.194401
2022-11-25 15:23:40.194574
2022-11-25 15:23:40.194739
2022-11-25 15:23:40.227430
2022-11-25 15:23:40.227735
2022-11-25 15:23:40.227911
2022-11-25 15:23:40.260657
2022-11-25 15:23:40.261050
2022-11-25 15:23:40.261237
2022-11-25 15:23:40.261399
2022-11-25 15:23:40.293972
2022-11-25 15:23:40.294268
2022-11-25 15:23:40.294439
2022-11-25 15:23:40.327217
2022-11-25 15:23:40.327597
2022-11-25 15:23:40.327778
2022-11-25 15:23:40.327933
2022-11-25 15:23:40.360578
2022-11-25 15:23:40.360911
2022-11-25 15:23:40.361081
2022-11-25 15:23:40.361238
2022-11-25 15:23:40.393948
2022-11-25 15:23:40.394284
2022-11-25 15:23:40.394455
2022-11-25 15:23:40.427196
2022-11-25 15:23:40.427616
2022-11-25 15:23:40.427834
2022-11-25 15:23:40.427993
2022-11-25 15:23:40.460558
2022-11-25 15:23:40.460896
2022-11-25 15:23:40.461066
2022-11-25 15:23:40.493765
2022-11-25 15:23:40.494106
2022-11-25 15:23:40.494280
2022-11-25 15:23:40.494439
2022-11-25 15:23:40.527170
2022-11-25 15:23:40.527523
2022-11-25 15:23:40.527693
2022-11-25 15:23:40.560359
2022-11-25 15:23:40.560699
2022-11-25 15:23:40.560868
2022-11-25 15:23:40.561028
2022-11-25 15:23:40.593778
2022-11-25 15:23:40.594118
2022-11-25 15:23:40.594293
2022-11-25 15:23:40.626873
2022-11-25 15:23:40.627214
2022-11-25 15:23:40.627498
2022-11-25 15:23:40.627773
2022-11-25 15:23:40.660341
2022-11-25 15:23:40.660669
2022-11-25 15:23:40.660839
2022-11-25 15:23:40.660999
2022-11-25 15:23:40.693676
2022-11-25 15:23:40.694020
2022-11-25 15:23:40.694195
2022-11-25 15:23:40.726917
2022-11-25 15:23:40.727239
2022-11-25 15:23:40.727417
2022-11-25 15:23:40.727574
2022-11-25 15:23:40.760167
2022-11-25 15:23:40.760465
2022-11-25 15:23:40.760629
2022-11-25 15:23:40.793320
2022-11-25 15:23:40.793564
2022-11-25 15:23:40.793885
2022-11-25 15:23:40.794045
2022-11-25 15:23:40.826640
2022-11-25 15:23:40.826888
2022-11-25 15:23:40.827059
2022-11-25 15:23:40.860025
2022-11-25 15:23:40.860359
2022-11-25 15:23:40.860545
2022-11-25 15:23:40.860704
2022-11-25 15:23:40.893412
2022-11-25 15:23:40.893740
2022-11-25 15:23:40.893903
2022-11-25 15:23:40.926617
2022-11-25 15:23:40.927008
2022-11-25 15:23:40.927185
2022-11-25 15:23:40.927349
2022-11-25 15:23:40.959871
2022-11-25 15:23:40.960146
2022-11-25 15:23:40.960318
2022-11-25 15:23:40.960477
2022-11-25 15:23:40.993199
2022-11-25 15:23:40.993431
2022-11-25 15:23:40.993601
2022-11-25 15:23:41.026624
2022-11-25 15:23:41.026967
2022-11-25 15:23:41.027145
2022-11-25 15:23:41.027310
2022-11-25 15:23:41.059954
2022-11-25 15:23:41.060283
2022-11-25 15:23:41.060448
2022-11-25 15:23:41.093166
2022-11-25 15:23:41.093502
2022-11-25 15:23:41.093684
2022-11-25 15:23:41.093846
2022-11-25 15:23:41.126578
2022-11-25 15:23:41.126908
2022-11-25 15:23:41.127075
2022-11-25 15:23:41.159811
2022-11-25 15:23:41.160149
2022-11-25 15:23:41.160320
2022-11-25 15:23:41.160486
2022-11-25 15:23:41.193085
2022-11-25 15:23:41.193399
2022-11-25 15:23:41.193576
2022-11-25 15:23:41.226390
2022-11-25 15:23:41.226779
2022-11-25 15:23:41.226961
2022-11-25 15:23:41.227122
2022-11-25 15:23:41.259733
2022-11-25 15:23:41.260067
2022-11-25 15:23:41.260241
2022-11-25 15:23:41.260477
2022-11-25 15:23:41.293051
2022-11-25 15:23:41.293353
2022-11-25 15:23:41.293520
2022-11-25 15:23:41.326285
2022-11-25 15:23:41.326602
2022-11-25 15:23:41.326775
2022-11-25 15:23:41.326938
2022-11-25 15:23:41.359700
2022-11-25 15:23:41.360018
2022-11-25 15:23:41.360189
2022-11-25 15:23:41.392883
2022-11-25 15:23:41.393215
2022-11-25 15:23:41.393406
2022-11-25 15:23:41.393565
2022-11-25 15:23:41.426244
2022-11-25 15:23:41.426579
2022-11-25 15:23:41.426748
2022-11-25 15:23:41.459478
2022-11-25 15:23:41.459824
2022-11-25 15:23:41.460020
2022-11-25 15:23:41.460184
2022-11-25 15:23:41.492842
2022-11-25 15:23:41.493166
2022-11-25 15:23:41.493336
2022-11-25 15:23:41.526030
2022-11-25 15:23:41.526399
2022-11-25 15:23:41.526577
2022-11-25 15:23:41.526739
2022-11-25 15:23:41.559459
2022-11-25 15:23:41.559788
2022-11-25 15:23:41.559966
2022-11-25 15:23:41.560130
2022-11-25 15:23:41.592830
2022-11-25 15:23:41.593180
2022-11-25 15:23:41.593354
2022-11-25 15:23:41.626010
2022-11-25 15:23:41.626327
2022-11-25 15:23:41.626497
2022-11-25 15:23:41.626657
2022-11-25 15:23:41.659401
2022-11-25 15:23:41.659881
2022-11-25 15:23:41.660120
2022-11-25 15:23:41.692655
2022-11-25 15:23:41.693002
2022-11-25 15:23:41.693179
2022-11-25 15:23:41.693347
2022-11-25 15:23:41.725993
2022-11-25 15:23:41.726327
2022-11-25 15:23:41.726509
2022-11-25 15:23:41.759205
2022-11-25 15:23:41.759487
2022-11-25 15:23:41.759643
2022-11-25 15:23:41.759769
2022-11-25 15:23:41.792492
2022-11-25 15:23:41.792775
2022-11-25 15:23:41.792905
2022-11-25 15:23:41.825695
2022-11-25 15:23:41.826045
2022-11-25 15:23:41.826189
2022-11-25 15:23:41.826309
2022-11-25 15:23:41.859122
2022-11-25 15:23:41.859374
2022-11-25 15:23:41.859508
2022-11-25 15:23:41.859631
2022-11-25 15:23:41.892602
2022-11-25 15:23:41.893011
2022-11-25 15:23:41.893237
2022-11-25 15:23:41.925772
2022-11-25 15:23:41.926114
2022-11-25 15:23:41.926296
2022-11-25 15:23:41.926459
2022-11-25 15:23:41.959123
2022-11-25 15:23:41.959461
2022-11-25 15:23:41.959647
2022-11-25 15:23:41.992368
2022-11-25 15:23:41.992691
2022-11-25 15:23:41.992834
2022-11-25 15:23:41.992952
2022-11-25 15:23:42.025736
2022-11-25 15:23:42.026210
2022-11-25 15:23:42.026434
2022-11-25 15:23:42.058980
2022-11-25 15:23:42.059482
2022-11-25 15:23:42.059676
2022-11-25 15:23:42.059874
2022-11-25 15:23:42.092288
2022-11-25 15:23:42.092809
2022-11-25 15:23:42.092995
2022-11-25 15:23:42.125445
2022-11-25 15:23:42.125898
2022-11-25 15:23:42.126161
2022-11-25 15:23:42.126385
2022-11-25 15:23:42.158836
2022-11-25 15:23:42.159300
2022-11-25 15:23:42.159493
2022-11-25 15:23:42.159656
2022-11-25 15:23:42.192192
2022-11-25 15:23:42.192421
2022-11-25 15:23:42.192516
2022-11-25 15:23:42.225350
2022-11-25 15:23:42.225628
2022-11-25 15:23:42.225800
2022-11-25 15:23:42.225962
2022-11-25 15:23:42.258714
2022-11-25 15:23:42.258972
2022-11-25 15:23:42.259103
2022-11-25 15:23:42.292092
2022-11-25 15:23:42.292454
2022-11-25 15:23:42.292633
2022-11-25 15:23:42.292795
2022-11-25 15:23:42.325486
2022-11-25 15:23:42.325828
2022-11-25 15:23:42.326009
2022-11-25 15:23:42.358669
2022-11-25 15:23:42.359026
2022-11-25 15:23:42.359199
2022-11-25 15:23:42.359361
2022-11-25 15:23:42.391984
2022-11-25 15:23:42.392321
2022-11-25 15:23:42.392496
2022-11-25 15:23:42.425242
2022-11-25 15:23:42.425627
2022-11-25 15:23:42.425805
2022-11-25 15:23:42.425968
2022-11-25 15:23:42.458576
2022-11-25 15:23:42.458905
2022-11-25 15:23:42.459077
2022-11-25 15:23:42.459235
2022-11-25 15:23:42.491867
2022-11-25 15:23:42.492202
2022-11-25 15:23:42.492378
2022-11-25 15:23:42.525145
2022-11-25 15:23:42.525486
2022-11-25 15:23:42.525673
2022-11-25 15:23:42.525832
2022-11-25 15:23:42.558529
2022-11-25 15:23:42.558870
2022-11-25 15:23:42.559043
2022-11-25 15:23:42.591717
2022-11-25 15:23:42.592035
2022-11-25 15:23:42.592208
2022-11-25 15:23:42.592410
2022-11-25 15:23:42.625129
2022-11-25 15:23:42.625463
2022-11-25 15:23:42.625635
2022-11-25 15:23:42.658366
2022-11-25 15:23:42.658710
2022-11-25 15:23:42.658888
2022-11-25 15:23:42.659054
2022-11-25 15:23:42.691667
2022-11-25 15:23:42.691997
2022-11-25 15:23:42.692169
2022-11-25 15:23:42.724906
2022-11-25 15:23:42.725291
2022-11-25 15:23:42.725470
2022-11-25 15:23:42.725634
2022-11-25 15:23:42.758275
2022-11-25 15:23:42.758611
2022-11-25 15:23:42.758788
2022-11-25 15:23:42.758958
2022-11-25 15:23:42.791595
2022-11-25 15:23:42.791873
2022-11-25 15:23:42.792000
2022-11-25 15:23:42.824888
2022-11-25 15:23:42.825231
2022-11-25 15:23:42.825416
2022-11-25 15:23:42.825606
2022-11-25 15:23:42.858019
2022-11-25 15:23:42.858278
2022-11-25 15:23:42.858448
2022-11-25 15:23:42.891487
2022-11-25 15:23:42.891856
2022-11-25 15:23:42.892032
2022-11-25 15:23:42.892193
2022-11-25 15:23:42.924856
2022-11-25 15:23:42.925416
2022-11-25 15:23:42.925678
2022-11-25 15:23:42.957848
2022-11-25 15:23:42.958110
2022-11-25 15:23:42.958278
2022-11-25 15:23:42.958434
2022-11-25 15:23:42.991180
2022-11-25 15:23:42.991419
2022-11-25 15:23:42.991591
2022-11-25 15:23:43.024585
2022-11-25 15:23:43.024930
2022-11-25 15:23:43.025067
2022-11-25 15:23:43.025212
2022-11-25 15:23:43.057984
2022-11-25 15:23:43.058295
2022-11-25 15:23:43.058462
2022-11-25 15:23:43.058622
2022-11-25 15:23:43.091335
2022-11-25 15:23:43.091673
2022-11-25 15:23:43.091845
2022-11-25 15:23:43.124554
2022-11-25 15:23:43.124802
2022-11-25 15:23:43.124903
2022-11-25 15:23:43.124991
2022-11-25 15:23:43.157908
2022-11-25 15:23:43.158231
2022-11-25 15:23:43.158397
2022-11-25 15:23:43.191177
2022-11-25 15:23:43.191534
2022-11-25 15:23:43.191713
2022-11-25 15:23:43.191874
2022-11-25 15:23:43.224502
2022-11-25 15:23:43.224832
2022-11-25 15:23:43.225008
2022-11-25 15:23:43.257734
2022-11-25 15:23:43.258081
2022-11-25 15:23:43.258250
2022-11-25 15:23:43.258415
2022-11-25 15:23:43.291083
2022-11-25 15:23:43.291411
2022-11-25 15:23:43.291599
2022-11-25 15:23:43.324264
2022-11-25 15:23:43.324589
2022-11-25 15:23:43.324761
2022-11-25 15:23:43.324920
2022-11-25 15:23:43.357659
2022-11-25 15:23:43.357973
2022-11-25 15:23:43.358143
2022-11-25 15:23:43.358301
2022-11-25 15:23:43.391043
2022-11-25 15:23:43.391387
2022-11-25 15:23:43.391566
2022-11-25 15:23:43.424299
2022-11-25 15:23:43.424678
2022-11-25 15:23:43.424871
2022-11-25 15:23:43.425044
2022-11-25 15:23:43.457661
2022-11-25 15:23:43.458020
2022-11-25 15:23:43.458285
2022-11-25 15:23:43.490777
2022-11-25 15:23:43.491235
2022-11-25 15:23:43.491478
2022-11-25 15:23:43.491776
2022-11-25 15:23:43.524223
2022-11-25 15:23:43.524813
2022-11-25 15:23:43.525007
2022-11-25 15:23:43.557291
2022-11-25 15:23:43.557514
2022-11-25 15:23:43.557585
2022-11-25 15:23:43.557648
2022-11-25 15:23:43.590691
2022-11-25 15:23:43.590950
2022-11-25 15:23:43.591043
2022-11-25 15:23:43.623998
2022-11-25 15:23:43.624387
2022-11-25 15:23:43.624573
2022-11-25 15:23:43.624743
2022-11-25 15:23:43.657284
2022-11-25 15:23:43.657570
2022-11-25 15:23:43.657747
2022-11-25 15:23:43.657911
2022-11-25 15:23:43.690793
2022-11-25 15:23:43.691125
2022-11-25 15:23:43.691299
2022-11-25 15:23:43.724003
2022-11-25 15:23:43.724338
2022-11-25 15:23:43.724514
2022-11-25 15:23:43.724673
2022-11-25 15:23:43.757340
2022-11-25 15:23:43.757665
2022-11-25 15:23:43.757835
2022-11-25 15:23:43.790528
2022-11-25 15:23:43.790842
2022-11-25 15:23:43.791015
2022-11-25 15:23:43.791182
2022-11-25 15:23:43.823913
2022-11-25 15:23:43.824247
2022-11-25 15:23:43.824419
2022-11-25 15:23:43.857128
2022-11-25 15:23:43.857451
2022-11-25 15:23:43.857621
2022-11-25 15:23:43.857779
2022-11-25 15:23:43.890525
2022-11-25 15:23:43.890875
2022-11-25 15:23:43.891054
2022-11-25 15:23:43.923575
2022-11-25 15:23:43.923883
2022-11-25 15:23:43.924060
2022-11-25 15:23:43.924227
2022-11-25 15:23:43.956939
2022-11-25 15:23:43.957202
2022-11-25 15:23:43.957375
2022-11-25 15:23:43.957537
2022-11-25 15:23:43.990442
2022-11-25 15:23:43.990781
2022-11-25 15:23:43.990956
2022-11-25 15:23:44.023687
2022-11-25 15:23:44.024014
2022-11-25 15:23:44.024186
2022-11-25 15:23:44.024350
2022-11-25 15:23:44.057047
2022-11-25 15:23:44.057380
2022-11-25 15:23:44.057557
2022-11-25 15:23:44.090254
2022-11-25 15:23:44.090571
2022-11-25 15:23:44.090749
2022-11-25 15:23:44.090912
2022-11-25 15:23:44.123660
2022-11-25 15:23:44.124020
2022-11-25 15:23:44.124192
2022-11-25 15:23:44.156837
2022-11-25 15:23:44.157161
2022-11-25 15:23:44.157349
2022-11-25 15:23:44.157513
2022-11-25 15:23:44.190249
2022-11-25 15:23:44.190576
2022-11-25 15:23:44.190749
2022-11-25 15:23:44.223405
2022-11-25 15:23:44.223761
2022-11-25 15:23:44.223938
2022-11-25 15:23:44.224097
2022-11-25 15:23:44.256862
2022-11-25 15:23:44.257212
2022-11-25 15:23:44.257387
2022-11-25 15:23:44.257552
2022-11-25 15:23:44.290210
2022-11-25 15:23:44.290570
2022-11-25 15:23:44.290752
2022-11-25 15:23:44.323438
2022-11-25 15:23:44.323791
2022-11-25 15:23:44.323975
2022-11-25 15:23:44.324138
2022-11-25 15:23:44.356729
2022-11-25 15:23:44.357153
2022-11-25 15:23:44.357321
2022-11-25 15:23:44.389994
2022-11-25 15:23:44.390225
2022-11-25 15:23:44.390309
2022-11-25 15:23:44.390401
2022-11-25 15:23:44.423172
2022-11-25 15:23:44.423403
2022-11-25 15:23:44.423483
2022-11-25 15:23:44.456535
2022-11-25 15:23:44.456877
2022-11-25 15:23:44.457049
2022-11-25 15:23:44.457295
2022-11-25 15:23:44.489789
2022-11-25 15:23:44.490019
2022-11-25 15:23:44.490166
2022-11-25 15:23:44.523010
2022-11-25 15:23:44.523272
2022-11-25 15:23:44.523436
2022-11-25 15:23:44.523602
2022-11-25 15:23:44.556527
2022-11-25 15:23:44.556887
2022-11-25 15:23:44.557060
2022-11-25 15:23:44.557223
2022-11-25 15:23:44.589902
2022-11-25 15:23:44.590260
2022-11-25 15:23:44.590434
2022-11-25 15:23:44.623138
2022-11-25 15:23:44.623488
2022-11-25 15:23:44.623667
2022-11-25 15:23:44.623828
2022-11-25 15:23:44.656531
2022-11-25 15:23:44.656898
2022-11-25 15:23:44.657079
2022-11-25 15:23:44.689495
2022-11-25 15:23:44.689785
2022-11-25 15:23:44.689948
2022-11-25 15:23:44.690105
2022-11-25 15:23:44.722870
2022-11-25 15:23:44.723134
2022-11-25 15:23:44.723307
2022-11-25 15:23:44.756339
2022-11-25 15:23:44.756741
2022-11-25 15:23:44.756956
2022-11-25 15:23:44.757126
2022-11-25 15:23:44.789572
2022-11-25 15:23:44.789907
2022-11-25 15:23:44.790084
2022-11-25 15:23:44.822850
2022-11-25 15:23:44.823240
2022-11-25 15:23:44.823418
2022-11-25 15:23:44.823587
2022-11-25 15:23:44.856208
2022-11-25 15:23:44.856538
2022-11-25 15:23:44.857014
2022-11-25 15:23:44.857863
2022-11-25 15:23:44.889478
2022-11-25 15:23:44.889818
2022-11-25 15:23:44.890019
2022-11-25 15:23:44.922661
2022-11-25 15:23:44.922892
2022-11-25 15:23:44.923031
2022-11-25 15:23:44.923121
2022-11-25 15:23:44.955986
2022-11-25 15:23:44.956216
2022-11-25 15:23:44.956289
2022-11-25 15:23:44.989412
2022-11-25 15:23:44.989764
2022-11-25 15:23:44.989937
2022-11-25 15:23:44.990099
2022-11-25 15:23:45.022780
2022-11-25 15:23:45.023134
2022-11-25 15:23:45.023308
2022-11-25 15:23:45.055998
2022-11-25 15:23:45.056538
2022-11-25 15:23:45.056725
2022-11-25 15:23:45.056897
2022-11-25 15:23:45.089429
2022-11-25 15:23:45.089792
2022-11-25 15:23:45.089975
2022-11-25 15:23:45.122566
2022-11-25 15:23:45.122971
2022-11-25 15:23:45.123155
2022-11-25 15:23:45.123318
2022-11-25 15:23:45.155998
2022-11-25 15:23:45.156378
2022-11-25 15:23:45.156557
2022-11-25 15:23:45.156718
2022-11-25 15:23:45.189336
2022-11-25 15:23:45.189703
2022-11-25 15:23:45.189878
2022-11-25 15:23:45.222583
2022-11-25 15:23:45.222933
2022-11-25 15:23:45.223113
2022-11-25 15:23:45.223276
2022-11-25 15:23:45.255829
2022-11-25 15:23:45.256154
2022-11-25 15:23:45.256325
2022-11-25 15:23:45.289147
2022-11-25 15:23:45.289520
2022-11-25 15:23:45.289704
2022-11-25 15:23:45.289863
2022-11-25 15:23:45.322447
2022-11-25 15:23:45.322743
2022-11-25 15:23:45.322880
2022-11-25 15:23:45.355517
2022-11-25 15:23:45.355740
2022-11-25 15:23:45.356093
2022-11-25 15:23:45.356203
2022-11-25 15:23:45.388643
2022-11-25 15:23:45.388848
2022-11-25 15:23:45.388936
2022-11-25 15:23:45.422294
2022-11-25 15:23:45.422678
2022-11-25 15:23:45.422864
2022-11-25 15:23:45.423030
2022-11-25 15:23:45.455595
2022-11-25 15:23:45.455937
2022-11-25 15:23:45.456121
2022-11-25 15:23:45.456288
2022-11-25 15:23:45.489018
2022-11-25 15:23:45.489371
2022-11-25 15:23:45.489550
2022-11-25 15:23:45.522271
2022-11-25 15:23:45.522616
2022-11-25 15:23:45.522798
2022-11-25 15:23:45.522962
2022-11-25 15:23:45.555618
2022-11-25 15:23:45.555982
2022-11-25 15:23:45.556157
2022-11-25 15:23:45.588785
2022-11-25 15:23:45.589056
2022-11-25 15:23:45.589150
2022-11-25 15:23:45.589239
2022-11-25 15:23:45.622210
2022-11-25 15:23:45.622557
2022-11-25 15:23:45.622736
2022-11-25 15:23:45.655390
2022-11-25 15:23:45.655774
2022-11-25 15:23:45.655944
2022-11-25 15:23:45.656107
2022-11-25 15:23:45.688712
2022-11-25 15:23:45.689042
2022-11-25 15:23:45.689220
2022-11-25 15:23:45.721889
2022-11-25 15:23:45.722212
2022-11-25 15:23:45.722382
2022-11-25 15:23:45.722539
2022-11-25 15:23:45.755018
2022-11-25 15:23:45.755173
2022-11-25 15:23:45.755276
2022-11-25 15:23:45.755361
2022-11-25 15:23:45.788245
2022-11-25 15:23:45.788558
2022-11-25 15:23:45.788769
2022-11-25 15:23:45.821654
2022-11-25 15:23:45.821966
2022-11-25 15:23:45.822177
2022-11-25 15:23:45.822298
2022-11-25 15:23:45.855139
2022-11-25 15:23:45.855378
2022-11-25 15:23:45.855545
2022-11-25 15:23:45.888347
2022-11-25 15:23:45.888559
2022-11-25 15:23:45.888721
2022-11-25 15:23:45.888875
2022-11-25 15:23:45.921667
2022-11-25 15:23:45.921907
2022-11-25 15:23:45.922070
2022-11-25 15:23:45.955156
2022-11-25 15:23:45.955479
2022-11-25 15:23:45.955674
2022-11-25 15:23:45.955837
2022-11-25 15:23:45.988272
2022-11-25 15:23:45.988568
2022-11-25 15:23:45.988739
2022-11-25 15:23:46.021697
2022-11-25 15:23:46.022095
2022-11-25 15:23:46.022282
2022-11-25 15:23:46.022447
2022-11-25 15:23:46.055019
2022-11-25 15:23:46.055347
2022-11-25 15:23:46.055522
2022-11-25 15:23:46.055683
2022-11-25 15:23:46.088274
2022-11-25 15:23:46.088525
2022-11-25 15:23:46.088688
2022-11-25 15:23:46.121519
2022-11-25 15:23:46.121797
2022-11-25 15:23:46.121965
2022-11-25 15:23:46.122121
2022-11-25 15:23:46.154817
2022-11-25 15:23:46.155063
2022-11-25 15:23:46.155167
2022-11-25 15:23:46.188274
2022-11-25 15:23:46.188634
2022-11-25 15:23:46.188812
2022-11-25 15:23:46.189005
2022-11-25 15:23:46.221615
2022-11-25 15:23:46.221991
2022-11-25 15:23:46.222094
2022-11-25 15:23:46.254814
2022-11-25 15:23:46.255082
2022-11-25 15:23:46.255183
2022-11-25 15:23:46.255273
2022-11-25 15:23:46.288012
2022-11-25 15:23:46.288254
2022-11-25 15:23:46.288448
2022-11-25 15:23:46.321017
2022-11-25 15:23:46.321178
2022-11-25 15:23:46.321251
2022-11-25 15:23:46.321314
2022-11-25 15:23:46.354561
2022-11-25 15:23:46.354802
2022-11-25 15:23:46.354959
2022-11-25 15:23:46.355078
2022-11-25 15:23:46.388023
2022-11-25 15:23:46.388289
2022-11-25 15:23:46.388465
2022-11-25 15:23:46.421229
2022-11-25 15:23:46.421478
2022-11-25 15:23:46.421648
2022-11-25 15:23:46.421805
2022-11-25 15:23:46.454647
2022-11-25 15:23:46.454962
2022-11-25 15:23:46.455139
2022-11-25 15:23:46.487908
2022-11-25 15:23:46.488231
2022-11-25 15:23:46.488414
2022-11-25 15:23:46.488539
2022-11-25 15:23:46.521346
2022-11-25 15:23:46.521699
2022-11-25 15:23:46.521870
2022-11-25 15:23:46.554567
2022-11-25 15:23:46.554904
2022-11-25 15:23:46.555129
2022-11-25 15:23:46.555284
2022-11-25 15:23:46.587875
2022-11-25 15:23:46.588173
2022-11-25 15:23:46.588300
2022-11-25 15:23:46.621006
2022-11-25 15:23:46.621344
2022-11-25 15:23:46.621527
2022-11-25 15:23:46.621688
2022-11-25 15:23:46.654508
2022-11-25 15:23:46.654859
2022-11-25 15:23:46.655039
2022-11-25 15:23:46.655227
2022-11-25 15:23:46.687780
2022-11-25 15:23:46.688129
2022-11-25 15:23:46.688304
2022-11-25 15:23:46.721048
2022-11-25 15:23:46.721382
2022-11-25 15:23:46.721604
2022-11-25 15:23:46.721772
2022-11-25 15:23:46.754212
2022-11-25 15:23:46.754613
2022-11-25 15:23:46.754725
2022-11-25 15:23:46.787264
2022-11-25 15:23:46.787383
2022-11-25 15:23:46.787450
2022-11-25 15:23:46.787511
2022-11-25 15:23:46.820531
2022-11-25 15:23:46.820654
2022-11-25 15:23:46.820724
2022-11-25 15:23:46.853948
2022-11-25 15:23:46.854187
2022-11-25 15:23:46.854349
2022-11-25 15:23:46.854504
2022-11-25 15:23:46.887477
2022-11-25 15:23:46.887738
2022-11-25 15:23:46.887907
2022-11-25 15:23:46.920532
2022-11-25 15:23:46.920749
2022-11-25 15:23:46.920879
2022-11-25 15:23:46.920989
2022-11-25 15:23:46.953920
2022-11-25 15:23:46.954170
2022-11-25 15:23:46.954342
2022-11-25 15:23:46.954501
2022-11-25 15:23:46.987485
2022-11-25 15:23:46.987801
2022-11-25 15:23:46.987980
2022-11-25 15:23:47.020684
2022-11-25 15:23:47.021013
2022-11-25 15:23:47.021194
2022-11-25 15:23:47.021360
2022-11-25 15:23:47.054124
2022-11-25 15:23:47.054442
2022-11-25 15:23:47.054618
2022-11-25 15:23:47.087278
2022-11-25 15:23:47.087588
2022-11-25 15:23:47.087772
2022-11-25 15:23:47.087929
2022-11-25 15:23:47.120494
2022-11-25 15:23:47.120702
2022-11-25 15:23:47.120788
2022-11-25 15:23:47.153830
2022-11-25 15:23:47.154072
2022-11-25 15:23:47.154181
2022-11-25 15:23:47.154240
2022-11-25 15:23:47.187311
2022-11-25 15:23:47.187661
2022-11-25 15:23:47.187841
2022-11-25 15:23:47.220475
2022-11-25 15:23:47.220905
2022-11-25 15:23:47.221142
2022-11-25 15:23:47.221422
2022-11-25 15:23:47.253754
2022-11-25 15:23:47.254222
2022-11-25 15:23:47.254375
2022-11-25 15:23:47.254476
2022-11-25 15:23:47.287067
2022-11-25 15:23:47.287323
2022-11-25 15:23:47.287410
2022-11-25 15:23:47.320358
2022-11-25 15:23:47.320617
2022-11-25 15:23:47.320716
2022-11-25 15:23:47.320805
2022-11-25 15:23:47.353745
2022-11-25 15:23:47.354052
2022-11-25 15:23:47.354226
2022-11-25 15:23:47.387073
2022-11-25 15:23:47.387432
2022-11-25 15:23:47.387724
2022-11-25 15:23:47.387939
2022-11-25 15:23:47.420447
2022-11-25 15:23:47.420776
2022-11-25 15:23:47.420953
2022-11-25 15:23:47.453663
2022-11-25 15:23:47.454019
2022-11-25 15:23:47.454191
2022-11-25 15:23:47.454353
2022-11-25 15:23:47.487064
2022-11-25 15:23:47.487423
2022-11-25 15:23:47.487602
2022-11-25 15:23:47.520228
2022-11-25 15:23:47.520617
2022-11-25 15:23:47.520797
2022-11-25 15:23:47.520957
2022-11-25 15:23:47.553411
2022-11-25 15:23:47.553641
2022-11-25 15:23:47.553814
2022-11-25 15:23:47.553934
2022-11-25 15:23:47.586831
2022-11-25 15:23:47.587115
2022-11-25 15:23:47.587248
2022-11-25 15:23:47.620208
2022-11-25 15:23:47.620679
2022-11-25 15:23:47.620811
2022-11-25 15:23:47.620904
2022-11-25 15:23:47.653475
2022-11-25 15:23:47.653732
2022-11-25 15:23:47.653831
2022-11-25 15:23:47.686686
2022-11-25 15:23:47.687083
2022-11-25 15:23:47.687328
2022-11-25 15:23:47.687624
2022-11-25 15:23:47.719915
2022-11-25 15:23:47.720139
2022-11-25 15:23:47.720211
2022-11-25 15:23:47.753104
2022-11-25 15:23:47.753385
2022-11-25 15:23:47.753569
2022-11-25 15:23:47.753733
2022-11-25 15:23:47.786565
2022-11-25 15:23:47.786905
2022-11-25 15:23:47.787076
2022-11-25 15:23:47.819914
2022-11-25 15:23:47.820322
2022-11-25 15:23:47.820509
2022-11-25 15:23:47.820673
2022-11-25 15:23:47.853316
2022-11-25 15:23:47.853669
2022-11-25 15:23:47.853855
2022-11-25 15:23:47.854018
2022-11-25 15:23:47.886567
2022-11-25 15:23:47.886933
2022-11-25 15:23:47.887113
2022-11-25 15:23:47.919923
2022-11-25 15:23:47.920279
2022-11-25 15:23:47.920452
2022-11-25 15:23:47.920612
2022-11-25 15:23:47.953195
2022-11-25 15:23:47.953483
2022-11-25 15:23:47.953612
2022-11-25 15:23:47.986343
2022-11-25 15:23:47.986608
2022-11-25 15:23:47.986775
2022-11-25 15:23:47.986931
2022-11-25 15:23:48.019685
2022-11-25 15:23:48.019944
2022-11-25 15:23:48.020108
2022-11-25 15:23:48.052980
2022-11-25 15:23:48.053276
2022-11-25 15:23:48.053444
2022-11-25 15:23:48.053612
2022-11-25 15:23:48.086475
2022-11-25 15:23:48.086858
2022-11-25 15:23:48.087048
2022-11-25 15:23:48.119542
2022-11-25 15:23:48.119881
2022-11-25 15:23:48.120048
2022-11-25 15:23:48.120271
2022-11-25 15:23:48.152911
2022-11-25 15:23:48.153226
2022-11-25 15:23:48.153470
2022-11-25 15:23:48.153963
2022-11-25 15:23:48.186326
2022-11-25 15:23:48.186838
2022-11-25 15:23:48.187396
2022-11-25 15:23:48.219437
2022-11-25 15:23:48.219755
2022-11-25 15:23:48.219885
2022-11-25 15:23:48.220001
2022-11-25 15:23:48.253121
2022-11-25 15:23:48.253379
2022-11-25 15:23:48.253506
2022-11-25 15:23:48.286051
2022-11-25 15:23:48.286277
2022-11-25 15:23:48.286370
2022-11-25 15:23:48.286454
2022-11-25 15:23:48.319959
2022-11-25 15:23:48.320292
2022-11-25 15:23:48.320469
2022-11-25 15:23:48.352545
2022-11-25 15:23:48.352782
2022-11-25 15:23:48.352908
2022-11-25 15:23:48.353025
2022-11-25 15:23:48.385845
2022-11-25 15:23:48.386020
2022-11-25 15:23:48.386089
2022-11-25 15:23:48.419034
2022-11-25 15:23:48.419247
2022-11-25 15:23:48.419317
2022-11-25 15:23:48.419377
2022-11-25 15:23:48.452727
2022-11-25 15:23:48.453096
2022-11-25 15:23:48.453283
2022-11-25 15:23:48.453450
2022-11-25 15:23:48.485929
2022-11-25 15:23:48.486192
2022-11-25 15:23:48.486370
2022-11-25 15:23:48.519299
2022-11-25 15:23:48.519636
2022-11-25 15:23:48.519816
2022-11-25 15:23:48.519979
2022-11-25 15:23:48.552483
2022-11-25 15:23:48.552742
2022-11-25 15:23:48.552952
2022-11-25 15:23:48.585497
2022-11-25 15:23:48.585625
2022-11-25 15:23:48.585698
2022-11-25 15:23:48.585818
2022-11-25 15:23:48.618754
2022-11-25 15:23:48.618924
2022-11-25 15:23:48.619020
2022-11-25 15:23:48.652228
2022-11-25 15:23:48.652440
2022-11-25 15:23:48.652528
2022-11-25 15:23:48.652596
2022-11-25 15:23:48.685680
2022-11-25 15:23:48.685939
2022-11-25 15:23:48.686108
2022-11-25 15:23:48.718700
2022-11-25 15:23:48.718935
2022-11-25 15:23:48.719105
2022-11-25 15:23:48.719257
2022-11-25 15:23:48.752084
2022-11-25 15:23:48.752323
2022-11-25 15:23:48.752494
2022-11-25 15:23:48.752650
2022-11-25 15:23:48.785414
2022-11-25 15:23:48.785649
2022-11-25 15:23:48.785815
2022-11-25 15:23:48.818784
2022-11-25 15:23:48.819028
2022-11-25 15:23:48.819202
2022-11-25 15:23:48.819359
2022-11-25 15:23:48.852295
2022-11-25 15:23:48.852542
2022-11-25 15:23:48.852712
2022-11-25 15:23:48.885446
2022-11-25 15:23:48.885705
2022-11-25 15:23:48.885878
2022-11-25 15:23:48.886034
2022-11-25 15:23:48.918705
2022-11-25 15:23:48.918962
2022-11-25 15:23:48.919134
2022-11-25 15:23:48.951937
2022-11-25 15:23:48.952105
2022-11-25 15:23:48.952175
2022-11-25 15:23:48.952237
2022-11-25 15:23:48.985456
2022-11-25 15:23:48.985795
2022-11-25 15:23:48.985978
2022-11-25 15:23:49.018686
2022-11-25 15:23:49.019163
2022-11-25 15:23:49.019298
2022-11-25 15:23:49.019388
2022-11-25 15:23:49.052038
2022-11-25 15:23:49.052284
2022-11-25 15:23:49.052390
2022-11-25 15:23:49.052473
2022-11-25 15:23:49.085483
2022-11-25 15:23:49.085816
2022-11-25 15:23:49.085993
2022-11-25 15:23:49.118690
2022-11-25 15:23:49.119037
2022-11-25 15:23:49.119213
2022-11-25 15:23:49.119370
2022-11-25 15:23:49.152061
2022-11-25 15:23:49.152379
2022-11-25 15:23:49.152557
2022-11-25 15:23:49.185181
2022-11-25 15:23:49.185427
2022-11-25 15:23:49.185525
2022-11-25 15:23:49.185608
2022-11-25 15:23:49.218435
2022-11-25 15:23:49.218689
2022-11-25 15:23:49.218857
2022-11-25 15:23:49.251843
2022-11-25 15:23:49.252339
2022-11-25 15:23:49.252563
2022-11-25 15:23:49.252735
2022-11-25 15:23:49.285291
2022-11-25 15:23:49.285628
2022-11-25 15:23:49.285807
2022-11-25 15:23:49.318501
2022-11-25 15:23:49.318879
2022-11-25 15:23:49.319059
2022-11-25 15:23:49.319214
2022-11-25 15:23:49.351860
2022-11-25 15:23:49.352207
2022-11-25 15:23:49.352390
2022-11-25 15:23:49.352551
2022-11-25 15:23:49.385235
2022-11-25 15:23:49.385581
2022-11-25 15:23:49.385760
2022-11-25 15:23:49.418470
2022-11-25 15:23:49.418839
2022-11-25 15:23:49.419020
2022-11-25 15:23:49.419179
2022-11-25 15:23:49.451618
2022-11-25 15:23:49.451885
2022-11-25 15:23:49.452056
2022-11-25 15:23:49.484882
2022-11-25 15:23:49.485200
2022-11-25 15:23:49.485379
2022-11-25 15:23:49.485538
2022-11-25 15:23:49.518419
2022-11-25 15:23:49.518991
2022-11-25 15:23:49.519216
2022-11-25 15:23:49.551498
2022-11-25 15:23:49.551897
2022-11-25 15:23:49.552066
2022-11-25 15:23:49.553058
2022-11-25 15:23:49.584746
2022-11-25 15:23:49.585460
2022-11-25 15:23:49.585577
2022-11-25 15:23:49.618027
2022-11-25 15:23:49.618291
2022-11-25 15:23:49.618369
2022-11-25 15:23:49.618477
2022-11-25 15:23:49.651416
2022-11-25 15:23:49.651664
2022-11-25 15:23:49.651759
2022-11-25 15:23:49.651900
2022-11-25 15:23:49.684840
2022-11-25 15:23:49.685159
2022-11-25 15:23:49.685333
2022-11-25 15:23:49.718061
2022-11-25 15:23:49.718335
2022-11-25 15:23:49.718467
2022-11-25 15:23:49.718630
2022-11-25 15:23:49.751396
2022-11-25 15:23:49.751718
2022-11-25 15:23:49.751905
2022-11-25 15:23:49.784664
2022-11-25 15:23:49.784972
2022-11-25 15:23:49.785150
2022-11-25 15:23:49.785315
2022-11-25 15:23:49.817923
2022-11-25 15:23:49.818181
2022-11-25 15:23:49.818275
2022-11-25 15:23:49.851158
2022-11-25 15:23:49.851397
2022-11-25 15:23:49.851488
2022-11-25 15:23:49.851577
2022-11-25 15:23:49.884702
2022-11-25 15:23:49.885067
2022-11-25 15:23:49.885242
2022-11-25 15:23:49.917850
2022-11-25 15:23:49.918220
2022-11-25 15:23:49.918402
2022-11-25 15:23:49.918564
2022-11-25 15:23:49.951297
2022-11-25 15:23:49.951637
2022-11-25 15:23:49.951814
2022-11-25 15:23:49.952176
2022-11-25 15:23:49.984606
2022-11-25 15:23:49.985063
2022-11-25 15:23:49.985279
2022-11-25 15:23:50.017833
2022-11-25 15:23:50.018215
2022-11-25 15:23:50.018359
2022-11-25 15:23:50.019054
2022-11-25 15:23:50.051311
2022-11-25 15:23:50.051599
2022-11-25 15:23:50.051725
2022-11-25 15:23:50.084398
2022-11-25 15:23:50.084697
2022-11-25 15:23:50.084818
2022-11-25 15:23:50.084910
2022-11-25 15:23:50.117678
2022-11-25 15:23:50.117954
2022-11-25 15:23:50.118080
2022-11-25 15:23:50.150905
2022-11-25 15:23:50.151161
2022-11-25 15:23:50.151350
2022-11-25 15:23:50.151514
2022-11-25 15:23:50.183967
2022-11-25 15:23:50.184144
2022-11-25 15:23:50.184290
2022-11-25 15:23:50.217385
2022-11-25 15:23:50.217674
2022-11-25 15:23:50.217796
2022-11-25 15:23:50.217946
2022-11-25 15:23:50.251321
2022-11-25 15:23:50.251402
2022-11-25 15:23:50.251535
2022-11-25 15:23:50.251589
2022-11-25 15:23:50.283997
2022-11-25 15:23:50.284233
2022-11-25 15:23:50.284400
2022-11-25 15:23:50.317324
2022-11-25 15:23:50.317574
2022-11-25 15:23:50.317742
2022-11-25 15:23:50.317902
2022-11-25 15:23:50.350616
2022-11-25 15:23:50.350762
2022-11-25 15:23:50.350850
2022-11-25 15:23:50.384031
2022-11-25 15:23:50.384295
2022-11-25 15:23:50.384466
2022-11-25 15:23:50.384625
2022-11-25 15:23:50.417401
2022-11-25 15:23:50.417691
2022-11-25 15:23:50.417858
2022-11-25 15:23:50.450749
2022-11-25 15:23:50.451103
2022-11-25 15:23:50.451285
2022-11-25 15:23:50.451447
2022-11-25 15:23:50.484008
2022-11-25 15:23:50.484310
2022-11-25 15:23:50.484524
2022-11-25 15:23:50.517237
2022-11-25 15:23:50.517631
2022-11-25 15:23:50.517818
2022-11-25 15:23:50.517983
2022-11-25 15:23:50.550630
2022-11-25 15:23:50.550876
2022-11-25 15:23:50.550995
2022-11-25 15:23:50.551088
2022-11-25 15:23:50.583934
2022-11-25 15:23:50.584181
2022-11-25 15:23:50.584321
2022-11-25 15:23:50.617247
2022-11-25 15:23:50.617502
2022-11-25 15:23:50.617654
2022-11-25 15:23:50.617769
2022-11-25 15:23:50.650562
2022-11-25 15:23:50.650815
2022-11-25 15:23:50.650890
2022-11-25 15:23:50.683848
2022-11-25 15:23:50.684105
2022-11-25 15:23:50.684286
2022-11-25 15:23:50.684358
2022-11-25 15:23:50.717197
2022-11-25 15:23:50.717468
2022-11-25 15:23:50.717562
2022-11-25 15:23:50.750481
2022-11-25 15:23:50.750758
2022-11-25 15:23:50.750870
2022-11-25 15:23:50.750960
2022-11-25 15:23:50.783789
2022-11-25 15:23:50.784065
2022-11-25 15:23:50.784182
2022-11-25 15:23:50.816887
2022-11-25 15:23:50.817180
2022-11-25 15:23:50.817276
2022-11-25 15:23:50.817363
2022-11-25 15:23:50.850413
2022-11-25 15:23:50.850698
2022-11-25 15:23:50.850798
2022-11-25 15:23:50.850884
2022-11-25 15:23:50.883683
2022-11-25 15:23:50.883915
2022-11-25 15:23:50.884013
2022-11-25 15:23:50.916915
2022-11-25 15:23:50.917224
2022-11-25 15:23:50.917403
2022-11-25 15:23:50.917569
2022-11-25 15:23:50.950189
2022-11-25 15:23:50.950453
2022-11-25 15:23:50.950613
2022-11-25 15:23:50.983445
2022-11-25 15:23:50.983740
2022-11-25 15:23:50.983908
2022-11-25 15:23:50.984069
2022-11-25 15:23:51.016889
2022-11-25 15:23:51.017223
2022-11-25 15:23:51.017394
2022-11-25 15:23:51.050111
2022-11-25 15:23:51.050412
2022-11-25 15:23:51.050581
2022-11-25 15:23:51.050741
2022-11-25 15:23:51.083493
2022-11-25 15:23:51.083848
2022-11-25 15:23:51.084020
2022-11-25 15:23:51.116702
2022-11-25 15:23:51.117082
2022-11-25 15:23:51.117263
2022-11-25 15:23:51.117431
2022-11-25 15:23:51.150141
2022-11-25 15:23:51.150469
2022-11-25 15:23:51.150640
2022-11-25 15:23:51.150796
2022-11-25 15:23:51.183438
2022-11-25 15:23:51.183764
2022-11-25 15:23:51.183932
2022-11-25 15:23:51.216564
2022-11-25 15:23:51.216895
2022-11-25 15:23:51.217071
2022-11-25 15:23:51.217232
2022-11-25 15:23:51.250025
2022-11-25 15:23:51.250374
2022-11-25 15:23:51.250546
2022-11-25 15:23:51.283216
2022-11-25 15:23:51.283502
2022-11-25 15:23:51.283669
2022-11-25 15:23:51.283830
2022-11-25 15:23:51.316328
2022-11-25 15:23:51.316570
2022-11-25 15:23:51.316738
2022-11-25 15:23:51.349870
2022-11-25 15:23:51.350310
2022-11-25 15:23:51.350523
2022-11-25 15:23:51.350685
2022-11-25 15:23:51.383040
2022-11-25 15:23:51.383389
2022-11-25 15:23:51.383842
2022-11-25 15:23:51.416145
2022-11-25 15:23:51.416551
2022-11-25 15:23:51.416853
2022-11-25 15:23:51.417075
2022-11-25 15:23:51.449747
2022-11-25 15:23:51.450054
2022-11-25 15:23:51.450189
2022-11-25 15:23:51.450389
2022-11-25 15:23:51.483104
2022-11-25 15:23:51.483440
2022-11-25 15:23:51.483614
2022-11-25 15:23:51.516362
2022-11-25 15:23:51.516687
2022-11-25 15:23:51.516868
2022-11-25 15:23:51.517042
2022-11-25 15:23:51.549735
2022-11-25 15:23:51.550066
2022-11-25 15:23:51.550246
2022-11-25 15:23:51.582896
2022-11-25 15:23:51.583239
2022-11-25 15:23:51.583426
2022-11-25 15:23:51.583592
2022-11-25 15:23:51.616338
2022-11-25 15:23:51.616702
2022-11-25 15:23:51.616882
2022-11-25 15:23:51.649594
2022-11-25 15:23:51.649964
2022-11-25 15:23:51.650146
2022-11-25 15:23:51.650313
2022-11-25 15:23:51.682980
2022-11-25 15:23:51.683345
2022-11-25 15:23:51.683528
2022-11-25 15:23:51.716123
2022-11-25 15:23:51.716525
2022-11-25 15:23:51.716714
2022-11-25 15:23:51.716883
2022-11-25 15:23:51.749359
2022-11-25 15:23:51.749651
2022-11-25 15:23:51.749820
2022-11-25 15:23:51.749978
2022-11-25 15:23:51.782723
2022-11-25 15:23:51.783001
2022-11-25 15:23:51.783199
2022-11-25 15:23:51.815914
2022-11-25 15:23:51.816180
2022-11-25 15:23:51.816347
2022-11-25 15:23:51.816508
2022-11-25 15:23:51.849395
2022-11-25 15:23:51.849745
2022-11-25 15:23:51.849923
2022-11-25 15:23:51.882566
2022-11-25 15:23:51.882857
2022-11-25 15:23:51.883029
2022-11-25 15:23:51.883200
2022-11-25 15:23:51.916070
2022-11-25 15:23:51.916412
2022-11-25 15:23:51.916597
2022-11-25 15:23:51.949355
2022-11-25 15:23:51.949714
2022-11-25 15:23:51.949890
2022-11-25 15:23:51.950049
2022-11-25 15:23:51.982621
2022-11-25 15:23:51.982963
2022-11-25 15:23:51.983135
2022-11-25 15:23:52.015807
2022-11-25 15:23:52.016181
2022-11-25 15:23:52.016365
2022-11-25 15:23:52.016537
2022-11-25 15:23:52.049211
2022-11-25 15:23:52.049550
2022-11-25 15:23:52.049723
2022-11-25 15:23:52.049886
2022-11-25 15:23:52.082561
2022-11-25 15:23:52.082893
2022-11-25 15:23:52.083070
2022-11-25 15:23:52.115799
2022-11-25 15:23:52.116145
2022-11-25 15:23:52.116322
2022-11-25 15:23:52.116487
2022-11-25 15:23:52.149189
2022-11-25 15:23:52.149539
2022-11-25 15:23:52.149717
2022-11-25 15:23:52.182384
2022-11-25 15:23:52.182732
2022-11-25 15:23:52.182906
2022-11-25 15:23:52.183069
2022-11-25 15:23:52.215696
2022-11-25 15:23:52.216051
2022-11-25 15:23:52.216229
2022-11-25 15:23:52.248988
2022-11-25 15:23:52.249368
2022-11-25 15:23:52.249544
2022-11-25 15:23:52.249705
2022-11-25 15:23:52.282390
2022-11-25 15:23:52.282725
2022-11-25 15:23:52.282910
2022-11-25 15:23:52.315423
2022-11-25 15:23:52.315811
2022-11-25 15:23:52.315991
2022-11-25 15:23:52.316156
2022-11-25 15:23:52.348828
2022-11-25 15:23:52.349127
2022-11-25 15:23:52.349304
2022-11-25 15:23:52.349468
2022-11-25 15:23:52.382337
2022-11-25 15:23:52.382665
2022-11-25 15:23:52.382840
2022-11-25 15:23:52.415455
2022-11-25 15:23:52.415816
2022-11-25 15:23:52.415990
2022-11-25 15:23:52.416161
2022-11-25 15:23:52.448860
2022-11-25 15:23:52.449208
2022-11-25 15:23:52.449381
2022-11-25 15:23:52.482099
2022-11-25 15:23:52.482468
2022-11-25 15:23:52.482651
2022-11-25 15:23:52.482814
2022-11-25 15:23:52.515462
2022-11-25 15:23:52.515816
2022-11-25 15:23:52.515992
2022-11-25 15:23:52.548612
2022-11-25 15:23:52.548949
2022-11-25 15:23:52.549127
2022-11-25 15:23:52.549287
2022-11-25 15:23:52.582024
2022-11-25 15:23:52.582370
2022-11-25 15:23:52.582548
2022-11-25 15:23:52.615239
2022-11-25 15:23:52.615628
2022-11-25 15:23:52.615810
2022-11-25 15:23:52.616014
2022-11-25 15:23:52.648633
2022-11-25 15:23:52.648985
2022-11-25 15:23:52.649160
2022-11-25 15:23:52.649321
2022-11-25 15:23:52.682023
2022-11-25 15:23:52.682376
2022-11-25 15:23:52.682572
2022-11-25 15:23:52.715189
2022-11-25 15:23:52.715582
2022-11-25 15:23:52.715723
2022-11-25 15:23:52.715849
2022-11-25 15:23:52.748336
2022-11-25 15:23:52.748520
2022-11-25 15:23:52.748592
2022-11-25 15:23:52.781770
2022-11-25 15:23:52.782178
2022-11-25 15:23:52.782470
2022-11-25 15:23:52.782996
2022-11-25 15:23:52.815077
2022-11-25 15:23:52.815396
2022-11-25 15:23:52.815570
2022-11-25 15:23:52.848207
2022-11-25 15:23:52.848476
2022-11-25 15:23:52.848649
2022-11-25 15:23:52.848828
2022-11-25 15:23:52.881731
2022-11-25 15:23:52.882083
2022-11-25 15:23:52.882264
2022-11-25 15:23:52.914942
2022-11-25 15:23:52.915343
2022-11-25 15:23:52.915529
2022-11-25 15:23:52.915692
2022-11-25 15:23:52.948234
2022-11-25 15:23:52.948518
2022-11-25 15:23:52.948683
2022-11-25 15:23:52.948841
2022-11-25 15:23:52.981462
2022-11-25 15:23:52.981690
2022-11-25 15:23:52.981852
2022-11-25 15:23:53.014867
2022-11-25 15:23:53.015158
2022-11-25 15:23:53.015283
2022-11-25 15:23:53.015425
2022-11-25 15:23:53.048264
2022-11-25 15:23:53.048604
2022-11-25 15:23:53.048771
2022-11-25 15:23:53.081426
2022-11-25 15:23:53.081718
2022-11-25 15:23:53.081880
2022-11-25 15:23:53.082051
2022-11-25 15:23:53.114802
2022-11-25 15:23:53.115122
2022-11-25 15:23:53.115299
2022-11-25 15:23:53.148076
2022-11-25 15:23:53.148408
2022-11-25 15:23:53.148574
2022-11-25 15:23:53.148733
2022-11-25 15:23:53.181416
2022-11-25 15:23:53.181756
2022-11-25 15:23:53.181931
2022-11-25 15:23:53.214572
2022-11-25 15:23:53.214949
2022-11-25 15:23:53.215125
2022-11-25 15:23:53.215289
2022-11-25 15:23:53.248022
2022-11-25 15:23:53.248374
2022-11-25 15:23:53.248552
2022-11-25 15:23:53.248713
2022-11-25 15:23:53.281354
2022-11-25 15:23:53.281689
2022-11-25 15:23:53.281872
2022-11-25 15:23:53.314566
2022-11-25 15:23:53.314867
2022-11-25 15:23:53.315043
2022-11-25 15:23:53.315206
2022-11-25 15:23:53.347818
2022-11-25 15:23:53.348056
2022-11-25 15:23:53.348163
2022-11-25 15:23:53.381075
2022-11-25 15:23:53.381426
2022-11-25 15:23:53.381557
2022-11-25 15:23:53.381675
2022-11-25 15:23:53.414415
2022-11-25 15:23:53.414745
2022-11-25 15:23:53.415110
2022-11-25 15:23:53.447670
2022-11-25 15:23:53.448224
2022-11-25 15:23:53.448428
2022-11-25 15:23:53.448592
2022-11-25 15:23:53.481034
2022-11-25 15:23:53.481471
2022-11-25 15:23:53.481704
2022-11-25 15:23:53.514202
2022-11-25 15:23:53.514535
2022-11-25 15:23:53.514662
2022-11-25 15:23:53.514751
2022-11-25 15:23:53.547702
2022-11-25 15:23:53.548148
2022-11-25 15:23:53.548534
2022-11-25 15:23:53.548701
2022-11-25 15:23:53.581018
2022-11-25 15:23:53.581367
2022-11-25 15:23:53.581543
2022-11-25 15:23:53.614398
2022-11-25 15:23:53.614769
2022-11-25 15:23:53.614951
2022-11-25 15:23:53.615115
2022-11-25 15:23:53.647773
2022-11-25 15:23:53.648116
2022-11-25 15:23:53.648302
2022-11-25 15:23:53.680770
2022-11-25 15:23:53.680989
2022-11-25 15:23:53.681204
2022-11-25 15:23:53.681292
2022-11-25 15:23:53.714252
2022-11-25 15:23:53.714588
2022-11-25 15:23:53.714759
2022-11-25 15:23:53.747502
2022-11-25 15:23:53.747866
2022-11-25 15:23:53.748039
2022-11-25 15:23:53.748205
2022-11-25 15:23:53.780912
2022-11-25 15:23:53.781225
2022-11-25 15:23:53.781398
2022-11-25 15:23:53.814070
2022-11-25 15:23:53.814454
2022-11-25 15:23:53.814628
2022-11-25 15:23:53.814797
2022-11-25 15:23:53.847479
2022-11-25 15:23:53.847819
2022-11-25 15:23:53.847988
2022-11-25 15:23:53.848152
2022-11-25 15:23:53.880859
2022-11-25 15:23:53.881218
2022-11-25 15:23:53.881392
2022-11-25 15:23:53.914007
2022-11-25 15:23:53.914330
2022-11-25 15:23:53.914498
2022-11-25 15:23:53.914659
2022-11-25 15:23:53.947372
2022-11-25 15:23:53.947726
2022-11-25 15:23:53.947902
2022-11-25 15:23:53.980585
2022-11-25 15:23:53.980903
2022-11-25 15:23:53.981074
2022-11-25 15:23:53.981230
2022-11-25 15:23:54.014017
2022-11-25 15:23:54.014361
2022-11-25 15:23:54.014534
2022-11-25 15:23:54.047187
2022-11-25 15:23:54.047505
2022-11-25 15:23:54.047686
2022-11-25 15:23:54.047845
2022-11-25 15:23:54.080625
2022-11-25 15:23:54.080982
2022-11-25 15:23:54.081152
2022-11-25 15:23:54.113736
2022-11-25 15:23:54.114105
2022-11-25 15:23:54.114282
2022-11-25 15:23:54.114438
2022-11-25 15:23:54.147155
2022-11-25 15:23:54.147460
2022-11-25 15:23:54.147640
2022-11-25 15:23:54.147796
2022-11-25 15:23:54.180505
2022-11-25 15:23:54.180845
2022-11-25 15:23:54.181016
2022-11-25 15:23:54.213715
2022-11-25 15:23:54.214063
2022-11-25 15:23:54.214240
2022-11-25 15:23:54.214399
2022-11-25 15:23:54.247078
2022-11-25 15:23:54.247412
2022-11-25 15:23:54.247586
2022-11-25 15:23:54.280282
2022-11-25 15:23:54.280650
2022-11-25 15:23:54.280824
2022-11-25 15:23:54.280988
2022-11-25 15:23:54.313624
2022-11-25 15:23:54.313929
2022-11-25 15:23:54.314092
2022-11-25 15:23:54.346884
2022-11-25 15:23:54.347204
2022-11-25 15:23:54.347381
2022-11-25 15:23:54.347538
2022-11-25 15:23:54.380289
2022-11-25 15:23:54.380631
2022-11-25 15:23:54.380804
2022-11-25 15:23:54.413496
2022-11-25 15:23:54.413839
2022-11-25 15:23:54.414023
2022-11-25 15:23:54.414182
2022-11-25 15:23:54.446619
2022-11-25 15:23:54.446868
2022-11-25 15:23:54.447034
2022-11-25 15:23:54.447202
2022-11-25 15:23:54.480015
2022-11-25 15:23:54.480247
2022-11-25 15:23:54.480325
2022-11-25 15:23:54.513080
2022-11-25 15:23:54.513301
2022-11-25 15:23:54.513464
2022-11-25 15:23:54.513620
2022-11-25 15:23:54.546433
2022-11-25 15:23:54.546641
2022-11-25 15:23:54.546802
2022-11-25 15:23:54.579707
2022-11-25 15:23:54.579913
2022-11-25 15:23:54.580047
2022-11-25 15:23:54.580214
2022-11-25 15:23:54.613201
2022-11-25 15:23:54.613440
2022-11-25 15:23:54.613605
2022-11-25 15:23:54.646425
2022-11-25 15:23:54.646664
2022-11-25 15:23:54.646832
2022-11-25 15:23:54.646986
2022-11-25 15:23:54.679810
2022-11-25 15:23:54.680061
2022-11-25 15:23:54.680226
2022-11-25 15:23:54.713155
2022-11-25 15:23:54.713517
2022-11-25 15:23:54.713690
2022-11-25 15:23:54.713855
2022-11-25 15:23:54.746521
2022-11-25 15:23:54.746858
2022-11-25 15:23:54.747079
2022-11-25 15:23:54.747242
2022-11-25 15:23:54.779888
2022-11-25 15:23:54.780214
2022-11-25 15:23:54.780386
2022-11-25 15:23:54.813139
2022-11-25 15:23:54.813474
2022-11-25 15:23:54.813646
2022-11-25 15:23:54.813807
2022-11-25 15:23:54.846427
2022-11-25 15:23:54.846754
2022-11-25 15:23:54.846940
2022-11-25 15:23:54.879576
2022-11-25 15:23:54.879826
2022-11-25 15:23:54.879918
2022-11-25 15:23:54.880004
2022-11-25 15:23:54.912589
2022-11-25 15:23:54.912666
2022-11-25 15:23:54.912694
2022-11-25 15:23:54.946135
2022-11-25 15:23:54.946274
2022-11-25 15:23:54.946344
2022-11-25 15:23:54.946410
2022-11-25 15:23:54.979581
2022-11-25 15:23:54.979831
2022-11-25 15:23:54.980001
2022-11-25 15:23:55.012735
2022-11-25 15:23:55.012972
2022-11-25 15:23:55.013134
2022-11-25 15:23:55.013291
2022-11-25 15:23:55.046049
2022-11-25 15:23:55.046286
2022-11-25 15:23:55.046452
2022-11-25 15:23:55.046608
2022-11-25 15:23:55.079626
2022-11-25 15:23:55.079950
2022-11-25 15:23:55.080117
2022-11-25 15:23:55.112807
2022-11-25 15:23:55.113133
2022-11-25 15:23:55.113310
2022-11-25 15:23:55.113470
2022-11-25 15:23:55.146034
2022-11-25 15:23:55.146247
2022-11-25 15:23:55.146338
2022-11-25 15:23:55.179468
2022-11-25 15:23:55.179816
2022-11-25 15:23:55.179991
2022-11-25 15:23:55.180158
2022-11-25 15:23:55.212789
2022-11-25 15:23:55.213123
2022-11-25 15:23:55.213297
2022-11-25 15:23:55.246016
2022-11-25 15:23:55.246340
2022-11-25 15:23:55.246514
2022-11-25 15:23:55.246674
2022-11-25 15:23:55.279360
2022-11-25 15:23:55.279646
2022-11-25 15:23:55.279746
2022-11-25 15:23:55.312630
2022-11-25 15:23:55.313032
2022-11-25 15:23:55.313215
2022-11-25 15:23:55.313374
2022-11-25 15:23:55.345969
2022-11-25 15:23:55.346290
2022-11-25 15:23:55.346461
2022-11-25 15:23:55.346619
2022-11-25 15:23:55.379395
2022-11-25 15:23:55.379725
2022-11-25 15:23:55.379891
2022-11-25 15:23:55.412594
2022-11-25 15:23:55.412941
2022-11-25 15:23:55.413108
2022-11-25 15:23:55.413268
2022-11-25 15:23:55.445957
2022-11-25 15:23:55.446312
2022-11-25 15:23:55.446492
2022-11-25 15:23:55.479033
2022-11-25 15:23:55.479293
2022-11-25 15:23:55.479462
2022-11-25 15:23:55.479619
2022-11-25 15:23:55.512486
2022-11-25 15:23:55.512841
2022-11-25 15:23:55.513014
2022-11-25 15:23:55.545712
2022-11-25 15:23:55.546025
2022-11-25 15:23:55.546199
2022-11-25 15:23:55.546466
2022-11-25 15:23:55.578969
2022-11-25 15:23:55.579294
2022-11-25 15:23:55.579610
2022-11-25 15:23:55.612060
2022-11-25 15:23:55.612275
2022-11-25 15:23:55.612495
2022-11-25 15:23:55.612599
2022-11-25 15:23:55.645311
2022-11-25 15:23:55.645461
2022-11-25 15:23:55.645546
2022-11-25 15:23:55.645796
2022-11-25 15:23:55.678788
2022-11-25 15:23:55.679308
2022-11-25 15:23:55.679508
2022-11-25 15:23:55.712345
2022-11-25 15:23:55.712708
2022-11-25 15:23:55.712896
2022-11-25 15:23:55.713059
2022-11-25 15:23:55.745596
2022-11-25 15:23:55.745924
2022-11-25 15:23:55.746097
2022-11-25 15:23:55.778705
2022-11-25 15:23:55.778918
2022-11-25 15:23:55.779028
2022-11-25 15:23:55.779105
2022-11-25 15:23:55.812135
2022-11-25 15:23:55.812454
2022-11-25 15:23:55.812637
2022-11-25 15:23:55.845328
2022-11-25 15:23:55.845631
2022-11-25 15:23:55.845775
2022-11-25 15:23:55.845869
2022-11-25 15:23:55.878845
2022-11-25 15:23:55.879205
2022-11-25 15:23:55.879385
2022-11-25 15:23:55.911977
2022-11-25 15:23:55.912350
2022-11-25 15:23:55.912524
2022-11-25 15:23:55.912693
2022-11-25 15:23:55.945331
2022-11-25 15:23:55.945657
2022-11-25 15:23:55.945830
2022-11-25 15:23:55.945993
2022-11-25 15:23:55.978804
2022-11-25 15:23:55.979168
2022-11-25 15:23:55.979341
2022-11-25 15:23:56.011987
2022-11-25 15:23:56.012331
2022-11-25 15:23:56.012512
2022-11-25 15:23:56.012676
2022-11-25 15:23:56.045217
2022-11-25 15:23:56.045479
2022-11-25 15:23:56.045643
2022-11-25 15:23:56.078358
2022-11-25 15:23:56.078616
2022-11-25 15:23:56.078784
2022-11-25 15:23:56.078944
2022-11-25 15:23:56.111943
2022-11-25 15:23:56.112449
2022-11-25 15:23:56.112659
2022-11-25 15:23:56.145113
2022-11-25 15:23:56.145441
2022-11-25 15:23:56.145613
2022-11-25 15:23:56.145776
2022-11-25 15:23:56.178415
2022-11-25 15:23:56.178703
2022-11-25 15:23:56.178867
2022-11-25 15:23:56.211722
2022-11-25 15:23:56.212108
2022-11-25 15:23:56.212287
2022-11-25 15:23:56.212446
2022-11-25 15:23:56.245098
2022-11-25 15:23:56.245427
2022-11-25 15:23:56.245596
2022-11-25 15:23:56.245772
2022-11-25 15:23:56.278480
2022-11-25 15:23:56.278820
2022-11-25 15:23:56.278993
2022-11-25 15:23:56.311651
2022-11-25 15:23:56.311993
2022-11-25 15:23:56.312162
2022-11-25 15:23:56.312322
2022-11-25 15:23:56.345027
2022-11-25 15:23:56.345371
2022-11-25 15:23:56.345548
2022-11-25 15:23:56.378297
2022-11-25 15:23:56.378633
2022-11-25 15:23:56.378805
2022-11-25 15:23:56.378968
2022-11-25 15:23:56.411661
2022-11-25 15:23:56.412008
2022-11-25 15:23:56.412185
2022-11-25 15:23:56.444831
2022-11-25 15:23:56.445200
2022-11-25 15:23:56.445375
2022-11-25 15:23:56.445535
2022-11-25 15:23:56.478202
2022-11-25 15:23:56.478537
2022-11-25 15:23:56.478711
2022-11-25 15:23:56.511268
2022-11-25 15:23:56.511677
2022-11-25 15:23:56.511945
2022-11-25 15:23:56.512059
2022-11-25 15:23:56.544688
2022-11-25 15:23:56.544946
2022-11-25 15:23:56.545075
2022-11-25 15:23:56.545196
2022-11-25 15:23:56.578599
2022-11-25 15:23:56.578894
2022-11-25 15:23:56.579018
2022-11-25 15:23:56.611381
2022-11-25 15:23:56.611726
2022-11-25 15:23:56.611902
2022-11-25 15:23:56.612062
2022-11-25 15:23:56.644640
2022-11-25 15:23:56.644940
2022-11-25 15:23:56.645113
2022-11-25 15:23:56.677883
2022-11-25 15:23:56.678163
2022-11-25 15:23:56.678329
2022-11-25 15:23:56.678490
2022-11-25 15:23:56.711334
2022-11-25 15:23:56.711672
2022-11-25 15:23:56.711855
2022-11-25 15:23:56.744350
2022-11-25 15:23:56.744612
2022-11-25 15:23:56.744787
2022-11-25 15:23:56.745056
2022-11-25 15:23:56.777799
2022-11-25 15:23:56.778109
2022-11-25 15:23:56.778261
2022-11-25 15:23:56.811013
2022-11-25 15:23:56.811365
2022-11-25 15:23:56.811558
2022-11-25 15:23:56.811721
2022-11-25 15:23:56.844302
2022-11-25 15:23:56.844622
2022-11-25 15:23:56.844749
2022-11-25 15:23:56.844866
2022-11-25 15:23:56.877653
2022-11-25 15:23:56.877881
2022-11-25 15:23:56.877978
