2022-12-01 17:16:21.837316, 0.48387
2022-12-01 17:16:21.878419, 0.47898
2022-12-01 17:16:21.922448, 0.48387
2022-12-01 17:16:21.958263, 0.48387
2022-12-01 17:16:21.974585, 0.48876
2022-12-01 17:16:22.002576, 0.48387
2022-12-01 17:16:22.014660, 0.47898
2022-12-01 17:16:22.029616, 0.48387
2022-12-01 17:16:22.046922, 0.48387
2022-12-01 17:16:22.068176, 0.48387
2022-12-01 17:16:22.091871, 0.48387
2022-12-01 17:16:22.113234, 0.48387
2022-12-01 17:16:22.127504, 0.48387
2022-12-01 17:16:22.146474, 0.48387
2022-12-01 17:16:22.155883, 0.47898
2022-12-01 17:16:22.162245, 0.48876
2022-12-01 17:16:22.177703, 0.48387
2022-12-01 17:16:22.188786, 0.48876
2022-12-01 17:16:22.204757, 0.48387
2022-12-01 17:16:22.215071, 0.47898
2022-12-01 17:16:22.221369, 0.48876
2022-12-01 17:16:22.230059, 0.48387
2022-12-01 17:16:22.233197, 0.48876
2022-12-01 17:16:22.236318, 0.48387
2022-12-01 17:16:22.239134, 0.48876
2022-12-01 17:16:22.244239, 0.48387
2022-12-01 17:16:22.248929, 0.48387
2022-12-01 17:16:22.251595, 0.48387
2022-12-01 17:16:22.255808, 0.47410
2022-12-01 17:16:22.261249, 0.48387
2022-12-01 17:16:22.265295, 0.48387
2022-12-01 17:16:22.268275, 0.48387
2022-12-01 17:16:22.270833, 0.47898
2022-12-01 17:16:22.273345, 0.48387
2022-12-01 17:16:22.275491, 0.48387
2022-12-01 17:16:22.279336, 0.48387
2022-12-01 17:16:22.282166, 0.48387
2022-12-01 17:16:22.283924, 0.48387
2022-12-01 17:16:22.294447, 0.48387
2022-12-01 17:16:22.302850, 0.48387
2022-12-01 17:16:22.305844, 0.48387
2022-12-01 17:16:22.309484, 0.48387
2022-12-01 17:16:22.312559, 0.48387
2022-12-01 17:16:22.314457, 0.48387
2022-12-01 17:16:22.317342, 0.48387
2022-12-01 17:16:22.319807, 0.47898
2022-12-01 17:16:22.324445, 0.48387
2022-12-01 17:16:22.327721, 0.48387
2022-12-01 17:16:22.330416, 0.48387
2022-12-01 17:16:22.331545, 0.47898
2022-12-01 17:16:22.333121, 0.48387
2022-12-01 17:16:22.335167, 0.48387
2022-12-01 17:16:22.336657, 0.48387
2022-12-01 17:16:22.338790, 0.48387
2022-12-01 17:16:22.341273, 0.48387
2022-12-01 17:16:22.342518, 0.47898
2022-12-01 17:16:22.345103, 0.48387
2022-12-01 17:16:22.346401, 0.47898
2022-12-01 17:16:22.347395, 0.48387
2022-12-01 17:16:22.348934, 0.48387
2022-12-01 17:16:22.349936, 0.48387
2022-12-01 17:16:22.351568, 0.48876
2022-12-01 17:16:22.353555, 0.48387
2022-12-01 17:16:22.355564, 0.48876
2022-12-01 17:16:22.357519, 0.48387
2022-12-01 17:16:22.365395, 0.48387
2022-12-01 17:16:22.377550, 0.48387
2022-12-01 17:16:22.386447, 0.48387
2022-12-01 17:16:22.394075, 0.48387
2022-12-01 17:16:22.406967, 0.48387
2022-12-01 17:16:22.414397, 0.48387
2022-12-01 17:16:22.423001, 0.48387
2022-12-01 17:16:22.431139, 0.48387
2022-12-01 17:16:22.443836, 0.48387
2022-12-01 17:16:22.451613, 0.47898
2022-12-01 17:16:22.459993, 0.47898
2022-12-01 17:16:22.472269, 0.48387
2022-12-01 17:16:22.480881, 0.48876
2022-12-01 17:16:22.488643, 0.48387
2022-12-01 17:16:22.497282, 0.48387
2022-12-01 17:16:22.509227, 0.47898
2022-12-01 17:16:22.517177, 0.48387
2022-12-01 17:16:22.527072, 0.48387
2022-12-01 17:16:22.537875, 0.48387
2022-12-01 17:16:22.546257, 0.47898
2022-12-01 17:16:22.554533, 0.48387
2022-12-01 17:16:22.561933, 0.47898
2022-12-01 17:16:22.574183, 0.48387
2022-12-01 17:16:22.583198, 0.48387
2022-12-01 17:16:22.591177, 0.48387
2022-12-01 17:16:22.603155, 0.48876
2022-12-01 17:16:22.611290, 0.48876
2022-12-01 17:16:22.619589, 0.48387
2022-12-01 17:16:22.628219, 0.48876
2022-12-01 17:16:22.639766, 0.48876
2022-12-01 17:16:22.648667, 0.48876
2022-12-01 17:16:22.656647, 0.48387
2022-12-01 17:16:22.668738, 0.48876
2022-12-01 17:16:22.677578, 0.48387
2022-12-01 17:16:22.685588, 0.48876
2022-12-01 17:16:22.693925, 0.48387
2022-12-01 17:16:22.705403, 0.48876
2022-12-01 17:16:22.713338, 0.48876
2022-12-01 17:16:22.721997, 0.48387
2022-12-01 17:16:22.734082, 0.48876
2022-12-01 17:16:22.742168, 0.48876
2022-12-01 17:16:22.751145, 0.49365
2022-12-01 17:16:22.758655, 0.48876
2022-12-01 17:16:22.771133, 0.48876
2022-12-01 17:16:22.779772, 0.48876
2022-12-01 17:16:22.787161, 0.48876
2022-12-01 17:16:22.800097, 0.48876
2022-12-01 17:16:22.807496, 0.48876
2022-12-01 17:16:22.815927, 0.48876
2022-12-01 17:16:22.824351, 0.48387
2022-12-01 17:16:22.836762, 0.48876
2022-12-01 17:16:22.845174, 0.48876
2022-12-01 17:16:22.852738, 0.48387
2022-12-01 17:16:22.865535, 0.48876
2022-12-01 17:16:22.873518, 0.48876
2022-12-01 17:16:22.881922, 0.48876
2022-12-01 17:16:22.890011, 0.48387
2022-12-01 17:16:22.902218, 0.48876
2022-12-01 17:16:22.911095, 0.48876
2022-12-01 17:16:22.918907, 0.48387
2022-12-01 17:16:22.930405, 0.48876
2022-12-01 17:16:22.939078, 0.48387
2022-12-01 17:16:22.947768, 0.48876
2022-12-01 17:16:22.955409, 0.48876
2022-12-01 17:16:22.967842, 0.48876
2022-12-01 17:16:22.976200, 0.49365
2022-12-01 17:16:22.984666, 0.49365
2022-12-01 17:16:22.992455, 0.49365
2022-12-01 17:16:23.005087, 0.48876
2022-12-01 17:16:23.012610, 0.49365
2022-12-01 17:16:23.020602, 0.48876
2022-12-01 17:16:23.033567, 0.49365
2022-12-01 17:16:23.041634, 0.48876
2022-12-01 17:16:23.050082, 0.48876
2022-12-01 17:16:23.057946, 0.48876
2022-12-01 17:16:23.070627, 0.48876
2022-12-01 17:16:23.079040, 0.48876
2022-12-01 17:16:23.086743, 0.48876
2022-12-01 17:16:23.099144, 0.48876
2022-12-01 17:16:23.107024, 0.48876
2022-12-01 17:16:23.115959, 0.49365
2022-12-01 17:16:23.123513, 0.48876
2022-12-01 17:16:23.136003, 0.48876
2022-12-01 17:16:23.143707, 0.49365
2022-12-01 17:16:23.152161, 0.48876
2022-12-01 17:16:23.164213, 0.49365
2022-12-01 17:16:23.172985, 0.48876
2022-12-01 17:16:23.181014, 0.49365
2022-12-01 17:16:23.189391, 0.49365
2022-12-01 17:16:23.200976, 0.49365
2022-12-01 17:16:23.209892, 0.49365
2022-12-01 17:16:23.218035, 0.49365
2022-12-01 17:16:23.229773, 0.49365
2022-12-01 17:16:23.238169, 0.49365
2022-12-01 17:16:23.246189, 0.49365
2022-12-01 17:16:23.254550, 0.49365
2022-12-01 17:16:23.266432, 0.49365
2022-12-01 17:16:23.275674, 0.49365
2022-12-01 17:16:23.283300, 0.49365
2022-12-01 17:16:23.295126, 0.48876
2022-12-01 17:16:23.303772, 0.49365
2022-12-01 17:16:23.312179, 0.49365
2022-12-01 17:16:23.319723, 0.48876
2022-12-01 17:16:23.332208, 0.49853
2022-12-01 17:16:23.340745, 0.49365
2022-12-01 17:16:23.349180, 0.49365
2022-12-01 17:16:23.361328, 0.48876
2022-12-01 17:16:23.369057, 0.49365
2022-12-01 17:16:23.377788, 0.49365
2022-12-01 17:16:23.386088, 0.49365
2022-12-01 17:16:23.397593, 0.49365
2022-12-01 17:16:23.406251, 0.48876
2022-12-01 17:16:23.414652, 0.49365
2022-12-01 17:16:23.426805, 0.48876
2022-12-01 17:16:23.434843, 0.48876
2022-12-01 17:16:23.443523, 0.48876
2022-12-01 17:16:23.450369, 0.48876
2022-12-01 17:16:23.463807, 0.48876
2022-12-01 17:16:23.471197, 0.48876
2022-12-01 17:16:23.480370, 0.48876
2022-12-01 17:16:23.492142, 0.48876
2022-12-01 17:16:23.499801, 0.48876
2022-12-01 17:16:23.508368, 0.48387
2022-12-01 17:16:23.517200, 0.48876
2022-12-01 17:16:23.528508, 0.48876
2022-12-01 17:16:23.537599, 0.48387
2022-12-01 17:16:23.545661, 0.48876
2022-12-01 17:16:23.557891, 0.48387
2022-12-01 17:16:23.566093, 0.48876
2022-12-01 17:16:23.573695, 0.48387
2022-12-01 17:16:23.582562, 0.48876
2022-12-01 17:16:23.594197, 0.48876
2022-12-01 17:16:23.603026, 0.48876
2022-12-01 17:16:23.611111, 0.48876
2022-12-01 17:16:23.623064, 0.47898
2022-12-01 17:16:23.631213, 0.48387
2022-12-01 17:16:23.639642, 0.46921
2022-12-01 17:16:23.647436, 0.48876
2022-12-01 17:16:23.660570, 0.47898
2022-12-01 17:16:23.668302, 0.48387
2022-12-01 17:16:23.676273, 0.48387
2022-12-01 17:16:23.688598, 0.48387
2022-12-01 17:16:23.697168, 0.48876
2022-12-01 17:16:23.704797, 0.47410
2022-12-01 17:16:23.713314, 0.48876
2022-12-01 17:16:23.725300, 0.47410
2022-12-01 17:16:23.733403, 0.48387
2022-12-01 17:16:23.741647, 0.47898
2022-12-01 17:16:23.753897, 0.48876
2022-12-01 17:16:23.762508, 0.48387
2022-12-01 17:16:23.770922, 0.47898
2022-12-01 17:16:23.778616, 0.48387
2022-12-01 17:16:23.790540, 0.46921
2022-12-01 17:16:23.799539, 0.48876
2022-12-01 17:16:23.807802, 0.47898
2022-12-01 17:16:23.820045, 0.48387
2022-12-01 17:16:23.828405, 0.47410
2022-12-01 17:16:23.836269, 0.48387
2022-12-01 17:16:23.844236, 0.48876
2022-12-01 17:16:23.856392, 0.47898
2022-12-01 17:16:23.864497, 0.48387
2022-12-01 17:16:23.872700, 0.47410
2022-12-01 17:16:23.881075, 0.48387
2022-12-01 17:16:23.893710, 0.47898
2022-12-01 17:16:23.901673, 0.48876
2022-12-01 17:16:23.910004, 0.48387
2022-12-01 17:16:23.921831, 0.48387
2022-12-01 17:16:23.930625, 0.48387
2022-12-01 17:16:23.938908, 0.47410
2022-12-01 17:16:23.946917, 0.47898
2022-12-01 17:16:23.958984, 0.47410
2022-12-01 17:16:23.967475, 0.48387
2022-12-01 17:16:23.976016, 0.47410
2022-12-01 17:16:23.987311, 0.48387
2022-12-01 17:16:23.996196, 0.48387
2022-12-01 17:16:24.004488, 0.47410
2022-12-01 17:16:24.012938, 0.47898
2022-12-01 17:16:24.026247, 0.47410
2022-12-01 17:16:24.033054, 0.48387
2022-12-01 17:16:24.041596, 0.46921
2022-12-01 17:16:24.053445, 0.48387
2022-12-01 17:16:24.060943, 0.48387
2022-12-01 17:16:24.070031, 0.48387
2022-12-01 17:16:24.077518, 0.48876
2022-12-01 17:16:24.090190, 0.47898
2022-12-01 17:16:24.098550, 0.48387
2022-12-01 17:16:24.106219, 0.46921
2022-12-01 17:16:24.118295, 0.48387
2022-12-01 17:16:24.126682, 0.47410
2022-12-01 17:16:24.135776, 0.48387
2022-12-01 17:16:24.143774, 0.48387
2022-12-01 17:16:24.155547, 0.47898
2022-12-01 17:16:24.164420, 0.48387
2022-12-01 17:16:24.172160, 0.47410
2022-12-01 17:16:24.184441, 0.48387
2022-12-01 17:16:24.192162, 0.47410
2022-12-01 17:16:24.201289, 0.48387
2022-12-01 17:16:24.209258, 0.47898
2022-12-01 17:16:24.221123, 0.48387
2022-12-01 17:16:24.229064, 0.48387
2022-12-01 17:16:24.237910, 0.47898
2022-12-01 17:16:24.250075, 0.48387
2022-12-01 17:16:24.257721, 0.47898
2022-12-01 17:16:24.266584, 0.48387
2022-12-01 17:16:24.274442, 0.47898
2022-12-01 17:16:24.286856, 0.48876
2022-12-01 17:16:24.295135, 0.48876
2022-12-01 17:16:24.303755, 0.48387
2022-12-01 17:16:24.315489, 0.48876
2022-12-01 17:16:24.323421, 0.47898
2022-12-01 17:16:24.331658, 0.48876
2022-12-01 17:16:24.339818, 0.47898
2022-12-01 17:16:24.352463, 0.48876
2022-12-01 17:16:24.360882, 0.48876
2022-12-01 17:16:24.369048, 0.48876
2022-12-01 17:16:24.380669, 0.48876
2022-12-01 17:16:24.389492, 0.48387
2022-12-01 17:16:24.397426, 0.48387
2022-12-01 17:16:24.405932, 0.47898
2022-12-01 17:16:24.418137, 0.48876
2022-12-01 17:16:24.426718, 0.47898
2022-12-01 17:16:24.434474, 0.48876
2022-12-01 17:16:24.446505, 0.48876
2022-12-01 17:16:24.454363, 0.48876
2022-12-01 17:16:24.463071, 0.49365
2022-12-01 17:16:24.471120, 0.47410
2022-12-01 17:16:24.483402, 0.49365
2022-12-01 17:16:24.491443, 0.47410
2022-12-01 17:16:24.499956, 0.49365
2022-12-01 17:16:24.512247, 0.48387
2022-12-01 17:16:24.520041, 0.48876
2022-12-01 17:16:24.528687, 0.48876
2022-12-01 17:16:24.536909, 0.48387
2022-12-01 17:16:24.549061, 0.49365
2022-12-01 17:16:24.556804, 0.47898
2022-12-01 17:16:24.565811, 0.48387
2022-12-01 17:16:24.577575, 0.48387
2022-12-01 17:16:24.585450, 0.48876
2022-12-01 17:16:24.594313, 0.48387
2022-12-01 17:16:24.602259, 0.48876
2022-12-01 17:16:24.614212, 0.49365
2022-12-01 17:16:24.622426, 0.48387
2022-12-01 17:16:24.630757, 0.48387
2022-12-01 17:16:24.642742, 0.48387
2022-12-01 17:16:24.651543, 0.49365
2022-12-01 17:16:24.659328, 0.48387
2022-12-01 17:16:24.668209, 0.49365
2022-12-01 17:16:24.680079, 0.49365
2022-12-01 17:16:24.688667, 0.48876
2022-12-01 17:16:24.696158, 0.49365
2022-12-01 17:16:24.708994, 0.48387
2022-12-01 17:16:24.717247, 0.49365
2022-12-01 17:16:24.724641, 0.48387
2022-12-01 17:16:24.732932, 0.49365
2022-12-01 17:16:24.745232, 0.49365
2022-12-01 17:16:24.754123, 0.49365
2022-12-01 17:16:24.762342, 0.49365
2022-12-01 17:16:24.770225, 0.48876
2022-12-01 17:16:24.782690, 0.49365
2022-12-01 17:16:24.791044, 0.48387
2022-12-01 17:16:24.798848, 0.49365
2022-12-01 17:16:24.811092, 0.48876
2022-12-01 17:16:24.819515, 0.49365
2022-12-01 17:16:24.827861, 0.48876
2022-12-01 17:16:24.836059, 0.49365
2022-12-01 17:16:24.848071, 0.49365
2022-12-01 17:16:24.856642, 0.48387
2022-12-01 17:16:24.864869, 0.49853
2022-12-01 17:16:24.877271, 0.48387
2022-12-01 17:16:24.884814, 0.48876
2022-12-01 17:16:24.892687, 0.49365
2022-12-01 17:16:24.901400, 0.49365
2022-12-01 17:16:24.913505, 0.49853
2022-12-01 17:16:24.921168, 0.48876
2022-12-01 17:16:24.929761, 0.49365
2022-12-01 17:16:24.941851, 0.47898
2022-12-01 17:16:24.949891, 0.49853
2022-12-01 17:16:24.958528, 0.48876
2022-12-01 17:16:24.967058, 0.49853
2022-12-01 17:16:24.979184, 0.49853
2022-12-01 17:16:24.987248, 0.49853
2022-12-01 17:16:24.995613, 0.49853
2022-12-01 17:16:25.008148, 0.48876
2022-12-01 17:16:25.016088, 0.49853
2022-12-01 17:16:25.024288, 0.48876
2022-12-01 17:16:25.032637, 0.49853
2022-12-01 17:16:25.044047, 0.49365
2022-12-01 17:16:25.052916, 0.50342
2022-12-01 17:16:25.060372, 0.49853
2022-12-01 17:16:25.072863, 0.48876
2022-12-01 17:16:25.081475, 0.49853
2022-12-01 17:16:25.089138, 0.48387
2022-12-01 17:16:25.098044, 0.49853
2022-12-01 17:16:25.110399, 0.48876
2022-12-01 17:16:25.118270, 0.49365
2022-12-01 17:16:25.126557, 0.49853
2022-12-01 17:16:25.139050, 0.49365
2022-12-01 17:16:25.147167, 0.49853
2022-12-01 17:16:25.155368, 0.48876
2022-12-01 17:16:25.163868, 0.49853
2022-12-01 17:16:25.175388, 0.48876
2022-12-01 17:16:25.183715, 0.49853
2022-12-01 17:16:25.191739, 0.48876
2022-12-01 17:16:25.203800, 0.49365
2022-12-01 17:16:25.211985, 0.49853
2022-12-01 17:16:25.220939, 0.49365
2022-12-01 17:16:25.229071, 0.49853
2022-12-01 17:16:25.241263, 0.48876
2022-12-01 17:16:25.249332, 0.49853
2022-12-01 17:16:25.257936, 0.48876
2022-12-01 17:16:25.270242, 0.49853
2022-12-01 17:16:25.278241, 0.49365
2022-12-01 17:16:25.286126, 0.49853
2022-12-01 17:16:25.294596, 0.49365
2022-12-01 17:16:25.306875, 0.48876
2022-12-01 17:16:25.315061, 0.49365
2022-12-01 17:16:25.323278, 0.48387
2022-12-01 17:16:25.335565, 0.49365
2022-12-01 17:16:25.343586, 0.48387
2022-12-01 17:16:25.352051, 0.49365
2022-12-01 17:16:25.359825, 0.49365
2022-12-01 17:16:25.372500, 0.48876
2022-12-01 17:16:25.380471, 0.48387
2022-12-01 17:16:25.388594, 0.48387
2022-12-01 17:16:25.400512, 0.49365
2022-12-01 17:16:25.409456, 0.48387
2022-12-01 17:16:25.417657, 0.48876
2022-12-01 17:16:25.425589, 0.48876
2022-12-01 17:16:25.437661, 0.49365
2022-12-01 17:16:25.446177, 0.49365
2022-12-01 17:16:25.454185, 0.48387
2022-12-01 17:16:25.466136, 0.48876
2022-12-01 17:16:25.474947, 0.48387
2022-12-01 17:16:25.483255, 0.49365
2022-12-01 17:16:25.491461, 0.48387
2022-12-01 17:16:25.503283, 0.48876
2022-12-01 17:16:25.511584, 0.49365
2022-12-01 17:16:25.520029, 0.49365
2022-12-01 17:16:25.532239, 0.49365
2022-12-01 17:16:25.540288, 0.48387
2022-12-01 17:16:25.548744, 0.49365
2022-12-01 17:16:25.556610, 0.48387
2022-12-01 17:16:25.568871, 0.49365
2022-12-01 17:16:25.577371, 0.48876
2022-12-01 17:16:25.585115, 0.49365
2022-12-01 17:16:25.597888, 0.49365
2022-12-01 17:16:25.605593, 0.48876
2022-12-01 17:16:25.614363, 0.49365
2022-12-01 17:16:25.622004, 0.48387
2022-12-01 17:16:25.634548, 0.49365
2022-12-01 17:16:25.643018, 0.48387
2022-12-01 17:16:25.650716, 0.49365
2022-12-01 17:16:25.659052, 0.48387
2022-12-01 17:16:25.671426, 0.48876
2022-12-01 17:16:25.679239, 0.49365
2022-12-01 17:16:25.687251, 0.48387
2022-12-01 17:16:25.699895, 0.49365
2022-12-01 17:16:25.708059, 0.48387
2022-12-01 17:16:25.716522, 0.48876
2022-12-01 17:16:25.724874, 0.48876
2022-12-01 17:16:25.736540, 0.49365
2022-12-01 17:16:25.745079, 0.49365
2022-12-01 17:16:25.752718, 0.48876
2022-12-01 17:16:25.765721, 0.49365
2022-12-01 17:16:25.773700, 0.48387
2022-12-01 17:16:25.781753, 0.49365
2022-12-01 17:16:25.790306, 0.48387
2022-12-01 17:16:25.802369, 0.49365
2022-12-01 17:16:25.809734, 0.48876
2022-12-01 17:16:25.818573, 0.48876
2022-12-01 17:16:25.830791, 0.49365
2022-12-01 17:16:25.839500, 0.48387
2022-12-01 17:16:25.847244, 0.49365
2022-12-01 17:16:25.855780, 0.47898
2022-12-01 17:16:25.867810, 0.49365
2022-12-01 17:16:25.876086, 0.48387
2022-12-01 17:16:25.884257, 0.49365
2022-12-01 17:16:25.896815, 0.48387
2022-12-01 17:16:25.904552, 0.48876
2022-12-01 17:16:25.913357, 0.48876
2022-12-01 17:16:25.921124, 0.47898
2022-12-01 17:16:25.933395, 0.48876
2022-12-01 17:16:25.941829, 0.48387
2022-12-01 17:16:25.950195, 0.48876
2022-12-01 17:16:25.962285, 0.48876
2022-12-01 17:16:25.970432, 0.49365
2022-12-01 17:16:25.978307, 0.49365
2022-12-01 17:16:25.986865, 0.48876
2022-12-01 17:16:25.999134, 0.49365
2022-12-01 17:16:26.007304, 0.48387
2022-12-01 17:16:26.014972, 0.49365
2022-12-01 17:16:26.027917, 0.48876
2022-12-01 17:16:26.035972, 0.49365
2022-12-01 17:16:26.044170, 0.48876
2022-12-01 17:16:26.052289, 0.49365
2022-12-01 17:16:26.064784, 0.49365
2022-12-01 17:16:26.073016, 0.48876
2022-12-01 17:16:26.081049, 0.49365
2022-12-01 17:16:26.093124, 0.48387
2022-12-01 17:16:26.101443, 0.49365
2022-12-01 17:16:26.109534, 0.48876
2022-12-01 17:16:26.117933, 0.49853
2022-12-01 17:16:26.130177, 0.49853
2022-12-01 17:16:26.138454, 0.49365
2022-12-01 17:16:26.146330, 0.49365
2022-12-01 17:16:26.158992, 0.48876
2022-12-01 17:16:26.166834, 0.49853
2022-12-01 17:16:26.175034, 0.48387
2022-12-01 17:16:26.183164, 0.49853
2022-12-01 17:16:26.195716, 0.49365
2022-12-01 17:16:26.203265, 0.49853
2022-12-01 17:16:26.212069, 0.49365
2022-12-01 17:16:26.224277, 0.48876
2022-12-01 17:16:26.231880, 0.49365
2022-12-01 17:16:26.240815, 0.48387
2022-12-01 17:16:26.248896, 0.49365
2022-12-01 17:16:26.261182, 0.48387
2022-12-01 17:16:26.269513, 0.49365
2022-12-01 17:16:26.277738, 0.49365
2022-12-01 17:16:26.289428, 0.48876
2022-12-01 17:16:26.298180, 0.49853
2022-12-01 17:16:26.306572, 0.49365
2022-12-01 17:16:26.314703, 0.50342
2022-12-01 17:16:26.326566, 0.48876
2022-12-01 17:16:26.335091, 0.49853
2022-12-01 17:16:26.342775, 0.50342
2022-12-01 17:16:26.355538, 0.50342
2022-12-01 17:16:26.363721, 0.50342
2022-12-01 17:16:26.371674, 0.49853
2022-12-01 17:16:26.379667, 0.49365
2022-12-01 17:16:26.392301, 0.49365
2022-12-01 17:16:26.400390, 0.50342
2022-12-01 17:16:26.408968, 0.49365
2022-12-01 17:16:26.420435, 0.50342
2022-12-01 17:16:26.428919, 0.49853
2022-12-01 17:16:26.437168, 0.49365
2022-12-01 17:16:26.445171, 0.50342
2022-12-01 17:16:26.458014, 0.49365
2022-12-01 17:16:26.466237, 0.49853
2022-12-01 17:16:26.473674, 0.49365
2022-12-01 17:16:26.481672, 0.49853
2022-12-01 17:16:26.494437, 0.49365
2022-12-01 17:16:26.503004, 0.49853
2022-12-01 17:16:26.511359, 0.49853
2022-12-01 17:16:26.522945, 0.49365
2022-12-01 17:16:26.531691, 0.49853
2022-12-01 17:16:26.539884, 0.48876
2022-12-01 17:16:26.547906, 0.49853
2022-12-01 17:16:26.560368, 0.49365
2022-12-01 17:16:26.568631, 0.49853
2022-12-01 17:16:26.576534, 0.49853
2022-12-01 17:16:26.588553, 0.49853
2022-12-01 17:16:26.597092, 0.49853
2022-12-01 17:16:26.605424, 0.48876
2022-12-01 17:16:26.613604, 0.49365
2022-12-01 17:16:26.626007, 0.48876
2022-12-01 17:16:26.633995, 0.49853
2022-12-01 17:16:26.642089, 0.49365
2022-12-01 17:16:26.653991, 0.49853
2022-12-01 17:16:26.662742, 0.49853
2022-12-01 17:16:26.670446, 0.49365
2022-12-01 17:16:26.678940, 0.49853
2022-12-01 17:16:26.691111, 0.48876
2022-12-01 17:16:26.699295, 0.49853
2022-12-01 17:16:26.707224, 0.48387
2022-12-01 17:16:26.719728, 0.49853
2022-12-01 17:16:26.728566, 0.49853
2022-12-01 17:16:26.736740, 0.49853
2022-12-01 17:16:26.744588, 0.49853
2022-12-01 17:16:26.756549, 0.49365
2022-12-01 17:16:26.764963, 0.49365
2022-12-01 17:16:26.773246, 0.48876
2022-12-01 17:16:26.785139, 0.49853
2022-12-01 17:16:26.793704, 0.48876
2022-12-01 17:16:26.801375, 0.50342
2022-12-01 17:16:26.810089, 0.49853
2022-12-01 17:16:26.821733, 0.49365
2022-12-01 17:16:26.830321, 0.49853
2022-12-01 17:16:26.838884, 0.48876
2022-12-01 17:16:26.850741, 0.49853
2022-12-01 17:16:26.859511, 0.48876
2022-12-01 17:16:26.867052, 0.49853
2022-12-01 17:16:26.875828, 0.49365
2022-12-01 17:16:26.887851, 0.49853
2022-12-01 17:16:26.896160, 0.49853
2022-12-01 17:16:26.904503, 0.49365
2022-12-01 17:16:26.915980, 0.50342
2022-12-01 17:16:26.924590, 0.48876
2022-12-01 17:16:26.932484, 0.49853
2022-12-01 17:16:26.940618, 0.48876
2022-12-01 17:16:26.953084, 0.49853
2022-12-01 17:16:26.962008, 0.49365
2022-12-01 17:16:26.970188, 0.49853
2022-12-01 17:16:26.981400, 0.49853
2022-12-01 17:16:26.990130, 0.48876
2022-12-01 17:16:26.998481, 0.49853
2022-12-01 17:16:27.006537, 0.48387
2022-12-01 17:16:27.018863, 0.49853
2022-12-01 17:16:27.026705, 0.49365
2022-12-01 17:16:27.034837, 0.49853
2022-12-01 17:16:27.047758, 0.49853
2022-12-01 17:16:27.055975, 0.48876
2022-12-01 17:16:27.063882, 0.49853
2022-12-01 17:16:27.072339, 0.48876
2022-12-01 17:16:27.084694, 0.49853
2022-12-01 17:16:27.092772, 0.48876
2022-12-01 17:16:27.100322, 0.49365
2022-12-01 17:16:27.112764, 0.48387
2022-12-01 17:16:27.120960, 0.48876
2022-12-01 17:16:27.128730, 0.49365
2022-12-01 17:16:27.137375, 0.48876
2022-12-01 17:16:27.149328, 0.49365
2022-12-01 17:16:27.157980, 0.48387
2022-12-01 17:16:27.166222, 0.49365
2022-12-01 17:16:27.178740, 0.48387
2022-12-01 17:16:27.186401, 0.48876
2022-12-01 17:16:27.195261, 0.48876
2022-12-01 17:16:27.202926, 0.48387
2022-12-01 17:16:27.215779, 0.48876
2022-12-01 17:16:27.223191, 0.47898
2022-12-01 17:16:27.232065, 0.49365
2022-12-01 17:16:27.244428, 0.47898
2022-12-01 17:16:27.252433, 0.48876
2022-12-01 17:16:27.260655, 0.48387
2022-12-01 17:16:27.268652, 0.48876
2022-12-01 17:16:27.281273, 0.48876
2022-12-01 17:16:27.289067, 0.48387
2022-12-01 17:16:27.297106, 0.49365
2022-12-01 17:16:27.309098, 0.47898
2022-12-01 17:16:27.318181, 0.48876
2022-12-01 17:16:27.326231, 0.47898
2022-12-01 17:16:27.334323, 0.48876
2022-12-01 17:16:27.346380, 0.48876
2022-12-01 17:16:27.355082, 0.48876
2022-12-01 17:16:27.362636, 0.49365
2022-12-01 17:16:27.371464, 0.48387
2022-12-01 17:16:27.383243, 0.49365
2022-12-01 17:16:27.391372, 0.47898
2022-12-01 17:16:27.400363, 0.48876
2022-12-01 17:16:27.411734, 0.48387
2022-12-01 17:16:27.420347, 0.48876
2022-12-01 17:16:27.428004, 0.48876
2022-12-01 17:16:27.436570, 0.48387
2022-12-01 17:16:27.449393, 0.48876
2022-12-01 17:16:27.456879, 0.47898
2022-12-01 17:16:27.465344, 0.49365
2022-12-01 17:16:27.476896, 0.47898
2022-12-01 17:16:27.486095, 0.48387
2022-12-01 17:16:27.493933, 0.48387
2022-12-01 17:16:27.502319, 0.48876
2022-12-01 17:16:27.514898, 0.48876
2022-12-01 17:16:27.522290, 0.47898
2022-12-01 17:16:27.531086, 0.48387
2022-12-01 17:16:27.543379, 0.47898
2022-12-01 17:16:27.551405, 0.48876
2022-12-01 17:16:27.559713, 0.47410
2022-12-01 17:16:27.567943, 0.48876
2022-12-01 17:16:27.579612, 0.48876
2022-12-01 17:16:27.588287, 0.48387
2022-12-01 17:16:27.596092, 0.48876
2022-12-01 17:16:27.609140, 0.47898
2022-12-01 17:16:27.616722, 0.48387
2022-12-01 17:16:27.624911, 0.47898
2022-12-01 17:16:27.633018, 0.48876
2022-12-01 17:16:27.645150, 0.47898
2022-12-01 17:16:27.653228, 0.48876
2022-12-01 17:16:27.662215, 0.48876
2022-12-01 17:16:27.673564, 0.47898
2022-12-01 17:16:27.682355, 0.48876
2022-12-01 17:16:27.691189, 0.47410
2022-12-01 17:16:27.698877, 0.48876
2022-12-01 17:16:27.711126, 0.47898
2022-12-01 17:16:27.719071, 0.48876
2022-12-01 17:16:27.727600, 0.48876
2022-12-01 17:16:27.739103, 0.48876
2022-12-01 17:16:27.747849, 0.49365
2022-12-01 17:16:27.756231, 0.48387
2022-12-01 17:16:27.764471, 0.48876
2022-12-01 17:16:27.776063, 0.47898
2022-12-01 17:16:27.785245, 0.49365
2022-12-01 17:16:27.792832, 0.48876
2022-12-01 17:16:27.805535, 0.49365
2022-12-01 17:16:27.813685, 0.48876
2022-12-01 17:16:27.821880, 0.48876
2022-12-01 17:16:27.830238, 0.49365
2022-12-01 17:16:27.842213, 0.48387
2022-12-01 17:16:27.849974, 0.49365
2022-12-01 17:16:27.858904, 0.48387
2022-12-01 17:16:27.870977, 0.49365
2022-12-01 17:16:27.900015, 0.48876
2022-12-01 17:16:27.976033, 0.48876
2022-12-01 17:16:28.002130, 0.48876
2022-12-01 17:16:28.031307, 0.47898
2022-12-01 17:16:28.039267, 0.49853
2022-12-01 17:16:28.056812, 0.48387
2022-12-01 17:16:28.084457, 0.49365
2022-12-01 17:16:28.102486, 0.48876
2022-12-01 17:16:28.113017, 0.49365
2022-12-01 17:16:28.116753, 0.48387
2022-12-01 17:16:28.119268, 0.48876
2022-12-01 17:16:28.135284, 0.49365
2022-12-01 17:16:28.157995, 0.48387
2022-12-01 17:16:28.194659, 0.49853
2022-12-01 17:16:28.211020, 0.48387
2022-12-01 17:16:28.222620, 0.49365
2022-12-01 17:16:28.228888, 0.49365
2022-12-01 17:16:28.238983, 0.49365
2022-12-01 17:16:28.247972, 0.49365
2022-12-01 17:16:28.253585, 0.48876
2022-12-01 17:16:28.256871, 0.49853
2022-12-01 17:16:28.260721, 0.48876
2022-12-01 17:16:28.272614, 0.49853
2022-12-01 17:16:28.281639, 0.48876
2022-12-01 17:16:28.295786, 0.49853
2022-12-01 17:16:28.305380, 0.49365
2022-12-01 17:16:28.311556, 0.48876
2022-12-01 17:16:28.320956, 0.49853
2022-12-01 17:16:28.347136, 0.48387
2022-12-01 17:16:28.363094, 0.49365
2022-12-01 17:16:28.372730, 0.48387
2022-12-01 17:16:28.380666, 0.49365
2022-12-01 17:16:28.385273, 0.48876
2022-12-01 17:16:28.388410, 0.48876
2022-12-01 17:16:28.393974, 0.49365
2022-12-01 17:16:28.408515, 0.48387
2022-12-01 17:16:28.428199, 0.49365
2022-12-01 17:16:28.438810, 0.47898
2022-12-01 17:16:28.446269, 0.48876
2022-12-01 17:16:28.461743, 0.47898
2022-12-01 17:16:28.470703, 0.48876
2022-12-01 17:16:28.476659, 0.48876
2022-12-01 17:16:28.480615, 0.48876
2022-12-01 17:16:28.484439, 0.48876
2022-12-01 17:16:28.486396, 0.48387
2022-12-01 17:16:28.487574, 0.48876
2022-12-01 17:16:28.493082, 0.47898
2022-12-01 17:16:28.497461, 0.48876
2022-12-01 17:16:28.501174, 0.48387
2022-12-01 17:16:28.503288, 0.48876
2022-12-01 17:16:28.506022, 0.48387
2022-12-01 17:16:28.508240, 0.47898
2022-12-01 17:16:28.511147, 0.48876
2022-12-01 17:16:28.514301, 0.47410
2022-12-01 17:16:28.515582, 0.48876
2022-12-01 17:16:28.517568, 0.47898
2022-12-01 17:16:28.518246, 0.48387
2022-12-01 17:16:28.519737, 0.48387
2022-12-01 17:16:28.521305, 0.48387
2022-12-01 17:16:28.522796, 0.48387
2022-12-01 17:16:28.524285, 0.47410
2022-12-01 17:16:28.526846, 0.48387
2022-12-01 17:16:28.528677, 0.47410
2022-12-01 17:16:28.531251, 0.48387
2022-12-01 17:16:28.537406, 0.47410
2022-12-01 17:16:28.546144, 0.48387
2022-12-01 17:16:28.555404, 0.48387
2022-12-01 17:16:28.568752, 0.47898
2022-12-01 17:16:28.581727, 0.48387
2022-12-01 17:16:28.598519, 0.46921
2022-12-01 17:16:28.603783, 0.48387
2022-12-01 17:16:28.609471, 0.46921
2022-12-01 17:16:28.611913, 0.47898
2022-12-01 17:16:28.615803, 0.47898
2022-12-01 17:16:28.621218, 0.47898
2022-12-01 17:16:28.627673, 0.47898
2022-12-01 17:16:28.634015, 0.47410
2022-12-01 17:16:28.637012, 0.47898
2022-12-01 17:16:28.641804, 0.46921
2022-12-01 17:16:28.658737, 0.48387
2022-12-01 17:16:28.667265, 0.46921
2022-12-01 17:16:28.675056, 0.48387
2022-12-01 17:16:28.681341, 0.48387
2022-12-01 17:16:28.692163, 0.48387
2022-12-01 17:16:28.694149, 0.48387
2022-12-01 17:16:28.696072, 0.47898
2022-12-01 17:16:28.700253, 0.49365
2022-12-01 17:16:28.702327, 0.47898
2022-12-01 17:16:28.706202, 0.49365
2022-12-01 17:16:28.711695, 0.48876
2022-12-01 17:16:28.719048, 0.49853
2022-12-01 17:16:28.730399, 0.49365
2022-12-01 17:16:28.739394, 0.49365
2022-12-01 17:16:28.747700, 0.49853
2022-12-01 17:16:28.759842, 0.48876
2022-12-01 17:16:28.767779, 0.50342
2022-12-01 17:16:28.776285, 0.49365
2022-12-01 17:16:28.784542, 0.50342
2022-12-01 17:16:28.796726, 0.49853
2022-12-01 17:16:28.804694, 0.49365
2022-12-01 17:16:28.813200, 0.50342
2022-12-01 17:16:28.825097, 0.49365
2022-12-01 17:16:28.833459, 0.49365
2022-12-01 17:16:28.841761, 0.48876
2022-12-01 17:16:28.849980, 0.49853
2022-12-01 17:16:28.861866, 0.49853
2022-12-01 17:16:28.870428, 0.50342
2022-12-01 17:16:28.878189, 0.49365
2022-12-01 17:16:28.890772, 0.49365
2022-12-01 17:16:28.898603, 0.49853
2022-12-01 17:16:28.907531, 0.48876
2022-12-01 17:16:28.915420, 0.49853
2022-12-01 17:16:28.927343, 0.48387
2022-12-01 17:16:28.935627, 0.49853
2022-12-01 17:16:28.944240, 0.49365
2022-12-01 17:16:28.956394, 0.49853
2022-12-01 17:16:28.964482, 0.49365
2022-12-01 17:16:28.972800, 0.48876
2022-12-01 17:16:28.980714, 0.49365
2022-12-01 17:16:28.993488, 0.48387
2022-12-01 17:16:29.001503, 0.49365
2022-12-01 17:16:29.009888, 0.48876
2022-12-01 17:16:29.021953, 0.49365
2022-12-01 17:16:29.030022, 0.49365
2022-12-01 17:16:29.038409, 0.48387
2022-12-01 17:16:29.046736, 0.49365
2022-12-01 17:16:29.058444, 0.47410
2022-12-01 17:16:29.066327, 0.49365
2022-12-01 17:16:29.075528, 0.48387
2022-12-01 17:16:29.086942, 0.49365
2022-12-01 17:16:29.095678, 0.48876
2022-12-01 17:16:29.103955, 0.49365
2022-12-01 17:16:29.111737, 0.49365
2022-12-01 17:16:29.123584, 0.48876
2022-12-01 17:16:29.132786, 0.49365
2022-12-01 17:16:29.140697, 0.47410
2022-12-01 17:16:29.148613, 0.49365
2022-12-01 17:16:29.161443, 0.48387
2022-12-01 17:16:29.169433, 0.49365
2022-12-01 17:16:29.177872, 0.48387
2022-12-01 17:16:29.190002, 0.48876
2022-12-01 17:16:29.197407, 0.48387
2022-12-01 17:16:29.207035, 0.47410
2022-12-01 17:16:29.214128, 0.49365
2022-12-01 17:16:29.226986, 0.47898
2022-12-01 17:16:29.235076, 0.48876
2022-12-01 17:16:29.243290, 0.47898
2022-12-01 17:16:29.255407, 0.48876
2022-12-01 17:16:29.263598, 0.48876
2022-12-01 17:16:29.271662, 0.48387
2022-12-01 17:16:29.279336, 0.48876
2022-12-01 17:16:29.292145, 0.47898
2022-12-01 17:16:29.299771, 0.49365
2022-12-01 17:16:29.309009, 0.47898
2022-12-01 17:16:29.320167, 0.48387
2022-12-01 17:16:29.328562, 0.48387
2022-12-01 17:16:29.337273, 0.48876
2022-12-01 17:16:29.345805, 0.48387
2022-12-01 17:16:29.357642, 0.47898
2022-12-01 17:16:29.366029, 0.48876
2022-12-01 17:16:29.374485, 0.47898
2022-12-01 17:16:29.386132, 0.48387
2022-12-01 17:16:29.394705, 0.47898
2022-12-01 17:16:29.402634, 0.48876
2022-12-01 17:16:29.410647, 0.48387
2022-12-01 17:16:29.422611, 0.48387
2022-12-01 17:16:29.430852, 0.48387
2022-12-01 17:16:29.439642, 0.47410
2022-12-01 17:16:29.451955, 0.48387
2022-12-01 17:16:29.460446, 0.47410
2022-12-01 17:16:29.467837, 0.48387
2022-12-01 17:16:29.476587, 0.47898
2022-12-01 17:16:29.489060, 0.47898
2022-12-01 17:16:29.497145, 0.48387
2022-12-01 17:16:29.505023, 0.47898
2022-12-01 17:16:29.516788, 0.48876
2022-12-01 17:16:29.525685, 0.47410
2022-12-01 17:16:29.533483, 0.48876
2022-12-01 17:16:29.542401, 0.47410
2022-12-01 17:16:29.554377, 0.47898
2022-12-01 17:16:29.562991, 0.48387
2022-12-01 17:16:29.571033, 0.48387
2022-12-01 17:16:29.583161, 0.48387
2022-12-01 17:16:29.591173, 0.46921
2022-12-01 17:16:29.599221, 0.48387
2022-12-01 17:16:29.607254, 0.47410
2022-12-01 17:16:29.619445, 0.48387
2022-12-01 17:16:29.627928, 0.47898
2022-12-01 17:16:29.636609, 0.47898
2022-12-01 17:16:29.648339, 0.48387
2022-12-01 17:16:29.656668, 0.47898
2022-12-01 17:16:29.665235, 0.48387
2022-12-01 17:16:29.672479, 0.47410
2022-12-01 17:16:29.685248, 0.48387
2022-12-01 17:16:29.693161, 0.47410
2022-12-01 17:16:29.701712, 0.48387
2022-12-01 17:16:29.714211, 0.48387
2022-12-01 17:16:29.722377, 0.48387
2022-12-01 17:16:29.730014, 0.48387
2022-12-01 17:16:29.738248, 0.47898
2022-12-01 17:16:29.750721, 0.48387
2022-12-01 17:16:29.758713, 0.46921
2022-12-01 17:16:29.767221, 0.48387
2022-12-01 17:16:29.779623, 0.47410
2022-12-01 17:16:29.788159, 0.48387
2022-12-01 17:16:29.796045, 0.48387
2022-12-01 17:16:29.803822, 0.47898
2022-12-01 17:16:29.816690, 0.48876
2022-12-01 17:16:29.824236, 0.46921
2022-12-01 17:16:29.833198, 0.48876
2022-12-01 17:16:29.844919, 0.47410
2022-12-01 17:16:29.853572, 0.48876
2022-12-01 17:16:29.861027, 0.48387
2022-12-01 17:16:29.869846, 0.48876
2022-12-01 17:16:29.882060, 0.48876
2022-12-01 17:16:29.890442, 0.47898
2022-12-01 17:16:29.897872, 0.48387
2022-12-01 17:16:29.910300, 0.47898
2022-12-01 17:16:29.918286, 0.48876
2022-12-01 17:16:29.927169, 0.48387
2022-12-01 17:16:29.935493, 0.48876
2022-12-01 17:16:29.947486, 0.48876
2022-12-01 17:16:29.955912, 0.48876
2022-12-01 17:16:29.963403, 0.49365
2022-12-01 17:16:29.976645, 0.48387
2022-12-01 17:16:29.984591, 0.49365
2022-12-01 17:16:29.992357, 0.48387
2022-12-01 17:16:30.000375, 0.49365
2022-12-01 17:16:30.013019, 0.48876
2022-12-01 17:16:30.021544, 0.49365
2022-12-01 17:16:30.029906, 0.49365
2022-12-01 17:16:30.037261, 0.48387
2022-12-01 17:16:30.049271, 0.49365
2022-12-01 17:16:30.058048, 0.47898
2022-12-01 17:16:30.066240, 0.48876
2022-12-01 17:16:30.077772, 0.48387
2022-12-01 17:16:30.086679, 0.49365
2022-12-01 17:16:30.095437, 0.49365
2022-12-01 17:16:30.103291, 0.48876
2022-12-01 17:16:30.115933, 0.49365
2022-12-01 17:16:30.124046, 0.48387
2022-12-01 17:16:30.131695, 0.48876
2022-12-01 17:16:30.144179, 0.48387
2022-12-01 17:16:30.151718, 0.49365
2022-12-01 17:16:30.159804, 0.48876
2022-12-01 17:16:30.168549, 0.49365
2022-12-01 17:16:30.180419, 0.49365
2022-12-01 17:16:30.189633, 0.48387
2022-12-01 17:16:30.197326, 0.49853
2022-12-01 17:16:30.209812, 0.48387
2022-12-01 17:16:30.217892, 0.49365
2022-12-01 17:16:30.225822, 0.48387
2022-12-01 17:16:30.234003, 0.49365
2022-12-01 17:16:30.246932, 0.48876
2022-12-01 17:16:30.254593, 0.48876
2022-12-01 17:16:30.262844, 0.49365
2022-12-01 17:16:30.274891, 0.47898
2022-12-01 17:16:30.283026, 0.49365
2022-12-01 17:16:30.292139, 0.48387
2022-12-01 17:16:30.300052, 0.49365
2022-12-01 17:16:30.312586, 0.48387
2022-12-01 17:16:30.320815, 0.49365
2022-12-01 17:16:30.328977, 0.49365
2022-12-01 17:16:30.340416, 0.48876
2022-12-01 17:16:30.349496, 0.49365
2022-12-01 17:16:30.357272, 0.47898
2022-12-01 17:16:30.365747, 0.48876
2022-12-01 17:16:30.378099, 0.47898
2022-12-01 17:16:30.386009, 0.48876
2022-12-01 17:16:30.394493, 0.47898
2022-12-01 17:16:30.406042, 0.48876
2022-12-01 17:16:30.415260, 0.48387
2022-12-01 17:16:30.422322, 0.48387
2022-12-01 17:16:30.431480, 0.48876
2022-12-01 17:16:30.443679, 0.46921
2022-12-01 17:16:30.451900, 0.48876
2022-12-01 17:16:30.460020, 0.47898
2022-12-01 17:16:30.472731, 0.48876
2022-12-01 17:16:30.479723, 0.48876
2022-12-01 17:16:30.488737, 0.48876
2022-12-01 17:16:30.496511, 0.48876
2022-12-01 17:16:30.509022, 0.47898
2022-12-01 17:16:30.516714, 0.48876
2022-12-01 17:16:30.524812, 0.47898
2022-12-01 17:16:30.536773, 0.48876
2022-12-01 17:16:30.545288, 0.47410
2022-12-01 17:16:30.554235, 0.48876
2022-12-01 17:16:30.562402, 0.48387
2022-12-01 17:16:30.574616, 0.47898
2022-12-01 17:16:30.582928, 0.48387
2022-12-01 17:16:30.590579, 0.47410
2022-12-01 17:16:30.603032, 0.48387
2022-12-01 17:16:30.611647, 0.47410
2022-12-01 17:16:30.619542, 0.47898
2022-12-01 17:16:30.627977, 0.47898
2022-12-01 17:16:30.639594, 0.47898
2022-12-01 17:16:30.648015, 0.47898
2022-12-01 17:16:30.655983, 0.46432
2022-12-01 17:16:30.669470, 0.47410
2022-12-01 17:16:30.677220, 0.46921
2022-12-01 17:16:30.685823, 0.47898
2022-12-01 17:16:30.694025, 0.46921
2022-12-01 17:16:30.705803, 0.47898
2022-12-01 17:16:30.713740, 0.47410
2022-12-01 17:16:30.721977, 0.47410
2022-12-01 17:16:30.734455, 0.47898
2022-12-01 17:16:30.742439, 0.46921
2022-12-01 17:16:30.750553, 0.47898
2022-12-01 17:16:30.758608, 0.46921
2022-12-01 17:16:30.771177, 0.47898
2022-12-01 17:16:30.778942, 0.47410
2022-12-01 17:16:30.787509, 0.47898
2022-12-01 17:16:30.799481, 0.47898
2022-12-01 17:16:30.807545, 0.46921
2022-12-01 17:16:30.815607, 0.47898
2022-12-01 17:16:30.823953, 0.46921
2022-12-01 17:16:30.836619, 0.47898
2022-12-01 17:16:30.844280, 0.46921
2022-12-01 17:16:30.853108, 0.48387
2022-12-01 17:16:30.861028, 0.47898
2022-12-01 17:16:30.873646, 0.47898
2022-12-01 17:16:30.881832, 0.48387
2022-12-01 17:16:30.889304, 0.47410
2022-12-01 17:16:30.902173, 0.48876
2022-12-01 17:16:30.910517, 0.47410
2022-12-01 17:16:30.918110, 0.48387
2022-12-01 17:16:30.926335, 0.48387
2022-12-01 17:16:30.939279, 0.48387
2022-12-01 17:16:30.947501, 0.49365
2022-12-01 17:16:30.955686, 0.48387
2022-12-01 17:16:30.967962, 0.49365
2022-12-01 17:16:30.975182, 0.47898
2022-12-01 17:16:30.984852, 0.49365
2022-12-01 17:16:30.992359, 0.48387
2022-12-01 17:16:31.004653, 0.49365
2022-12-01 17:16:31.012657, 0.48876
2022-12-01 17:16:31.020752, 0.49365
2022-12-01 17:16:31.033975, 0.49365
2022-12-01 17:16:31.041125, 0.47898
2022-12-01 17:16:31.050314, 0.49365
2022-12-01 17:16:31.057829, 0.48387
2022-12-01 17:16:31.070849, 0.49853
2022-12-01 17:16:31.079077, 0.48876
2022-12-01 17:16:31.086798, 0.49853
2022-12-01 17:16:31.098779, 0.50342
2022-12-01 17:16:31.106548, 0.49853
2022-12-01 17:16:31.115343, 0.50342
2022-12-01 17:16:31.123377, 0.49365
2022-12-01 17:16:31.135868, 0.50342
2022-12-01 17:16:31.144084, 0.48876
2022-12-01 17:16:31.152255, 0.50831
2022-12-01 17:16:31.164255, 0.50342
2022-12-01 17:16:31.172174, 0.50831
2022-12-01 17:16:31.180983, 0.50831
2022-12-01 17:16:31.189057, 0.50342
2022-12-01 17:16:31.201231, 0.51320
2022-12-01 17:16:31.209591, 0.50342
2022-12-01 17:16:31.217233, 0.51320
2022-12-01 17:16:31.229539, 0.50831
2022-12-01 17:16:31.238008, 0.51808
2022-12-01 17:16:31.246314, 0.52297
2022-12-01 17:16:31.254158, 0.51808
2022-12-01 17:16:31.267632, 0.52297
2022-12-01 17:16:31.274892, 0.51320
2022-12-01 17:16:31.283641, 0.52786
2022-12-01 17:16:31.294775, 0.51808
2022-12-01 17:16:31.302985, 0.53275
2022-12-01 17:16:31.311843, 0.53275
2022-12-01 17:16:31.319975, 0.53763
2022-12-01 17:16:31.332113, 0.53275
2022-12-01 17:16:31.340135, 0.52786
2022-12-01 17:16:31.348767, 0.54252
2022-12-01 17:16:31.360478, 0.52297
2022-12-01 17:16:31.369857, 0.53763
2022-12-01 17:16:31.377274, 0.53275
2022-12-01 17:16:31.386260, 0.53763
2022-12-01 17:16:31.397915, 0.53275
2022-12-01 17:16:31.405586, 0.53275
2022-12-01 17:16:31.414059, 0.53275
2022-12-01 17:16:31.426252, 0.52297
2022-12-01 17:16:31.433948, 0.53275
2022-12-01 17:16:31.443041, 0.51808
2022-12-01 17:16:31.450907, 0.52786
2022-12-01 17:16:31.462633, 0.52297
2022-12-01 17:16:31.470949, 0.52297
2022-12-01 17:16:31.480007, 0.52297
2022-12-01 17:16:31.492123, 0.51320
2022-12-01 17:16:31.499785, 0.52297
2022-12-01 17:16:31.508565, 0.50831
2022-12-01 17:16:31.517039, 0.51808
2022-12-01 17:16:31.529611, 0.50831
2022-12-01 17:16:31.536690, 0.50831
2022-12-01 17:16:31.546344, 0.51320
2022-12-01 17:16:31.557628, 0.51320
2022-12-01 17:16:31.565951, 0.51320
2022-12-01 17:16:31.573835, 0.49365
2022-12-01 17:16:31.581745, 0.50831
2022-12-01 17:16:31.593589, 0.49853
2022-12-01 17:16:31.602744, 0.50831
2022-12-01 17:16:31.611333, 0.50342
2022-12-01 17:16:31.622201, 0.50342
2022-12-01 17:16:31.631194, 0.50831
2022-12-01 17:16:31.639188, 0.50342
2022-12-01 17:16:31.647161, 0.50831
2022-12-01 17:16:31.658933, 0.49365
2022-12-01 17:16:31.668008, 0.50342
2022-12-01 17:16:31.676399, 0.49365
2022-12-01 17:16:31.688097, 0.50342
2022-12-01 17:16:31.696705, 0.49853
2022-12-01 17:16:31.704981, 0.49853
2022-12-01 17:16:31.713414, 0.49853
2022-12-01 17:16:31.725174, 0.49365
2022-12-01 17:16:31.733699, 0.50342
2022-12-01 17:16:31.741837, 0.48876
2022-12-01 17:16:31.749982, 0.50342
2022-12-01 17:16:31.762107, 0.48876
2022-12-01 17:16:31.769683, 0.50342
2022-12-01 17:16:31.778363, 0.49853
2022-12-01 17:16:31.791068, 0.49365
2022-12-01 17:16:31.799190, 0.49853
2022-12-01 17:16:31.807147, 0.48876
2022-12-01 17:16:31.814770, 0.49853
2022-12-01 17:16:31.828008, 0.48387
2022-12-01 17:16:31.835867, 0.49365
2022-12-01 17:16:31.844363, 0.48876
2022-12-01 17:16:31.855949, 0.49365
2022-12-01 17:16:31.864341, 0.48876
2022-12-01 17:16:31.872419, 0.48387
2022-12-01 17:16:31.881751, 0.48876
2022-12-01 17:16:31.893588, 0.48387
2022-12-01 17:16:31.902124, 0.49365
2022-12-01 17:16:31.910531, 0.48387
2022-12-01 17:16:31.922120, 0.49365
2022-12-01 17:16:31.930953, 0.48387
2022-12-01 17:16:31.938789, 0.48876
2022-12-01 17:16:31.947356, 0.49365
2022-12-01 17:16:31.959697, 0.48387
2022-12-01 17:16:31.967160, 0.49365
2022-12-01 17:16:31.975707, 0.47898
2022-12-01 17:16:31.987871, 0.48876
2022-12-01 17:16:31.995728, 0.48387
2022-12-01 17:16:32.003778, 0.48876
2022-12-01 17:16:32.012148, 0.48876
2022-12-01 17:16:32.024028, 0.48387
2022-12-01 17:16:32.032847, 0.49365
2022-12-01 17:16:32.040506, 0.47898
2022-12-01 17:16:32.053909, 0.48876
2022-12-01 17:16:32.062128, 0.47898
2022-12-01 17:16:32.070305, 0.48876
2022-12-01 17:16:32.078505, 0.48387
2022-12-01 17:16:32.089172, 0.48876
2022-12-01 17:16:32.098753, 0.48387
2022-12-01 17:16:32.106589, 0.47410
2022-12-01 17:16:32.119122, 0.48387
2022-12-01 17:16:32.127659, 0.47410
2022-12-01 17:16:32.135744, 0.48876
2022-12-01 17:16:32.143703, 0.47898
2022-12-01 17:16:32.155440, 0.48876
2022-12-01 17:16:32.163985, 0.48387
2022-12-01 17:16:32.171959, 0.47898
2022-12-01 17:16:32.183827, 0.48876
2022-12-01 17:16:32.191863, 0.46921
2022-12-01 17:16:32.199874, 0.48876
2022-12-01 17:16:32.208182, 0.47410
2022-12-01 17:16:32.221791, 0.48876
2022-12-01 17:16:32.229423, 0.48387
2022-12-01 17:16:32.238134, 0.48876
2022-12-01 17:16:32.249950, 0.48876
2022-12-01 17:16:32.257535, 0.48387
2022-12-01 17:16:32.266924, 0.48876
2022-12-01 17:16:32.273396, 0.47898
2022-12-01 17:16:32.287406, 0.48876
2022-12-01 17:16:32.295637, 0.47410
2022-12-01 17:16:32.303697, 0.48876
2022-12-01 17:16:32.315519, 0.48876
2022-12-01 17:16:32.323208, 0.48387
2022-12-01 17:16:32.331963, 0.48876
2022-12-01 17:16:32.340200, 0.47898
2022-12-01 17:16:32.352325, 0.49365
2022-12-01 17:16:32.360384, 0.47898
2022-12-01 17:16:32.367830, 0.48876
2022-12-01 17:16:32.381614, 0.47898
2022-12-01 17:16:32.389202, 0.48876
2022-12-01 17:16:32.397988, 0.48876
2022-12-01 17:16:32.405362, 0.48387
2022-12-01 17:16:32.418133, 0.48876
2022-12-01 17:16:32.426667, 0.47898
2022-12-01 17:16:32.434832, 0.48876
2022-12-01 17:16:32.446143, 0.47410
2022-12-01 17:16:32.454197, 0.48876
2022-12-01 17:16:32.462844, 0.48387
2022-12-01 17:16:32.471699, 0.48387
2022-12-01 17:16:32.483511, 0.48387
2022-12-01 17:16:32.491362, 0.47410
2022-12-01 17:16:32.499359, 0.48876
2022-12-01 17:16:32.511356, 0.47410
2022-12-01 17:16:32.519815, 0.48387
2022-12-01 17:16:32.528037, 0.47898
2022-12-01 17:16:32.536182, 0.48387
2022-12-01 17:16:32.547803, 0.48387
2022-12-01 17:16:32.556556, 0.47898
2022-12-01 17:16:32.565187, 0.48387
2022-12-01 17:16:32.576993, 0.47410
2022-12-01 17:16:32.585950, 0.48387
2022-12-01 17:16:32.593477, 0.47410
2022-12-01 17:16:32.602165, 0.48387
2022-12-01 17:16:32.614385, 0.47898
2022-12-01 17:16:32.622154, 0.48387
2022-12-01 17:16:32.630863, 0.48387
2022-12-01 17:16:32.639061, 0.47898
2022-12-01 17:16:32.650934, 0.48876
2022-12-01 17:16:32.658848, 0.47410
2022-12-01 17:16:32.666899, 0.48876
2022-12-01 17:16:32.679835, 0.47898
2022-12-01 17:16:32.687281, 0.48876
2022-12-01 17:16:32.696022, 0.48876
2022-12-01 17:16:32.703866, 0.48387
2022-12-01 17:16:32.716732, 0.48876
2022-12-01 17:16:32.724869, 0.47898
2022-12-01 17:16:32.732494, 0.48876
2022-12-01 17:16:32.744913, 0.47898
2022-12-01 17:16:32.753469, 0.48876
2022-12-01 17:16:32.761644, 0.48876
2022-12-01 17:16:32.769964, 0.48387
2022-12-01 17:16:32.781909, 0.49365
2022-12-01 17:16:32.790420, 0.48387
2022-12-01 17:16:32.798878, 0.48876
2022-12-01 17:16:32.811218, 0.47898
2022-12-01 17:16:32.818714, 0.48876
2022-12-01 17:16:32.827488, 0.47898
2022-12-01 17:16:32.835697, 0.48876
2022-12-01 17:16:32.847987, 0.48876
2022-12-01 17:16:32.856207, 0.48876
2022-12-01 17:16:32.864356, 0.49365
2022-12-01 17:16:32.876448, 0.48387
2022-12-01 17:16:32.884810, 0.49365
2022-12-01 17:16:32.893181, 0.47898
2022-12-01 17:16:32.900913, 0.48876
2022-12-01 17:16:32.913538, 0.48387
2022-12-01 17:16:32.921475, 0.48876
2022-12-01 17:16:32.929943, 0.48876
2022-12-01 17:16:32.941167, 0.48387
2022-12-01 17:16:32.950475, 0.49365
2022-12-01 17:16:32.957992, 0.47898
2022-12-01 17:16:32.967309, 0.49365
2022-12-01 17:16:32.978635, 0.48387
2022-12-01 17:16:32.986666, 0.49365
2022-12-01 17:16:32.995246, 0.48876
2022-12-01 17:16:33.007316, 0.48876
2022-12-01 17:16:33.015993, 0.48876
2022-12-01 17:16:33.023892, 0.48387
2022-12-01 17:16:33.032882, 0.49365
2022-12-01 17:16:33.044446, 0.47898
2022-12-01 17:16:33.052601, 0.49365
2022-12-01 17:16:33.060967, 0.48876
2022-12-01 17:16:33.072821, 0.49365
2022-12-01 17:16:33.081402, 0.49365
2022-12-01 17:16:33.089295, 0.48876
2022-12-01 17:16:33.097582, 0.49365
2022-12-01 17:16:33.110212, 0.48387
2022-12-01 17:16:33.118340, 0.49365
2022-12-01 17:16:33.126575, 0.48387
2022-12-01 17:16:33.138400, 0.49365
2022-12-01 17:16:33.147143, 0.48876
2022-12-01 17:16:33.154943, 0.49365
2022-12-01 17:16:33.163441, 0.49365
2022-12-01 17:16:33.175414, 0.48387
2022-12-01 17:16:33.183852, 0.49365
2022-12-01 17:16:33.191707, 0.47898
2022-12-01 17:16:33.205319, 0.48387
2022-12-01 17:16:33.212209, 0.48387
2022-12-01 17:16:33.220843, 0.48876
2022-12-01 17:16:33.228897, 0.48876
2022-12-01 17:16:33.241059, 0.48876
2022-12-01 17:16:33.249982, 0.48876
2022-12-01 17:16:33.257288, 0.47898
2022-12-01 17:16:33.270437, 0.48387
2022-12-01 17:16:33.278634, 0.47898
2022-12-01 17:16:33.286800, 0.48876
2022-12-01 17:16:33.295028, 0.47898
2022-12-01 17:16:33.306018, 0.48876
2022-12-01 17:16:33.314067, 0.48876
2022-12-01 17:16:33.322879, 0.48387
2022-12-01 17:16:33.334637, 0.48876
2022-12-01 17:16:33.343020, 0.47898
2022-12-01 17:16:33.351314, 0.48876
2022-12-01 17:16:33.360059, 0.48387
2022-12-01 17:16:33.371582, 0.49365
2022-12-01 17:16:33.380234, 0.48876
2022-12-01 17:16:33.388161, 0.49365
2022-12-01 17:16:33.401505, 0.49365
2022-12-01 17:16:33.409183, 0.48387
2022-12-01 17:16:33.417875, 0.49365
2022-12-01 17:16:33.425386, 0.47898
2022-12-01 17:16:33.436889, 0.49365
2022-12-01 17:16:33.445892, 0.48876
2022-12-01 17:16:33.453996, 0.49365
2022-12-01 17:16:33.466484, 0.49365
2022-12-01 17:16:33.474474, 0.48876
2022-12-01 17:16:33.482598, 0.49365
2022-12-01 17:16:33.490946, 0.48387
2022-12-01 17:16:33.503170, 0.48876
2022-12-01 17:16:33.511470, 0.48387
2022-12-01 17:16:33.519778, 0.48876
2022-12-01 17:16:33.527320, 0.48876
2022-12-01 17:16:33.539956, 0.49365
2022-12-01 17:16:33.548048, 0.49365
2022-12-01 17:16:33.556910, 0.48387
2022-12-01 17:16:33.569452, 0.49365
2022-12-01 17:16:33.576665, 0.47898
2022-12-01 17:16:33.585842, 0.49365
2022-12-01 17:16:33.592610, 0.48387
2022-12-01 17:16:33.605517, 0.49365
2022-12-01 17:16:33.614156, 0.48876
2022-12-01 17:16:33.621534, 0.48876
2022-12-01 17:16:33.634072, 0.48876
2022-12-01 17:16:33.642364, 0.47898
2022-12-01 17:16:33.650379, 0.48876
2022-12-01 17:16:33.659066, 0.47410
2022-12-01 17:16:33.671165, 0.48876
2022-12-01 17:16:33.679011, 0.48387
2022-12-01 17:16:33.687036, 0.48876
2022-12-01 17:16:33.699532, 0.48876
2022-12-01 17:16:33.708142, 0.47898
2022-12-01 17:16:33.716016, 0.48876
2022-12-01 17:16:33.724371, 0.47898
2022-12-01 17:16:33.736008, 0.49365
2022-12-01 17:16:33.745080, 0.47898
2022-12-01 17:16:33.753315, 0.49365
2022-12-01 17:16:33.764968, 0.48876
2022-12-01 17:16:33.773753, 0.48876
2022-12-01 17:16:33.781717, 0.49365
2022-12-01 17:16:33.790187, 0.48387
2022-12-01 17:16:33.801350, 0.49365
2022-12-01 17:16:33.809688, 0.47898
2022-12-01 17:16:33.818322, 0.48876
2022-12-01 17:16:33.830947, 0.48387
2022-12-01 17:16:33.838263, 0.49365
2022-12-01 17:16:33.847085, 0.49365
2022-12-01 17:16:33.854683, 0.48387
2022-12-01 17:16:33.867218, 0.49365
2022-12-01 17:16:33.875537, 0.47898
2022-12-01 17:16:33.883289, 0.48876
2022-12-01 17:16:33.896309, 0.48387
2022-12-01 17:16:33.904049, 0.49365
2022-12-01 17:16:33.912337, 0.48387
2022-12-01 17:16:33.920709, 0.48876
2022-12-01 17:16:33.932349, 0.48387
2022-12-01 17:16:33.940869, 0.47898
2022-12-01 17:16:33.949815, 0.48876
2022-12-01 17:16:33.961702, 0.47898
2022-12-01 17:16:33.970347, 0.48876
2022-12-01 17:16:33.978537, 0.48387
2022-12-01 17:16:33.987236, 0.48876
2022-12-01 17:16:33.999020, 0.48876
2022-12-01 17:16:34.006878, 0.48387
2022-12-01 17:16:34.015704, 0.48387
2022-12-01 17:16:34.027735, 0.47898
2022-12-01 17:16:34.035893, 0.48876
2022-12-01 17:16:34.044117, 0.47898
2022-12-01 17:16:34.052226, 0.48876
2022-12-01 17:16:34.064650, 0.48387
2022-12-01 17:16:34.071992, 0.48876
2022-12-01 17:16:34.080967, 0.48387
2022-12-01 17:16:34.093006, 0.47898
2022-12-01 17:16:34.101251, 0.48387
2022-12-01 17:16:34.109787, 0.47898
2022-12-01 17:16:34.117645, 0.48876
2022-12-01 17:16:34.130068, 0.47898
2022-12-01 17:16:34.137854, 0.48876
2022-12-01 17:16:34.146413, 0.48876
2022-12-01 17:16:34.158726, 0.48387
2022-12-01 17:16:34.166870, 0.48876
2022-12-01 17:16:34.174535, 0.47410
2022-12-01 17:16:34.183290, 0.48876
2022-12-01 17:16:34.194752, 0.47410
2022-12-01 17:16:34.203223, 0.48876
2022-12-01 17:16:34.212139, 0.47898
2022-12-01 17:16:34.223702, 0.48876
2022-12-01 17:16:34.233029, 0.48876
2022-12-01 17:16:34.240982, 0.48387
2022-12-01 17:16:34.249365, 0.48876
2022-12-01 17:16:34.261281, 0.47898
2022-12-01 17:16:34.269862, 0.49365
2022-12-01 17:16:34.277696, 0.47898
2022-12-01 17:16:34.289652, 0.49365
2022-12-01 17:16:34.297977, 0.48876
2022-12-01 17:16:34.305853, 0.48387
2022-12-01 17:16:34.314465, 0.48876
2022-12-01 17:16:34.326471, 0.47898
2022-12-01 17:16:34.334956, 0.48876
2022-12-01 17:16:34.343224, 0.47898
2022-12-01 17:16:34.351313, 0.48387
2022-12-01 17:16:34.363743, 0.48387
2022-12-01 17:16:34.371259, 0.48876
2022-12-01 17:16:34.379437, 0.48876
2022-12-01 17:16:34.392221, 0.48387
2022-12-01 17:16:34.400949, 0.48876
2022-12-01 17:16:34.409157, 0.47898
2022-12-01 17:16:34.417332, 0.48876
2022-12-01 17:16:34.428286, 0.47898
2022-12-01 17:16:34.436338, 0.48387
2022-12-01 17:16:34.444807, 0.48387
2022-12-01 17:16:34.457433, 0.48876
2022-12-01 17:16:34.466154, 0.48876
2022-12-01 17:16:34.473448, 0.47898
2022-12-01 17:16:34.482817, 0.48876
2022-12-01 17:16:34.494572, 0.47410
2022-12-01 17:16:34.503724, 0.48876
2022-12-01 17:16:34.511630, 0.47898
2022-12-01 17:16:34.522527, 0.48876
2022-12-01 17:16:34.531556, 0.48387
2022-12-01 17:16:34.539468, 0.48387
2022-12-01 17:16:34.547890, 0.48876
2022-12-01 17:16:34.560154, 0.47898
2022-12-01 17:16:34.568117, 0.48876
2022-12-01 17:16:34.576311, 0.47898
2022-12-01 17:16:34.587729, 0.49365
2022-12-01 17:16:34.597003, 0.48876
2022-12-01 17:16:34.605228, 0.48876
2022-12-01 17:16:34.613433, 0.49365
2022-12-01 17:16:34.626213, 0.48876
2022-12-01 17:16:34.634167, 0.49365
2022-12-01 17:16:34.643373, 0.48387
2022-12-01 17:16:34.654061, 0.49365
2022-12-01 17:16:34.661214, 0.48387
2022-12-01 17:16:34.670646, 0.49853
2022-12-01 17:16:34.678091, 0.49365
2022-12-01 17:16:34.690845, 0.49365
2022-12-01 17:16:34.699457, 0.49365
2022-12-01 17:16:34.706861, 0.48387
2022-12-01 17:16:34.719949, 0.48876
2022-12-01 17:16:34.728129, 0.47898
2022-12-01 17:16:34.735987, 0.49365
2022-12-01 17:16:34.745042, 0.48387
2022-12-01 17:16:34.755932, 0.49365
2022-12-01 17:16:34.764872, 0.48876
2022-12-01 17:16:34.773494, 0.48387
2022-12-01 17:16:34.784411, 0.49365
2022-12-01 17:16:34.793264, 0.47898
2022-12-01 17:16:34.802376, 0.49365
2022-12-01 17:16:34.810121, 0.48387
2022-12-01 17:16:34.821764, 0.49365
2022-12-01 17:16:34.830252, 0.48876
2022-12-01 17:16:34.838726, 0.49365
2022-12-01 17:16:34.851457, 0.49365
2022-12-01 17:16:34.859615, 0.48387
2022-12-01 17:16:34.867409, 0.49365
2022-12-01 17:16:34.875399, 0.47898
2022-12-01 17:16:34.887707, 0.49365
2022-12-01 17:16:34.896126, 0.48387
2022-12-01 17:16:34.904257, 0.49365
2022-12-01 17:16:34.916228, 0.48876
2022-12-01 17:16:34.924427, 0.48876
2022-12-01 17:16:34.932821, 0.48876
2022-12-01 17:16:34.941387, 0.47898
2022-12-01 17:16:34.952919, 0.48876
2022-12-01 17:16:34.960785, 0.48387
2022-12-01 17:16:34.969308, 0.48876
2022-12-01 17:16:34.981166, 0.48876
2022-12-01 17:16:34.989769, 0.48876
2022-12-01 17:16:34.997779, 0.48876
2022-12-01 17:16:35.006492, 0.48387
2022-12-01 17:16:35.018744, 0.48876
2022-12-01 17:16:35.027014, 0.47898
2022-12-01 17:16:35.034975, 0.48876
2022-12-01 17:16:35.047310, 0.47898
2022-12-01 17:16:35.055799, 0.49365
2022-12-01 17:16:35.063110, 0.48876
2022-12-01 17:16:35.071848, 0.48876
2022-12-01 17:16:35.084188, 0.49365
2022-12-01 17:16:35.092112, 0.48387
2022-12-01 17:16:35.100812, 0.48876
2022-12-01 17:16:35.113655, 0.48387
2022-12-01 17:16:35.120950, 0.49365
2022-12-01 17:16:35.130034, 0.48876
2022-12-01 17:16:35.137608, 0.49365
2022-12-01 17:16:35.150527, 0.49365
2022-12-01 17:16:35.158143, 0.48876
2022-12-01 17:16:35.166876, 0.49365
2022-12-01 17:16:35.179202, 0.48387
2022-12-01 17:16:35.186767, 0.49365
2022-12-01 17:16:35.195145, 0.47410
2022-12-01 17:16:35.202773, 0.49365
2022-12-01 17:16:35.216099, 0.48876
2022-12-01 17:16:35.223519, 0.49365
2022-12-01 17:16:35.231631, 0.49365
2022-12-01 17:16:35.239887, 0.48387
2022-12-01 17:16:35.252240, 0.48876
2022-12-01 17:16:35.260397, 0.48387
2022-12-01 17:16:35.268540, 0.49365
2022-12-01 17:16:35.281652, 0.48876
2022-12-01 17:16:35.288565, 0.49853
2022-12-01 17:16:35.297983, 0.49365
2022-12-01 17:16:35.305113, 0.48876
2022-12-01 17:16:35.318464, 0.49853
2022-12-01 17:16:35.325925, 0.48387
2022-12-01 17:16:35.334821, 0.49365
2022-12-01 17:16:35.347118, 0.48387
2022-12-01 17:16:35.354805, 0.49365
2022-12-01 17:16:35.363175, 0.49365
2022-12-01 17:16:35.371004, 0.49365
2022-12-01 17:16:35.382660, 0.49365
2022-12-01 17:16:35.391243, 0.48387
2022-12-01 17:16:35.399328, 0.49365
2022-12-01 17:16:35.412129, 0.48387
2022-12-01 17:16:35.422229, 0.49365
2022-12-01 17:16:35.428181, 0.48387
2022-12-01 17:16:35.436500, 0.49365
2022-12-01 17:16:35.448101, 0.48876
2022-12-01 17:16:35.457154, 0.49365
2022-12-01 17:16:35.465000, 0.49365
2022-12-01 17:16:35.477352, 0.47898
2022-12-01 17:16:35.485838, 0.49365
2022-12-01 17:16:35.493921, 0.48387
2022-12-01 17:16:35.502246, 0.49365
2022-12-01 17:16:35.514594, 0.48876
2022-12-01 17:16:35.522605, 0.49365
2022-12-01 17:16:35.530900, 0.49365
2022-12-01 17:16:35.543495, 0.48387
2022-12-01 17:16:35.551720, 0.48876
2022-12-01 17:16:35.558905, 0.47898
2022-12-01 17:16:35.567546, 0.48876
2022-12-01 17:16:35.579228, 0.47898
2022-12-01 17:16:35.587847, 0.49365
2022-12-01 17:16:35.595949, 0.48876
2022-12-01 17:16:35.608072, 0.48387
2022-12-01 17:16:35.616525, 0.48876
2022-12-01 17:16:35.624929, 0.48387
2022-12-01 17:16:35.633136, 0.49365
2022-12-01 17:16:35.646120, 0.48387
2022-12-01 17:16:35.654059, 0.48876
2022-12-01 17:16:35.661993, 0.48387
2022-12-01 17:16:35.674247, 0.48876
2022-12-01 17:16:35.682985, 0.49365
2022-12-01 17:16:35.691222, 0.48876
2022-12-01 17:16:35.699397, 0.49365
2022-12-01 17:16:35.710816, 0.48387
2022-12-01 17:16:35.719466, 0.49365
2022-12-01 17:16:35.727743, 0.48387
2022-12-01 17:16:35.739655, 0.49365
2022-12-01 17:16:35.748028, 0.48387
2022-12-01 17:16:35.756926, 0.48876
2022-12-01 17:16:35.764238, 0.48387
2022-12-01 17:16:35.776294, 0.47898
2022-12-01 17:16:35.785389, 0.48387
2022-12-01 17:16:35.793578, 0.47898
2022-12-01 17:16:35.804150, 0.48387
2022-12-01 17:16:35.812642, 0.47898
2022-12-01 17:16:35.821149, 0.48876
2022-12-01 17:16:35.829288, 0.48876
2022-12-01 17:16:35.842020, 0.48387
2022-12-01 17:16:35.850284, 0.48876
2022-12-01 17:16:35.858206, 0.47898
2022-12-01 17:16:35.870192, 0.48876
2022-12-01 17:16:35.878379, 0.47898
2022-12-01 17:16:35.886770, 0.48876
2022-12-01 17:16:35.895333, 0.48387
2022-12-01 17:16:35.906633, 0.49365
2022-12-01 17:16:35.915159, 0.48876
2022-12-01 17:16:35.923502, 0.47898
2022-12-01 17:16:35.936029, 0.48876
2022-12-01 17:16:35.944392, 0.47898
2022-12-01 17:16:35.952719, 0.48876
2022-12-01 17:16:35.960913, 0.48387
2022-12-01 17:16:35.972742, 0.48876
2022-12-01 17:16:35.981091, 0.48876
2022-12-01 17:16:35.989257, 0.48876
2022-12-01 17:16:36.001811, 0.48876
2022-12-01 17:16:36.010079, 0.47898
2022-12-01 17:16:36.017493, 0.49365
2022-12-01 17:16:36.025923, 0.48387
2022-12-01 17:16:36.038270, 0.49365
2022-12-01 17:16:36.046218, 0.48876
2022-12-01 17:16:36.054683, 0.49365
2022-12-01 17:16:36.067302, 0.49365
2022-12-01 17:16:36.075190, 0.48876
2022-12-01 17:16:36.083382, 0.49853
2022-12-01 17:16:36.091850, 0.48387
2022-12-01 17:16:36.103268, 0.49365
2022-12-01 17:16:36.111995, 0.47898
2022-12-01 17:16:36.120164, 0.49365
2022-12-01 17:16:36.128407, 0.49365
2022-12-01 17:16:36.140666, 0.49365
2022-12-01 17:16:36.149236, 0.49365
2022-12-01 17:16:36.157083, 0.47898
2022-12-01 17:16:36.170428, 0.49365
2022-12-01 17:16:36.177460, 0.48387
2022-12-01 17:16:36.186382, 0.48876
2022-12-01 17:16:36.193915, 0.48876
2022-12-01 17:16:36.206689, 0.49365
2022-12-01 17:16:36.215483, 0.49365
2022-12-01 17:16:36.222962, 0.48876
2022-12-01 17:16:36.235105, 0.49365
2022-12-01 17:16:36.243645, 0.47410
2022-12-01 17:16:36.251909, 0.49365
2022-12-01 17:16:36.260014, 0.48387
2022-12-01 17:16:36.272485, 0.49365
2022-12-01 17:16:36.281135, 0.48876
2022-12-01 17:16:36.288850, 0.48876
2022-12-01 17:16:36.301207, 0.49365
2022-12-01 17:16:36.308962, 0.48387
2022-12-01 17:16:36.317889, 0.49365
2022-12-01 17:16:36.325368, 0.47410
2022-12-01 17:16:36.337125, 0.48876
2022-12-01 17:16:36.345758, 0.48387
2022-12-01 17:16:36.353780, 0.48876
2022-12-01 17:16:36.366689, 0.48876
2022-12-01 17:16:36.375212, 0.48876
2022-12-01 17:16:36.383434, 0.48876
2022-12-01 17:16:36.391920, 0.47898
2022-12-01 17:16:36.403490, 0.49365
2022-12-01 17:16:36.411597, 0.47898
2022-12-01 17:16:36.419756, 0.49365
2022-12-01 17:16:36.432064, 0.48387
2022-12-01 17:16:36.439709, 0.48876
2022-12-01 17:16:36.448954, 0.48876
2022-12-01 17:16:36.456643, 0.48387
2022-12-01 17:16:36.468842, 0.48876
2022-12-01 17:16:36.477188, 0.47898
2022-12-01 17:16:36.485070, 0.49365
2022-12-01 17:16:36.498130, 0.48387
2022-12-01 17:16:36.505552, 0.48876
2022-12-01 17:16:36.514480, 0.48876
2022-12-01 17:16:36.522465, 0.48876
2022-12-01 17:16:36.533274, 0.49365
2022-12-01 17:16:36.543179, 0.48387
2022-12-01 17:16:36.549883, 0.49365
2022-12-01 17:16:36.563488, 0.47410
2022-12-01 17:16:36.570369, 0.49365
2022-12-01 17:16:36.579719, 0.48876
2022-12-01 17:16:36.587028, 0.49365
2022-12-01 17:16:36.600027, 0.49365
2022-12-01 17:16:36.608223, 0.48876
2022-12-01 17:16:36.616484, 0.49365
2022-12-01 17:16:36.628191, 0.48387
2022-12-01 17:16:36.636698, 0.49365
2022-12-01 17:16:36.644823, 0.47898
2022-12-01 17:16:36.653669, 0.49365
2022-12-01 17:16:36.666067, 0.48876
2022-12-01 17:16:36.673103, 0.48876
2022-12-01 17:16:36.682161, 0.49365
2022-12-01 17:16:36.694708, 0.47898
2022-12-01 17:16:36.703224, 0.49365
2022-12-01 17:16:36.711105, 0.48387
2022-12-01 17:16:36.719928, 0.49365
2022-12-01 17:16:36.731486, 0.48876
2022-12-01 17:16:36.739256, 0.49853
2022-12-01 17:16:36.747466, 0.49853
2022-12-01 17:16:36.759786, 0.48876
2022-12-01 17:16:36.767670, 0.49853
2022-12-01 17:16:36.776187, 0.48876
2022-12-01 17:16:36.783875, 0.49853
2022-12-01 17:16:36.796554, 0.48387
2022-12-01 17:16:36.804692, 0.49853
2022-12-01 17:16:36.812136, 0.49365
2022-12-01 17:16:36.824428, 0.49365
2022-12-01 17:16:36.833480, 0.49365
2022-12-01 17:16:36.842233, 0.48876
2022-12-01 17:16:36.849841, 0.49365
2022-12-01 17:16:36.862138, 0.48387
2022-12-01 17:16:36.870088, 0.49365
2022-12-01 17:16:36.878565, 0.48876
2022-12-01 17:16:36.890355, 0.49365
2022-12-01 17:16:36.899003, 0.49365
2022-12-01 17:16:36.906630, 0.48876
2022-12-01 17:16:36.915504, 0.49365
2022-12-01 17:16:36.927721, 0.48387
2022-12-01 17:16:36.935430, 0.49365
2022-12-01 17:16:36.944045, 0.47410
2022-12-01 17:16:36.956010, 0.49365
2022-12-01 17:16:36.964254, 0.48387
2022-12-01 17:16:36.972514, 0.48876
2022-12-01 17:16:36.981114, 0.49365
2022-12-01 17:16:36.993751, 0.48387
2022-12-01 17:16:37.001926, 0.49365
2022-12-01 17:16:37.008913, 0.48387
2022-12-01 17:16:37.017532, 0.49365
2022-12-01 17:16:37.029600, 0.47410
2022-12-01 17:16:37.037480, 0.48387
2022-12-01 17:16:37.045912, 0.48876
2022-12-01 17:16:37.058984, 0.48876
2022-12-01 17:16:37.066689, 0.48387
2022-12-01 17:16:37.075495, 0.47898
2022-12-01 17:16:37.083494, 0.48876
2022-12-01 17:16:37.095751, 0.47410
2022-12-01 17:16:37.103492, 0.48876
2022-12-01 17:16:37.112061, 0.48387
2022-12-01 17:16:37.123860, 0.48876
2022-12-01 17:16:37.132257, 0.48387
2022-12-01 17:16:37.140589, 0.47898
2022-12-01 17:16:37.148814, 0.48876
2022-12-01 17:16:37.161670, 0.47410
2022-12-01 17:16:37.169743, 0.48876
2022-12-01 17:16:37.178049, 0.47898
2022-12-01 17:16:37.188549, 0.48876
2022-12-01 17:16:37.198537, 0.48387
2022-12-01 17:16:37.205963, 0.48876
2022-12-01 17:16:37.214929, 0.48387
2022-12-01 17:16:37.226888, 0.47898
2022-12-01 17:16:37.235411, 0.48876
2022-12-01 17:16:37.243497, 0.47410
2022-12-01 17:16:37.254437, 0.48387
2022-12-01 17:16:37.262934, 0.47898
2022-12-01 17:16:37.271091, 0.48387
2022-12-01 17:16:37.279693, 0.48876
2022-12-01 17:16:37.292233, 0.47898
2022-12-01 17:16:37.300263, 0.48876
2022-12-01 17:16:37.308251, 0.47410
2022-12-01 17:16:37.319986, 0.48876
2022-12-01 17:16:37.329656, 0.47410
2022-12-01 17:16:37.336739, 0.48876
2022-12-01 17:16:37.345969, 0.47898
2022-12-01 17:16:37.357230, 0.48876
2022-12-01 17:16:37.366444, 0.48387
2022-12-01 17:16:37.374190, 0.47898
2022-12-01 17:16:37.387614, 0.48387
2022-12-01 17:16:37.395142, 0.47410
2022-12-01 17:16:37.403471, 0.48387
2022-12-01 17:16:37.411004, 0.47898
2022-12-01 17:16:37.422533, 0.48387
2022-12-01 17:16:37.431084, 0.48387
2022-12-01 17:16:37.439054, 0.48387
2022-12-01 17:16:37.451184, 0.48387
2022-12-01 17:16:37.460093, 0.47410
2022-12-01 17:16:37.468196, 0.48387
2022-12-01 17:16:37.476286, 0.47410
2022-12-01 17:16:37.488508, 0.48876
2022-12-01 17:16:37.496183, 0.47898
2022-12-01 17:16:37.505342, 0.48387
2022-12-01 17:16:37.518018, 0.48387
2022-12-01 17:16:37.525471, 0.47898
2022-12-01 17:16:37.534396, 0.48876
2022-12-01 17:16:37.541640, 0.47410
2022-12-01 17:16:37.553301, 0.48876
2022-12-01 17:16:37.562893, 0.47410
2022-12-01 17:16:37.570438, 0.47898
2022-12-01 17:16:37.583570, 0.48387
2022-12-01 17:16:37.590701, 0.48387
2022-12-01 17:16:37.598990, 0.48876
2022-12-01 17:16:37.607762, 0.47898
2022-12-01 17:16:37.619736, 0.48387
2022-12-01 17:16:37.628088, 0.47898
2022-12-01 17:16:37.635947, 0.48876
2022-12-01 17:16:37.648205, 0.47898
2022-12-01 17:16:37.656535, 0.48876
2022-12-01 17:16:37.664338, 0.48876
2022-12-01 17:16:37.672948, 0.48387
2022-12-01 17:16:37.685136, 0.48876
2022-12-01 17:16:37.693267, 0.47410
2022-12-01 17:16:37.701819, 0.48876
2022-12-01 17:16:37.713653, 0.47898
2022-12-01 17:16:37.722070, 0.48876
2022-12-01 17:16:37.730523, 0.47898
2022-12-01 17:16:37.738570, 0.48876
2022-12-01 17:16:37.751493, 0.49365
2022-12-01 17:16:37.759238, 0.48387
2022-12-01 17:16:37.767763, 0.48387
2022-12-01 17:16:37.779697, 0.47410
2022-12-01 17:16:37.787547, 0.48876
2022-12-01 17:16:37.796019, 0.47898
2022-12-01 17:16:37.804280, 0.48876
2022-12-01 17:16:37.817036, 0.48387
2022-12-01 17:16:37.824623, 0.48387
2022-12-01 17:16:37.833413, 0.48387
2022-12-01 17:16:37.840246, 0.47410
2022-12-01 17:16:37.852857, 0.48876
2022-12-01 17:16:37.862098, 0.47410
2022-12-01 17:16:37.869545, 0.48387
2022-12-01 17:16:37.881360, 0.47410
2022-12-01 17:16:37.890774, 0.48387
2022-12-01 17:16:37.898362, 0.48387
2022-12-01 17:16:37.907148, 0.47410
2022-12-01 17:16:37.919454, 0.48387
2022-12-01 17:16:37.927653, 0.46432
2022-12-01 17:16:37.935592, 0.47898
2022-12-01 17:16:37.947352, 0.47410
2022-12-01 17:16:37.955528, 0.48387
2022-12-01 17:16:37.964008, 0.47410
2022-12-01 17:16:37.971993, 0.48387
2022-12-01 17:16:37.984982, 0.48387
2022-12-01 17:16:37.991777, 0.46921
2022-12-01 17:16:38.001364, 0.48387
2022-12-01 17:16:38.013668, 0.46921
2022-12-01 17:16:38.021025, 0.48387
2022-12-01 17:16:38.029269, 0.47410
2022-12-01 17:16:38.037127, 0.48387
2022-12-01 17:16:38.050191, 0.47410
2022-12-01 17:16:38.058301, 0.47410
2022-12-01 17:16:38.066958, 0.47898
2022-12-01 17:16:38.079201, 0.46921
2022-12-01 17:16:38.086236, 0.48387
2022-12-01 17:16:38.094365, 0.46921
2022-12-01 17:16:38.102757, 0.48387
2022-12-01 17:16:38.114500, 0.47898
2022-12-01 17:16:38.123222, 0.48387
2022-12-01 17:16:38.131675, 0.48387
2022-12-01 17:16:38.143798, 0.47898
2022-12-01 17:16:38.151392, 0.48387
2022-12-01 17:16:38.160293, 0.47410
2022-12-01 17:16:38.168131, 0.48387
2022-12-01 17:16:38.181052, 0.47898
2022-12-01 17:16:38.188845, 0.48387
2022-12-01 17:16:38.197519, 0.48876
2022-12-01 17:16:38.209721, 0.47898
2022-12-01 17:16:38.218306, 0.48876
2022-12-01 17:16:38.227009, 0.47410
2022-12-01 17:16:38.234409, 0.48876
2022-12-01 17:16:38.247099, 0.47898
2022-12-01 17:16:38.254500, 0.48876
2022-12-01 17:16:38.263511, 0.48387
2022-12-01 17:16:38.275498, 0.48876
2022-12-01 17:16:38.283757, 0.49365
2022-12-01 17:16:38.291715, 0.48387
2022-12-01 17:16:38.299704, 0.49365
2022-12-01 17:16:38.312106, 0.47898
2022-12-01 17:16:38.319679, 0.49365
2022-12-01 17:16:38.328132, 0.47898
2022-12-01 17:16:38.340632, 0.49365
2022-12-01 17:16:38.349500, 0.48876
2022-12-01 17:16:38.357420, 0.48876
2022-12-01 17:16:38.365459, 0.48876
2022-12-01 17:16:38.377047, 0.47898
2022-12-01 17:16:38.386307, 0.48876
2022-12-01 17:16:38.393516, 0.47410
2022-12-01 17:16:38.406852, 0.48876
2022-12-01 17:16:38.415074, 0.47898
2022-12-01 17:16:38.422756, 0.48387
2022-12-01 17:16:38.431474, 0.48387
2022-12-01 17:16:38.443506, 0.47898
2022-12-01 17:16:38.451514, 0.48387
2022-12-01 17:16:38.459635, 0.46921
2022-12-01 17:16:38.471725, 0.48387
2022-12-01 17:16:38.480086, 0.46921
2022-12-01 17:16:38.488090, 0.48387
2022-12-01 17:16:38.496291, 0.47898
2022-12-01 17:16:38.508507, 0.47898
2022-12-01 17:16:38.516314, 0.47898
2022-12-01 17:16:38.525690, 0.46921
2022-12-01 17:16:38.537121, 0.47898
2022-12-01 17:16:38.546049, 0.46921
2022-12-01 17:16:38.552912, 0.47410
2022-12-01 17:16:38.562303, 0.46921
2022-12-01 17:16:38.574817, 0.47898
2022-12-01 17:16:38.583008, 0.47410
2022-12-01 17:16:38.591212, 0.46921
2022-12-01 17:16:38.602822, 0.47410
2022-12-01 17:16:38.610361, 0.46432
2022-12-01 17:16:38.619529, 0.47410
2022-12-01 17:16:38.627409, 0.46432
2022-12-01 17:16:38.639959, 0.47410
2022-12-01 17:16:38.648053, 0.46921
2022-12-01 17:16:38.655964, 0.46921
2022-12-01 17:16:38.668276, 0.46921
2022-12-01 17:16:38.676393, 0.46432
2022-12-01 17:16:38.684275, 0.47410
2022-12-01 17:16:38.693608, 0.45943
2022-12-01 17:16:38.705140, 0.46921
2022-12-01 17:16:38.714062, 0.46432
2022-12-01 17:16:38.721499, 0.46921
2022-12-01 17:16:38.729864, 0.46921
2022-12-01 17:16:38.742723, 0.46921
2022-12-01 17:16:38.749287, 0.46921
2022-12-01 17:16:38.758461, 0.45943
2022-12-01 17:16:38.770305, 0.46921
2022-12-01 17:16:38.778946, 0.45943
2022-12-01 17:16:38.787153, 0.46921
2022-12-01 17:16:38.795369, 0.46432
2022-12-01 17:16:38.807809, 0.47410
2022-12-01 17:16:38.816001, 0.47410
2022-12-01 17:16:38.824165, 0.46921
2022-12-01 17:16:38.836350, 0.47410
2022-12-01 17:16:38.844305, 0.46432
2022-12-01 17:16:38.852472, 0.47410
2022-12-01 17:16:38.861189, 0.46921
2022-12-01 17:16:38.872765, 0.48387
2022-12-01 17:16:38.882018, 0.47898
2022-12-01 17:16:38.889724, 0.48387
2022-12-01 17:16:38.901763, 0.48876
2022-12-01 17:16:38.910144, 0.47410
2022-12-01 17:16:38.919212, 0.48876
2022-12-01 17:16:38.927208, 0.47898
2022-12-01 17:16:38.938907, 0.48387
2022-12-01 17:16:38.947528, 0.48387
2022-12-01 17:16:38.954945, 0.48387
2022-12-01 17:16:38.967149, 0.48876
2022-12-01 17:16:38.975777, 0.48387
2022-12-01 17:16:38.983497, 0.48876
2022-12-01 17:16:38.992081, 0.47898
2022-12-01 17:16:39.003734, 0.48876
2022-12-01 17:16:39.012664, 0.47898
2022-12-01 17:16:39.020022, 0.49365
2022-12-01 17:16:39.032000, 0.48876
2022-12-01 17:16:39.040517, 0.49365
2022-12-01 17:16:39.049170, 0.48876
2022-12-01 17:16:39.057001, 0.48876
2022-12-01 17:16:39.068784, 0.49853
2022-12-01 17:16:39.077776, 0.48876
2022-12-01 17:16:39.085636, 0.50342
2022-12-01 17:16:39.098474, 0.49365
2022-12-01 17:16:39.106185, 0.49853
2022-12-01 17:16:39.114428, 0.50342
2022-12-01 17:16:39.122334, 0.49853
2022-12-01 17:16:39.134475, 0.50342
2022-12-01 17:16:39.142908, 0.49853
2022-12-01 17:16:39.150954, 0.50831
2022-12-01 17:16:39.163234, 0.49853
2022-12-01 17:16:39.171323, 0.50831
2022-12-01 17:16:39.180226, 0.50342
2022-12-01 17:16:39.187838, 0.50831
2022-12-01 17:16:39.200224, 0.50831
2022-12-01 17:16:39.208762, 0.49365
2022-12-01 17:16:39.216562, 0.50342
2022-12-01 17:16:39.229130, 0.49365
2022-12-01 17:16:39.237304, 0.50831
2022-12-01 17:16:39.245135, 0.49853
2022-12-01 17:16:39.254145, 0.50831
2022-12-01 17:16:39.265571, 0.50342
2022-12-01 17:16:39.274338, 0.50342
2022-12-01 17:16:39.282634, 0.50342
2022-12-01 17:16:39.294182, 0.49365
2022-12-01 17:16:39.303084, 0.50342
2022-12-01 17:16:39.311362, 0.48876
2022-12-01 17:16:39.318945, 0.49365
2022-12-01 17:16:39.331744, 0.48876
2022-12-01 17:16:39.339638, 0.49365
2022-12-01 17:16:39.348228, 0.48387
2022-12-01 17:16:39.361196, 0.48387
2022-12-01 17:16:39.368310, 0.48876
2022-12-01 17:16:39.377629, 0.47410
2022-12-01 17:16:39.385011, 0.48387
2022-12-01 17:16:39.397539, 0.47410
2022-12-01 17:16:39.405895, 0.48387
2022-12-01 17:16:39.414312, 0.48387
2022-12-01 17:16:39.426205, 0.48387
2022-12-01 17:16:39.434512, 0.48387
2022-12-01 17:16:39.442648, 0.47410
2022-12-01 17:16:39.450829, 0.48387
2022-12-01 17:16:39.462346, 0.47410
2022-12-01 17:16:39.470709, 0.48387
2022-12-01 17:16:39.478875, 0.46921
2022-12-01 17:16:39.491039, 0.48387
2022-12-01 17:16:39.499958, 0.47898
2022-12-01 17:16:39.507646, 0.47898
2022-12-01 17:16:39.516282, 0.48387
2022-12-01 17:16:39.528753, 0.47410
2022-12-01 17:16:39.536772, 0.47898
2022-12-01 17:16:39.545431, 0.46921
2022-12-01 17:16:39.557869, 0.47898
2022-12-01 17:16:39.565448, 0.47410
2022-12-01 17:16:39.573140, 0.47898
2022-12-01 17:16:39.581877, 0.47410
2022-12-01 17:16:39.594219, 0.46921
2022-12-01 17:16:39.601781, 0.47410
2022-12-01 17:16:39.610586, 0.46921
2022-12-01 17:16:39.618339, 0.47898
2022-12-01 17:16:39.631099, 0.46921
2022-12-01 17:16:39.639778, 0.47898
2022-12-01 17:16:39.648231, 0.47410
2022-12-01 17:16:39.659778, 0.47898
2022-12-01 17:16:39.667017, 0.47898
2022-12-01 17:16:39.675965, 0.46432
2022-12-01 17:16:39.684329, 0.47898
2022-12-01 17:16:39.695633, 0.46921
2022-12-01 17:16:39.704606, 0.47410
2022-12-01 17:16:39.712484, 0.47898
2022-12-01 17:16:39.725040, 0.48387
2022-12-01 17:16:39.732767, 0.48387
2022-12-01 17:16:39.741334, 0.47898
2022-12-01 17:16:39.749838, 0.48387
2022-12-01 17:16:39.761578, 0.47898
2022-12-01 17:16:39.769716, 0.48876
2022-12-01 17:16:39.778782, 0.48387
2022-12-01 17:16:39.790145, 0.49853
2022-12-01 17:16:39.798416, 0.49365
2022-12-01 17:16:39.807066, 0.49853
2022-12-01 17:16:39.814677, 0.50342
2022-12-01 17:16:39.827556, 0.49853
2022-12-01 17:16:39.835412, 0.50342
2022-12-01 17:16:39.843800, 0.50342
2022-12-01 17:16:39.856147, 0.51320
2022-12-01 17:16:39.864130, 0.50831
2022-12-01 17:16:39.872205, 0.51808
2022-12-01 17:16:39.880992, 0.52297
2022-12-01 17:16:39.893187, 0.51808
2022-12-01 17:16:39.901419, 0.52786
2022-12-01 17:16:39.909286, 0.52297
2022-12-01 17:16:39.921682, 0.53763
2022-12-01 17:16:39.930603, 0.53275
2022-12-01 17:16:39.938033, 0.54741
2022-12-01 17:16:39.946956, 0.54741
2022-12-01 17:16:39.958182, 0.55230
2022-12-01 17:16:39.967476, 0.55230
2022-12-01 17:16:39.974321, 0.54741
2022-12-01 17:16:39.987336, 0.55718
2022-12-01 17:16:39.995649, 0.54741
2022-12-01 17:16:40.005353, 0.55718
2022-12-01 17:16:40.011917, 0.54741
2022-12-01 17:16:40.024276, 0.55230
2022-12-01 17:16:40.032525, 0.55230
2022-12-01 17:16:40.040625, 0.54741
2022-12-01 17:16:40.051986, 0.54252
2022-12-01 17:16:40.061147, 0.53763
2022-12-01 17:16:40.068615, 0.54252
2022-12-01 17:16:40.078045, 0.52786
2022-12-01 17:16:40.090341, 0.53763
2022-12-01 17:16:40.097922, 0.53275
2022-12-01 17:16:40.106709, 0.53275
2022-12-01 17:16:40.118944, 0.53275
2022-12-01 17:16:40.125475, 0.52297
2022-12-01 17:16:40.135398, 0.52786
2022-12-01 17:16:40.142696, 0.51320
2022-12-01 17:16:40.154625, 0.52297
2022-12-01 17:16:40.163557, 0.51320
2022-12-01 17:16:40.171540, 0.51808
2022-12-01 17:16:40.184099, 0.51808
2022-12-01 17:16:40.192221, 0.51320
2022-12-01 17:16:40.200923, 0.51320
2022-12-01 17:16:40.208239, 0.50342
2022-12-01 17:16:40.220461, 0.50831
2022-12-01 17:16:40.229303, 0.49853
2022-12-01 17:16:40.236791, 0.50342
2022-12-01 17:16:40.248121, 0.49853
2022-12-01 17:16:40.258243, 0.50342
2022-12-01 17:16:40.265598, 0.50342
2022-12-01 17:16:40.274306, 0.49365
2022-12-01 17:16:40.285286, 0.50342
2022-12-01 17:16:40.294377, 0.48876
2022-12-01 17:16:40.302210, 0.49853
2022-12-01 17:16:40.315528, 0.49365
2022-12-01 17:16:40.322304, 0.50342
2022-12-01 17:16:40.331539, 0.49853
2022-12-01 17:16:40.340013, 0.49853
2022-12-01 17:16:40.351992, 0.49365
2022-12-01 17:16:40.360201, 0.48876
2022-12-01 17:16:40.368385, 0.49853
2022-12-01 17:16:40.380302, 0.48876
2022-12-01 17:16:40.388411, 0.49365
2022-12-01 17:16:40.396919, 0.49365
2022-12-01 17:16:40.404708, 0.49853
2022-12-01 17:16:40.417068, 0.49365
2022-12-01 17:16:40.426214, 0.49365
2022-12-01 17:16:40.433411, 0.49853
2022-12-01 17:16:40.446706, 0.48387
2022-12-01 17:16:40.454057, 0.49853
2022-12-01 17:16:40.463089, 0.48387
2022-12-01 17:16:40.470452, 0.49365
2022-12-01 17:16:40.483540, 0.49365
2022-12-01 17:16:40.491532, 0.49365
2022-12-01 17:16:40.499538, 0.49365
2022-12-01 17:16:40.507643, 0.48387
2022-12-01 17:16:40.519786, 0.48876
2022-12-01 17:16:40.527234, 0.47410
2022-12-01 17:16:40.535454, 0.48876
2022-12-01 17:16:40.547841, 0.47898
2022-12-01 17:16:40.556026, 0.48876
2022-12-01 17:16:40.564794, 0.48876
2022-12-01 17:16:40.572646, 0.48387
2022-12-01 17:16:40.585257, 0.48876
2022-12-01 17:16:40.593626, 0.47410
2022-12-01 17:16:40.601857, 0.48876
2022-12-01 17:16:40.613661, 0.47410
2022-12-01 17:16:40.622267, 0.48876
2022-12-01 17:16:40.630999, 0.47898
2022-12-01 17:16:40.638644, 0.48876
2022-12-01 17:16:40.649844, 0.48876
2022-12-01 17:16:40.659239, 0.48387
2022-12-01 17:16:40.667524, 0.48876
2022-12-01 17:16:40.679790, 0.47898
2022-12-01 17:16:40.687548, 0.48387
2022-12-01 17:16:40.696081, 0.48387
2022-12-01 17:16:40.703994, 0.48876
2022-12-01 17:16:40.716294, 0.48876
2022-12-01 17:16:40.724384, 0.48876
2022-12-01 17:16:40.732647, 0.48876
2022-12-01 17:16:40.744410, 0.48387
2022-12-01 17:16:40.752958, 0.49365
2022-12-01 17:16:40.761741, 0.47898
2022-12-01 17:16:40.769408, 0.48876
2022-12-01 17:16:40.781751, 0.48387
2022-12-01 17:16:40.789145, 0.48876
2022-12-01 17:16:40.798478, 0.48876
2022-12-01 17:16:40.810697, 0.48387
2022-12-01 17:16:40.818507, 0.48387
2022-12-01 17:16:40.827095, 0.47898
2022-12-01 17:16:40.835548, 0.48876
2022-12-01 17:16:40.847778, 0.47410
2022-12-01 17:16:40.855584, 0.48876
2022-12-01 17:16:40.864011, 0.48876
2022-12-01 17:16:40.876279, 0.48387
2022-12-01 17:16:40.883596, 0.48387
2022-12-01 17:16:40.892506, 0.47898
2022-12-01 17:16:40.900599, 0.48876
2022-12-01 17:16:40.912910, 0.46432
2022-12-01 17:16:40.921069, 0.48387
2022-12-01 17:16:40.929027, 0.46921
2022-12-01 17:16:40.941301, 0.48387
2022-12-01 17:16:40.949944, 0.48387
2022-12-01 17:16:40.957777, 0.47410
2022-12-01 17:16:40.966346, 0.48387
2022-12-01 17:16:40.978667, 0.47410
2022-12-01 17:16:40.986092, 0.48387
2022-12-01 17:16:40.995067, 0.47410
2022-12-01 17:16:41.005858, 0.48387
2022-12-01 17:16:41.015808, 0.47898
2022-12-01 17:16:41.023799, 0.48387
2022-12-01 17:16:41.031965, 0.47410
2022-12-01 17:16:41.044109, 0.47410
2022-12-01 17:16:41.052271, 0.48387
2022-12-01 17:16:41.060300, 0.47410
2022-12-01 17:16:41.073406, 0.48387
2022-12-01 17:16:41.081719, 0.47410
2022-12-01 17:16:41.088441, 0.48387
2022-12-01 17:16:41.097747, 0.48387
2022-12-01 17:16:41.110265, 0.47410
2022-12-01 17:16:41.118444, 0.48876
2022-12-01 17:16:41.126789, 0.47410
2022-12-01 17:16:41.138332, 0.48387
2022-12-01 17:16:41.146371, 0.47410
2022-12-01 17:16:41.154568, 0.48387
2022-12-01 17:16:41.163488, 0.47898
2022-12-01 17:16:41.174989, 0.48387
2022-12-01 17:16:41.183810, 0.48387
2022-12-01 17:16:41.191401, 0.47898
2022-12-01 17:16:41.202856, 0.48876
2022-12-01 17:16:41.211964, 0.47410
2022-12-01 17:16:41.219515, 0.48876
2022-12-01 17:16:41.228268, 0.47410
2022-12-01 17:16:41.241334, 0.48876
2022-12-01 17:16:41.249526, 0.48387
2022-12-01 17:16:41.257722, 0.48387
2022-12-01 17:16:41.269135, 0.48876
2022-12-01 17:16:41.277834, 0.47898
2022-12-01 17:16:41.285808, 0.48876
2022-12-01 17:16:41.293849, 0.47898
2022-12-01 17:16:41.306299, 0.48387
2022-12-01 17:16:41.314407, 0.47898
2022-12-01 17:16:41.322705, 0.48876
2022-12-01 17:16:41.330713, 0.48876
2022-12-01 17:16:41.343432, 0.48387
2022-12-01 17:16:41.351390, 0.48876
2022-12-01 17:16:41.359307, 0.47410
2022-12-01 17:16:41.371668, 0.48876
2022-12-01 17:16:41.380074, 0.47898
2022-12-01 17:16:41.388235, 0.48876
2022-12-01 17:16:41.396306, 0.48387
2022-12-01 17:16:41.408838, 0.48876
2022-12-01 17:16:41.416278, 0.48876
2022-12-01 17:16:41.424757, 0.48387
2022-12-01 17:16:41.437302, 0.48876
2022-12-01 17:16:41.445600, 0.48387
2022-12-01 17:16:41.453640, 0.48876
2022-12-01 17:16:41.461964, 0.48876
2022-12-01 17:16:41.474255, 0.48876
2022-12-01 17:16:41.482537, 0.49365
2022-12-01 17:16:41.490720, 0.49365
2022-12-01 17:16:41.502552, 0.49365
2022-12-01 17:16:41.511037, 0.48876
2022-12-01 17:16:41.518866, 0.49365
2022-12-01 17:16:41.527348, 0.48387
2022-12-01 17:16:41.539709, 0.49853
2022-12-01 17:16:41.547994, 0.48876
2022-12-01 17:16:41.556187, 0.49853
2022-12-01 17:16:41.568263, 0.49365
2022-12-01 17:16:41.577229, 0.48876
2022-12-01 17:16:41.585031, 0.49365
2022-12-01 17:16:41.592534, 0.48387
2022-12-01 17:16:41.605291, 0.49853
2022-12-01 17:16:41.614070, 0.48387
2022-12-01 17:16:41.622246, 0.49365
2022-12-01 17:16:41.633008, 0.49365
2022-12-01 17:16:41.642075, 0.49365
2022-12-01 17:16:41.649672, 0.49853
2022-12-01 17:16:41.658246, 0.48876
2022-12-01 17:16:41.670113, 0.49365
2022-12-01 17:16:41.678898, 0.48876
2022-12-01 17:16:41.686947, 0.49853
2022-12-01 17:16:41.698708, 0.49365
2022-12-01 17:16:41.707198, 0.49853
2022-12-01 17:16:41.714870, 0.49853
2022-12-01 17:16:41.723870, 0.48387
2022-12-01 17:16:41.736034, 0.49853
2022-12-01 17:16:41.744790, 0.48387
2022-12-01 17:16:41.752650, 0.49853
2022-12-01 17:16:41.763968, 0.48876
2022-12-01 17:16:41.773794, 0.49853
2022-12-01 17:16:41.780878, 0.49365
2022-12-01 17:16:41.789164, 0.49365
2022-12-01 17:16:41.800921, 0.49853
2022-12-01 17:16:41.809754, 0.48876
2022-12-01 17:16:41.817939, 0.49853
2022-12-01 17:16:41.830407, 0.48876
2022-12-01 17:16:41.838130, 0.49853
2022-12-01 17:16:41.847538, 0.48387
2022-12-01 17:16:41.855648, 0.49365
2022-12-01 17:16:41.867541, 0.49365
2022-12-01 17:16:41.875758, 0.48876
2022-12-01 17:16:41.883890, 0.49853
2022-12-01 17:16:41.896245, 0.48387
2022-12-01 17:16:41.903829, 0.49365
2022-12-01 17:16:41.912245, 0.48876
2022-12-01 17:16:41.920506, 0.49365
2022-12-01 17:16:41.932473, 0.48876
2022-12-01 17:16:41.941031, 0.49365
2022-12-01 17:16:41.949268, 0.49365
2022-12-01 17:16:41.961748, 0.48387
2022-12-01 17:16:41.969042, 0.49365
2022-12-01 17:16:41.977956, 0.48387
2022-12-01 17:16:41.985720, 0.49365
2022-12-01 17:16:41.999105, 0.48387
2022-12-01 17:16:42.007279, 0.49365
2022-12-01 17:16:42.015019, 0.48876
2022-12-01 17:16:42.027027, 0.48387
2022-12-01 17:16:42.034849, 0.49365
2022-12-01 17:16:42.043656, 0.48387
2022-12-01 17:16:42.051516, 0.48876
2022-12-01 17:16:42.064112, 0.48387
2022-12-01 17:16:42.071771, 0.49365
2022-12-01 17:16:42.081020, 0.48876
2022-12-01 17:16:42.092575, 0.49365
2022-12-01 17:16:42.101318, 0.48876
2022-12-01 17:16:42.109037, 0.48876
2022-12-01 17:16:42.118445, 0.49853
2022-12-01 17:16:42.129105, 0.48876
2022-12-01 17:16:42.137331, 0.49853
2022-12-01 17:16:42.146537, 0.49365
2022-12-01 17:16:42.158842, 0.49853
2022-12-01 17:16:42.166093, 0.49853
2022-12-01 17:16:42.174513, 0.49853
2022-12-01 17:16:42.182567, 0.50342
2022-12-01 17:16:42.194695, 0.49365
2022-12-01 17:16:42.203091, 0.50342
2022-12-01 17:16:42.210754, 0.49365
2022-12-01 17:16:42.220113, 0.50342
2022-12-01 17:16:42.231608, 0.49365
2022-12-01 17:16:42.240188, 0.50342
2022-12-01 17:16:42.248508, 0.49853
2022-12-01 17:16:42.260285, 0.49853
2022-12-01 17:16:42.268710, 0.50342
2022-12-01 17:16:42.276865, 0.49365
2022-12-01 17:16:42.285004, 0.50342
2022-12-01 17:16:42.296857, 0.49365
2022-12-01 17:16:42.305535, 0.50342
2022-12-01 17:16:42.313364, 0.49853
2022-12-01 17:16:42.325988, 0.49853
2022-12-01 17:16:42.333941, 0.49853
2022-12-01 17:16:42.342144, 0.49365
2022-12-01 17:16:42.350726, 0.49365
2022-12-01 17:16:42.362502, 0.48876
2022-12-01 17:16:42.370596, 0.49853
2022-12-01 17:16:42.379321, 0.48876
2022-12-01 17:16:42.391224, 0.49365
2022-12-01 17:16:42.399465, 0.49365
2022-12-01 17:16:42.407831, 0.48876
2022-12-01 17:16:42.416111, 0.49365
2022-12-01 17:16:42.428476, 0.47898
2022-12-01 17:16:42.436466, 0.48876
2022-12-01 17:16:42.444884, 0.47410
2022-12-01 17:16:42.456635, 0.48387
2022-12-01 17:16:42.465169, 0.47410
2022-12-01 17:16:42.472966, 0.48387
2022-12-01 17:16:42.481117, 0.47898
2022-12-01 17:16:42.493951, 0.47410
2022-12-01 17:16:42.501406, 0.47898
2022-12-01 17:16:42.509976, 0.46921
2022-12-01 17:16:42.522662, 0.47898
2022-12-01 17:16:42.530845, 0.46921
2022-12-01 17:16:42.538669, 0.47898
2022-12-01 17:16:42.547546, 0.46921
2022-12-01 17:16:42.559812, 0.46921
2022-12-01 17:16:42.568499, 0.46921
2022-12-01 17:16:42.576120, 0.45943
2022-12-01 17:16:42.588209, 0.46921
2022-12-01 17:16:42.596314, 0.45943
2022-12-01 17:16:42.604599, 0.46432
2022-12-01 17:16:42.612945, 0.45943
2022-12-01 17:16:42.625801, 0.46921
2022-12-01 17:16:42.632885, 0.46432
2022-12-01 17:16:42.641395, 0.45943
2022-12-01 17:16:42.653605, 0.46432
2022-12-01 17:16:42.661880, 0.45455
2022-12-01 17:16:42.670066, 0.45943
2022-12-01 17:16:42.678583, 0.45455
2022-12-01 17:16:42.690859, 0.45943
2022-12-01 17:16:42.698977, 0.45455
2022-12-01 17:16:42.707827, 0.46432
2022-12-01 17:16:42.718907, 0.46432
2022-12-01 17:16:42.727703, 0.45455
2022-12-01 17:16:42.735587, 0.46432
2022-12-01 17:16:42.744082, 0.44966
2022-12-01 17:16:42.755846, 0.46432
2022-12-01 17:16:42.764316, 0.45455
2022-12-01 17:16:42.771844, 0.45943
2022-12-01 17:16:42.784489, 0.45943
2022-12-01 17:16:42.793743, 0.45455
2022-12-01 17:16:42.801100, 0.45943
2022-12-01 17:16:42.810129, 0.44477
2022-12-01 17:16:42.822386, 0.45943
2022-12-01 17:16:42.830141, 0.44966
2022-12-01 17:16:42.838781, 0.45943
2022-12-01 17:16:42.850300, 0.45455
2022-12-01 17:16:42.859289, 0.45943
2022-12-01 17:16:42.866937, 0.45455
2022-12-01 17:16:42.874386, 0.45455
2022-12-01 17:16:42.887813, 0.46432
2022-12-01 17:16:42.895058, 0.45943
2022-12-01 17:16:42.903540, 0.47410
2022-12-01 17:16:42.916079, 0.46921
2022-12-01 17:16:42.923810, 0.47898
2022-12-01 17:16:42.931762, 0.48387
2022-12-01 17:16:42.939867, 0.47898
2022-12-01 17:16:42.951962, 0.49365
2022-12-01 17:16:42.961741, 0.48387
2022-12-01 17:16:42.968818, 0.49853
2022-12-01 17:16:42.982112, 0.48876
2022-12-01 17:16:42.990358, 0.50342
2022-12-01 17:16:42.998510, 0.50342
2022-12-01 17:16:43.006754, 0.50342
2022-12-01 17:16:43.017789, 0.51320
2022-12-01 17:16:43.027214, 0.50342
2022-12-01 17:16:43.034443, 0.51320
2022-12-01 17:16:43.047009, 0.50342
2022-12-01 17:16:43.055188, 0.51808
2022-12-01 17:16:43.063448, 0.50342
2022-12-01 17:16:43.071819, 0.52297
2022-12-01 17:16:43.084060, 0.51808
2022-12-01 17:16:43.092220, 0.51808
2022-12-01 17:16:43.100320, 0.51320
2022-12-01 17:16:43.108351, 0.50831
2022-12-01 17:16:43.120644, 0.51320
2022-12-01 17:16:43.129608, 0.50831
2022-12-01 17:16:43.137188, 0.51808
2022-12-01 17:16:43.150083, 0.51320
2022-12-01 17:16:43.157521, 0.51808
2022-12-01 17:16:43.166465, 0.51320
2022-12-01 17:16:43.174746, 0.50831
2022-12-01 17:16:43.186353, 0.51320
2022-12-01 17:16:43.195139, 0.50342
2022-12-01 17:16:43.202089, 0.51320
2022-12-01 17:16:43.215125, 0.50342
2022-12-01 17:16:43.223243, 0.51320
2022-12-01 17:16:43.231590, 0.50831
2022-12-01 17:16:43.239491, 0.50831
2022-12-01 17:16:43.251302, 0.50831
2022-12-01 17:16:43.260136, 0.50342
2022-12-01 17:16:43.268369, 0.50831
2022-12-01 17:16:43.279750, 0.49853
2022-12-01 17:16:43.289342, 0.50831
2022-12-01 17:16:43.297052, 0.49853
2022-12-01 17:16:43.305745, 0.50831
2022-12-01 17:16:43.317666, 0.50342
2022-12-01 17:16:43.325634, 0.49853
2022-12-01 17:16:43.333659, 0.50342
2022-12-01 17:16:43.346741, 0.49365
2022-12-01 17:16:43.354916, 0.50342
2022-12-01 17:16:43.363074, 0.49365
2022-12-01 17:16:43.371286, 0.50831
2022-12-01 17:16:43.383094, 0.49853
2022-12-01 17:16:43.391010, 0.50342
2022-12-01 17:16:43.399810, 0.50342
2022-12-01 17:16:43.411730, 0.49853
2022-12-01 17:16:43.419639, 0.50342
2022-12-01 17:16:43.428093, 0.48876
2022-12-01 17:16:43.436327, 0.50342
2022-12-01 17:16:43.449102, 0.49365
2022-12-01 17:16:43.457296, 0.50342
2022-12-01 17:16:43.466333, 0.49853
2022-12-01 17:16:43.477417, 0.49365
2022-12-01 17:16:43.484738, 0.49853
2022-12-01 17:16:43.493843, 0.49365
2022-12-01 17:16:43.501579, 0.50342
2022-12-01 17:16:43.513934, 0.48876
2022-12-01 17:16:43.522702, 0.49853
2022-12-01 17:16:43.530243, 0.49365
2022-12-01 17:16:43.542637, 0.49853
2022-12-01 17:16:43.550182, 0.49365
2022-12-01 17:16:43.559180, 0.49365
2022-12-01 17:16:43.566786, 0.49853
2022-12-01 17:16:43.579521, 0.49365
2022-12-01 17:16:43.587837, 0.49853
2022-12-01 17:16:43.596031, 0.49365
2022-12-01 17:16:43.608304, 0.49853
2022-12-01 17:16:43.617038, 0.49365
2022-12-01 17:16:43.623849, 0.49853
2022-12-01 17:16:43.632483, 0.49853
2022-12-01 17:16:43.645751, 0.48876
2022-12-01 17:16:43.653452, 0.49853
2022-12-01 17:16:43.662088, 0.48387
2022-12-01 17:16:43.674068, 0.49853
2022-12-01 17:16:43.681782, 0.48876
2022-12-01 17:16:43.690191, 0.49365
2022-12-01 17:16:43.698440, 0.49853
2022-12-01 17:16:43.710727, 0.49365
2022-12-01 17:16:43.718327, 0.49853
2022-12-01 17:16:43.727076, 0.48387
2022-12-01 17:16:43.739565, 0.49853
2022-12-01 17:16:43.747605, 0.48387
2022-12-01 17:16:43.755823, 0.49365
2022-12-01 17:16:43.763990, 0.48876
2022-12-01 17:16:43.775184, 0.49365
2022-12-01 17:16:43.784076, 0.48876
2022-12-01 17:16:43.792158, 0.48387
2022-12-01 17:16:43.805199, 0.48876
2022-12-01 17:16:43.812788, 0.48387
2022-12-01 17:16:43.820624, 0.48876
2022-12-01 17:16:43.831407, 0.48387
2022-12-01 17:16:43.841771, 0.49365
2022-12-01 17:16:43.849951, 0.48876
2022-12-01 17:16:43.858212, 0.48876
2022-12-01 17:16:43.870052, 0.49365
2022-12-01 17:16:43.878223, 0.48387
2022-12-01 17:16:43.885922, 0.49365
2022-12-01 17:16:43.894619, 0.48387
2022-12-01 17:16:43.906798, 0.49365
2022-12-01 17:16:43.915064, 0.48876
2022-12-01 17:16:43.923764, 0.49365
2022-12-01 17:16:43.935112, 0.48876
2022-12-01 17:16:43.944235, 0.48876
2022-12-01 17:16:43.951931, 0.49365
2022-12-01 17:16:43.961308, 0.48387
2022-12-01 17:16:43.972639, 0.49365
2022-12-01 17:16:43.981557, 0.48387
2022-12-01 17:16:43.989378, 0.49365
2022-12-01 17:16:43.997949, 0.48876
2022-12-01 17:16:44.009730, 0.48876
2022-12-01 17:16:44.017383, 0.49365
2022-12-01 17:16:44.025042, 0.48387
2022-12-01 17:16:44.039065, 0.48876
2022-12-01 17:16:44.046898, 0.48387
2022-12-01 17:16:44.054831, 0.48387
2022-12-01 17:16:44.062921, 0.48387
2022-12-01 17:16:44.075247, 0.48876
2022-12-01 17:16:44.083460, 0.48876
2022-12-01 17:16:44.091629, 0.48876
2022-12-01 17:16:44.102827, 0.48876
2022-12-01 17:16:44.112140, 0.48387
2022-12-01 17:16:44.119670, 0.48876
2022-12-01 17:16:44.129041, 0.48387
2022-12-01 17:16:44.140566, 0.48876
2022-12-01 17:16:44.148672, 0.48876
2022-12-01 17:16:44.157738, 0.48876
2022-12-01 17:16:44.169390, 0.48876
2022-12-01 17:16:44.177966, 0.48387
2022-12-01 17:16:44.185638, 0.48387
2022-12-01 17:16:44.194303, 0.47898
2022-12-01 17:16:44.206870, 0.48876
2022-12-01 17:16:44.214439, 0.48387
2022-12-01 17:16:44.222528, 0.48876
2022-12-01 17:16:44.234502, 0.49365
2022-12-01 17:16:44.248745, 0.48876
2022-12-01 17:16:44.250981, 0.49365
2022-12-01 17:16:44.259167, 0.48387
2022-12-01 17:16:44.271087, 0.49365
2022-12-01 17:16:44.279233, 0.48876
2022-12-01 17:16:44.287850, 0.49365
2022-12-01 17:16:44.300152, 0.49365
2022-12-01 17:16:44.308015, 0.49365
2022-12-01 17:16:44.316813, 0.49853
2022-12-01 17:16:44.324940, 0.48876
2022-12-01 17:16:44.336382, 0.49853
2022-12-01 17:16:44.344599, 0.48876
2022-12-01 17:16:44.353307, 0.49853
2022-12-01 17:16:44.365727, 0.49365
2022-12-01 17:16:44.373388, 0.49853
2022-12-01 17:16:44.382388, 0.49365
2022-12-01 17:16:44.390574, 0.49365
2022-12-01 17:16:44.402983, 0.49365
2022-12-01 17:16:44.411169, 0.48876
2022-12-01 17:16:44.418866, 0.49365
2022-12-01 17:16:44.431416, 0.48876
2022-12-01 17:16:44.439684, 0.49365
2022-12-01 17:16:44.447975, 0.49365
2022-12-01 17:16:44.455393, 0.49365
2022-12-01 17:16:44.468188, 0.49365
2022-12-01 17:16:44.476163, 0.48876
2022-12-01 17:16:44.484089, 0.49365
2022-12-01 17:16:44.496890, 0.48387
2022-12-01 17:16:44.505092, 0.49365
2022-12-01 17:16:44.513412, 0.48876
2022-12-01 17:16:44.521545, 0.49365
2022-12-01 17:16:44.533510, 0.49365
2022-12-01 17:16:44.541824, 0.48876
2022-12-01 17:16:44.549720, 0.48876
2022-12-01 17:16:44.562489, 0.48387
2022-12-01 17:16:44.570114, 0.49365
2022-12-01 17:16:44.578106, 0.48387
2022-12-01 17:16:44.587149, 0.48876
2022-12-01 17:16:44.598644, 0.48387
2022-12-01 17:16:44.606900, 0.48876
2022-12-01 17:16:44.615497, 0.48876
2022-12-01 17:16:44.627931, 0.48387
2022-12-01 17:16:44.635329, 0.49365
2022-12-01 17:16:44.644055, 0.48387
2022-12-01 17:16:44.652031, 0.49365
2022-12-01 17:16:44.664650, 0.48387
2022-12-01 17:16:44.672784, 0.48876
2022-12-01 17:16:44.680789, 0.48876
2022-12-01 17:16:44.693460, 0.48387
2022-12-01 17:16:44.701345, 0.48876
2022-12-01 17:16:44.709984, 0.47410
2022-12-01 17:16:44.718052, 0.48876
2022-12-01 17:16:44.729739, 0.47410
2022-12-01 17:16:44.738557, 0.48876
2022-12-01 17:16:44.746704, 0.48387
2022-12-01 17:16:44.759088, 0.48387
2022-12-01 17:16:44.767098, 0.48876
2022-12-01 17:16:44.775426, 0.48387
2022-12-01 17:16:44.783667, 0.48876
2022-12-01 17:16:44.796100, 0.47898
2022-12-01 17:16:44.804023, 0.48876
2022-12-01 17:16:44.811951, 0.47898
2022-12-01 17:16:44.824104, 0.48876
2022-12-01 17:16:44.834218, 0.48387
2022-12-01 17:16:44.840691, 0.48876
2022-12-01 17:16:44.849377, 0.48876
2022-12-01 17:16:44.861242, 0.47898
2022-12-01 17:16:44.869508, 0.48387
2022-12-01 17:16:44.877703, 0.47898
2022-12-01 17:16:44.885712, 0.48876
2022-12-01 17:16:44.898108, 0.48387
2022-12-01 17:16:44.906115, 0.48876
2022-12-01 17:16:44.914307, 0.48876
2022-12-01 17:16:44.926617, 0.48387
2022-12-01 17:16:44.934942, 0.48876
2022-12-01 17:16:44.943242, 0.47898
2022-12-01 17:16:44.952362, 0.48876
2022-12-01 17:16:44.964024, 0.47410
2022-12-01 17:16:44.971724, 0.48876
2022-12-01 17:16:44.979695, 0.48387
2022-12-01 17:16:44.992347, 0.48387
2022-12-01 17:16:45.000138, 0.48876
2022-12-01 17:16:45.008575, 0.47898
2022-12-01 17:16:45.016469, 0.48876
2022-12-01 17:16:45.028553, 0.47410
2022-12-01 17:16:45.037222, 0.48387
2022-12-01 17:16:45.045778, 0.47898
2022-12-01 17:16:45.058104, 0.48876
2022-12-01 17:16:45.066348, 0.48876
2022-12-01 17:16:45.074242, 0.48387
2022-12-01 17:16:45.082490, 0.48876
2022-12-01 17:16:45.095079, 0.47898
2022-12-01 17:16:45.102380, 0.48876
2022-12-01 17:16:45.111387, 0.47898
2022-12-01 17:16:45.123278, 0.48876
2022-12-01 17:16:45.131572, 0.48387
2022-12-01 17:16:45.140152, 0.48387
2022-12-01 17:16:45.148286, 0.48876
2022-12-01 17:16:45.160218, 0.48387
2022-12-01 17:16:45.168653, 0.48876
2022-12-01 17:16:45.176194, 0.47898
2022-12-01 17:16:45.189125, 0.48876
2022-12-01 17:16:45.197039, 0.47898
2022-12-01 17:16:45.204825, 0.48876
2022-12-01 17:16:45.213141, 0.48387
2022-12-01 17:16:45.225876, 0.48876
2022-12-01 17:16:45.234108, 0.48876
2022-12-01 17:16:45.242377, 0.47898
2022-12-01 17:16:45.254500, 0.48876
2022-12-01 17:16:45.262297, 0.48387
2022-12-01 17:16:45.271204, 0.48387
2022-12-01 17:16:45.279059, 0.48876
2022-12-01 17:16:45.290999, 0.48876
2022-12-01 17:16:45.299834, 0.48387
2022-12-01 17:16:45.307437, 0.48876
2022-12-01 17:16:45.319425, 0.48876
2022-12-01 17:16:45.328331, 0.47898
2022-12-01 17:16:45.335879, 0.48876
2022-12-01 17:16:45.345006, 0.48387
2022-12-01 17:16:45.356171, 0.48876
2022-12-01 17:16:45.365398, 0.48387
2022-12-01 17:16:45.373127, 0.48387
2022-12-01 17:16:45.385558, 0.48876
2022-12-01 17:16:45.394083, 0.47410
2022-12-01 17:16:45.401767, 0.48876
2022-12-01 17:16:45.410221, 0.47898
2022-12-01 17:16:45.422240, 0.48876
2022-12-01 17:16:45.430339, 0.48387
2022-12-01 17:16:45.438942, 0.49365
2022-12-01 17:16:45.451050, 0.48876
2022-12-01 17:16:45.459487, 0.48876
2022-12-01 17:16:45.467718, 0.49365
2022-12-01 17:16:45.476044, 0.48387
2022-12-01 17:16:45.488211, 0.49365
2022-12-01 17:16:45.496646, 0.48387
2022-12-01 17:16:45.503812, 0.49365
2022-12-01 17:16:45.516648, 0.48387
2022-12-01 17:16:45.525799, 0.48876
2022-12-01 17:16:45.533131, 0.48876
2022-12-01 17:16:45.542174, 0.48387
2022-12-01 17:16:45.553675, 0.48876
2022-12-01 17:16:45.561795, 0.47898
2022-12-01 17:16:45.569882, 0.49365
2022-12-01 17:16:45.581993, 0.47898
2022-12-01 17:16:45.590311, 0.49365
2022-12-01 17:16:45.598606, 0.48876
2022-12-01 17:16:45.607248, 0.48387
2022-12-01 17:16:45.618639, 0.48876
2022-12-01 17:16:45.627268, 0.47898
2022-12-01 17:16:45.635203, 0.48876
2022-12-01 17:16:45.647884, 0.47898
2022-12-01 17:16:45.656150, 0.48876
2022-12-01 17:16:45.664294, 0.48387
2022-12-01 17:16:45.672810, 0.48876
2022-12-01 17:16:45.685318, 0.48876
2022-12-01 17:16:45.692486, 0.48387
2022-12-01 17:16:45.702762, 0.48876
2022-12-01 17:16:45.709581, 0.47898
2022-12-01 17:16:45.721775, 0.49365
2022-12-01 17:16:45.729469, 0.48387
2022-12-01 17:16:45.737380, 0.49365
2022-12-01 17:16:45.749836, 0.48876
2022-12-01 17:16:45.758136, 0.49365
2022-12-01 17:16:45.766393, 0.48876
2022-12-01 17:16:45.774520, 0.48876
2022-12-01 17:16:45.787221, 0.49853
2022-12-01 17:16:45.794930, 0.48387
2022-12-01 17:16:45.803774, 0.49365
2022-12-01 17:16:45.816120, 0.48876
2022-12-01 17:16:45.823952, 0.49365
2022-12-01 17:16:45.832973, 0.48876
2022-12-01 17:16:45.839884, 0.48876
2022-12-01 17:16:45.852884, 0.48876
2022-12-01 17:16:45.861097, 0.48387
2022-12-01 17:16:45.869087, 0.48876
2022-12-01 17:16:45.882156, 0.48387
2022-12-01 17:16:45.889694, 0.49365
2022-12-01 17:16:45.898310, 0.49365
2022-12-01 17:16:45.906766, 0.49365
2022-12-01 17:16:45.918059, 0.49365
2022-12-01 17:16:45.927203, 0.48876
2022-12-01 17:16:45.934645, 0.49365
2022-12-01 17:16:45.948893, 0.48876
2022-12-01 17:16:45.958324, 0.49853
2022-12-01 17:16:45.966064, 0.48876
2022-12-01 17:16:45.981596, 0.49365
2022-12-01 17:16:45.986806, 0.49365
2022-12-01 17:16:45.991510, 0.49365
2022-12-01 17:16:46.000255, 0.48876
2022-12-01 17:16:46.012183, 0.48876
2022-12-01 17:16:46.020309, 0.49365
2022-12-01 17:16:46.028805, 0.48876
2022-12-01 17:16:46.037079, 0.49365
2022-12-01 17:16:46.049018, 0.48876
2022-12-01 17:16:46.057465, 0.49365
2022-12-01 17:16:46.065688, 0.48387
2022-12-01 17:16:46.078166, 0.48876
2022-12-01 17:16:46.086300, 0.49365
2022-12-01 17:16:46.094327, 0.48387
2022-12-01 17:16:46.101799, 0.49365
2022-12-01 17:16:46.114770, 0.47898
2022-12-01 17:16:46.123049, 0.49853
2022-12-01 17:16:46.131244, 0.49365
2022-12-01 17:16:46.143775, 0.49365
2022-12-01 17:16:46.151702, 0.48876
2022-12-01 17:16:46.160176, 0.48876
2022-12-01 17:16:46.168431, 0.49365
2022-12-01 17:16:46.180166, 0.48387
2022-12-01 17:16:46.188627, 0.49365
2022-12-01 17:16:46.197542, 0.48876
2022-12-01 17:16:46.208771, 0.48876
2022-12-01 17:16:46.217387, 0.49365
2022-12-01 17:16:46.225815, 0.48387
2022-12-01 17:16:46.234463, 0.48876
2022-12-01 17:16:46.267877, 0.47898
2022-12-01 17:16:46.269840, 0.48876
2022-12-01 17:16:46.276635, 0.47898
2022-12-01 17:16:46.279396, 0.48876
2022-12-01 17:16:46.282246, 0.48387
2022-12-01 17:16:46.290662, 0.48876
2022-12-01 17:16:46.298694, 0.48876
2022-12-01 17:16:46.311098, 0.47898
2022-12-01 17:16:46.319759, 0.48387
2022-12-01 17:16:46.327340, 0.47898
2022-12-01 17:16:46.339980, 0.48387
2022-12-01 17:16:46.347875, 0.47410
2022-12-01 17:16:46.356386, 0.48387
2022-12-01 17:16:46.364333, 0.48387
2022-12-01 17:16:46.376621, 0.47898
2022-12-01 17:16:46.385169, 0.48387
2022-12-01 17:16:46.392910, 0.47410
2022-12-01 17:16:46.404975, 0.48387
2022-12-01 17:16:46.413742, 0.47410
2022-12-01 17:16:46.421321, 0.48387
2022-12-01 17:16:46.430088, 0.47410
2022-12-01 17:16:46.441950, 0.48387
2022-12-01 17:16:46.451108, 0.48387
2022-12-01 17:16:46.458904, 0.47898
2022-12-01 17:16:46.470810, 0.48387
2022-12-01 17:16:46.479860, 0.47898
2022-12-01 17:16:46.487714, 0.48387
2022-12-01 17:16:46.496084, 0.47898
2022-12-01 17:16:46.508333, 0.48876
2022-12-01 17:16:46.516283, 0.48876
2022-12-01 17:16:46.524396, 0.48876
2022-12-01 17:16:46.536402, 0.48876
2022-12-01 17:16:46.545673, 0.48387
2022-12-01 17:16:46.552918, 0.48876
2022-12-01 17:16:46.561824, 0.48387
2022-12-01 17:16:46.573984, 0.49365
2022-12-01 17:16:46.582546, 0.48876
2022-12-01 17:16:46.589294, 0.48876
2022-12-01 17:16:46.597762, 0.49365
2022-12-01 17:16:46.610552, 0.48876
2022-12-01 17:16:46.618207, 0.49365
2022-12-01 17:16:46.626774, 0.48387
2022-12-01 17:16:46.638343, 0.49365
2022-12-01 17:16:46.647843, 0.48387
2022-12-01 17:16:46.656139, 0.48876
2022-12-01 17:16:46.663992, 0.48876
2022-12-01 17:16:46.676181, 0.48876
2022-12-01 17:16:46.683996, 0.48876
2022-12-01 17:16:46.692301, 0.48387
2022-12-01 17:16:46.703781, 0.48876
2022-12-01 17:16:46.713647, 0.48387
2022-12-01 17:16:46.720414, 0.48876
2022-12-01 17:16:46.730021, 0.47898
2022-12-01 17:16:46.742320, 0.48387
2022-12-01 17:16:46.749620, 0.48876
2022-12-01 17:16:46.758680, 0.48387
2022-12-01 17:16:46.769263, 0.48876
2022-12-01 17:16:46.778738, 0.47898
2022-12-01 17:16:46.787397, 0.48876
2022-12-01 17:16:46.795075, 0.47898
2022-12-01 17:16:46.807815, 0.48387
2022-12-01 17:16:46.815136, 0.48387
2022-12-01 17:16:46.823737, 0.48876
2022-12-01 17:16:46.835737, 0.48387
2022-12-01 17:16:46.844175, 0.47898
2022-12-01 17:16:46.852165, 0.48387
2022-12-01 17:16:46.860636, 0.47898
2022-12-01 17:16:46.873390, 0.48387
2022-12-01 17:16:46.881561, 0.47898
2022-12-01 17:16:46.889795, 0.47898
2022-12-01 17:16:46.901573, 0.48387
2022-12-01 17:16:46.908957, 0.48387
2022-12-01 17:16:46.917322, 0.48387
2022-12-01 17:16:46.924979, 0.47410
2022-12-01 17:16:46.938555, 0.48387
2022-12-01 17:16:46.947111, 0.47410
2022-12-01 17:16:46.955053, 0.48387
2022-12-01 17:16:46.966940, 0.47898
2022-12-01 17:16:46.975784, 0.47410
2022-12-01 17:16:46.982879, 0.47898
2022-12-01 17:16:46.991676, 0.46921
2022-12-01 17:16:47.003382, 0.47898
2022-12-01 17:16:47.012130, 0.46921
2022-12-01 17:16:47.019833, 0.47898
2022-12-01 17:16:47.033872, 0.46921
2022-12-01 17:16:47.041314, 0.47898
2022-12-01 17:16:47.048756, 0.47898
2022-12-01 17:16:47.057683, 0.47898
2022-12-01 17:16:47.069219, 0.47898
2022-12-01 17:16:47.078151, 0.47410
2022-12-01 17:16:47.086352, 0.47410
2022-12-01 17:16:47.098639, 0.47410
2022-12-01 17:16:47.106829, 0.47410
2022-12-01 17:16:47.115035, 0.47410
2022-12-01 17:16:47.123255, 0.47898
2022-12-01 17:16:47.134764, 0.47898
2022-12-01 17:16:47.143269, 0.47898
2022-12-01 17:16:47.150539, 0.48387
2022-12-01 17:16:47.163712, 0.47410
2022-12-01 17:16:47.171363, 0.48387
2022-12-01 17:16:47.179986, 0.47410
2022-12-01 17:16:47.187898, 0.48387
2022-12-01 17:16:47.200289, 0.47898
2022-12-01 17:16:47.208515, 0.48387
2022-12-01 17:16:47.216290, 0.48387
2022-12-01 17:16:47.228671, 0.47898
2022-12-01 17:16:47.236562, 0.48387
2022-12-01 17:16:47.244678, 0.47410
2022-12-01 17:16:47.253685, 0.48387
2022-12-01 17:16:47.265660, 0.47898
2022-12-01 17:16:47.274788, 0.48387
2022-12-01 17:16:47.282084, 0.48387
2022-12-01 17:16:47.295289, 0.47898
2022-12-01 17:16:47.303489, 0.48876
2022-12-01 17:16:47.311396, 0.47898
2022-12-01 17:16:47.318890, 0.48876
2022-12-01 17:16:47.330844, 0.47898
2022-12-01 17:16:47.338997, 0.48387
2022-12-01 17:16:47.347113, 0.48387
2022-12-01 17:16:47.359867, 0.48876
2022-12-01 17:16:47.367876, 0.48876
2022-12-01 17:16:47.375999, 0.48387
2022-12-01 17:16:47.384589, 0.48876
2022-12-01 17:16:47.396904, 0.47898
2022-12-01 17:16:47.405188, 0.48876
2022-12-01 17:16:47.413187, 0.48387
2022-12-01 17:16:47.424993, 0.48876
2022-12-01 17:16:47.433369, 0.48876
2022-12-01 17:16:47.441544, 0.48876
2022-12-01 17:16:47.449748, 0.48876
2022-12-01 17:16:47.463144, 0.48387
2022-12-01 17:16:47.470714, 0.48876
2022-12-01 17:16:47.479441, 0.47898
2022-12-01 17:16:47.487104, 0.49365
2022-12-01 17:16:47.499089, 0.48387
2022-12-01 17:16:47.507756, 0.49365
2022-12-01 17:16:47.515729, 0.48876
2022-12-01 17:16:47.527125, 0.48876
2022-12-01 17:16:47.536166, 0.48876
2022-12-01 17:16:47.544041, 0.47898
2022-12-01 17:16:47.552825, 0.49365
2022-12-01 17:16:47.564239, 0.47898
2022-12-01 17:16:47.572585, 0.49365
2022-12-01 17:16:47.581304, 0.48387
2022-12-01 17:16:47.593283, 0.48876
2022-12-01 17:16:47.602145, 0.48876
2022-12-01 17:16:47.609377, 0.48387
2022-12-01 17:16:47.618394, 0.49365
2022-12-01 17:16:47.629766, 0.47410
2022-12-01 17:16:47.638637, 0.48876
2022-12-01 17:16:47.646935, 0.48387
2022-12-01 17:16:47.658458, 0.49365
2022-12-01 17:16:47.667599, 0.48876
2022-12-01 17:16:47.675579, 0.48387
2022-12-01 17:16:47.682985, 0.48876
2022-12-01 17:16:47.696214, 0.48387
2022-12-01 17:16:47.704369, 0.48876
2022-12-01 17:16:47.713595, 0.47410
2022-12-01 17:16:47.723860, 0.48387
2022-12-01 17:16:47.732866, 0.48387
2022-12-01 17:16:47.741214, 0.48876
2022-12-01 17:16:47.749063, 0.48876
2022-12-01 17:16:47.760840, 0.48387
2022-12-01 17:16:47.769223, 0.48876
2022-12-01 17:16:47.777687, 0.47898
2022-12-01 17:16:47.790110, 0.48387
2022-12-01 17:16:47.798400, 0.48387
2022-12-01 17:16:47.806630, 0.48387
2022-12-01 17:16:47.814714, 0.48876
2022-12-01 17:16:47.826202, 0.48387
2022-12-01 17:16:47.835061, 0.48876
2022-12-01 17:16:47.843856, 0.47898
2022-12-01 17:16:47.855964, 0.48876
2022-12-01 17:16:47.864147, 0.47898
2022-12-01 17:16:47.872258, 0.48876
2022-12-01 17:16:47.880523, 0.48387
2022-12-01 17:16:47.892605, 0.48876
2022-12-01 17:16:47.900321, 0.48876
2022-12-01 17:16:47.909135, 0.48387
2022-12-01 17:16:47.921454, 0.48876
2022-12-01 17:16:47.929788, 0.47898
2022-12-01 17:16:47.937674, 0.48876
2022-12-01 17:16:47.945167, 0.48387
2022-12-01 17:16:47.957518, 0.49365
2022-12-01 17:16:47.965977, 0.48876
2022-12-01 17:16:47.975377, 0.48876
2022-12-01 17:16:47.986546, 0.48876
2022-12-01 17:16:47.995130, 0.48387
2022-12-01 17:16:48.003351, 0.49365
2022-12-01 17:16:48.011850, 0.47410
2022-12-01 17:16:48.023772, 0.48876
2022-12-01 17:16:48.032081, 0.48876
2022-12-01 17:16:48.040254, 0.49365
2022-12-01 17:16:48.052425, 0.49365
2022-12-01 17:16:48.059833, 0.48387
2022-12-01 17:16:48.068022, 0.48876
2022-12-01 17:16:48.076323, 0.47898
2022-12-01 17:16:48.089097, 0.49365
2022-12-01 17:16:48.097014, 0.47898
2022-12-01 17:16:48.105553, 0.48876
2022-12-01 17:16:48.117681, 0.48876
2022-12-01 17:16:48.126264, 0.48876
2022-12-01 17:16:48.133923, 0.48876
2022-12-01 17:16:48.142467, 0.47898
2022-12-01 17:16:48.154956, 0.49365
2022-12-01 17:16:48.162827, 0.47898
2022-12-01 17:16:48.171310, 0.48876
2022-12-01 17:16:48.184335, 0.48876
2022-12-01 17:16:48.191485, 0.49365
2022-12-01 17:16:48.200723, 0.49365
2022-12-01 17:16:48.208214, 0.48876
2022-12-01 17:16:48.220376, 0.49365
2022-12-01 17:16:48.228393, 0.47898
2022-12-01 17:16:48.236595, 0.49365
2022-12-01 17:16:48.248924, 0.48387
2022-12-01 17:16:48.257154, 0.49365
2022-12-01 17:16:48.265687, 0.48876
2022-12-01 17:16:48.273866, 0.49365
2022-12-01 17:16:48.285215, 0.49365
2022-12-01 17:16:48.293264, 0.48876
2022-12-01 17:16:48.302127, 0.49365
2022-12-01 17:16:48.314861, 0.48387
2022-12-01 17:16:48.322849, 0.49365
2022-12-01 17:16:48.331474, 0.48876
2022-12-01 17:16:48.338735, 0.49365
2022-12-01 17:16:48.351292, 0.49365
2022-12-01 17:16:48.359870, 0.48876
2022-12-01 17:16:48.368097, 0.48876
2022-12-01 17:16:48.376085, 0.48876
2022-12-01 17:16:48.388320, 0.49365
2022-12-01 17:16:48.396299, 0.48876
2022-12-01 17:16:48.404537, 0.49365
2022-12-01 17:16:48.416481, 0.49365
2022-12-01 17:16:48.424508, 0.49365
2022-12-01 17:16:48.433216, 0.49365
2022-12-01 17:16:48.441874, 0.48876
2022-12-01 17:16:48.453421, 0.49853
2022-12-01 17:16:48.462048, 0.48387
2022-12-01 17:16:48.469730, 0.49853
2022-12-01 17:16:48.481704, 0.48876
2022-12-01 17:16:48.489896, 0.49853
2022-12-01 17:16:48.498411, 0.49365
2022-12-01 17:16:48.506867, 0.49365
2022-12-01 17:16:48.518716, 0.49365
2022-12-01 17:16:48.526646, 0.48876
2022-12-01 17:16:48.535421, 0.49365
2022-12-01 17:16:48.547576, 0.48876
2022-12-01 17:16:48.555643, 0.49853
2022-12-01 17:16:48.563969, 0.49365
2022-12-01 17:16:48.572686, 0.49853
2022-12-01 17:16:48.584056, 0.49853
2022-12-01 17:16:48.592841, 0.49365
2022-12-01 17:16:48.600877, 0.49853
2022-12-01 17:16:48.613371, 0.48876
2022-12-01 17:16:48.621741, 0.49853
2022-12-01 17:16:48.629533, 0.48876
2022-12-01 17:16:48.638487, 0.49853
2022-12-01 17:16:48.650050, 0.49365
2022-12-01 17:16:48.658747, 0.49853
2022-12-01 17:16:48.666355, 0.49365
2022-12-01 17:16:48.679203, 0.49365
2022-12-01 17:16:48.686713, 0.49365
2022-12-01 17:16:48.695584, 0.48876
2022-12-01 17:16:48.703055, 0.49365
2022-12-01 17:16:48.715414, 0.48876
2022-12-01 17:16:48.724275, 0.49365
2022-12-01 17:16:48.732031, 0.49365
2022-12-01 17:16:48.744887, 0.49365
2022-12-01 17:16:48.752996, 0.49365
2022-12-01 17:16:48.761153, 0.48876
2022-12-01 17:16:48.769110, 0.49853
2022-12-01 17:16:48.781133, 0.48876
2022-12-01 17:16:48.789872, 0.49853
2022-12-01 17:16:48.797817, 0.49365
2022-12-01 17:16:48.809263, 0.49853
2022-12-01 17:16:48.818076, 0.49853
2022-12-01 17:16:48.826180, 0.48876
2022-12-01 17:16:48.834863, 0.49365
2022-12-01 17:16:48.846201, 0.48876
2022-12-01 17:16:48.855187, 0.49853
2022-12-01 17:16:48.863218, 0.48876
2022-12-01 17:16:48.875013, 0.49365
2022-12-01 17:16:48.883425, 0.49365
2022-12-01 17:16:48.891935, 0.48876
2022-12-01 17:16:48.899976, 0.49365
2022-12-01 17:16:48.912117, 0.48387
2022-12-01 17:16:48.920010, 0.49365
2022-12-01 17:16:48.928811, 0.48387
2022-12-01 17:16:48.940869, 0.49365
2022-12-01 17:16:48.949418, 0.48876
2022-12-01 17:16:48.958614, 0.49365
2022-12-01 17:16:48.965582, 0.49365
2022-12-01 17:16:48.977861, 0.48876
2022-12-01 17:16:48.986094, 0.48876
2022-12-01 17:16:48.993527, 0.47898
2022-12-01 17:16:49.006000, 0.48876
2022-12-01 17:16:49.015665, 0.48387
2022-12-01 17:16:49.022310, 0.48876
2022-12-01 17:16:49.031287, 0.48387
2022-12-01 17:16:49.043453, 0.48876
2022-12-01 17:16:49.051909, 0.48876
2022-12-01 17:16:49.059757, 0.47898
2022-12-01 17:16:49.072880, 0.48876
2022-12-01 17:16:49.080880, 0.47898
2022-12-01 17:16:49.089673, 0.48876
2022-12-01 17:16:49.097078, 0.47898
2022-12-01 17:16:49.109057, 0.48876
2022-12-01 17:16:49.117221, 0.48876
2022-12-01 17:16:49.125080, 0.48387
2022-12-01 17:16:49.137436, 0.48876
2022-12-01 17:16:49.146118, 0.47898
2022-12-01 17:16:49.154320, 0.48876
2022-12-01 17:16:49.162528, 0.48387
2022-12-01 17:16:49.174820, 0.48876
2022-12-01 17:16:49.183064, 0.48876
2022-12-01 17:16:49.191210, 0.48876
2022-12-01 17:16:49.203791, 0.48876
2022-12-01 17:16:49.211859, 0.48387
2022-12-01 17:16:49.219923, 0.48876
2022-12-01 17:16:49.228488, 0.48387
2022-12-01 17:16:49.240097, 0.48876
2022-12-01 17:16:49.248352, 0.48387
2022-12-01 17:16:49.256007, 0.48876
2022-12-01 17:16:49.267657, 0.49365
2022-12-01 17:16:49.277095, 0.48876
2022-12-01 17:16:49.285365, 0.49365
2022-12-01 17:16:49.293430, 0.47898
2022-12-01 17:16:49.305378, 0.49365
2022-12-01 17:16:49.314078, 0.48387
2022-12-01 17:16:49.321866, 0.49365
2022-12-01 17:16:49.330881, 0.48876
2022-12-01 17:16:49.342877, 0.49365
2022-12-01 17:16:49.350319, 0.49365
2022-12-01 17:16:49.359172, 0.48876
2022-12-01 17:16:49.370703, 0.49853
2022-12-01 17:16:49.379715, 0.48876
2022-12-01 17:16:49.387495, 0.49853
2022-12-01 17:16:49.395777, 0.48876
2022-12-01 17:16:49.407394, 0.49365
2022-12-01 17:16:49.415503, 0.49365
2022-12-01 17:16:49.423882, 0.49365
2022-12-01 17:16:49.436396, 0.49853
2022-12-01 17:16:49.444367, 0.48387
2022-12-01 17:16:49.453101, 0.49365
2022-12-01 17:16:49.461345, 0.48876
2022-12-01 17:16:49.473806, 0.49853
2022-12-01 17:16:49.481775, 0.48387
2022-12-01 17:16:49.489388, 0.49365
2022-12-01 17:16:49.502499, 0.49365
2022-12-01 17:16:49.509886, 0.48876
2022-12-01 17:16:49.518833, 0.48876
2022-12-01 17:16:49.526890, 0.48387
2022-12-01 17:16:49.539074, 0.48876
2022-12-01 17:16:49.547611, 0.48387
2022-12-01 17:16:49.555375, 0.49365
2022-12-01 17:16:49.567566, 0.48876
2022-12-01 17:16:49.576278, 0.49365
2022-12-01 17:16:49.584165, 0.49365
2022-12-01 17:16:49.593150, 0.48387
2022-12-01 17:16:49.604712, 0.49365
2022-12-01 17:16:49.613021, 0.48387
2022-12-01 17:16:49.621083, 0.49365
2022-12-01 17:16:49.632796, 0.48387
2022-12-01 17:16:49.641504, 0.48876
2022-12-01 17:16:49.649506, 0.48876
2022-12-01 17:16:49.658201, 0.48387
2022-12-01 17:16:49.670986, 0.48387
2022-12-01 17:16:49.678201, 0.47898
2022-12-01 17:16:49.687027, 0.48387
2022-12-01 17:16:49.698062, 0.47898
2022-12-01 17:16:49.707361, 0.48876
2022-12-01 17:16:49.714569, 0.48387
2022-12-01 17:16:49.723246, 0.48876
2022-12-01 17:16:49.735722, 0.48387
2022-12-01 17:16:49.743526, 0.47898
2022-12-01 17:16:49.752425, 0.48876
2022-12-01 17:16:49.764406, 0.47898
2022-12-01 17:16:49.772005, 0.48876
2022-12-01 17:16:49.780989, 0.48387
2022-12-01 17:16:49.789816, 0.48876
2022-12-01 17:16:49.801195, 0.48876
2022-12-01 17:16:49.810240, 0.48876
2022-12-01 17:16:49.817336, 0.48387
2022-12-01 17:16:49.831099, 0.47898
2022-12-01 17:16:49.838936, 0.48876
2022-12-01 17:16:49.846848, 0.47898
2022-12-01 17:16:49.855293, 0.48387
2022-12-01 17:16:49.866146, 0.48387
2022-12-01 17:16:49.875646, 0.48387
2022-12-01 17:16:49.882715, 0.48387
2022-12-01 17:16:49.895230, 0.47898
2022-12-01 17:16:49.903995, 0.48387
2022-12-01 17:16:49.911770, 0.47410
2022-12-01 17:16:49.920370, 0.48387
2022-12-01 17:16:49.931640, 0.47410
2022-12-01 17:16:49.940576, 0.48387
2022-12-01 17:16:49.948208, 0.48387
2022-12-01 17:16:49.961440, 0.47898
2022-12-01 17:16:49.969430, 0.48387
2022-12-01 17:16:49.977631, 0.46921
2022-12-01 17:16:49.985812, 0.48387
2022-12-01 17:16:49.998130, 0.47410
2022-12-01 17:16:50.006173, 0.48387
2022-12-01 17:16:50.014491, 0.47410
2022-12-01 17:16:50.027339, 0.48387
2022-12-01 17:16:50.035649, 0.48387
2022-12-01 17:16:50.043196, 0.47898
2022-12-01 17:16:50.050396, 0.48387
2022-12-01 17:16:50.063113, 0.47410
2022-12-01 17:16:50.071678, 0.48387
2022-12-01 17:16:50.080034, 0.47410
2022-12-01 17:16:50.095400, 0.48387
2022-12-01 17:16:50.101216, 0.47898
2022-12-01 17:16:50.108515, 0.48387
2022-12-01 17:16:50.116362, 0.48387
2022-12-01 17:16:50.128615, 0.47898
2022-12-01 17:16:50.136478, 0.48876
2022-12-01 17:16:50.145357, 0.47410
2022-12-01 17:16:50.153624, 0.48387
2022-12-01 17:16:50.165771, 0.47898
2022-12-01 17:16:50.173358, 0.48387
2022-12-01 17:16:50.182148, 0.48387
2022-12-01 17:16:50.194249, 0.47898
2022-12-01 17:16:50.201966, 0.48387
2022-12-01 17:16:50.210481, 0.47410
2022-12-01 17:16:50.218517, 0.48387
2022-12-01 17:16:50.230598, 0.47898
2022-12-01 17:16:50.239586, 0.48387
2022-12-01 17:16:50.247756, 0.48387
2022-12-01 17:16:50.260213, 0.48387
2022-12-01 17:16:50.268124, 0.48387
2022-12-01 17:16:50.275984, 0.47410
2022-12-01 17:16:50.284886, 0.48387
2022-12-01 17:16:50.296834, 0.47898
2022-12-01 17:16:50.305113, 0.48387
2022-12-01 17:16:50.314024, 0.47410
2022-12-01 17:16:50.324775, 0.48387
2022-12-01 17:16:50.333068, 0.47898
2022-12-01 17:16:50.341156, 0.48387
2022-12-01 17:16:50.350252, 0.47898
2022-12-01 17:16:50.361956, 0.47898
2022-12-01 17:16:50.370128, 0.48387
2022-12-01 17:16:50.378622, 0.47410
2022-12-01 17:16:50.391412, 0.47410
2022-12-01 17:16:50.398812, 0.47898
2022-12-01 17:16:50.407845, 0.48387
2022-12-01 17:16:50.415646, 0.48387
2022-12-01 17:16:50.428229, 0.47898
2022-12-01 17:16:50.436318, 0.48387
2022-12-01 17:16:50.444329, 0.47898
2022-12-01 17:16:50.456736, 0.48876
2022-12-01 17:16:50.464727, 0.47898
2022-12-01 17:16:50.473454, 0.48387
2022-12-01 17:16:50.481325, 0.48387
2022-12-01 17:16:50.493780, 0.48387
2022-12-01 17:16:50.501538, 0.48387
2022-12-01 17:16:50.510145, 0.47410
2022-12-01 17:16:50.522429, 0.48387
2022-12-01 17:16:50.530113, 0.47898
2022-12-01 17:16:50.538271, 0.48387
2022-12-01 17:16:50.546599, 0.47898
2022-12-01 17:16:50.559282, 0.48387
2022-12-01 17:16:50.567258, 0.48387
2022-12-01 17:16:50.575656, 0.48387
2022-12-01 17:16:50.587528, 0.48387
2022-12-01 17:16:50.595358, 0.47898
2022-12-01 17:16:50.604306, 0.48387
2022-12-01 17:16:50.612323, 0.47898
2022-12-01 17:16:50.624463, 0.48387
2022-12-01 17:16:50.632414, 0.48387
2022-12-01 17:16:50.641177, 0.48387
2022-12-01 17:16:50.654026, 0.48876
2022-12-01 17:16:50.662194, 0.47898
2022-12-01 17:16:50.670397, 0.48387
2022-12-01 17:16:50.678587, 0.47898
2022-12-01 17:16:50.690906, 0.48876
2022-12-01 17:16:50.698051, 0.47898
2022-12-01 17:16:50.706833, 0.47898
2022-12-01 17:16:50.718145, 0.48387
2022-12-01 17:16:50.727819, 0.48387
2022-12-01 17:16:50.734831, 0.48876
2022-12-01 17:16:50.743401, 0.47898
2022-12-01 17:16:50.755959, 0.48876
2022-12-01 17:16:50.763532, 0.47898
2022-12-01 17:16:50.772306, 0.48387
2022-12-01 17:16:50.785080, 0.48387
2022-12-01 17:16:50.793299, 0.48876
2022-12-01 17:16:50.800884, 0.48876
2022-12-01 17:16:50.809536, 0.48387
2022-12-01 17:16:50.821952, 0.48876
2022-12-01 17:16:50.829739, 0.47898
2022-12-01 17:16:50.837747, 0.48876
2022-12-01 17:16:50.849758, 0.48387
2022-12-01 17:16:50.857926, 0.48387
2022-12-01 17:16:50.865900, 0.48876
2022-12-01 17:16:50.874165, 0.48876
2022-12-01 17:16:50.886422, 0.48876
2022-12-01 17:16:50.895160, 0.48387
2022-12-01 17:16:50.902836, 0.48876
2022-12-01 17:16:50.914502, 0.48387
2022-12-01 17:16:50.923826, 0.49365
2022-12-01 17:16:50.931122, 0.48876
2022-12-01 17:16:50.940174, 0.49365
2022-12-01 17:16:50.951567, 0.49365
2022-12-01 17:16:50.960318, 0.48387
2022-12-01 17:16:50.968800, 0.48876
2022-12-01 17:16:50.977603, 0.47410
2022-12-01 17:16:50.989257, 0.48876
2022-12-01 17:16:50.997364, 0.47410
2022-12-01 17:16:51.006278, 0.48387
2022-12-01 17:16:51.018562, 0.48876
2022-12-01 17:16:51.026359, 0.48876
2022-12-01 17:16:51.033580, 0.48876
2022-12-01 17:16:51.043406, 0.47898
2022-12-01 17:16:51.055420, 0.49365
2022-12-01 17:16:51.063640, 0.47898
2022-12-01 17:16:51.071829, 0.48876
2022-12-01 17:16:51.083365, 0.47898
2022-12-01 17:16:51.091421, 0.48876
2022-12-01 17:16:51.099887, 0.48387
2022-12-01 17:16:51.108281, 0.47898
2022-12-01 17:16:51.120542, 0.48876
2022-12-01 17:16:51.129171, 0.47410
2022-12-01 17:16:51.136958, 0.49365
2022-12-01 17:16:51.147992, 0.47898
2022-12-01 17:16:51.157446, 0.49365
2022-12-01 17:16:51.165383, 0.48876
2022-12-01 17:16:51.174107, 0.48876
2022-12-01 17:16:51.185369, 0.49365
2022-12-01 17:16:51.194385, 0.48387
2022-12-01 17:16:51.202908, 0.48876
2022-12-01 17:16:51.213779, 0.47898
2022-12-01 17:16:51.223369, 0.49365
2022-12-01 17:16:51.230479, 0.47898
2022-12-01 17:16:51.239824, 0.49365
2022-12-01 17:16:51.251654, 0.48387
2022-12-01 17:16:51.259531, 0.48387
2022-12-01 17:16:51.267863, 0.48876
2022-12-01 17:16:51.280259, 0.47410
2022-12-01 17:16:51.288326, 0.48876
2022-12-01 17:16:51.297114, 0.47410
2022-12-01 17:16:51.305547, 0.48876
2022-12-01 17:16:51.316630, 0.48387
2022-12-01 17:16:51.325823, 0.49365
2022-12-01 17:16:51.333133, 0.49853
2022-12-01 17:16:51.346274, 0.48387
2022-12-01 17:16:51.353058, 0.49365
2022-12-01 17:16:51.362421, 0.47410
2022-12-01 17:16:51.370068, 0.48876
2022-12-01 17:16:51.381791, 0.47410
2022-12-01 17:16:51.390846, 0.49365
2022-12-01 17:16:51.398601, 0.48876
2022-12-01 17:16:51.411650, 0.48876
2022-12-01 17:16:51.419652, 0.49365
2022-12-01 17:16:51.427685, 0.47898
2022-12-01 17:16:51.435903, 0.48876
2022-12-01 17:16:51.447369, 0.47898
2022-12-01 17:16:51.456316, 0.49853
2022-12-01 17:16:51.464272, 0.48876
2022-12-01 17:16:51.476497, 0.49853
2022-12-01 17:16:51.484923, 0.49853
2022-12-01 17:16:51.492812, 0.48876
2022-12-01 17:16:51.501632, 0.49853
2022-12-01 17:16:51.514200, 0.47898
2022-12-01 17:16:51.521785, 0.49853
2022-12-01 17:16:51.530335, 0.47410
2022-12-01 17:16:51.542288, 0.49853
2022-12-01 17:16:51.550231, 0.49365
2022-12-01 17:16:51.559244, 0.48876
2022-12-01 17:16:51.566546, 0.49365
2022-12-01 17:16:51.579645, 0.47898
2022-12-01 17:16:51.587661, 0.49853
2022-12-01 17:16:51.595654, 0.47898
2022-12-01 17:16:51.607899, 0.49853
2022-12-01 17:16:51.615951, 0.48876
2022-12-01 17:16:51.624305, 0.49853
2022-12-01 17:16:51.632640, 0.49853
2022-12-01 17:16:51.643674, 0.48876
2022-12-01 17:16:51.652681, 0.49853
2022-12-01 17:16:51.661028, 0.47898
2022-12-01 17:16:51.673910, 0.49853
2022-12-01 17:16:51.680984, 0.48387
2022-12-01 17:16:51.690621, 0.49853
2022-12-01 17:16:51.697659, 0.49365
2022-12-01 17:16:51.710834, 0.49853
2022-12-01 17:16:51.719003, 0.49853
2022-12-01 17:16:51.726673, 0.48387
2022-12-01 17:16:51.738637, 0.49853
2022-12-01 17:16:51.747620, 0.47898
2022-12-01 17:16:51.754969, 0.49853
2022-12-01 17:16:51.763163, 0.48387
2022-12-01 17:16:51.775244, 0.49853
2022-12-01 17:16:51.783694, 0.49853
2022-12-01 17:16:51.792078, 0.49365
2022-12-01 17:16:51.800609, 0.49853
2022-12-01 17:16:51.812416, 0.47898
2022-12-01 17:16:51.820624, 0.49365
2022-12-01 17:16:51.828975, 0.47898
2022-12-01 17:16:51.841351, 0.49853
2022-12-01 17:16:51.849398, 0.48876
2022-12-01 17:16:51.857743, 0.49365
2022-12-01 17:16:51.865003, 0.49853
2022-12-01 17:16:51.878703, 0.47898
2022-12-01 17:16:51.886395, 0.49853
2022-12-01 17:16:51.893689, 0.47898
2022-12-01 17:16:51.906515, 0.49853
2022-12-01 17:16:51.914229, 0.47898
2022-12-01 17:16:51.923849, 0.50342
2022-12-01 17:16:51.930884, 0.49853
2022-12-01 17:16:51.943772, 0.49853
2022-12-01 17:16:51.952003, 0.50342
2022-12-01 17:16:51.959705, 0.48387
2022-12-01 17:16:51.972096, 0.50342
2022-12-01 17:16:51.980393, 0.47898
2022-12-01 17:16:51.988425, 0.50342
2022-12-01 17:16:51.996909, 0.48387
2022-12-01 17:16:52.009334, 0.50342
2022-12-01 17:16:52.017287, 0.49365
2022-12-01 17:16:52.025644, 0.48876
2022-12-01 17:16:52.037163, 0.49853
2022-12-01 17:16:52.045631, 0.47898
2022-12-01 17:16:52.053718, 0.49853
2022-12-01 17:16:52.061977, 0.48387
2022-12-01 17:16:52.073810, 0.50342
2022-12-01 17:16:52.082862, 0.49853
2022-12-01 17:16:52.091026, 0.49853
