2022-12-01 17:16:21.837316
2022-12-01 17:16:21.878419
2022-12-01 17:16:21.922448
2022-12-01 17:16:21.958263
2022-12-01 17:16:21.974585
2022-12-01 17:16:22.002576
2022-12-01 17:16:22.014660
2022-12-01 17:16:22.029616
2022-12-01 17:16:22.046922
2022-12-01 17:16:22.068176
2022-12-01 17:16:22.091871
2022-12-01 17:16:22.113234
2022-12-01 17:16:22.127504
2022-12-01 17:16:22.146474
2022-12-01 17:16:22.155883
2022-12-01 17:16:22.162245
2022-12-01 17:16:22.177703
2022-12-01 17:16:22.188786
2022-12-01 17:16:22.204757
2022-12-01 17:16:22.215071
2022-12-01 17:16:22.221369
2022-12-01 17:16:22.230059
2022-12-01 17:16:22.233197
2022-12-01 17:16:22.236318
2022-12-01 17:16:22.239134
2022-12-01 17:16:22.244239
2022-12-01 17:16:22.248929
2022-12-01 17:16:22.251595
2022-12-01 17:16:22.255808
2022-12-01 17:16:22.261249
2022-12-01 17:16:22.265295
2022-12-01 17:16:22.268275
2022-12-01 17:16:22.270833
2022-12-01 17:16:22.273345
2022-12-01 17:16:22.275491
2022-12-01 17:16:22.279336
2022-12-01 17:16:22.282166
2022-12-01 17:16:22.283924
2022-12-01 17:16:22.294447
2022-12-01 17:16:22.302850
2022-12-01 17:16:22.305844
2022-12-01 17:16:22.309484
2022-12-01 17:16:22.312559
2022-12-01 17:16:22.314457
2022-12-01 17:16:22.317342
2022-12-01 17:16:22.319807
2022-12-01 17:16:22.324445
2022-12-01 17:16:22.327721
2022-12-01 17:16:22.330416
2022-12-01 17:16:22.331545
2022-12-01 17:16:22.333121
2022-12-01 17:16:22.335167
2022-12-01 17:16:22.336657
2022-12-01 17:16:22.338790
2022-12-01 17:16:22.341273
2022-12-01 17:16:22.342518
2022-12-01 17:16:22.345103
2022-12-01 17:16:22.346401
2022-12-01 17:16:22.347395
2022-12-01 17:16:22.348934
2022-12-01 17:16:22.349936
2022-12-01 17:16:22.351568
2022-12-01 17:16:22.353555
2022-12-01 17:16:22.355564
2022-12-01 17:16:22.357519
2022-12-01 17:16:22.365395
2022-12-01 17:16:22.377550
2022-12-01 17:16:22.386447
2022-12-01 17:16:22.394075
2022-12-01 17:16:22.406967
2022-12-01 17:16:22.414397
2022-12-01 17:16:22.423001
2022-12-01 17:16:22.431139
2022-12-01 17:16:22.443836
2022-12-01 17:16:22.451613
2022-12-01 17:16:22.459993
2022-12-01 17:16:22.472269
2022-12-01 17:16:22.480881
2022-12-01 17:16:22.488643
2022-12-01 17:16:22.497282
2022-12-01 17:16:22.509227
2022-12-01 17:16:22.517177
2022-12-01 17:16:22.527072
2022-12-01 17:16:22.537875
2022-12-01 17:16:22.546257
2022-12-01 17:16:22.554533
2022-12-01 17:16:22.561933
2022-12-01 17:16:22.574183
2022-12-01 17:16:22.583198
2022-12-01 17:16:22.591177
2022-12-01 17:16:22.603155
2022-12-01 17:16:22.611290
2022-12-01 17:16:22.619589
2022-12-01 17:16:22.628219
2022-12-01 17:16:22.639766
2022-12-01 17:16:22.648667
2022-12-01 17:16:22.656647
2022-12-01 17:16:22.668738
2022-12-01 17:16:22.677578
2022-12-01 17:16:22.685588
2022-12-01 17:16:22.693925
2022-12-01 17:16:22.705403
2022-12-01 17:16:22.713338
2022-12-01 17:16:22.721997
2022-12-01 17:16:22.734082
2022-12-01 17:16:22.742168
2022-12-01 17:16:22.751145
2022-12-01 17:16:22.758655
2022-12-01 17:16:22.771133
2022-12-01 17:16:22.779772
2022-12-01 17:16:22.787161
2022-12-01 17:16:22.800097
2022-12-01 17:16:22.807496
2022-12-01 17:16:22.815927
2022-12-01 17:16:22.824351
2022-12-01 17:16:22.836762
2022-12-01 17:16:22.845174
2022-12-01 17:16:22.852738
2022-12-01 17:16:22.865535
2022-12-01 17:16:22.873518
2022-12-01 17:16:22.881922
2022-12-01 17:16:22.890011
2022-12-01 17:16:22.902218
2022-12-01 17:16:22.911095
2022-12-01 17:16:22.918907
2022-12-01 17:16:22.930405
2022-12-01 17:16:22.939078
2022-12-01 17:16:22.947768
2022-12-01 17:16:22.955409
2022-12-01 17:16:22.967842
2022-12-01 17:16:22.976200
2022-12-01 17:16:22.984666
2022-12-01 17:16:22.992455
2022-12-01 17:16:23.005087
2022-12-01 17:16:23.012610
2022-12-01 17:16:23.020602
2022-12-01 17:16:23.033567
2022-12-01 17:16:23.041634
2022-12-01 17:16:23.050082
2022-12-01 17:16:23.057946
2022-12-01 17:16:23.070627
2022-12-01 17:16:23.079040
2022-12-01 17:16:23.086743
2022-12-01 17:16:23.099144
2022-12-01 17:16:23.107024
2022-12-01 17:16:23.115959
2022-12-01 17:16:23.123513
2022-12-01 17:16:23.136003
2022-12-01 17:16:23.143707
2022-12-01 17:16:23.152161
2022-12-01 17:16:23.164213
2022-12-01 17:16:23.172985
2022-12-01 17:16:23.181014
2022-12-01 17:16:23.189391
2022-12-01 17:16:23.200976
2022-12-01 17:16:23.209892
2022-12-01 17:16:23.218035
2022-12-01 17:16:23.229773
2022-12-01 17:16:23.238169
2022-12-01 17:16:23.246189
2022-12-01 17:16:23.254550
2022-12-01 17:16:23.266432
2022-12-01 17:16:23.275674
2022-12-01 17:16:23.283300
2022-12-01 17:16:23.295126
2022-12-01 17:16:23.303772
2022-12-01 17:16:23.312179
2022-12-01 17:16:23.319723
2022-12-01 17:16:23.332208
2022-12-01 17:16:23.340745
2022-12-01 17:16:23.349180
2022-12-01 17:16:23.361328
2022-12-01 17:16:23.369057
2022-12-01 17:16:23.377788
2022-12-01 17:16:23.386088
2022-12-01 17:16:23.397593
2022-12-01 17:16:23.406251
2022-12-01 17:16:23.414652
2022-12-01 17:16:23.426805
2022-12-01 17:16:23.434843
2022-12-01 17:16:23.443523
2022-12-01 17:16:23.450369
2022-12-01 17:16:23.463807
2022-12-01 17:16:23.471197
2022-12-01 17:16:23.480370
2022-12-01 17:16:23.492142
2022-12-01 17:16:23.499801
2022-12-01 17:16:23.508368
2022-12-01 17:16:23.517200
2022-12-01 17:16:23.528508
2022-12-01 17:16:23.537599
2022-12-01 17:16:23.545661
2022-12-01 17:16:23.557891
2022-12-01 17:16:23.566093
2022-12-01 17:16:23.573695
2022-12-01 17:16:23.582562
2022-12-01 17:16:23.594197
2022-12-01 17:16:23.603026
2022-12-01 17:16:23.611111
2022-12-01 17:16:23.623064
2022-12-01 17:16:23.631213
2022-12-01 17:16:23.639642
2022-12-01 17:16:23.647436
2022-12-01 17:16:23.660570
2022-12-01 17:16:23.668302
2022-12-01 17:16:23.676273
2022-12-01 17:16:23.688598
2022-12-01 17:16:23.697168
2022-12-01 17:16:23.704797
2022-12-01 17:16:23.713314
2022-12-01 17:16:23.725300
2022-12-01 17:16:23.733403
2022-12-01 17:16:23.741647
2022-12-01 17:16:23.753897
2022-12-01 17:16:23.762508
2022-12-01 17:16:23.770922
2022-12-01 17:16:23.778616
2022-12-01 17:16:23.790540
2022-12-01 17:16:23.799539
2022-12-01 17:16:23.807802
2022-12-01 17:16:23.820045
2022-12-01 17:16:23.828405
2022-12-01 17:16:23.836269
2022-12-01 17:16:23.844236
2022-12-01 17:16:23.856392
2022-12-01 17:16:23.864497
2022-12-01 17:16:23.872700
2022-12-01 17:16:23.881075
2022-12-01 17:16:23.893710
2022-12-01 17:16:23.901673
2022-12-01 17:16:23.910004
2022-12-01 17:16:23.921831
2022-12-01 17:16:23.930625
2022-12-01 17:16:23.938908
2022-12-01 17:16:23.946917
2022-12-01 17:16:23.958984
2022-12-01 17:16:23.967475
2022-12-01 17:16:23.976016
2022-12-01 17:16:23.987311
2022-12-01 17:16:23.996196
2022-12-01 17:16:24.004488
2022-12-01 17:16:24.012938
2022-12-01 17:16:24.026247
2022-12-01 17:16:24.033054
2022-12-01 17:16:24.041596
2022-12-01 17:16:24.053445
2022-12-01 17:16:24.060943
2022-12-01 17:16:24.070031
2022-12-01 17:16:24.077518
2022-12-01 17:16:24.090190
2022-12-01 17:16:24.098550
2022-12-01 17:16:24.106219
2022-12-01 17:16:24.118295
2022-12-01 17:16:24.126682
2022-12-01 17:16:24.135776
2022-12-01 17:16:24.143774
2022-12-01 17:16:24.155547
2022-12-01 17:16:24.164420
2022-12-01 17:16:24.172160
2022-12-01 17:16:24.184441
2022-12-01 17:16:24.192162
2022-12-01 17:16:24.201289
2022-12-01 17:16:24.209258
2022-12-01 17:16:24.221123
2022-12-01 17:16:24.229064
2022-12-01 17:16:24.237910
2022-12-01 17:16:24.250075
2022-12-01 17:16:24.257721
2022-12-01 17:16:24.266584
2022-12-01 17:16:24.274442
2022-12-01 17:16:24.286856
2022-12-01 17:16:24.295135
2022-12-01 17:16:24.303755
2022-12-01 17:16:24.315489
2022-12-01 17:16:24.323421
2022-12-01 17:16:24.331658
2022-12-01 17:16:24.339818
2022-12-01 17:16:24.352463
2022-12-01 17:16:24.360882
2022-12-01 17:16:24.369048
2022-12-01 17:16:24.380669
2022-12-01 17:16:24.389492
2022-12-01 17:16:24.397426
2022-12-01 17:16:24.405932
2022-12-01 17:16:24.418137
2022-12-01 17:16:24.426718
2022-12-01 17:16:24.434474
2022-12-01 17:16:24.446505
2022-12-01 17:16:24.454363
2022-12-01 17:16:24.463071
2022-12-01 17:16:24.471120
2022-12-01 17:16:24.483402
2022-12-01 17:16:24.491443
2022-12-01 17:16:24.499956
2022-12-01 17:16:24.512247
2022-12-01 17:16:24.520041
2022-12-01 17:16:24.528687
2022-12-01 17:16:24.536909
2022-12-01 17:16:24.549061
2022-12-01 17:16:24.556804
2022-12-01 17:16:24.565811
2022-12-01 17:16:24.577575
2022-12-01 17:16:24.585450
2022-12-01 17:16:24.594313
2022-12-01 17:16:24.602259
2022-12-01 17:16:24.614212
2022-12-01 17:16:24.622426
2022-12-01 17:16:24.630757
2022-12-01 17:16:24.642742
2022-12-01 17:16:24.651543
2022-12-01 17:16:24.659328
2022-12-01 17:16:24.668209
2022-12-01 17:16:24.680079
2022-12-01 17:16:24.688667
2022-12-01 17:16:24.696158
2022-12-01 17:16:24.708994
2022-12-01 17:16:24.717247
2022-12-01 17:16:24.724641
2022-12-01 17:16:24.732932
2022-12-01 17:16:24.745232
2022-12-01 17:16:24.754123
2022-12-01 17:16:24.762342
2022-12-01 17:16:24.770225
2022-12-01 17:16:24.782690
2022-12-01 17:16:24.791044
2022-12-01 17:16:24.798848
2022-12-01 17:16:24.811092
2022-12-01 17:16:24.819515
2022-12-01 17:16:24.827861
2022-12-01 17:16:24.836059
2022-12-01 17:16:24.848071
2022-12-01 17:16:24.856642
2022-12-01 17:16:24.864869
2022-12-01 17:16:24.877271
2022-12-01 17:16:24.884814
2022-12-01 17:16:24.892687
2022-12-01 17:16:24.901400
2022-12-01 17:16:24.913505
2022-12-01 17:16:24.921168
2022-12-01 17:16:24.929761
2022-12-01 17:16:24.941851
2022-12-01 17:16:24.949891
2022-12-01 17:16:24.958528
2022-12-01 17:16:24.967058
2022-12-01 17:16:24.979184
2022-12-01 17:16:24.987248
2022-12-01 17:16:24.995613
2022-12-01 17:16:25.008148
2022-12-01 17:16:25.016088
2022-12-01 17:16:25.024288
2022-12-01 17:16:25.032637
2022-12-01 17:16:25.044047
2022-12-01 17:16:25.052916
2022-12-01 17:16:25.060372
2022-12-01 17:16:25.072863
2022-12-01 17:16:25.081475
2022-12-01 17:16:25.089138
2022-12-01 17:16:25.098044
2022-12-01 17:16:25.110399
2022-12-01 17:16:25.118270
2022-12-01 17:16:25.126557
2022-12-01 17:16:25.139050
2022-12-01 17:16:25.147167
2022-12-01 17:16:25.155368
2022-12-01 17:16:25.163868
2022-12-01 17:16:25.175388
2022-12-01 17:16:25.183715
2022-12-01 17:16:25.191739
2022-12-01 17:16:25.203800
2022-12-01 17:16:25.211985
2022-12-01 17:16:25.220939
2022-12-01 17:16:25.229071
2022-12-01 17:16:25.241263
2022-12-01 17:16:25.249332
2022-12-01 17:16:25.257936
2022-12-01 17:16:25.270242
2022-12-01 17:16:25.278241
2022-12-01 17:16:25.286126
2022-12-01 17:16:25.294596
2022-12-01 17:16:25.306875
2022-12-01 17:16:25.315061
2022-12-01 17:16:25.323278
2022-12-01 17:16:25.335565
2022-12-01 17:16:25.343586
2022-12-01 17:16:25.352051
2022-12-01 17:16:25.359825
2022-12-01 17:16:25.372500
2022-12-01 17:16:25.380471
2022-12-01 17:16:25.388594
2022-12-01 17:16:25.400512
2022-12-01 17:16:25.409456
2022-12-01 17:16:25.417657
2022-12-01 17:16:25.425589
2022-12-01 17:16:25.437661
2022-12-01 17:16:25.446177
2022-12-01 17:16:25.454185
2022-12-01 17:16:25.466136
2022-12-01 17:16:25.474947
2022-12-01 17:16:25.483255
2022-12-01 17:16:25.491461
2022-12-01 17:16:25.503283
2022-12-01 17:16:25.511584
2022-12-01 17:16:25.520029
2022-12-01 17:16:25.532239
2022-12-01 17:16:25.540288
2022-12-01 17:16:25.548744
2022-12-01 17:16:25.556610
2022-12-01 17:16:25.568871
2022-12-01 17:16:25.577371
2022-12-01 17:16:25.585115
2022-12-01 17:16:25.597888
2022-12-01 17:16:25.605593
2022-12-01 17:16:25.614363
2022-12-01 17:16:25.622004
2022-12-01 17:16:25.634548
2022-12-01 17:16:25.643018
2022-12-01 17:16:25.650716
2022-12-01 17:16:25.659052
2022-12-01 17:16:25.671426
2022-12-01 17:16:25.679239
2022-12-01 17:16:25.687251
2022-12-01 17:16:25.699895
2022-12-01 17:16:25.708059
2022-12-01 17:16:25.716522
2022-12-01 17:16:25.724874
2022-12-01 17:16:25.736540
2022-12-01 17:16:25.745079
2022-12-01 17:16:25.752718
2022-12-01 17:16:25.765721
2022-12-01 17:16:25.773700
2022-12-01 17:16:25.781753
2022-12-01 17:16:25.790306
2022-12-01 17:16:25.802369
2022-12-01 17:16:25.809734
2022-12-01 17:16:25.818573
2022-12-01 17:16:25.830791
2022-12-01 17:16:25.839500
2022-12-01 17:16:25.847244
2022-12-01 17:16:25.855780
2022-12-01 17:16:25.867810
2022-12-01 17:16:25.876086
2022-12-01 17:16:25.884257
2022-12-01 17:16:25.896815
2022-12-01 17:16:25.904552
2022-12-01 17:16:25.913357
2022-12-01 17:16:25.921124
2022-12-01 17:16:25.933395
2022-12-01 17:16:25.941829
2022-12-01 17:16:25.950195
2022-12-01 17:16:25.962285
2022-12-01 17:16:25.970432
2022-12-01 17:16:25.978307
2022-12-01 17:16:25.986865
2022-12-01 17:16:25.999134
2022-12-01 17:16:26.007304
2022-12-01 17:16:26.014972
2022-12-01 17:16:26.027917
2022-12-01 17:16:26.035972
2022-12-01 17:16:26.044170
2022-12-01 17:16:26.052289
2022-12-01 17:16:26.064784
2022-12-01 17:16:26.073016
2022-12-01 17:16:26.081049
2022-12-01 17:16:26.093124
2022-12-01 17:16:26.101443
2022-12-01 17:16:26.109534
2022-12-01 17:16:26.117933
2022-12-01 17:16:26.130177
2022-12-01 17:16:26.138454
2022-12-01 17:16:26.146330
2022-12-01 17:16:26.158992
2022-12-01 17:16:26.166834
2022-12-01 17:16:26.175034
2022-12-01 17:16:26.183164
2022-12-01 17:16:26.195716
2022-12-01 17:16:26.203265
2022-12-01 17:16:26.212069
2022-12-01 17:16:26.224277
2022-12-01 17:16:26.231880
2022-12-01 17:16:26.240815
2022-12-01 17:16:26.248896
2022-12-01 17:16:26.261182
2022-12-01 17:16:26.269513
2022-12-01 17:16:26.277738
2022-12-01 17:16:26.289428
2022-12-01 17:16:26.298180
2022-12-01 17:16:26.306572
2022-12-01 17:16:26.314703
2022-12-01 17:16:26.326566
2022-12-01 17:16:26.335091
2022-12-01 17:16:26.342775
2022-12-01 17:16:26.355538
2022-12-01 17:16:26.363721
2022-12-01 17:16:26.371674
2022-12-01 17:16:26.379667
2022-12-01 17:16:26.392301
2022-12-01 17:16:26.400390
2022-12-01 17:16:26.408968
2022-12-01 17:16:26.420435
2022-12-01 17:16:26.428919
2022-12-01 17:16:26.437168
2022-12-01 17:16:26.445171
2022-12-01 17:16:26.458014
2022-12-01 17:16:26.466237
2022-12-01 17:16:26.473674
2022-12-01 17:16:26.481672
2022-12-01 17:16:26.494437
2022-12-01 17:16:26.503004
2022-12-01 17:16:26.511359
2022-12-01 17:16:26.522945
2022-12-01 17:16:26.531691
2022-12-01 17:16:26.539884
2022-12-01 17:16:26.547906
2022-12-01 17:16:26.560368
2022-12-01 17:16:26.568631
2022-12-01 17:16:26.576534
2022-12-01 17:16:26.588553
2022-12-01 17:16:26.597092
2022-12-01 17:16:26.605424
2022-12-01 17:16:26.613604
2022-12-01 17:16:26.626007
2022-12-01 17:16:26.633995
2022-12-01 17:16:26.642089
2022-12-01 17:16:26.653991
2022-12-01 17:16:26.662742
2022-12-01 17:16:26.670446
2022-12-01 17:16:26.678940
2022-12-01 17:16:26.691111
2022-12-01 17:16:26.699295
2022-12-01 17:16:26.707224
2022-12-01 17:16:26.719728
2022-12-01 17:16:26.728566
2022-12-01 17:16:26.736740
2022-12-01 17:16:26.744588
2022-12-01 17:16:26.756549
2022-12-01 17:16:26.764963
2022-12-01 17:16:26.773246
2022-12-01 17:16:26.785139
2022-12-01 17:16:26.793704
2022-12-01 17:16:26.801375
2022-12-01 17:16:26.810089
2022-12-01 17:16:26.821733
2022-12-01 17:16:26.830321
2022-12-01 17:16:26.838884
2022-12-01 17:16:26.850741
2022-12-01 17:16:26.859511
2022-12-01 17:16:26.867052
2022-12-01 17:16:26.875828
2022-12-01 17:16:26.887851
2022-12-01 17:16:26.896160
2022-12-01 17:16:26.904503
2022-12-01 17:16:26.915980
2022-12-01 17:16:26.924590
2022-12-01 17:16:26.932484
2022-12-01 17:16:26.940618
2022-12-01 17:16:26.953084
2022-12-01 17:16:26.962008
2022-12-01 17:16:26.970188
2022-12-01 17:16:26.981400
2022-12-01 17:16:26.990130
2022-12-01 17:16:26.998481
2022-12-01 17:16:27.006537
2022-12-01 17:16:27.018863
2022-12-01 17:16:27.026705
2022-12-01 17:16:27.034837
2022-12-01 17:16:27.047758
2022-12-01 17:16:27.055975
2022-12-01 17:16:27.063882
2022-12-01 17:16:27.072339
2022-12-01 17:16:27.084694
2022-12-01 17:16:27.092772
2022-12-01 17:16:27.100322
2022-12-01 17:16:27.112764
2022-12-01 17:16:27.120960
2022-12-01 17:16:27.128730
2022-12-01 17:16:27.137375
2022-12-01 17:16:27.149328
2022-12-01 17:16:27.157980
2022-12-01 17:16:27.166222
2022-12-01 17:16:27.178740
2022-12-01 17:16:27.186401
2022-12-01 17:16:27.195261
2022-12-01 17:16:27.202926
2022-12-01 17:16:27.215779
2022-12-01 17:16:27.223191
2022-12-01 17:16:27.232065
2022-12-01 17:16:27.244428
2022-12-01 17:16:27.252433
2022-12-01 17:16:27.260655
2022-12-01 17:16:27.268652
2022-12-01 17:16:27.281273
2022-12-01 17:16:27.289067
2022-12-01 17:16:27.297106
2022-12-01 17:16:27.309098
2022-12-01 17:16:27.318181
2022-12-01 17:16:27.326231
2022-12-01 17:16:27.334323
2022-12-01 17:16:27.346380
2022-12-01 17:16:27.355082
2022-12-01 17:16:27.362636
2022-12-01 17:16:27.371464
2022-12-01 17:16:27.383243
2022-12-01 17:16:27.391372
2022-12-01 17:16:27.400363
2022-12-01 17:16:27.411734
2022-12-01 17:16:27.420347
2022-12-01 17:16:27.428004
2022-12-01 17:16:27.436570
2022-12-01 17:16:27.449393
2022-12-01 17:16:27.456879
2022-12-01 17:16:27.465344
2022-12-01 17:16:27.476896
2022-12-01 17:16:27.486095
2022-12-01 17:16:27.493933
2022-12-01 17:16:27.502319
2022-12-01 17:16:27.514898
2022-12-01 17:16:27.522290
2022-12-01 17:16:27.531086
2022-12-01 17:16:27.543379
2022-12-01 17:16:27.551405
2022-12-01 17:16:27.559713
2022-12-01 17:16:27.567943
2022-12-01 17:16:27.579612
2022-12-01 17:16:27.588287
2022-12-01 17:16:27.596092
2022-12-01 17:16:27.609140
2022-12-01 17:16:27.616722
2022-12-01 17:16:27.624911
2022-12-01 17:16:27.633018
2022-12-01 17:16:27.645150
2022-12-01 17:16:27.653228
2022-12-01 17:16:27.662215
2022-12-01 17:16:27.673564
2022-12-01 17:16:27.682355
2022-12-01 17:16:27.691189
2022-12-01 17:16:27.698877
2022-12-01 17:16:27.711126
2022-12-01 17:16:27.719071
2022-12-01 17:16:27.727600
2022-12-01 17:16:27.739103
2022-12-01 17:16:27.747849
2022-12-01 17:16:27.756231
2022-12-01 17:16:27.764471
2022-12-01 17:16:27.776063
2022-12-01 17:16:27.785245
2022-12-01 17:16:27.792832
2022-12-01 17:16:27.805535
2022-12-01 17:16:27.813685
2022-12-01 17:16:27.821880
2022-12-01 17:16:27.830238
2022-12-01 17:16:27.842213
2022-12-01 17:16:27.849974
2022-12-01 17:16:27.858904
2022-12-01 17:16:27.870977
2022-12-01 17:16:27.900015
2022-12-01 17:16:27.976033
2022-12-01 17:16:28.002130
2022-12-01 17:16:28.031307
2022-12-01 17:16:28.039267
2022-12-01 17:16:28.056812
2022-12-01 17:16:28.084457
2022-12-01 17:16:28.102486
2022-12-01 17:16:28.113017
2022-12-01 17:16:28.116753
2022-12-01 17:16:28.119268
2022-12-01 17:16:28.135284
2022-12-01 17:16:28.157995
2022-12-01 17:16:28.194659
2022-12-01 17:16:28.211020
2022-12-01 17:16:28.222620
2022-12-01 17:16:28.228888
2022-12-01 17:16:28.238983
2022-12-01 17:16:28.247972
2022-12-01 17:16:28.253585
2022-12-01 17:16:28.256871
2022-12-01 17:16:28.260721
2022-12-01 17:16:28.272614
2022-12-01 17:16:28.281639
2022-12-01 17:16:28.295786
2022-12-01 17:16:28.305380
2022-12-01 17:16:28.311556
2022-12-01 17:16:28.320956
2022-12-01 17:16:28.347136
2022-12-01 17:16:28.363094
2022-12-01 17:16:28.372730
2022-12-01 17:16:28.380666
2022-12-01 17:16:28.385273
2022-12-01 17:16:28.388410
2022-12-01 17:16:28.393974
2022-12-01 17:16:28.408515
2022-12-01 17:16:28.428199
2022-12-01 17:16:28.438810
2022-12-01 17:16:28.446269
2022-12-01 17:16:28.461743
2022-12-01 17:16:28.470703
2022-12-01 17:16:28.476659
2022-12-01 17:16:28.480615
2022-12-01 17:16:28.484439
2022-12-01 17:16:28.486396
2022-12-01 17:16:28.487574
2022-12-01 17:16:28.493082
2022-12-01 17:16:28.497461
2022-12-01 17:16:28.501174
2022-12-01 17:16:28.503288
2022-12-01 17:16:28.506022
2022-12-01 17:16:28.508240
2022-12-01 17:16:28.511147
2022-12-01 17:16:28.514301
2022-12-01 17:16:28.515582
2022-12-01 17:16:28.517568
2022-12-01 17:16:28.518246
2022-12-01 17:16:28.519737
2022-12-01 17:16:28.521305
2022-12-01 17:16:28.522796
2022-12-01 17:16:28.524285
2022-12-01 17:16:28.526846
2022-12-01 17:16:28.528677
2022-12-01 17:16:28.531251
2022-12-01 17:16:28.537406
2022-12-01 17:16:28.546144
2022-12-01 17:16:28.555404
2022-12-01 17:16:28.568752
2022-12-01 17:16:28.581727
2022-12-01 17:16:28.598519
2022-12-01 17:16:28.603783
2022-12-01 17:16:28.609471
2022-12-01 17:16:28.611913
2022-12-01 17:16:28.615803
2022-12-01 17:16:28.621218
2022-12-01 17:16:28.627673
2022-12-01 17:16:28.634015
2022-12-01 17:16:28.637012
2022-12-01 17:16:28.641804
2022-12-01 17:16:28.658737
2022-12-01 17:16:28.667265
2022-12-01 17:16:28.675056
2022-12-01 17:16:28.681341
2022-12-01 17:16:28.692163
2022-12-01 17:16:28.694149
2022-12-01 17:16:28.696072
2022-12-01 17:16:28.700253
2022-12-01 17:16:28.702327
2022-12-01 17:16:28.706202
2022-12-01 17:16:28.711695
2022-12-01 17:16:28.719048
2022-12-01 17:16:28.730399
2022-12-01 17:16:28.739394
2022-12-01 17:16:28.747700
2022-12-01 17:16:28.759842
2022-12-01 17:16:28.767779
2022-12-01 17:16:28.776285
2022-12-01 17:16:28.784542
2022-12-01 17:16:28.796726
2022-12-01 17:16:28.804694
2022-12-01 17:16:28.813200
2022-12-01 17:16:28.825097
2022-12-01 17:16:28.833459
2022-12-01 17:16:28.841761
2022-12-01 17:16:28.849980
2022-12-01 17:16:28.861866
2022-12-01 17:16:28.870428
2022-12-01 17:16:28.878189
2022-12-01 17:16:28.890772
2022-12-01 17:16:28.898603
2022-12-01 17:16:28.907531
2022-12-01 17:16:28.915420
2022-12-01 17:16:28.927343
2022-12-01 17:16:28.935627
2022-12-01 17:16:28.944240
2022-12-01 17:16:28.956394
2022-12-01 17:16:28.964482
2022-12-01 17:16:28.972800
2022-12-01 17:16:28.980714
2022-12-01 17:16:28.993488
2022-12-01 17:16:29.001503
2022-12-01 17:16:29.009888
2022-12-01 17:16:29.021953
2022-12-01 17:16:29.030022
2022-12-01 17:16:29.038409
2022-12-01 17:16:29.046736
2022-12-01 17:16:29.058444
2022-12-01 17:16:29.066327
2022-12-01 17:16:29.075528
2022-12-01 17:16:29.086942
2022-12-01 17:16:29.095678
2022-12-01 17:16:29.103955
2022-12-01 17:16:29.111737
2022-12-01 17:16:29.123584
2022-12-01 17:16:29.132786
2022-12-01 17:16:29.140697
2022-12-01 17:16:29.148613
2022-12-01 17:16:29.161443
2022-12-01 17:16:29.169433
2022-12-01 17:16:29.177872
2022-12-01 17:16:29.190002
2022-12-01 17:16:29.197407
2022-12-01 17:16:29.207035
2022-12-01 17:16:29.214128
2022-12-01 17:16:29.226986
2022-12-01 17:16:29.235076
2022-12-01 17:16:29.243290
2022-12-01 17:16:29.255407
2022-12-01 17:16:29.263598
2022-12-01 17:16:29.271662
2022-12-01 17:16:29.279336
2022-12-01 17:16:29.292145
2022-12-01 17:16:29.299771
2022-12-01 17:16:29.309009
2022-12-01 17:16:29.320167
2022-12-01 17:16:29.328562
2022-12-01 17:16:29.337273
2022-12-01 17:16:29.345805
2022-12-01 17:16:29.357642
2022-12-01 17:16:29.366029
2022-12-01 17:16:29.374485
2022-12-01 17:16:29.386132
2022-12-01 17:16:29.394705
2022-12-01 17:16:29.402634
2022-12-01 17:16:29.410647
2022-12-01 17:16:29.422611
2022-12-01 17:16:29.430852
2022-12-01 17:16:29.439642
2022-12-01 17:16:29.451955
2022-12-01 17:16:29.460446
2022-12-01 17:16:29.467837
2022-12-01 17:16:29.476587
2022-12-01 17:16:29.489060
2022-12-01 17:16:29.497145
2022-12-01 17:16:29.505023
2022-12-01 17:16:29.516788
2022-12-01 17:16:29.525685
2022-12-01 17:16:29.533483
2022-12-01 17:16:29.542401
2022-12-01 17:16:29.554377
2022-12-01 17:16:29.562991
2022-12-01 17:16:29.571033
2022-12-01 17:16:29.583161
2022-12-01 17:16:29.591173
2022-12-01 17:16:29.599221
2022-12-01 17:16:29.607254
2022-12-01 17:16:29.619445
2022-12-01 17:16:29.627928
2022-12-01 17:16:29.636609
2022-12-01 17:16:29.648339
2022-12-01 17:16:29.656668
2022-12-01 17:16:29.665235
2022-12-01 17:16:29.672479
2022-12-01 17:16:29.685248
2022-12-01 17:16:29.693161
2022-12-01 17:16:29.701712
2022-12-01 17:16:29.714211
2022-12-01 17:16:29.722377
2022-12-01 17:16:29.730014
2022-12-01 17:16:29.738248
2022-12-01 17:16:29.750721
2022-12-01 17:16:29.758713
2022-12-01 17:16:29.767221
2022-12-01 17:16:29.779623
2022-12-01 17:16:29.788159
2022-12-01 17:16:29.796045
2022-12-01 17:16:29.803822
2022-12-01 17:16:29.816690
2022-12-01 17:16:29.824236
2022-12-01 17:16:29.833198
2022-12-01 17:16:29.844919
2022-12-01 17:16:29.853572
2022-12-01 17:16:29.861027
2022-12-01 17:16:29.869846
2022-12-01 17:16:29.882060
2022-12-01 17:16:29.890442
2022-12-01 17:16:29.897872
2022-12-01 17:16:29.910300
2022-12-01 17:16:29.918286
2022-12-01 17:16:29.927169
2022-12-01 17:16:29.935493
2022-12-01 17:16:29.947486
2022-12-01 17:16:29.955912
2022-12-01 17:16:29.963403
2022-12-01 17:16:29.976645
2022-12-01 17:16:29.984591
2022-12-01 17:16:29.992357
2022-12-01 17:16:30.000375
2022-12-01 17:16:30.013019
2022-12-01 17:16:30.021544
2022-12-01 17:16:30.029906
2022-12-01 17:16:30.037261
2022-12-01 17:16:30.049271
2022-12-01 17:16:30.058048
2022-12-01 17:16:30.066240
2022-12-01 17:16:30.077772
2022-12-01 17:16:30.086679
2022-12-01 17:16:30.095437
2022-12-01 17:16:30.103291
2022-12-01 17:16:30.115933
2022-12-01 17:16:30.124046
2022-12-01 17:16:30.131695
2022-12-01 17:16:30.144179
2022-12-01 17:16:30.151718
2022-12-01 17:16:30.159804
2022-12-01 17:16:30.168549
2022-12-01 17:16:30.180419
2022-12-01 17:16:30.189633
2022-12-01 17:16:30.197326
2022-12-01 17:16:30.209812
2022-12-01 17:16:30.217892
2022-12-01 17:16:30.225822
2022-12-01 17:16:30.234003
2022-12-01 17:16:30.246932
2022-12-01 17:16:30.254593
2022-12-01 17:16:30.262844
2022-12-01 17:16:30.274891
2022-12-01 17:16:30.283026
2022-12-01 17:16:30.292139
2022-12-01 17:16:30.300052
2022-12-01 17:16:30.312586
2022-12-01 17:16:30.320815
2022-12-01 17:16:30.328977
2022-12-01 17:16:30.340416
2022-12-01 17:16:30.349496
2022-12-01 17:16:30.357272
2022-12-01 17:16:30.365747
2022-12-01 17:16:30.378099
2022-12-01 17:16:30.386009
2022-12-01 17:16:30.394493
2022-12-01 17:16:30.406042
2022-12-01 17:16:30.415260
2022-12-01 17:16:30.422322
2022-12-01 17:16:30.431480
2022-12-01 17:16:30.443679
2022-12-01 17:16:30.451900
2022-12-01 17:16:30.460020
2022-12-01 17:16:30.472731
2022-12-01 17:16:30.479723
2022-12-01 17:16:30.488737
2022-12-01 17:16:30.496511
2022-12-01 17:16:30.509022
2022-12-01 17:16:30.516714
2022-12-01 17:16:30.524812
2022-12-01 17:16:30.536773
2022-12-01 17:16:30.545288
2022-12-01 17:16:30.554235
2022-12-01 17:16:30.562402
2022-12-01 17:16:30.574616
2022-12-01 17:16:30.582928
2022-12-01 17:16:30.590579
2022-12-01 17:16:30.603032
2022-12-01 17:16:30.611647
2022-12-01 17:16:30.619542
2022-12-01 17:16:30.627977
2022-12-01 17:16:30.639594
2022-12-01 17:16:30.648015
2022-12-01 17:16:30.655983
2022-12-01 17:16:30.669470
2022-12-01 17:16:30.677220
2022-12-01 17:16:30.685823
2022-12-01 17:16:30.694025
2022-12-01 17:16:30.705803
2022-12-01 17:16:30.713740
2022-12-01 17:16:30.721977
2022-12-01 17:16:30.734455
2022-12-01 17:16:30.742439
2022-12-01 17:16:30.750553
2022-12-01 17:16:30.758608
2022-12-01 17:16:30.771177
2022-12-01 17:16:30.778942
2022-12-01 17:16:30.787509
2022-12-01 17:16:30.799481
2022-12-01 17:16:30.807545
2022-12-01 17:16:30.815607
2022-12-01 17:16:30.823953
2022-12-01 17:16:30.836619
2022-12-01 17:16:30.844280
2022-12-01 17:16:30.853108
2022-12-01 17:16:30.861028
2022-12-01 17:16:30.873646
2022-12-01 17:16:30.881832
2022-12-01 17:16:30.889304
2022-12-01 17:16:30.902173
2022-12-01 17:16:30.910517
2022-12-01 17:16:30.918110
2022-12-01 17:16:30.926335
2022-12-01 17:16:30.939279
2022-12-01 17:16:30.947501
2022-12-01 17:16:30.955686
2022-12-01 17:16:30.967962
2022-12-01 17:16:30.975182
2022-12-01 17:16:30.984852
2022-12-01 17:16:30.992359
2022-12-01 17:16:31.004653
2022-12-01 17:16:31.012657
2022-12-01 17:16:31.020752
2022-12-01 17:16:31.033975
2022-12-01 17:16:31.041125
2022-12-01 17:16:31.050314
2022-12-01 17:16:31.057829
2022-12-01 17:16:31.070849
2022-12-01 17:16:31.079077
2022-12-01 17:16:31.086798
2022-12-01 17:16:31.098779
2022-12-01 17:16:31.106548
2022-12-01 17:16:31.115343
2022-12-01 17:16:31.123377
2022-12-01 17:16:31.135868
2022-12-01 17:16:31.144084
2022-12-01 17:16:31.152255
2022-12-01 17:16:31.164255
2022-12-01 17:16:31.172174
2022-12-01 17:16:31.180983
2022-12-01 17:16:31.189057
2022-12-01 17:16:31.201231
2022-12-01 17:16:31.209591
2022-12-01 17:16:31.217233
2022-12-01 17:16:31.229539
2022-12-01 17:16:31.238008
2022-12-01 17:16:31.246314
2022-12-01 17:16:31.254158
2022-12-01 17:16:31.267632
2022-12-01 17:16:31.274892
2022-12-01 17:16:31.283641
2022-12-01 17:16:31.294775
2022-12-01 17:16:31.302985
2022-12-01 17:16:31.311843
2022-12-01 17:16:31.319975
2022-12-01 17:16:31.332113
2022-12-01 17:16:31.340135
2022-12-01 17:16:31.348767
2022-12-01 17:16:31.360478
2022-12-01 17:16:31.369857
2022-12-01 17:16:31.377274
2022-12-01 17:16:31.386260
2022-12-01 17:16:31.397915
2022-12-01 17:16:31.405586
2022-12-01 17:16:31.414059
2022-12-01 17:16:31.426252
2022-12-01 17:16:31.433948
2022-12-01 17:16:31.443041
2022-12-01 17:16:31.450907
2022-12-01 17:16:31.462633
2022-12-01 17:16:31.470949
2022-12-01 17:16:31.480007
2022-12-01 17:16:31.492123
2022-12-01 17:16:31.499785
2022-12-01 17:16:31.508565
2022-12-01 17:16:31.517039
2022-12-01 17:16:31.529611
2022-12-01 17:16:31.536690
2022-12-01 17:16:31.546344
2022-12-01 17:16:31.557628
2022-12-01 17:16:31.565951
2022-12-01 17:16:31.573835
2022-12-01 17:16:31.581745
2022-12-01 17:16:31.593589
2022-12-01 17:16:31.602744
2022-12-01 17:16:31.611333
2022-12-01 17:16:31.622201
2022-12-01 17:16:31.631194
2022-12-01 17:16:31.639188
2022-12-01 17:16:31.647161
2022-12-01 17:16:31.658933
2022-12-01 17:16:31.668008
2022-12-01 17:16:31.676399
2022-12-01 17:16:31.688097
2022-12-01 17:16:31.696705
2022-12-01 17:16:31.704981
2022-12-01 17:16:31.713414
2022-12-01 17:16:31.725174
2022-12-01 17:16:31.733699
2022-12-01 17:16:31.741837
2022-12-01 17:16:31.749982
2022-12-01 17:16:31.762107
2022-12-01 17:16:31.769683
2022-12-01 17:16:31.778363
2022-12-01 17:16:31.791068
2022-12-01 17:16:31.799190
2022-12-01 17:16:31.807147
2022-12-01 17:16:31.814770
2022-12-01 17:16:31.828008
2022-12-01 17:16:31.835867
2022-12-01 17:16:31.844363
2022-12-01 17:16:31.855949
2022-12-01 17:16:31.864341
2022-12-01 17:16:31.872419
2022-12-01 17:16:31.881751
2022-12-01 17:16:31.893588
2022-12-01 17:16:31.902124
2022-12-01 17:16:31.910531
2022-12-01 17:16:31.922120
2022-12-01 17:16:31.930953
2022-12-01 17:16:31.938789
2022-12-01 17:16:31.947356
2022-12-01 17:16:31.959697
2022-12-01 17:16:31.967160
2022-12-01 17:16:31.975707
2022-12-01 17:16:31.987871
2022-12-01 17:16:31.995728
2022-12-01 17:16:32.003778
2022-12-01 17:16:32.012148
2022-12-01 17:16:32.024028
2022-12-01 17:16:32.032847
2022-12-01 17:16:32.040506
2022-12-01 17:16:32.053909
2022-12-01 17:16:32.062128
2022-12-01 17:16:32.070305
2022-12-01 17:16:32.078505
2022-12-01 17:16:32.089172
2022-12-01 17:16:32.098753
2022-12-01 17:16:32.106589
2022-12-01 17:16:32.119122
2022-12-01 17:16:32.127659
2022-12-01 17:16:32.135744
2022-12-01 17:16:32.143703
2022-12-01 17:16:32.155440
2022-12-01 17:16:32.163985
2022-12-01 17:16:32.171959
2022-12-01 17:16:32.183827
2022-12-01 17:16:32.191863
2022-12-01 17:16:32.199874
2022-12-01 17:16:32.208182
2022-12-01 17:16:32.221791
2022-12-01 17:16:32.229423
2022-12-01 17:16:32.238134
2022-12-01 17:16:32.249950
2022-12-01 17:16:32.257535
2022-12-01 17:16:32.266924
2022-12-01 17:16:32.273396
2022-12-01 17:16:32.287406
2022-12-01 17:16:32.295637
2022-12-01 17:16:32.303697
2022-12-01 17:16:32.315519
2022-12-01 17:16:32.323208
2022-12-01 17:16:32.331963
2022-12-01 17:16:32.340200
2022-12-01 17:16:32.352325
2022-12-01 17:16:32.360384
2022-12-01 17:16:32.367830
2022-12-01 17:16:32.381614
2022-12-01 17:16:32.389202
2022-12-01 17:16:32.397988
2022-12-01 17:16:32.405362
2022-12-01 17:16:32.418133
2022-12-01 17:16:32.426667
2022-12-01 17:16:32.434832
2022-12-01 17:16:32.446143
2022-12-01 17:16:32.454197
2022-12-01 17:16:32.462844
2022-12-01 17:16:32.471699
2022-12-01 17:16:32.483511
2022-12-01 17:16:32.491362
2022-12-01 17:16:32.499359
2022-12-01 17:16:32.511356
2022-12-01 17:16:32.519815
2022-12-01 17:16:32.528037
2022-12-01 17:16:32.536182
2022-12-01 17:16:32.547803
2022-12-01 17:16:32.556556
2022-12-01 17:16:32.565187
2022-12-01 17:16:32.576993
2022-12-01 17:16:32.585950
2022-12-01 17:16:32.593477
2022-12-01 17:16:32.602165
2022-12-01 17:16:32.614385
2022-12-01 17:16:32.622154
2022-12-01 17:16:32.630863
2022-12-01 17:16:32.639061
2022-12-01 17:16:32.650934
2022-12-01 17:16:32.658848
2022-12-01 17:16:32.666899
2022-12-01 17:16:32.679835
2022-12-01 17:16:32.687281
2022-12-01 17:16:32.696022
2022-12-01 17:16:32.703866
2022-12-01 17:16:32.716732
2022-12-01 17:16:32.724869
2022-12-01 17:16:32.732494
2022-12-01 17:16:32.744913
2022-12-01 17:16:32.753469
2022-12-01 17:16:32.761644
2022-12-01 17:16:32.769964
2022-12-01 17:16:32.781909
2022-12-01 17:16:32.790420
2022-12-01 17:16:32.798878
2022-12-01 17:16:32.811218
2022-12-01 17:16:32.818714
2022-12-01 17:16:32.827488
2022-12-01 17:16:32.835697
2022-12-01 17:16:32.847987
2022-12-01 17:16:32.856207
2022-12-01 17:16:32.864356
2022-12-01 17:16:32.876448
2022-12-01 17:16:32.884810
2022-12-01 17:16:32.893181
2022-12-01 17:16:32.900913
2022-12-01 17:16:32.913538
2022-12-01 17:16:32.921475
2022-12-01 17:16:32.929943
2022-12-01 17:16:32.941167
2022-12-01 17:16:32.950475
2022-12-01 17:16:32.957992
2022-12-01 17:16:32.967309
2022-12-01 17:16:32.978635
2022-12-01 17:16:32.986666
2022-12-01 17:16:32.995246
2022-12-01 17:16:33.007316
2022-12-01 17:16:33.015993
2022-12-01 17:16:33.023892
2022-12-01 17:16:33.032882
2022-12-01 17:16:33.044446
2022-12-01 17:16:33.052601
2022-12-01 17:16:33.060967
2022-12-01 17:16:33.072821
2022-12-01 17:16:33.081402
2022-12-01 17:16:33.089295
2022-12-01 17:16:33.097582
2022-12-01 17:16:33.110212
2022-12-01 17:16:33.118340
2022-12-01 17:16:33.126575
2022-12-01 17:16:33.138400
2022-12-01 17:16:33.147143
2022-12-01 17:16:33.154943
2022-12-01 17:16:33.163441
2022-12-01 17:16:33.175414
2022-12-01 17:16:33.183852
2022-12-01 17:16:33.191707
2022-12-01 17:16:33.205319
2022-12-01 17:16:33.212209
2022-12-01 17:16:33.220843
2022-12-01 17:16:33.228897
2022-12-01 17:16:33.241059
2022-12-01 17:16:33.249982
2022-12-01 17:16:33.257288
2022-12-01 17:16:33.270437
2022-12-01 17:16:33.278634
2022-12-01 17:16:33.286800
2022-12-01 17:16:33.295028
2022-12-01 17:16:33.306018
2022-12-01 17:16:33.314067
2022-12-01 17:16:33.322879
2022-12-01 17:16:33.334637
2022-12-01 17:16:33.343020
2022-12-01 17:16:33.351314
2022-12-01 17:16:33.360059
2022-12-01 17:16:33.371582
2022-12-01 17:16:33.380234
2022-12-01 17:16:33.388161
2022-12-01 17:16:33.401505
2022-12-01 17:16:33.409183
2022-12-01 17:16:33.417875
2022-12-01 17:16:33.425386
2022-12-01 17:16:33.436889
2022-12-01 17:16:33.445892
2022-12-01 17:16:33.453996
2022-12-01 17:16:33.466484
2022-12-01 17:16:33.474474
2022-12-01 17:16:33.482598
2022-12-01 17:16:33.490946
2022-12-01 17:16:33.503170
2022-12-01 17:16:33.511470
2022-12-01 17:16:33.519778
2022-12-01 17:16:33.527320
2022-12-01 17:16:33.539956
2022-12-01 17:16:33.548048
2022-12-01 17:16:33.556910
2022-12-01 17:16:33.569452
2022-12-01 17:16:33.576665
2022-12-01 17:16:33.585842
2022-12-01 17:16:33.592610
2022-12-01 17:16:33.605517
2022-12-01 17:16:33.614156
2022-12-01 17:16:33.621534
2022-12-01 17:16:33.634072
2022-12-01 17:16:33.642364
2022-12-01 17:16:33.650379
2022-12-01 17:16:33.659066
2022-12-01 17:16:33.671165
2022-12-01 17:16:33.679011
2022-12-01 17:16:33.687036
2022-12-01 17:16:33.699532
2022-12-01 17:16:33.708142
2022-12-01 17:16:33.716016
2022-12-01 17:16:33.724371
2022-12-01 17:16:33.736008
2022-12-01 17:16:33.745080
2022-12-01 17:16:33.753315
2022-12-01 17:16:33.764968
2022-12-01 17:16:33.773753
2022-12-01 17:16:33.781717
2022-12-01 17:16:33.790187
2022-12-01 17:16:33.801350
2022-12-01 17:16:33.809688
2022-12-01 17:16:33.818322
2022-12-01 17:16:33.830947
2022-12-01 17:16:33.838263
2022-12-01 17:16:33.847085
2022-12-01 17:16:33.854683
2022-12-01 17:16:33.867218
2022-12-01 17:16:33.875537
2022-12-01 17:16:33.883289
2022-12-01 17:16:33.896309
2022-12-01 17:16:33.904049
2022-12-01 17:16:33.912337
2022-12-01 17:16:33.920709
2022-12-01 17:16:33.932349
2022-12-01 17:16:33.940869
2022-12-01 17:16:33.949815
2022-12-01 17:16:33.961702
2022-12-01 17:16:33.970347
2022-12-01 17:16:33.978537
2022-12-01 17:16:33.987236
2022-12-01 17:16:33.999020
2022-12-01 17:16:34.006878
2022-12-01 17:16:34.015704
2022-12-01 17:16:34.027735
2022-12-01 17:16:34.035893
2022-12-01 17:16:34.044117
2022-12-01 17:16:34.052226
2022-12-01 17:16:34.064650
2022-12-01 17:16:34.071992
2022-12-01 17:16:34.080967
2022-12-01 17:16:34.093006
2022-12-01 17:16:34.101251
2022-12-01 17:16:34.109787
2022-12-01 17:16:34.117645
2022-12-01 17:16:34.130068
2022-12-01 17:16:34.137854
2022-12-01 17:16:34.146413
2022-12-01 17:16:34.158726
2022-12-01 17:16:34.166870
2022-12-01 17:16:34.174535
2022-12-01 17:16:34.183290
2022-12-01 17:16:34.194752
2022-12-01 17:16:34.203223
2022-12-01 17:16:34.212139
2022-12-01 17:16:34.223702
2022-12-01 17:16:34.233029
2022-12-01 17:16:34.240982
2022-12-01 17:16:34.249365
2022-12-01 17:16:34.261281
2022-12-01 17:16:34.269862
2022-12-01 17:16:34.277696
2022-12-01 17:16:34.289652
2022-12-01 17:16:34.297977
2022-12-01 17:16:34.305853
2022-12-01 17:16:34.314465
2022-12-01 17:16:34.326471
2022-12-01 17:16:34.334956
2022-12-01 17:16:34.343224
2022-12-01 17:16:34.351313
2022-12-01 17:16:34.363743
2022-12-01 17:16:34.371259
2022-12-01 17:16:34.379437
2022-12-01 17:16:34.392221
2022-12-01 17:16:34.400949
2022-12-01 17:16:34.409157
2022-12-01 17:16:34.417332
2022-12-01 17:16:34.428286
2022-12-01 17:16:34.436338
2022-12-01 17:16:34.444807
2022-12-01 17:16:34.457433
2022-12-01 17:16:34.466154
2022-12-01 17:16:34.473448
2022-12-01 17:16:34.482817
2022-12-01 17:16:34.494572
2022-12-01 17:16:34.503724
2022-12-01 17:16:34.511630
2022-12-01 17:16:34.522527
2022-12-01 17:16:34.531556
2022-12-01 17:16:34.539468
2022-12-01 17:16:34.547890
2022-12-01 17:16:34.560154
2022-12-01 17:16:34.568117
2022-12-01 17:16:34.576311
2022-12-01 17:16:34.587729
2022-12-01 17:16:34.597003
2022-12-01 17:16:34.605228
2022-12-01 17:16:34.613433
2022-12-01 17:16:34.626213
2022-12-01 17:16:34.634167
2022-12-01 17:16:34.643373
2022-12-01 17:16:34.654061
2022-12-01 17:16:34.661214
2022-12-01 17:16:34.670646
2022-12-01 17:16:34.678091
2022-12-01 17:16:34.690845
2022-12-01 17:16:34.699457
2022-12-01 17:16:34.706861
2022-12-01 17:16:34.719949
2022-12-01 17:16:34.728129
2022-12-01 17:16:34.735987
2022-12-01 17:16:34.745042
2022-12-01 17:16:34.755932
2022-12-01 17:16:34.764872
2022-12-01 17:16:34.773494
2022-12-01 17:16:34.784411
2022-12-01 17:16:34.793264
2022-12-01 17:16:34.802376
2022-12-01 17:16:34.810121
2022-12-01 17:16:34.821764
2022-12-01 17:16:34.830252
2022-12-01 17:16:34.838726
2022-12-01 17:16:34.851457
2022-12-01 17:16:34.859615
2022-12-01 17:16:34.867409
2022-12-01 17:16:34.875399
2022-12-01 17:16:34.887707
2022-12-01 17:16:34.896126
2022-12-01 17:16:34.904257
2022-12-01 17:16:34.916228
2022-12-01 17:16:34.924427
2022-12-01 17:16:34.932821
2022-12-01 17:16:34.941387
2022-12-01 17:16:34.952919
2022-12-01 17:16:34.960785
2022-12-01 17:16:34.969308
2022-12-01 17:16:34.981166
2022-12-01 17:16:34.989769
2022-12-01 17:16:34.997779
2022-12-01 17:16:35.006492
2022-12-01 17:16:35.018744
2022-12-01 17:16:35.027014
2022-12-01 17:16:35.034975
2022-12-01 17:16:35.047310
2022-12-01 17:16:35.055799
2022-12-01 17:16:35.063110
2022-12-01 17:16:35.071848
2022-12-01 17:16:35.084188
2022-12-01 17:16:35.092112
2022-12-01 17:16:35.100812
2022-12-01 17:16:35.113655
2022-12-01 17:16:35.120950
2022-12-01 17:16:35.130034
2022-12-01 17:16:35.137608
2022-12-01 17:16:35.150527
2022-12-01 17:16:35.158143
2022-12-01 17:16:35.166876
2022-12-01 17:16:35.179202
2022-12-01 17:16:35.186767
2022-12-01 17:16:35.195145
2022-12-01 17:16:35.202773
2022-12-01 17:16:35.216099
2022-12-01 17:16:35.223519
2022-12-01 17:16:35.231631
2022-12-01 17:16:35.239887
2022-12-01 17:16:35.252240
2022-12-01 17:16:35.260397
2022-12-01 17:16:35.268540
2022-12-01 17:16:35.281652
2022-12-01 17:16:35.288565
2022-12-01 17:16:35.297983
2022-12-01 17:16:35.305113
2022-12-01 17:16:35.318464
2022-12-01 17:16:35.325925
2022-12-01 17:16:35.334821
2022-12-01 17:16:35.347118
2022-12-01 17:16:35.354805
2022-12-01 17:16:35.363175
2022-12-01 17:16:35.371004
2022-12-01 17:16:35.382660
2022-12-01 17:16:35.391243
2022-12-01 17:16:35.399328
2022-12-01 17:16:35.412129
2022-12-01 17:16:35.422229
2022-12-01 17:16:35.428181
2022-12-01 17:16:35.436500
2022-12-01 17:16:35.448101
2022-12-01 17:16:35.457154
2022-12-01 17:16:35.465000
2022-12-01 17:16:35.477352
2022-12-01 17:16:35.485838
2022-12-01 17:16:35.493921
2022-12-01 17:16:35.502246
2022-12-01 17:16:35.514594
2022-12-01 17:16:35.522605
2022-12-01 17:16:35.530900
2022-12-01 17:16:35.543495
2022-12-01 17:16:35.551720
2022-12-01 17:16:35.558905
2022-12-01 17:16:35.567546
2022-12-01 17:16:35.579228
2022-12-01 17:16:35.587847
2022-12-01 17:16:35.595949
2022-12-01 17:16:35.608072
2022-12-01 17:16:35.616525
2022-12-01 17:16:35.624929
2022-12-01 17:16:35.633136
2022-12-01 17:16:35.646120
2022-12-01 17:16:35.654059
2022-12-01 17:16:35.661993
2022-12-01 17:16:35.674247
2022-12-01 17:16:35.682985
2022-12-01 17:16:35.691222
2022-12-01 17:16:35.699397
2022-12-01 17:16:35.710816
2022-12-01 17:16:35.719466
2022-12-01 17:16:35.727743
2022-12-01 17:16:35.739655
2022-12-01 17:16:35.748028
2022-12-01 17:16:35.756926
2022-12-01 17:16:35.764238
2022-12-01 17:16:35.776294
2022-12-01 17:16:35.785389
2022-12-01 17:16:35.793578
2022-12-01 17:16:35.804150
2022-12-01 17:16:35.812642
2022-12-01 17:16:35.821149
2022-12-01 17:16:35.829288
2022-12-01 17:16:35.842020
2022-12-01 17:16:35.850284
2022-12-01 17:16:35.858206
2022-12-01 17:16:35.870192
2022-12-01 17:16:35.878379
2022-12-01 17:16:35.886770
2022-12-01 17:16:35.895333
2022-12-01 17:16:35.906633
2022-12-01 17:16:35.915159
2022-12-01 17:16:35.923502
2022-12-01 17:16:35.936029
2022-12-01 17:16:35.944392
2022-12-01 17:16:35.952719
2022-12-01 17:16:35.960913
2022-12-01 17:16:35.972742
2022-12-01 17:16:35.981091
2022-12-01 17:16:35.989257
2022-12-01 17:16:36.001811
2022-12-01 17:16:36.010079
2022-12-01 17:16:36.017493
2022-12-01 17:16:36.025923
2022-12-01 17:16:36.038270
2022-12-01 17:16:36.046218
2022-12-01 17:16:36.054683
2022-12-01 17:16:36.067302
2022-12-01 17:16:36.075190
2022-12-01 17:16:36.083382
2022-12-01 17:16:36.091850
2022-12-01 17:16:36.103268
2022-12-01 17:16:36.111995
2022-12-01 17:16:36.120164
2022-12-01 17:16:36.128407
2022-12-01 17:16:36.140666
2022-12-01 17:16:36.149236
2022-12-01 17:16:36.157083
2022-12-01 17:16:36.170428
2022-12-01 17:16:36.177460
2022-12-01 17:16:36.186382
2022-12-01 17:16:36.193915
2022-12-01 17:16:36.206689
2022-12-01 17:16:36.215483
2022-12-01 17:16:36.222962
2022-12-01 17:16:36.235105
2022-12-01 17:16:36.243645
2022-12-01 17:16:36.251909
2022-12-01 17:16:36.260014
2022-12-01 17:16:36.272485
2022-12-01 17:16:36.281135
2022-12-01 17:16:36.288850
2022-12-01 17:16:36.301207
2022-12-01 17:16:36.308962
2022-12-01 17:16:36.317889
2022-12-01 17:16:36.325368
2022-12-01 17:16:36.337125
2022-12-01 17:16:36.345758
2022-12-01 17:16:36.353780
2022-12-01 17:16:36.366689
2022-12-01 17:16:36.375212
2022-12-01 17:16:36.383434
2022-12-01 17:16:36.391920
2022-12-01 17:16:36.403490
2022-12-01 17:16:36.411597
2022-12-01 17:16:36.419756
2022-12-01 17:16:36.432064
2022-12-01 17:16:36.439709
2022-12-01 17:16:36.448954
2022-12-01 17:16:36.456643
2022-12-01 17:16:36.468842
2022-12-01 17:16:36.477188
2022-12-01 17:16:36.485070
2022-12-01 17:16:36.498130
2022-12-01 17:16:36.505552
2022-12-01 17:16:36.514480
2022-12-01 17:16:36.522465
2022-12-01 17:16:36.533274
2022-12-01 17:16:36.543179
2022-12-01 17:16:36.549883
2022-12-01 17:16:36.563488
2022-12-01 17:16:36.570369
2022-12-01 17:16:36.579719
2022-12-01 17:16:36.587028
2022-12-01 17:16:36.600027
2022-12-01 17:16:36.608223
2022-12-01 17:16:36.616484
2022-12-01 17:16:36.628191
2022-12-01 17:16:36.636698
2022-12-01 17:16:36.644823
2022-12-01 17:16:36.653669
2022-12-01 17:16:36.666067
2022-12-01 17:16:36.673103
2022-12-01 17:16:36.682161
2022-12-01 17:16:36.694708
2022-12-01 17:16:36.703224
2022-12-01 17:16:36.711105
2022-12-01 17:16:36.719928
2022-12-01 17:16:36.731486
2022-12-01 17:16:36.739256
2022-12-01 17:16:36.747466
2022-12-01 17:16:36.759786
2022-12-01 17:16:36.767670
2022-12-01 17:16:36.776187
2022-12-01 17:16:36.783875
2022-12-01 17:16:36.796554
2022-12-01 17:16:36.804692
2022-12-01 17:16:36.812136
2022-12-01 17:16:36.824428
2022-12-01 17:16:36.833480
2022-12-01 17:16:36.842233
2022-12-01 17:16:36.849841
2022-12-01 17:16:36.862138
2022-12-01 17:16:36.870088
2022-12-01 17:16:36.878565
2022-12-01 17:16:36.890355
2022-12-01 17:16:36.899003
2022-12-01 17:16:36.906630
2022-12-01 17:16:36.915504
2022-12-01 17:16:36.927721
2022-12-01 17:16:36.935430
2022-12-01 17:16:36.944045
2022-12-01 17:16:36.956010
2022-12-01 17:16:36.964254
2022-12-01 17:16:36.972514
2022-12-01 17:16:36.981114
2022-12-01 17:16:36.993751
2022-12-01 17:16:37.001926
2022-12-01 17:16:37.008913
2022-12-01 17:16:37.017532
2022-12-01 17:16:37.029600
2022-12-01 17:16:37.037480
2022-12-01 17:16:37.045912
2022-12-01 17:16:37.058984
2022-12-01 17:16:37.066689
2022-12-01 17:16:37.075495
2022-12-01 17:16:37.083494
2022-12-01 17:16:37.095751
2022-12-01 17:16:37.103492
2022-12-01 17:16:37.112061
2022-12-01 17:16:37.123860
2022-12-01 17:16:37.132257
2022-12-01 17:16:37.140589
2022-12-01 17:16:37.148814
2022-12-01 17:16:37.161670
2022-12-01 17:16:37.169743
2022-12-01 17:16:37.178049
2022-12-01 17:16:37.188549
2022-12-01 17:16:37.198537
2022-12-01 17:16:37.205963
2022-12-01 17:16:37.214929
2022-12-01 17:16:37.226888
2022-12-01 17:16:37.235411
2022-12-01 17:16:37.243497
2022-12-01 17:16:37.254437
2022-12-01 17:16:37.262934
2022-12-01 17:16:37.271091
2022-12-01 17:16:37.279693
2022-12-01 17:16:37.292233
2022-12-01 17:16:37.300263
2022-12-01 17:16:37.308251
2022-12-01 17:16:37.319986
2022-12-01 17:16:37.329656
2022-12-01 17:16:37.336739
2022-12-01 17:16:37.345969
2022-12-01 17:16:37.357230
2022-12-01 17:16:37.366444
2022-12-01 17:16:37.374190
2022-12-01 17:16:37.387614
2022-12-01 17:16:37.395142
2022-12-01 17:16:37.403471
2022-12-01 17:16:37.411004
2022-12-01 17:16:37.422533
2022-12-01 17:16:37.431084
2022-12-01 17:16:37.439054
2022-12-01 17:16:37.451184
2022-12-01 17:16:37.460093
2022-12-01 17:16:37.468196
2022-12-01 17:16:37.476286
2022-12-01 17:16:37.488508
2022-12-01 17:16:37.496183
2022-12-01 17:16:37.505342
2022-12-01 17:16:37.518018
2022-12-01 17:16:37.525471
2022-12-01 17:16:37.534396
2022-12-01 17:16:37.541640
2022-12-01 17:16:37.553301
2022-12-01 17:16:37.562893
2022-12-01 17:16:37.570438
2022-12-01 17:16:37.583570
2022-12-01 17:16:37.590701
2022-12-01 17:16:37.598990
2022-12-01 17:16:37.607762
2022-12-01 17:16:37.619736
2022-12-01 17:16:37.628088
2022-12-01 17:16:37.635947
2022-12-01 17:16:37.648205
2022-12-01 17:16:37.656535
2022-12-01 17:16:37.664338
2022-12-01 17:16:37.672948
2022-12-01 17:16:37.685136
2022-12-01 17:16:37.693267
2022-12-01 17:16:37.701819
2022-12-01 17:16:37.713653
2022-12-01 17:16:37.722070
2022-12-01 17:16:37.730523
2022-12-01 17:16:37.738570
2022-12-01 17:16:37.751493
2022-12-01 17:16:37.759238
2022-12-01 17:16:37.767763
2022-12-01 17:16:37.779697
2022-12-01 17:16:37.787547
2022-12-01 17:16:37.796019
2022-12-01 17:16:37.804280
2022-12-01 17:16:37.817036
2022-12-01 17:16:37.824623
2022-12-01 17:16:37.833413
2022-12-01 17:16:37.840246
2022-12-01 17:16:37.852857
2022-12-01 17:16:37.862098
2022-12-01 17:16:37.869545
2022-12-01 17:16:37.881360
2022-12-01 17:16:37.890774
2022-12-01 17:16:37.898362
2022-12-01 17:16:37.907148
2022-12-01 17:16:37.919454
2022-12-01 17:16:37.927653
2022-12-01 17:16:37.935592
2022-12-01 17:16:37.947352
2022-12-01 17:16:37.955528
2022-12-01 17:16:37.964008
2022-12-01 17:16:37.971993
2022-12-01 17:16:37.984982
2022-12-01 17:16:37.991777
2022-12-01 17:16:38.001364
2022-12-01 17:16:38.013668
2022-12-01 17:16:38.021025
2022-12-01 17:16:38.029269
2022-12-01 17:16:38.037127
2022-12-01 17:16:38.050191
2022-12-01 17:16:38.058301
2022-12-01 17:16:38.066958
2022-12-01 17:16:38.079201
2022-12-01 17:16:38.086236
2022-12-01 17:16:38.094365
2022-12-01 17:16:38.102757
2022-12-01 17:16:38.114500
2022-12-01 17:16:38.123222
2022-12-01 17:16:38.131675
2022-12-01 17:16:38.143798
2022-12-01 17:16:38.151392
2022-12-01 17:16:38.160293
2022-12-01 17:16:38.168131
2022-12-01 17:16:38.181052
2022-12-01 17:16:38.188845
2022-12-01 17:16:38.197519
2022-12-01 17:16:38.209721
2022-12-01 17:16:38.218306
2022-12-01 17:16:38.227009
2022-12-01 17:16:38.234409
2022-12-01 17:16:38.247099
2022-12-01 17:16:38.254500
2022-12-01 17:16:38.263511
2022-12-01 17:16:38.275498
2022-12-01 17:16:38.283757
2022-12-01 17:16:38.291715
2022-12-01 17:16:38.299704
2022-12-01 17:16:38.312106
2022-12-01 17:16:38.319679
2022-12-01 17:16:38.328132
2022-12-01 17:16:38.340632
2022-12-01 17:16:38.349500
2022-12-01 17:16:38.357420
2022-12-01 17:16:38.365459
2022-12-01 17:16:38.377047
2022-12-01 17:16:38.386307
2022-12-01 17:16:38.393516
2022-12-01 17:16:38.406852
2022-12-01 17:16:38.415074
2022-12-01 17:16:38.422756
2022-12-01 17:16:38.431474
2022-12-01 17:16:38.443506
2022-12-01 17:16:38.451514
2022-12-01 17:16:38.459635
2022-12-01 17:16:38.471725
2022-12-01 17:16:38.480086
2022-12-01 17:16:38.488090
2022-12-01 17:16:38.496291
2022-12-01 17:16:38.508507
2022-12-01 17:16:38.516314
2022-12-01 17:16:38.525690
2022-12-01 17:16:38.537121
2022-12-01 17:16:38.546049
2022-12-01 17:16:38.552912
2022-12-01 17:16:38.562303
2022-12-01 17:16:38.574817
2022-12-01 17:16:38.583008
2022-12-01 17:16:38.591212
2022-12-01 17:16:38.602822
2022-12-01 17:16:38.610361
2022-12-01 17:16:38.619529
2022-12-01 17:16:38.627409
2022-12-01 17:16:38.639959
2022-12-01 17:16:38.648053
2022-12-01 17:16:38.655964
2022-12-01 17:16:38.668276
2022-12-01 17:16:38.676393
2022-12-01 17:16:38.684275
2022-12-01 17:16:38.693608
2022-12-01 17:16:38.705140
2022-12-01 17:16:38.714062
2022-12-01 17:16:38.721499
2022-12-01 17:16:38.729864
2022-12-01 17:16:38.742723
2022-12-01 17:16:38.749287
2022-12-01 17:16:38.758461
2022-12-01 17:16:38.770305
2022-12-01 17:16:38.778946
2022-12-01 17:16:38.787153
2022-12-01 17:16:38.795369
2022-12-01 17:16:38.807809
2022-12-01 17:16:38.816001
2022-12-01 17:16:38.824165
2022-12-01 17:16:38.836350
2022-12-01 17:16:38.844305
2022-12-01 17:16:38.852472
2022-12-01 17:16:38.861189
2022-12-01 17:16:38.872765
2022-12-01 17:16:38.882018
2022-12-01 17:16:38.889724
2022-12-01 17:16:38.901763
2022-12-01 17:16:38.910144
2022-12-01 17:16:38.919212
2022-12-01 17:16:38.927208
2022-12-01 17:16:38.938907
2022-12-01 17:16:38.947528
2022-12-01 17:16:38.954945
2022-12-01 17:16:38.967149
2022-12-01 17:16:38.975777
2022-12-01 17:16:38.983497
2022-12-01 17:16:38.992081
2022-12-01 17:16:39.003734
2022-12-01 17:16:39.012664
2022-12-01 17:16:39.020022
2022-12-01 17:16:39.032000
2022-12-01 17:16:39.040517
2022-12-01 17:16:39.049170
2022-12-01 17:16:39.057001
2022-12-01 17:16:39.068784
2022-12-01 17:16:39.077776
2022-12-01 17:16:39.085636
2022-12-01 17:16:39.098474
2022-12-01 17:16:39.106185
2022-12-01 17:16:39.114428
2022-12-01 17:16:39.122334
2022-12-01 17:16:39.134475
2022-12-01 17:16:39.142908
2022-12-01 17:16:39.150954
2022-12-01 17:16:39.163234
2022-12-01 17:16:39.171323
2022-12-01 17:16:39.180226
2022-12-01 17:16:39.187838
2022-12-01 17:16:39.200224
2022-12-01 17:16:39.208762
2022-12-01 17:16:39.216562
2022-12-01 17:16:39.229130
2022-12-01 17:16:39.237304
2022-12-01 17:16:39.245135
2022-12-01 17:16:39.254145
2022-12-01 17:16:39.265571
2022-12-01 17:16:39.274338
2022-12-01 17:16:39.282634
2022-12-01 17:16:39.294182
2022-12-01 17:16:39.303084
2022-12-01 17:16:39.311362
2022-12-01 17:16:39.318945
2022-12-01 17:16:39.331744
2022-12-01 17:16:39.339638
2022-12-01 17:16:39.348228
2022-12-01 17:16:39.361196
2022-12-01 17:16:39.368310
2022-12-01 17:16:39.377629
2022-12-01 17:16:39.385011
2022-12-01 17:16:39.397539
2022-12-01 17:16:39.405895
2022-12-01 17:16:39.414312
2022-12-01 17:16:39.426205
2022-12-01 17:16:39.434512
2022-12-01 17:16:39.442648
2022-12-01 17:16:39.450829
2022-12-01 17:16:39.462346
2022-12-01 17:16:39.470709
2022-12-01 17:16:39.478875
2022-12-01 17:16:39.491039
2022-12-01 17:16:39.499958
2022-12-01 17:16:39.507646
2022-12-01 17:16:39.516282
2022-12-01 17:16:39.528753
2022-12-01 17:16:39.536772
2022-12-01 17:16:39.545431
2022-12-01 17:16:39.557869
2022-12-01 17:16:39.565448
2022-12-01 17:16:39.573140
2022-12-01 17:16:39.581877
2022-12-01 17:16:39.594219
2022-12-01 17:16:39.601781
2022-12-01 17:16:39.610586
2022-12-01 17:16:39.618339
2022-12-01 17:16:39.631099
2022-12-01 17:16:39.639778
2022-12-01 17:16:39.648231
2022-12-01 17:16:39.659778
2022-12-01 17:16:39.667017
2022-12-01 17:16:39.675965
2022-12-01 17:16:39.684329
2022-12-01 17:16:39.695633
2022-12-01 17:16:39.704606
2022-12-01 17:16:39.712484
2022-12-01 17:16:39.725040
2022-12-01 17:16:39.732767
2022-12-01 17:16:39.741334
2022-12-01 17:16:39.749838
2022-12-01 17:16:39.761578
2022-12-01 17:16:39.769716
2022-12-01 17:16:39.778782
2022-12-01 17:16:39.790145
2022-12-01 17:16:39.798416
2022-12-01 17:16:39.807066
2022-12-01 17:16:39.814677
2022-12-01 17:16:39.827556
2022-12-01 17:16:39.835412
2022-12-01 17:16:39.843800
2022-12-01 17:16:39.856147
2022-12-01 17:16:39.864130
2022-12-01 17:16:39.872205
2022-12-01 17:16:39.880992
2022-12-01 17:16:39.893187
2022-12-01 17:16:39.901419
2022-12-01 17:16:39.909286
2022-12-01 17:16:39.921682
2022-12-01 17:16:39.930603
2022-12-01 17:16:39.938033
2022-12-01 17:16:39.946956
2022-12-01 17:16:39.958182
2022-12-01 17:16:39.967476
2022-12-01 17:16:39.974321
2022-12-01 17:16:39.987336
2022-12-01 17:16:39.995649
2022-12-01 17:16:40.005353
2022-12-01 17:16:40.011917
2022-12-01 17:16:40.024276
2022-12-01 17:16:40.032525
2022-12-01 17:16:40.040625
2022-12-01 17:16:40.051986
2022-12-01 17:16:40.061147
2022-12-01 17:16:40.068615
2022-12-01 17:16:40.078045
2022-12-01 17:16:40.090341
2022-12-01 17:16:40.097922
2022-12-01 17:16:40.106709
2022-12-01 17:16:40.118944
2022-12-01 17:16:40.125475
2022-12-01 17:16:40.135398
2022-12-01 17:16:40.142696
2022-12-01 17:16:40.154625
2022-12-01 17:16:40.163557
2022-12-01 17:16:40.171540
2022-12-01 17:16:40.184099
2022-12-01 17:16:40.192221
2022-12-01 17:16:40.200923
2022-12-01 17:16:40.208239
2022-12-01 17:16:40.220461
2022-12-01 17:16:40.229303
2022-12-01 17:16:40.236791
2022-12-01 17:16:40.248121
2022-12-01 17:16:40.258243
2022-12-01 17:16:40.265598
2022-12-01 17:16:40.274306
2022-12-01 17:16:40.285286
2022-12-01 17:16:40.294377
2022-12-01 17:16:40.302210
2022-12-01 17:16:40.315528
2022-12-01 17:16:40.322304
2022-12-01 17:16:40.331539
2022-12-01 17:16:40.340013
2022-12-01 17:16:40.351992
2022-12-01 17:16:40.360201
2022-12-01 17:16:40.368385
2022-12-01 17:16:40.380302
2022-12-01 17:16:40.388411
2022-12-01 17:16:40.396919
2022-12-01 17:16:40.404708
2022-12-01 17:16:40.417068
2022-12-01 17:16:40.426214
2022-12-01 17:16:40.433411
2022-12-01 17:16:40.446706
2022-12-01 17:16:40.454057
2022-12-01 17:16:40.463089
2022-12-01 17:16:40.470452
2022-12-01 17:16:40.483540
2022-12-01 17:16:40.491532
2022-12-01 17:16:40.499538
2022-12-01 17:16:40.507643
2022-12-01 17:16:40.519786
2022-12-01 17:16:40.527234
2022-12-01 17:16:40.535454
2022-12-01 17:16:40.547841
2022-12-01 17:16:40.556026
2022-12-01 17:16:40.564794
2022-12-01 17:16:40.572646
2022-12-01 17:16:40.585257
2022-12-01 17:16:40.593626
2022-12-01 17:16:40.601857
2022-12-01 17:16:40.613661
2022-12-01 17:16:40.622267
2022-12-01 17:16:40.630999
2022-12-01 17:16:40.638644
2022-12-01 17:16:40.649844
2022-12-01 17:16:40.659239
2022-12-01 17:16:40.667524
2022-12-01 17:16:40.679790
2022-12-01 17:16:40.687548
2022-12-01 17:16:40.696081
2022-12-01 17:16:40.703994
2022-12-01 17:16:40.716294
2022-12-01 17:16:40.724384
2022-12-01 17:16:40.732647
2022-12-01 17:16:40.744410
2022-12-01 17:16:40.752958
2022-12-01 17:16:40.761741
2022-12-01 17:16:40.769408
2022-12-01 17:16:40.781751
2022-12-01 17:16:40.789145
2022-12-01 17:16:40.798478
2022-12-01 17:16:40.810697
2022-12-01 17:16:40.818507
2022-12-01 17:16:40.827095
2022-12-01 17:16:40.835548
2022-12-01 17:16:40.847778
2022-12-01 17:16:40.855584
2022-12-01 17:16:40.864011
2022-12-01 17:16:40.876279
2022-12-01 17:16:40.883596
2022-12-01 17:16:40.892506
2022-12-01 17:16:40.900599
2022-12-01 17:16:40.912910
2022-12-01 17:16:40.921069
2022-12-01 17:16:40.929027
2022-12-01 17:16:40.941301
2022-12-01 17:16:40.949944
2022-12-01 17:16:40.957777
2022-12-01 17:16:40.966346
2022-12-01 17:16:40.978667
2022-12-01 17:16:40.986092
2022-12-01 17:16:40.995067
2022-12-01 17:16:41.005858
2022-12-01 17:16:41.015808
2022-12-01 17:16:41.023799
2022-12-01 17:16:41.031965
2022-12-01 17:16:41.044109
2022-12-01 17:16:41.052271
2022-12-01 17:16:41.060300
2022-12-01 17:16:41.073406
2022-12-01 17:16:41.081719
2022-12-01 17:16:41.088441
2022-12-01 17:16:41.097747
2022-12-01 17:16:41.110265
2022-12-01 17:16:41.118444
2022-12-01 17:16:41.126789
2022-12-01 17:16:41.138332
2022-12-01 17:16:41.146371
2022-12-01 17:16:41.154568
2022-12-01 17:16:41.163488
2022-12-01 17:16:41.174989
2022-12-01 17:16:41.183810
2022-12-01 17:16:41.191401
2022-12-01 17:16:41.202856
2022-12-01 17:16:41.211964
2022-12-01 17:16:41.219515
2022-12-01 17:16:41.228268
2022-12-01 17:16:41.241334
2022-12-01 17:16:41.249526
2022-12-01 17:16:41.257722
2022-12-01 17:16:41.269135
2022-12-01 17:16:41.277834
2022-12-01 17:16:41.285808
2022-12-01 17:16:41.293849
2022-12-01 17:16:41.306299
2022-12-01 17:16:41.314407
2022-12-01 17:16:41.322705
2022-12-01 17:16:41.330713
2022-12-01 17:16:41.343432
2022-12-01 17:16:41.351390
2022-12-01 17:16:41.359307
2022-12-01 17:16:41.371668
2022-12-01 17:16:41.380074
2022-12-01 17:16:41.388235
2022-12-01 17:16:41.396306
2022-12-01 17:16:41.408838
2022-12-01 17:16:41.416278
2022-12-01 17:16:41.424757
2022-12-01 17:16:41.437302
2022-12-01 17:16:41.445600
2022-12-01 17:16:41.453640
2022-12-01 17:16:41.461964
2022-12-01 17:16:41.474255
2022-12-01 17:16:41.482537
2022-12-01 17:16:41.490720
2022-12-01 17:16:41.502552
2022-12-01 17:16:41.511037
2022-12-01 17:16:41.518866
2022-12-01 17:16:41.527348
2022-12-01 17:16:41.539709
2022-12-01 17:16:41.547994
2022-12-01 17:16:41.556187
2022-12-01 17:16:41.568263
2022-12-01 17:16:41.577229
2022-12-01 17:16:41.585031
2022-12-01 17:16:41.592534
2022-12-01 17:16:41.605291
2022-12-01 17:16:41.614070
2022-12-01 17:16:41.622246
2022-12-01 17:16:41.633008
2022-12-01 17:16:41.642075
2022-12-01 17:16:41.649672
2022-12-01 17:16:41.658246
2022-12-01 17:16:41.670113
2022-12-01 17:16:41.678898
2022-12-01 17:16:41.686947
2022-12-01 17:16:41.698708
2022-12-01 17:16:41.707198
2022-12-01 17:16:41.714870
2022-12-01 17:16:41.723870
2022-12-01 17:16:41.736034
2022-12-01 17:16:41.744790
2022-12-01 17:16:41.752650
2022-12-01 17:16:41.763968
2022-12-01 17:16:41.773794
2022-12-01 17:16:41.780878
2022-12-01 17:16:41.789164
2022-12-01 17:16:41.800921
2022-12-01 17:16:41.809754
2022-12-01 17:16:41.817939
2022-12-01 17:16:41.830407
2022-12-01 17:16:41.838130
2022-12-01 17:16:41.847538
2022-12-01 17:16:41.855648
2022-12-01 17:16:41.867541
2022-12-01 17:16:41.875758
2022-12-01 17:16:41.883890
2022-12-01 17:16:41.896245
2022-12-01 17:16:41.903829
2022-12-01 17:16:41.912245
2022-12-01 17:16:41.920506
2022-12-01 17:16:41.932473
2022-12-01 17:16:41.941031
2022-12-01 17:16:41.949268
2022-12-01 17:16:41.961748
2022-12-01 17:16:41.969042
2022-12-01 17:16:41.977956
2022-12-01 17:16:41.985720
2022-12-01 17:16:41.999105
2022-12-01 17:16:42.007279
2022-12-01 17:16:42.015019
2022-12-01 17:16:42.027027
2022-12-01 17:16:42.034849
2022-12-01 17:16:42.043656
2022-12-01 17:16:42.051516
2022-12-01 17:16:42.064112
2022-12-01 17:16:42.071771
2022-12-01 17:16:42.081020
2022-12-01 17:16:42.092575
2022-12-01 17:16:42.101318
2022-12-01 17:16:42.109037
2022-12-01 17:16:42.118445
2022-12-01 17:16:42.129105
2022-12-01 17:16:42.137331
2022-12-01 17:16:42.146537
2022-12-01 17:16:42.158842
2022-12-01 17:16:42.166093
2022-12-01 17:16:42.174513
2022-12-01 17:16:42.182567
2022-12-01 17:16:42.194695
2022-12-01 17:16:42.203091
2022-12-01 17:16:42.210754
2022-12-01 17:16:42.220113
2022-12-01 17:16:42.231608
2022-12-01 17:16:42.240188
2022-12-01 17:16:42.248508
2022-12-01 17:16:42.260285
2022-12-01 17:16:42.268710
2022-12-01 17:16:42.276865
2022-12-01 17:16:42.285004
2022-12-01 17:16:42.296857
2022-12-01 17:16:42.305535
2022-12-01 17:16:42.313364
2022-12-01 17:16:42.325988
2022-12-01 17:16:42.333941
2022-12-01 17:16:42.342144
2022-12-01 17:16:42.350726
2022-12-01 17:16:42.362502
2022-12-01 17:16:42.370596
2022-12-01 17:16:42.379321
2022-12-01 17:16:42.391224
2022-12-01 17:16:42.399465
2022-12-01 17:16:42.407831
2022-12-01 17:16:42.416111
2022-12-01 17:16:42.428476
2022-12-01 17:16:42.436466
2022-12-01 17:16:42.444884
2022-12-01 17:16:42.456635
2022-12-01 17:16:42.465169
2022-12-01 17:16:42.472966
2022-12-01 17:16:42.481117
2022-12-01 17:16:42.493951
2022-12-01 17:16:42.501406
2022-12-01 17:16:42.509976
2022-12-01 17:16:42.522662
2022-12-01 17:16:42.530845
2022-12-01 17:16:42.538669
2022-12-01 17:16:42.547546
2022-12-01 17:16:42.559812
2022-12-01 17:16:42.568499
2022-12-01 17:16:42.576120
2022-12-01 17:16:42.588209
2022-12-01 17:16:42.596314
2022-12-01 17:16:42.604599
2022-12-01 17:16:42.612945
2022-12-01 17:16:42.625801
2022-12-01 17:16:42.632885
2022-12-01 17:16:42.641395
2022-12-01 17:16:42.653605
2022-12-01 17:16:42.661880
2022-12-01 17:16:42.670066
2022-12-01 17:16:42.678583
2022-12-01 17:16:42.690859
2022-12-01 17:16:42.698977
2022-12-01 17:16:42.707827
2022-12-01 17:16:42.718907
2022-12-01 17:16:42.727703
2022-12-01 17:16:42.735587
2022-12-01 17:16:42.744082
2022-12-01 17:16:42.755846
2022-12-01 17:16:42.764316
2022-12-01 17:16:42.771844
2022-12-01 17:16:42.784489
2022-12-01 17:16:42.793743
2022-12-01 17:16:42.801100
2022-12-01 17:16:42.810129
2022-12-01 17:16:42.822386
2022-12-01 17:16:42.830141
2022-12-01 17:16:42.838781
2022-12-01 17:16:42.850300
2022-12-01 17:16:42.859289
2022-12-01 17:16:42.866937
2022-12-01 17:16:42.874386
2022-12-01 17:16:42.887813
2022-12-01 17:16:42.895058
2022-12-01 17:16:42.903540
2022-12-01 17:16:42.916079
2022-12-01 17:16:42.923810
2022-12-01 17:16:42.931762
2022-12-01 17:16:42.939867
2022-12-01 17:16:42.951962
2022-12-01 17:16:42.961741
2022-12-01 17:16:42.968818
2022-12-01 17:16:42.982112
2022-12-01 17:16:42.990358
2022-12-01 17:16:42.998510
2022-12-01 17:16:43.006754
2022-12-01 17:16:43.017789
2022-12-01 17:16:43.027214
2022-12-01 17:16:43.034443
2022-12-01 17:16:43.047009
2022-12-01 17:16:43.055188
2022-12-01 17:16:43.063448
2022-12-01 17:16:43.071819
2022-12-01 17:16:43.084060
2022-12-01 17:16:43.092220
2022-12-01 17:16:43.100320
2022-12-01 17:16:43.108351
2022-12-01 17:16:43.120644
2022-12-01 17:16:43.129608
2022-12-01 17:16:43.137188
2022-12-01 17:16:43.150083
2022-12-01 17:16:43.157521
2022-12-01 17:16:43.166465
2022-12-01 17:16:43.174746
2022-12-01 17:16:43.186353
2022-12-01 17:16:43.195139
2022-12-01 17:16:43.202089
2022-12-01 17:16:43.215125
2022-12-01 17:16:43.223243
2022-12-01 17:16:43.231590
2022-12-01 17:16:43.239491
2022-12-01 17:16:43.251302
2022-12-01 17:16:43.260136
2022-12-01 17:16:43.268369
2022-12-01 17:16:43.279750
2022-12-01 17:16:43.289342
2022-12-01 17:16:43.297052
2022-12-01 17:16:43.305745
2022-12-01 17:16:43.317666
2022-12-01 17:16:43.325634
2022-12-01 17:16:43.333659
2022-12-01 17:16:43.346741
2022-12-01 17:16:43.354916
2022-12-01 17:16:43.363074
2022-12-01 17:16:43.371286
2022-12-01 17:16:43.383094
2022-12-01 17:16:43.391010
2022-12-01 17:16:43.399810
2022-12-01 17:16:43.411730
2022-12-01 17:16:43.419639
2022-12-01 17:16:43.428093
2022-12-01 17:16:43.436327
2022-12-01 17:16:43.449102
2022-12-01 17:16:43.457296
2022-12-01 17:16:43.466333
2022-12-01 17:16:43.477417
2022-12-01 17:16:43.484738
2022-12-01 17:16:43.493843
2022-12-01 17:16:43.501579
2022-12-01 17:16:43.513934
2022-12-01 17:16:43.522702
2022-12-01 17:16:43.530243
2022-12-01 17:16:43.542637
2022-12-01 17:16:43.550182
2022-12-01 17:16:43.559180
2022-12-01 17:16:43.566786
2022-12-01 17:16:43.579521
2022-12-01 17:16:43.587837
2022-12-01 17:16:43.596031
2022-12-01 17:16:43.608304
2022-12-01 17:16:43.617038
2022-12-01 17:16:43.623849
2022-12-01 17:16:43.632483
2022-12-01 17:16:43.645751
2022-12-01 17:16:43.653452
2022-12-01 17:16:43.662088
2022-12-01 17:16:43.674068
2022-12-01 17:16:43.681782
2022-12-01 17:16:43.690191
2022-12-01 17:16:43.698440
2022-12-01 17:16:43.710727
2022-12-01 17:16:43.718327
2022-12-01 17:16:43.727076
2022-12-01 17:16:43.739565
2022-12-01 17:16:43.747605
2022-12-01 17:16:43.755823
2022-12-01 17:16:43.763990
2022-12-01 17:16:43.775184
2022-12-01 17:16:43.784076
2022-12-01 17:16:43.792158
2022-12-01 17:16:43.805199
2022-12-01 17:16:43.812788
2022-12-01 17:16:43.820624
2022-12-01 17:16:43.831407
2022-12-01 17:16:43.841771
2022-12-01 17:16:43.849951
2022-12-01 17:16:43.858212
2022-12-01 17:16:43.870052
2022-12-01 17:16:43.878223
2022-12-01 17:16:43.885922
2022-12-01 17:16:43.894619
2022-12-01 17:16:43.906798
2022-12-01 17:16:43.915064
2022-12-01 17:16:43.923764
2022-12-01 17:16:43.935112
2022-12-01 17:16:43.944235
2022-12-01 17:16:43.951931
2022-12-01 17:16:43.961308
2022-12-01 17:16:43.972639
2022-12-01 17:16:43.981557
2022-12-01 17:16:43.989378
2022-12-01 17:16:43.997949
2022-12-01 17:16:44.009730
2022-12-01 17:16:44.017383
2022-12-01 17:16:44.025042
2022-12-01 17:16:44.039065
2022-12-01 17:16:44.046898
2022-12-01 17:16:44.054831
2022-12-01 17:16:44.062921
2022-12-01 17:16:44.075247
2022-12-01 17:16:44.083460
2022-12-01 17:16:44.091629
2022-12-01 17:16:44.102827
2022-12-01 17:16:44.112140
2022-12-01 17:16:44.119670
2022-12-01 17:16:44.129041
2022-12-01 17:16:44.140566
2022-12-01 17:16:44.148672
2022-12-01 17:16:44.157738
2022-12-01 17:16:44.169390
2022-12-01 17:16:44.177966
2022-12-01 17:16:44.185638
2022-12-01 17:16:44.194303
2022-12-01 17:16:44.206870
2022-12-01 17:16:44.214439
2022-12-01 17:16:44.222528
2022-12-01 17:16:44.234502
2022-12-01 17:16:44.248745
2022-12-01 17:16:44.250981
2022-12-01 17:16:44.259167
2022-12-01 17:16:44.271087
2022-12-01 17:16:44.279233
2022-12-01 17:16:44.287850
2022-12-01 17:16:44.300152
2022-12-01 17:16:44.308015
2022-12-01 17:16:44.316813
2022-12-01 17:16:44.324940
2022-12-01 17:16:44.336382
2022-12-01 17:16:44.344599
2022-12-01 17:16:44.353307
2022-12-01 17:16:44.365727
2022-12-01 17:16:44.373388
2022-12-01 17:16:44.382388
2022-12-01 17:16:44.390574
2022-12-01 17:16:44.402983
2022-12-01 17:16:44.411169
2022-12-01 17:16:44.418866
2022-12-01 17:16:44.431416
2022-12-01 17:16:44.439684
2022-12-01 17:16:44.447975
2022-12-01 17:16:44.455393
2022-12-01 17:16:44.468188
2022-12-01 17:16:44.476163
2022-12-01 17:16:44.484089
2022-12-01 17:16:44.496890
2022-12-01 17:16:44.505092
2022-12-01 17:16:44.513412
2022-12-01 17:16:44.521545
2022-12-01 17:16:44.533510
2022-12-01 17:16:44.541824
2022-12-01 17:16:44.549720
2022-12-01 17:16:44.562489
2022-12-01 17:16:44.570114
2022-12-01 17:16:44.578106
2022-12-01 17:16:44.587149
2022-12-01 17:16:44.598644
2022-12-01 17:16:44.606900
2022-12-01 17:16:44.615497
2022-12-01 17:16:44.627931
2022-12-01 17:16:44.635329
2022-12-01 17:16:44.644055
2022-12-01 17:16:44.652031
2022-12-01 17:16:44.664650
2022-12-01 17:16:44.672784
2022-12-01 17:16:44.680789
2022-12-01 17:16:44.693460
2022-12-01 17:16:44.701345
2022-12-01 17:16:44.709984
2022-12-01 17:16:44.718052
2022-12-01 17:16:44.729739
2022-12-01 17:16:44.738557
2022-12-01 17:16:44.746704
2022-12-01 17:16:44.759088
2022-12-01 17:16:44.767098
2022-12-01 17:16:44.775426
2022-12-01 17:16:44.783667
2022-12-01 17:16:44.796100
2022-12-01 17:16:44.804023
2022-12-01 17:16:44.811951
2022-12-01 17:16:44.824104
2022-12-01 17:16:44.834218
2022-12-01 17:16:44.840691
2022-12-01 17:16:44.849377
2022-12-01 17:16:44.861242
2022-12-01 17:16:44.869508
2022-12-01 17:16:44.877703
2022-12-01 17:16:44.885712
2022-12-01 17:16:44.898108
2022-12-01 17:16:44.906115
2022-12-01 17:16:44.914307
2022-12-01 17:16:44.926617
2022-12-01 17:16:44.934942
2022-12-01 17:16:44.943242
2022-12-01 17:16:44.952362
2022-12-01 17:16:44.964024
2022-12-01 17:16:44.971724
2022-12-01 17:16:44.979695
2022-12-01 17:16:44.992347
2022-12-01 17:16:45.000138
2022-12-01 17:16:45.008575
2022-12-01 17:16:45.016469
2022-12-01 17:16:45.028553
2022-12-01 17:16:45.037222
2022-12-01 17:16:45.045778
2022-12-01 17:16:45.058104
2022-12-01 17:16:45.066348
2022-12-01 17:16:45.074242
2022-12-01 17:16:45.082490
2022-12-01 17:16:45.095079
2022-12-01 17:16:45.102380
2022-12-01 17:16:45.111387
2022-12-01 17:16:45.123278
2022-12-01 17:16:45.131572
2022-12-01 17:16:45.140152
2022-12-01 17:16:45.148286
2022-12-01 17:16:45.160218
2022-12-01 17:16:45.168653
2022-12-01 17:16:45.176194
2022-12-01 17:16:45.189125
2022-12-01 17:16:45.197039
2022-12-01 17:16:45.204825
2022-12-01 17:16:45.213141
2022-12-01 17:16:45.225876
2022-12-01 17:16:45.234108
2022-12-01 17:16:45.242377
2022-12-01 17:16:45.254500
2022-12-01 17:16:45.262297
2022-12-01 17:16:45.271204
2022-12-01 17:16:45.279059
2022-12-01 17:16:45.290999
2022-12-01 17:16:45.299834
2022-12-01 17:16:45.307437
2022-12-01 17:16:45.319425
2022-12-01 17:16:45.328331
2022-12-01 17:16:45.335879
2022-12-01 17:16:45.345006
2022-12-01 17:16:45.356171
2022-12-01 17:16:45.365398
2022-12-01 17:16:45.373127
2022-12-01 17:16:45.385558
2022-12-01 17:16:45.394083
2022-12-01 17:16:45.401767
2022-12-01 17:16:45.410221
2022-12-01 17:16:45.422240
2022-12-01 17:16:45.430339
2022-12-01 17:16:45.438942
2022-12-01 17:16:45.451050
2022-12-01 17:16:45.459487
2022-12-01 17:16:45.467718
2022-12-01 17:16:45.476044
2022-12-01 17:16:45.488211
2022-12-01 17:16:45.496646
2022-12-01 17:16:45.503812
2022-12-01 17:16:45.516648
2022-12-01 17:16:45.525799
2022-12-01 17:16:45.533131
2022-12-01 17:16:45.542174
2022-12-01 17:16:45.553675
2022-12-01 17:16:45.561795
2022-12-01 17:16:45.569882
2022-12-01 17:16:45.581993
2022-12-01 17:16:45.590311
2022-12-01 17:16:45.598606
2022-12-01 17:16:45.607248
2022-12-01 17:16:45.618639
2022-12-01 17:16:45.627268
2022-12-01 17:16:45.635203
2022-12-01 17:16:45.647884
2022-12-01 17:16:45.656150
2022-12-01 17:16:45.664294
2022-12-01 17:16:45.672810
2022-12-01 17:16:45.685318
2022-12-01 17:16:45.692486
2022-12-01 17:16:45.702762
2022-12-01 17:16:45.709581
2022-12-01 17:16:45.721775
2022-12-01 17:16:45.729469
2022-12-01 17:16:45.737380
2022-12-01 17:16:45.749836
2022-12-01 17:16:45.758136
2022-12-01 17:16:45.766393
2022-12-01 17:16:45.774520
2022-12-01 17:16:45.787221
2022-12-01 17:16:45.794930
2022-12-01 17:16:45.803774
2022-12-01 17:16:45.816120
2022-12-01 17:16:45.823952
2022-12-01 17:16:45.832973
2022-12-01 17:16:45.839884
2022-12-01 17:16:45.852884
2022-12-01 17:16:45.861097
2022-12-01 17:16:45.869087
2022-12-01 17:16:45.882156
2022-12-01 17:16:45.889694
2022-12-01 17:16:45.898310
2022-12-01 17:16:45.906766
2022-12-01 17:16:45.918059
2022-12-01 17:16:45.927203
2022-12-01 17:16:45.934645
2022-12-01 17:16:45.948893
2022-12-01 17:16:45.958324
2022-12-01 17:16:45.966064
2022-12-01 17:16:45.981596
2022-12-01 17:16:45.986806
2022-12-01 17:16:45.991510
2022-12-01 17:16:46.000255
2022-12-01 17:16:46.012183
2022-12-01 17:16:46.020309
2022-12-01 17:16:46.028805
2022-12-01 17:16:46.037079
2022-12-01 17:16:46.049018
2022-12-01 17:16:46.057465
2022-12-01 17:16:46.065688
2022-12-01 17:16:46.078166
2022-12-01 17:16:46.086300
2022-12-01 17:16:46.094327
2022-12-01 17:16:46.101799
2022-12-01 17:16:46.114770
2022-12-01 17:16:46.123049
2022-12-01 17:16:46.131244
2022-12-01 17:16:46.143775
2022-12-01 17:16:46.151702
2022-12-01 17:16:46.160176
2022-12-01 17:16:46.168431
2022-12-01 17:16:46.180166
2022-12-01 17:16:46.188627
2022-12-01 17:16:46.197542
2022-12-01 17:16:46.208771
2022-12-01 17:16:46.217387
2022-12-01 17:16:46.225815
2022-12-01 17:16:46.234463
2022-12-01 17:16:46.267877
2022-12-01 17:16:46.269840
2022-12-01 17:16:46.276635
2022-12-01 17:16:46.279396
2022-12-01 17:16:46.282246
2022-12-01 17:16:46.290662
2022-12-01 17:16:46.298694
2022-12-01 17:16:46.311098
2022-12-01 17:16:46.319759
2022-12-01 17:16:46.327340
2022-12-01 17:16:46.339980
2022-12-01 17:16:46.347875
2022-12-01 17:16:46.356386
2022-12-01 17:16:46.364333
2022-12-01 17:16:46.376621
2022-12-01 17:16:46.385169
2022-12-01 17:16:46.392910
2022-12-01 17:16:46.404975
2022-12-01 17:16:46.413742
2022-12-01 17:16:46.421321
2022-12-01 17:16:46.430088
2022-12-01 17:16:46.441950
2022-12-01 17:16:46.451108
2022-12-01 17:16:46.458904
2022-12-01 17:16:46.470810
2022-12-01 17:16:46.479860
2022-12-01 17:16:46.487714
2022-12-01 17:16:46.496084
2022-12-01 17:16:46.508333
2022-12-01 17:16:46.516283
2022-12-01 17:16:46.524396
2022-12-01 17:16:46.536402
2022-12-01 17:16:46.545673
2022-12-01 17:16:46.552918
2022-12-01 17:16:46.561824
2022-12-01 17:16:46.573984
2022-12-01 17:16:46.582546
2022-12-01 17:16:46.589294
2022-12-01 17:16:46.597762
2022-12-01 17:16:46.610552
2022-12-01 17:16:46.618207
2022-12-01 17:16:46.626774
2022-12-01 17:16:46.638343
2022-12-01 17:16:46.647843
2022-12-01 17:16:46.656139
2022-12-01 17:16:46.663992
2022-12-01 17:16:46.676181
2022-12-01 17:16:46.683996
2022-12-01 17:16:46.692301
2022-12-01 17:16:46.703781
2022-12-01 17:16:46.713647
2022-12-01 17:16:46.720414
2022-12-01 17:16:46.730021
2022-12-01 17:16:46.742320
2022-12-01 17:16:46.749620
2022-12-01 17:16:46.758680
2022-12-01 17:16:46.769263
2022-12-01 17:16:46.778738
2022-12-01 17:16:46.787397
2022-12-01 17:16:46.795075
2022-12-01 17:16:46.807815
2022-12-01 17:16:46.815136
2022-12-01 17:16:46.823737
2022-12-01 17:16:46.835737
2022-12-01 17:16:46.844175
2022-12-01 17:16:46.852165
2022-12-01 17:16:46.860636
2022-12-01 17:16:46.873390
2022-12-01 17:16:46.881561
2022-12-01 17:16:46.889795
2022-12-01 17:16:46.901573
2022-12-01 17:16:46.908957
2022-12-01 17:16:46.917322
2022-12-01 17:16:46.924979
2022-12-01 17:16:46.938555
2022-12-01 17:16:46.947111
2022-12-01 17:16:46.955053
2022-12-01 17:16:46.966940
2022-12-01 17:16:46.975784
2022-12-01 17:16:46.982879
2022-12-01 17:16:46.991676
2022-12-01 17:16:47.003382
2022-12-01 17:16:47.012130
2022-12-01 17:16:47.019833
2022-12-01 17:16:47.033872
2022-12-01 17:16:47.041314
2022-12-01 17:16:47.048756
2022-12-01 17:16:47.057683
2022-12-01 17:16:47.069219
2022-12-01 17:16:47.078151
2022-12-01 17:16:47.086352
2022-12-01 17:16:47.098639
2022-12-01 17:16:47.106829
2022-12-01 17:16:47.115035
2022-12-01 17:16:47.123255
2022-12-01 17:16:47.134764
2022-12-01 17:16:47.143269
2022-12-01 17:16:47.150539
2022-12-01 17:16:47.163712
2022-12-01 17:16:47.171363
2022-12-01 17:16:47.179986
2022-12-01 17:16:47.187898
2022-12-01 17:16:47.200289
2022-12-01 17:16:47.208515
2022-12-01 17:16:47.216290
2022-12-01 17:16:47.228671
2022-12-01 17:16:47.236562
2022-12-01 17:16:47.244678
2022-12-01 17:16:47.253685
2022-12-01 17:16:47.265660
2022-12-01 17:16:47.274788
2022-12-01 17:16:47.282084
2022-12-01 17:16:47.295289
2022-12-01 17:16:47.303489
2022-12-01 17:16:47.311396
2022-12-01 17:16:47.318890
2022-12-01 17:16:47.330844
2022-12-01 17:16:47.338997
2022-12-01 17:16:47.347113
2022-12-01 17:16:47.359867
2022-12-01 17:16:47.367876
2022-12-01 17:16:47.375999
2022-12-01 17:16:47.384589
2022-12-01 17:16:47.396904
2022-12-01 17:16:47.405188
2022-12-01 17:16:47.413187
2022-12-01 17:16:47.424993
2022-12-01 17:16:47.433369
2022-12-01 17:16:47.441544
2022-12-01 17:16:47.449748
2022-12-01 17:16:47.463144
2022-12-01 17:16:47.470714
2022-12-01 17:16:47.479441
2022-12-01 17:16:47.487104
2022-12-01 17:16:47.499089
2022-12-01 17:16:47.507756
2022-12-01 17:16:47.515729
2022-12-01 17:16:47.527125
2022-12-01 17:16:47.536166
2022-12-01 17:16:47.544041
2022-12-01 17:16:47.552825
2022-12-01 17:16:47.564239
2022-12-01 17:16:47.572585
2022-12-01 17:16:47.581304
2022-12-01 17:16:47.593283
2022-12-01 17:16:47.602145
2022-12-01 17:16:47.609377
2022-12-01 17:16:47.618394
2022-12-01 17:16:47.629766
2022-12-01 17:16:47.638637
2022-12-01 17:16:47.646935
2022-12-01 17:16:47.658458
2022-12-01 17:16:47.667599
2022-12-01 17:16:47.675579
2022-12-01 17:16:47.682985
2022-12-01 17:16:47.696214
2022-12-01 17:16:47.704369
2022-12-01 17:16:47.713595
2022-12-01 17:16:47.723860
2022-12-01 17:16:47.732866
2022-12-01 17:16:47.741214
2022-12-01 17:16:47.749063
2022-12-01 17:16:47.760840
2022-12-01 17:16:47.769223
2022-12-01 17:16:47.777687
2022-12-01 17:16:47.790110
2022-12-01 17:16:47.798400
2022-12-01 17:16:47.806630
2022-12-01 17:16:47.814714
2022-12-01 17:16:47.826202
2022-12-01 17:16:47.835061
2022-12-01 17:16:47.843856
2022-12-01 17:16:47.855964
2022-12-01 17:16:47.864147
2022-12-01 17:16:47.872258
2022-12-01 17:16:47.880523
2022-12-01 17:16:47.892605
2022-12-01 17:16:47.900321
2022-12-01 17:16:47.909135
2022-12-01 17:16:47.921454
2022-12-01 17:16:47.929788
2022-12-01 17:16:47.937674
2022-12-01 17:16:47.945167
2022-12-01 17:16:47.957518
2022-12-01 17:16:47.965977
2022-12-01 17:16:47.975377
2022-12-01 17:16:47.986546
2022-12-01 17:16:47.995130
2022-12-01 17:16:48.003351
2022-12-01 17:16:48.011850
2022-12-01 17:16:48.023772
2022-12-01 17:16:48.032081
2022-12-01 17:16:48.040254
2022-12-01 17:16:48.052425
2022-12-01 17:16:48.059833
2022-12-01 17:16:48.068022
2022-12-01 17:16:48.076323
2022-12-01 17:16:48.089097
2022-12-01 17:16:48.097014
2022-12-01 17:16:48.105553
2022-12-01 17:16:48.117681
2022-12-01 17:16:48.126264
2022-12-01 17:16:48.133923
2022-12-01 17:16:48.142467
2022-12-01 17:16:48.154956
2022-12-01 17:16:48.162827
2022-12-01 17:16:48.171310
2022-12-01 17:16:48.184335
2022-12-01 17:16:48.191485
2022-12-01 17:16:48.200723
2022-12-01 17:16:48.208214
2022-12-01 17:16:48.220376
2022-12-01 17:16:48.228393
2022-12-01 17:16:48.236595
2022-12-01 17:16:48.248924
2022-12-01 17:16:48.257154
2022-12-01 17:16:48.265687
2022-12-01 17:16:48.273866
2022-12-01 17:16:48.285215
2022-12-01 17:16:48.293264
2022-12-01 17:16:48.302127
2022-12-01 17:16:48.314861
2022-12-01 17:16:48.322849
2022-12-01 17:16:48.331474
2022-12-01 17:16:48.338735
2022-12-01 17:16:48.351292
2022-12-01 17:16:48.359870
2022-12-01 17:16:48.368097
2022-12-01 17:16:48.376085
2022-12-01 17:16:48.388320
2022-12-01 17:16:48.396299
2022-12-01 17:16:48.404537
2022-12-01 17:16:48.416481
2022-12-01 17:16:48.424508
2022-12-01 17:16:48.433216
2022-12-01 17:16:48.441874
2022-12-01 17:16:48.453421
2022-12-01 17:16:48.462048
2022-12-01 17:16:48.469730
2022-12-01 17:16:48.481704
2022-12-01 17:16:48.489896
2022-12-01 17:16:48.498411
2022-12-01 17:16:48.506867
2022-12-01 17:16:48.518716
2022-12-01 17:16:48.526646
2022-12-01 17:16:48.535421
2022-12-01 17:16:48.547576
2022-12-01 17:16:48.555643
2022-12-01 17:16:48.563969
2022-12-01 17:16:48.572686
2022-12-01 17:16:48.584056
2022-12-01 17:16:48.592841
2022-12-01 17:16:48.600877
2022-12-01 17:16:48.613371
2022-12-01 17:16:48.621741
2022-12-01 17:16:48.629533
2022-12-01 17:16:48.638487
2022-12-01 17:16:48.650050
2022-12-01 17:16:48.658747
2022-12-01 17:16:48.666355
2022-12-01 17:16:48.679203
2022-12-01 17:16:48.686713
2022-12-01 17:16:48.695584
2022-12-01 17:16:48.703055
2022-12-01 17:16:48.715414
2022-12-01 17:16:48.724275
2022-12-01 17:16:48.732031
2022-12-01 17:16:48.744887
2022-12-01 17:16:48.752996
2022-12-01 17:16:48.761153
2022-12-01 17:16:48.769110
2022-12-01 17:16:48.781133
2022-12-01 17:16:48.789872
2022-12-01 17:16:48.797817
2022-12-01 17:16:48.809263
2022-12-01 17:16:48.818076
2022-12-01 17:16:48.826180
2022-12-01 17:16:48.834863
2022-12-01 17:16:48.846201
2022-12-01 17:16:48.855187
2022-12-01 17:16:48.863218
2022-12-01 17:16:48.875013
2022-12-01 17:16:48.883425
2022-12-01 17:16:48.891935
2022-12-01 17:16:48.899976
2022-12-01 17:16:48.912117
2022-12-01 17:16:48.920010
2022-12-01 17:16:48.928811
2022-12-01 17:16:48.940869
2022-12-01 17:16:48.949418
2022-12-01 17:16:48.958614
2022-12-01 17:16:48.965582
2022-12-01 17:16:48.977861
2022-12-01 17:16:48.986094
2022-12-01 17:16:48.993527
2022-12-01 17:16:49.006000
2022-12-01 17:16:49.015665
2022-12-01 17:16:49.022310
2022-12-01 17:16:49.031287
2022-12-01 17:16:49.043453
2022-12-01 17:16:49.051909
2022-12-01 17:16:49.059757
2022-12-01 17:16:49.072880
2022-12-01 17:16:49.080880
2022-12-01 17:16:49.089673
2022-12-01 17:16:49.097078
2022-12-01 17:16:49.109057
2022-12-01 17:16:49.117221
2022-12-01 17:16:49.125080
2022-12-01 17:16:49.137436
2022-12-01 17:16:49.146118
2022-12-01 17:16:49.154320
2022-12-01 17:16:49.162528
2022-12-01 17:16:49.174820
2022-12-01 17:16:49.183064
2022-12-01 17:16:49.191210
2022-12-01 17:16:49.203791
2022-12-01 17:16:49.211859
2022-12-01 17:16:49.219923
2022-12-01 17:16:49.228488
2022-12-01 17:16:49.240097
2022-12-01 17:16:49.248352
2022-12-01 17:16:49.256007
2022-12-01 17:16:49.267657
2022-12-01 17:16:49.277095
2022-12-01 17:16:49.285365
2022-12-01 17:16:49.293430
2022-12-01 17:16:49.305378
2022-12-01 17:16:49.314078
2022-12-01 17:16:49.321866
2022-12-01 17:16:49.330881
2022-12-01 17:16:49.342877
2022-12-01 17:16:49.350319
2022-12-01 17:16:49.359172
2022-12-01 17:16:49.370703
2022-12-01 17:16:49.379715
2022-12-01 17:16:49.387495
2022-12-01 17:16:49.395777
2022-12-01 17:16:49.407394
2022-12-01 17:16:49.415503
2022-12-01 17:16:49.423882
2022-12-01 17:16:49.436396
2022-12-01 17:16:49.444367
2022-12-01 17:16:49.453101
2022-12-01 17:16:49.461345
2022-12-01 17:16:49.473806
2022-12-01 17:16:49.481775
2022-12-01 17:16:49.489388
2022-12-01 17:16:49.502499
2022-12-01 17:16:49.509886
2022-12-01 17:16:49.518833
2022-12-01 17:16:49.526890
2022-12-01 17:16:49.539074
2022-12-01 17:16:49.547611
2022-12-01 17:16:49.555375
2022-12-01 17:16:49.567566
2022-12-01 17:16:49.576278
2022-12-01 17:16:49.584165
2022-12-01 17:16:49.593150
2022-12-01 17:16:49.604712
2022-12-01 17:16:49.613021
2022-12-01 17:16:49.621083
2022-12-01 17:16:49.632796
2022-12-01 17:16:49.641504
2022-12-01 17:16:49.649506
2022-12-01 17:16:49.658201
2022-12-01 17:16:49.670986
2022-12-01 17:16:49.678201
2022-12-01 17:16:49.687027
2022-12-01 17:16:49.698062
2022-12-01 17:16:49.707361
2022-12-01 17:16:49.714569
2022-12-01 17:16:49.723246
2022-12-01 17:16:49.735722
2022-12-01 17:16:49.743526
2022-12-01 17:16:49.752425
2022-12-01 17:16:49.764406
2022-12-01 17:16:49.772005
2022-12-01 17:16:49.780989
2022-12-01 17:16:49.789816
2022-12-01 17:16:49.801195
2022-12-01 17:16:49.810240
2022-12-01 17:16:49.817336
2022-12-01 17:16:49.831099
2022-12-01 17:16:49.838936
2022-12-01 17:16:49.846848
2022-12-01 17:16:49.855293
2022-12-01 17:16:49.866146
2022-12-01 17:16:49.875646
2022-12-01 17:16:49.882715
2022-12-01 17:16:49.895230
2022-12-01 17:16:49.903995
2022-12-01 17:16:49.911770
2022-12-01 17:16:49.920370
2022-12-01 17:16:49.931640
2022-12-01 17:16:49.940576
2022-12-01 17:16:49.948208
2022-12-01 17:16:49.961440
2022-12-01 17:16:49.969430
2022-12-01 17:16:49.977631
2022-12-01 17:16:49.985812
2022-12-01 17:16:49.998130
2022-12-01 17:16:50.006173
2022-12-01 17:16:50.014491
2022-12-01 17:16:50.027339
2022-12-01 17:16:50.035649
2022-12-01 17:16:50.043196
2022-12-01 17:16:50.050396
2022-12-01 17:16:50.063113
2022-12-01 17:16:50.071678
2022-12-01 17:16:50.080034
2022-12-01 17:16:50.095400
2022-12-01 17:16:50.101216
2022-12-01 17:16:50.108515
2022-12-01 17:16:50.116362
2022-12-01 17:16:50.128615
2022-12-01 17:16:50.136478
2022-12-01 17:16:50.145357
2022-12-01 17:16:50.153624
2022-12-01 17:16:50.165771
2022-12-01 17:16:50.173358
2022-12-01 17:16:50.182148
2022-12-01 17:16:50.194249
2022-12-01 17:16:50.201966
2022-12-01 17:16:50.210481
2022-12-01 17:16:50.218517
2022-12-01 17:16:50.230598
2022-12-01 17:16:50.239586
2022-12-01 17:16:50.247756
2022-12-01 17:16:50.260213
2022-12-01 17:16:50.268124
2022-12-01 17:16:50.275984
2022-12-01 17:16:50.284886
2022-12-01 17:16:50.296834
2022-12-01 17:16:50.305113
2022-12-01 17:16:50.314024
2022-12-01 17:16:50.324775
2022-12-01 17:16:50.333068
2022-12-01 17:16:50.341156
2022-12-01 17:16:50.350252
2022-12-01 17:16:50.361956
2022-12-01 17:16:50.370128
2022-12-01 17:16:50.378622
2022-12-01 17:16:50.391412
2022-12-01 17:16:50.398812
2022-12-01 17:16:50.407845
2022-12-01 17:16:50.415646
2022-12-01 17:16:50.428229
2022-12-01 17:16:50.436318
2022-12-01 17:16:50.444329
2022-12-01 17:16:50.456736
2022-12-01 17:16:50.464727
2022-12-01 17:16:50.473454
2022-12-01 17:16:50.481325
2022-12-01 17:16:50.493780
2022-12-01 17:16:50.501538
2022-12-01 17:16:50.510145
2022-12-01 17:16:50.522429
2022-12-01 17:16:50.530113
2022-12-01 17:16:50.538271
2022-12-01 17:16:50.546599
2022-12-01 17:16:50.559282
2022-12-01 17:16:50.567258
2022-12-01 17:16:50.575656
2022-12-01 17:16:50.587528
2022-12-01 17:16:50.595358
2022-12-01 17:16:50.604306
2022-12-01 17:16:50.612323
2022-12-01 17:16:50.624463
2022-12-01 17:16:50.632414
2022-12-01 17:16:50.641177
2022-12-01 17:16:50.654026
2022-12-01 17:16:50.662194
2022-12-01 17:16:50.670397
2022-12-01 17:16:50.678587
2022-12-01 17:16:50.690906
2022-12-01 17:16:50.698051
2022-12-01 17:16:50.706833
2022-12-01 17:16:50.718145
2022-12-01 17:16:50.727819
2022-12-01 17:16:50.734831
2022-12-01 17:16:50.743401
2022-12-01 17:16:50.755959
2022-12-01 17:16:50.763532
2022-12-01 17:16:50.772306
2022-12-01 17:16:50.785080
2022-12-01 17:16:50.793299
2022-12-01 17:16:50.800884
2022-12-01 17:16:50.809536
2022-12-01 17:16:50.821952
2022-12-01 17:16:50.829739
2022-12-01 17:16:50.837747
2022-12-01 17:16:50.849758
2022-12-01 17:16:50.857926
2022-12-01 17:16:50.865900
2022-12-01 17:16:50.874165
2022-12-01 17:16:50.886422
2022-12-01 17:16:50.895160
2022-12-01 17:16:50.902836
2022-12-01 17:16:50.914502
2022-12-01 17:16:50.923826
2022-12-01 17:16:50.931122
2022-12-01 17:16:50.940174
2022-12-01 17:16:50.951567
2022-12-01 17:16:50.960318
2022-12-01 17:16:50.968800
2022-12-01 17:16:50.977603
2022-12-01 17:16:50.989257
2022-12-01 17:16:50.997364
2022-12-01 17:16:51.006278
2022-12-01 17:16:51.018562
2022-12-01 17:16:51.026359
2022-12-01 17:16:51.033580
2022-12-01 17:16:51.043406
2022-12-01 17:16:51.055420
2022-12-01 17:16:51.063640
2022-12-01 17:16:51.071829
2022-12-01 17:16:51.083365
2022-12-01 17:16:51.091421
2022-12-01 17:16:51.099887
2022-12-01 17:16:51.108281
2022-12-01 17:16:51.120542
2022-12-01 17:16:51.129171
2022-12-01 17:16:51.136958
2022-12-01 17:16:51.147992
2022-12-01 17:16:51.157446
2022-12-01 17:16:51.165383
2022-12-01 17:16:51.174107
2022-12-01 17:16:51.185369
2022-12-01 17:16:51.194385
2022-12-01 17:16:51.202908
2022-12-01 17:16:51.213779
2022-12-01 17:16:51.223369
2022-12-01 17:16:51.230479
2022-12-01 17:16:51.239824
2022-12-01 17:16:51.251654
2022-12-01 17:16:51.259531
2022-12-01 17:16:51.267863
2022-12-01 17:16:51.280259
2022-12-01 17:16:51.288326
2022-12-01 17:16:51.297114
2022-12-01 17:16:51.305547
2022-12-01 17:16:51.316630
2022-12-01 17:16:51.325823
2022-12-01 17:16:51.333133
2022-12-01 17:16:51.346274
2022-12-01 17:16:51.353058
2022-12-01 17:16:51.362421
2022-12-01 17:16:51.370068
2022-12-01 17:16:51.381791
2022-12-01 17:16:51.390846
2022-12-01 17:16:51.398601
2022-12-01 17:16:51.411650
2022-12-01 17:16:51.419652
2022-12-01 17:16:51.427685
2022-12-01 17:16:51.435903
2022-12-01 17:16:51.447369
2022-12-01 17:16:51.456316
2022-12-01 17:16:51.464272
2022-12-01 17:16:51.476497
2022-12-01 17:16:51.484923
2022-12-01 17:16:51.492812
2022-12-01 17:16:51.501632
2022-12-01 17:16:51.514200
2022-12-01 17:16:51.521785
2022-12-01 17:16:51.530335
2022-12-01 17:16:51.542288
2022-12-01 17:16:51.550231
2022-12-01 17:16:51.559244
2022-12-01 17:16:51.566546
2022-12-01 17:16:51.579645
2022-12-01 17:16:51.587661
2022-12-01 17:16:51.595654
2022-12-01 17:16:51.607899
2022-12-01 17:16:51.615951
2022-12-01 17:16:51.624305
2022-12-01 17:16:51.632640
2022-12-01 17:16:51.643674
2022-12-01 17:16:51.652681
2022-12-01 17:16:51.661028
2022-12-01 17:16:51.673910
2022-12-01 17:16:51.680984
2022-12-01 17:16:51.690621
2022-12-01 17:16:51.697659
2022-12-01 17:16:51.710834
2022-12-01 17:16:51.719003
2022-12-01 17:16:51.726673
2022-12-01 17:16:51.738637
2022-12-01 17:16:51.747620
2022-12-01 17:16:51.754969
2022-12-01 17:16:51.763163
2022-12-01 17:16:51.775244
2022-12-01 17:16:51.783694
2022-12-01 17:16:51.792078
2022-12-01 17:16:51.800609
2022-12-01 17:16:51.812416
2022-12-01 17:16:51.820624
2022-12-01 17:16:51.828975
2022-12-01 17:16:51.841351
2022-12-01 17:16:51.849398
2022-12-01 17:16:51.857743
2022-12-01 17:16:51.865003
2022-12-01 17:16:51.878703
2022-12-01 17:16:51.886395
2022-12-01 17:16:51.893689
2022-12-01 17:16:51.906515
2022-12-01 17:16:51.914229
2022-12-01 17:16:51.923849
2022-12-01 17:16:51.930884
2022-12-01 17:16:51.943772
2022-12-01 17:16:51.952003
2022-12-01 17:16:51.959705
2022-12-01 17:16:51.972096
2022-12-01 17:16:51.980393
2022-12-01 17:16:51.988425
2022-12-01 17:16:51.996909
2022-12-01 17:16:52.009334
2022-12-01 17:16:52.017287
2022-12-01 17:16:52.025644
2022-12-01 17:16:52.037163
2022-12-01 17:16:52.045631
2022-12-01 17:16:52.053718
2022-12-01 17:16:52.061977
2022-12-01 17:16:52.073810
2022-12-01 17:16:52.082862
2022-12-01 17:16:52.091026
2022-12-01 17:16:52.102768
2022-12-01 17:16:52.111024
2022-12-01 17:16:52.118973
2022-12-01 17:16:52.127434
2022-12-01 17:16:52.139681
2022-12-01 17:16:52.147896
2022-12-01 17:16:52.156092
2022-12-01 17:16:52.168169
2022-12-01 17:16:52.177025
2022-12-01 17:16:52.185383
2022-12-01 17:16:52.193036
2022-12-01 17:16:52.204807
2022-12-01 17:16:52.213119
2022-12-01 17:16:52.222017
2022-12-01 17:16:52.233710
2022-12-01 17:16:52.242449
2022-12-01 17:16:52.250436
2022-12-01 17:16:52.258291
2022-12-01 17:16:52.270523
2022-12-01 17:16:52.278748
2022-12-01 17:16:52.287636
2022-12-01 17:16:52.299544
2022-12-01 17:16:52.308317
2022-12-01 17:16:52.316185
2022-12-01 17:16:52.324420
2022-12-01 17:16:52.337497
2022-12-01 17:16:52.345144
2022-12-01 17:16:52.353876
2022-12-01 17:16:52.365216
2022-12-01 17:16:52.374447
2022-12-01 17:16:52.381345
2022-12-01 17:16:52.389459
2022-12-01 17:16:52.402507
2022-12-01 17:16:52.410726
2022-12-01 17:16:52.418909
2022-12-01 17:16:52.430506
2022-12-01 17:16:52.439886
2022-12-01 17:16:52.447351
2022-12-01 17:16:52.455781
2022-12-01 17:16:52.467812
2022-12-01 17:16:52.476220
2022-12-01 17:16:52.484247
2022-12-01 17:16:52.496595
2022-12-01 17:16:52.505432
2022-12-01 17:16:52.513085
2022-12-01 17:16:52.521237
2022-12-01 17:16:52.533377
2022-12-01 17:16:52.542266
2022-12-01 17:16:52.549702
2022-12-01 17:16:52.562841
2022-12-01 17:16:52.570452
2022-12-01 17:16:52.579138
2022-12-01 17:16:52.587362
2022-12-01 17:16:52.598063
2022-12-01 17:16:52.606589
2022-12-01 17:16:52.614649
2022-12-01 17:16:52.627833
2022-12-01 17:16:52.635778
2022-12-01 17:16:52.643883
2022-12-01 17:16:52.652177
2022-12-01 17:16:52.663517
2022-12-01 17:16:52.673390
2022-12-01 17:16:52.680489
2022-12-01 17:16:52.689749
2022-12-01 17:16:52.701298
2022-12-01 17:16:52.710210
2022-12-01 17:16:52.717967
2022-12-01 17:16:52.729066
2022-12-01 17:16:52.737553
2022-12-01 17:16:52.746245
2022-12-01 17:16:52.755308
2022-12-01 17:16:52.766918
2022-12-01 17:16:52.775244
2022-12-01 17:16:52.783370
2022-12-01 17:16:52.795775
2022-12-01 17:16:52.803912
2022-12-01 17:16:52.812118
2022-12-01 17:16:52.821111
2022-12-01 17:16:52.832529
2022-12-01 17:16:52.841320
2022-12-01 17:16:52.848200
2022-12-01 17:16:52.861843
2022-12-01 17:16:52.869275
2022-12-01 17:16:52.878179
2022-12-01 17:16:52.886354
2022-12-01 17:16:52.897537
2022-12-01 17:16:52.906449
2022-12-01 17:16:52.914167
2022-12-01 17:16:52.927309
2022-12-01 17:16:52.935538
2022-12-01 17:16:52.943313
2022-12-01 17:16:52.951902
2022-12-01 17:16:52.963250
2022-12-01 17:16:52.971894
2022-12-01 17:16:52.980121
2022-12-01 17:16:52.991730
2022-12-01 17:16:53.000488
2022-12-01 17:16:53.008674
2022-12-01 17:16:53.016910
2022-12-01 17:16:53.029186
2022-12-01 17:16:53.037810
2022-12-01 17:16:53.045325
2022-12-01 17:16:53.057942
2022-12-01 17:16:53.065765
2022-12-01 17:16:53.074764
2022-12-01 17:16:53.082219
2022-12-01 17:16:53.095265
2022-12-01 17:16:53.103333
2022-12-01 17:16:53.111628
2022-12-01 17:16:53.123460
2022-12-01 17:16:53.130620
2022-12-01 17:16:53.139828
2022-12-01 17:16:53.147358
2022-12-01 17:16:53.160072
2022-12-01 17:16:53.168443
2022-12-01 17:16:53.175601
2022-12-01 17:16:53.188706
2022-12-01 17:16:53.196673
2022-12-01 17:16:53.204996
2022-12-01 17:16:53.213313
2022-12-01 17:16:53.225794
2022-12-01 17:16:53.233990
2022-12-01 17:16:53.241891
2022-12-01 17:16:53.253119
2022-12-01 17:16:53.262649
2022-12-01 17:16:53.270572
2022-12-01 17:16:53.279568
2022-12-01 17:16:53.291665
2022-12-01 17:16:53.299536
2022-12-01 17:16:53.307750
2022-12-01 17:16:53.320079
2022-12-01 17:16:53.328608
2022-12-01 17:16:53.336411
2022-12-01 17:16:53.344528
2022-12-01 17:16:53.356662
2022-12-01 17:16:53.364915
2022-12-01 17:16:53.373517
2022-12-01 17:16:53.386067
2022-12-01 17:16:53.393638
2022-12-01 17:16:53.402450
2022-12-01 17:16:53.410089
2022-12-01 17:16:53.421988
2022-12-01 17:16:53.430017
2022-12-01 17:16:53.437537
2022-12-01 17:16:53.451633
2022-12-01 17:16:53.459679
2022-12-01 17:16:53.467775
2022-12-01 17:16:53.475718
2022-12-01 17:16:53.487979
2022-12-01 17:16:53.496200
2022-12-01 17:16:53.504326
2022-12-01 17:16:53.515804
2022-12-01 17:16:53.524433
2022-12-01 17:16:53.532439
2022-12-01 17:16:53.541247
2022-12-01 17:16:53.554007
2022-12-01 17:16:53.561267
2022-12-01 17:16:53.570366
2022-12-01 17:16:53.577915
2022-12-01 17:16:53.590900
2022-12-01 17:16:53.598504
2022-12-01 17:16:53.607573
2022-12-01 17:16:53.619085
2022-12-01 17:16:53.627676
2022-12-01 17:16:53.635676
2022-12-01 17:16:53.643680
2022-12-01 17:16:53.655761
2022-12-01 17:16:53.663542
2022-12-01 17:16:53.672267
2022-12-01 17:16:53.684241
2022-12-01 17:16:53.692429
2022-12-01 17:16:53.700461
2022-12-01 17:16:53.709070
2022-12-01 17:16:53.721938
2022-12-01 17:16:53.730153
2022-12-01 17:16:53.738337
2022-12-01 17:16:53.749662
2022-12-01 17:16:53.758854
2022-12-01 17:16:53.765989
2022-12-01 17:16:53.775081
2022-12-01 17:16:53.787466
2022-12-01 17:16:53.795677
2022-12-01 17:16:53.803676
2022-12-01 17:16:53.814871
2022-12-01 17:16:53.822750
2022-12-01 17:16:53.831486
2022-12-01 17:16:53.840254
2022-12-01 17:16:53.852439
2022-12-01 17:16:53.860437
2022-12-01 17:16:53.868973
2022-12-01 17:16:53.881007
2022-12-01 17:16:53.889689
2022-12-01 17:16:53.896766
2022-12-01 17:16:53.906279
2022-12-01 17:16:53.916748
2022-12-01 17:16:53.926751
2022-12-01 17:16:53.933224
2022-12-01 17:16:53.946584
2022-12-01 17:16:53.954952
2022-12-01 17:16:53.962687
2022-12-01 17:16:53.971383
2022-12-01 17:16:53.983936
2022-12-01 17:16:53.991753
2022-12-01 17:16:53.999985
2022-12-01 17:16:54.011998
2022-12-01 17:16:54.020440
2022-12-01 17:16:54.028377
2022-12-01 17:16:54.036527
2022-12-01 17:16:54.048863
2022-12-01 17:16:54.057112
2022-12-01 17:16:54.065377
2022-12-01 17:16:54.078314
2022-12-01 17:16:54.085463
2022-12-01 17:16:54.094667
2022-12-01 17:16:54.102371
2022-12-01 17:16:54.114349
2022-12-01 17:16:54.123059
2022-12-01 17:16:54.131021
2022-12-01 17:16:54.143858
2022-12-01 17:16:54.150893
2022-12-01 17:16:54.159940
2022-12-01 17:16:54.167170
2022-12-01 17:16:54.179481
2022-12-01 17:16:54.188423
2022-12-01 17:16:54.196591
2022-12-01 17:16:54.209405
2022-12-01 17:16:54.217557
2022-12-01 17:16:54.225287
2022-12-01 17:16:54.233985
2022-12-01 17:16:54.245874
2022-12-01 17:16:54.253931
2022-12-01 17:16:54.262022
2022-12-01 17:16:54.274083
2022-12-01 17:16:54.282353
2022-12-01 17:16:54.290720
2022-12-01 17:16:54.298738
2022-12-01 17:16:54.310419
2022-12-01 17:16:54.318838
2022-12-01 17:16:54.326814
2022-12-01 17:16:54.339780
2022-12-01 17:16:54.348607
2022-12-01 17:16:54.355548
2022-12-01 17:16:54.363580
2022-12-01 17:16:54.376793
2022-12-01 17:16:54.385066
2022-12-01 17:16:54.393172
2022-12-01 17:16:54.405439
2022-12-01 17:16:54.413185
2022-12-01 17:16:54.422376
2022-12-01 17:16:54.429525
2022-12-01 17:16:54.441930
2022-12-01 17:16:54.451035
2022-12-01 17:16:54.458558
2022-12-01 17:16:54.466893
2022-12-01 17:16:54.478309
2022-12-01 17:16:54.487147
2022-12-01 17:16:54.494823
2022-12-01 17:16:54.507741
2022-12-01 17:16:54.515950
2022-12-01 17:16:54.523481
2022-12-01 17:16:54.531550
2022-12-01 17:16:54.545145
2022-12-01 17:16:54.552612
2022-12-01 17:16:54.561508
2022-12-01 17:16:54.573956
2022-12-01 17:16:54.581640
2022-12-01 17:16:54.589760
2022-12-01 17:16:54.597882
2022-12-01 17:16:54.610209
2022-12-01 17:16:54.618490
2022-12-01 17:16:54.626686
2022-12-01 17:16:54.638924
2022-12-01 17:16:54.646972
2022-12-01 17:16:54.655864
2022-12-01 17:16:54.662966
2022-12-01 17:16:54.674785
2022-12-01 17:16:54.683999
2022-12-01 17:16:54.692012
2022-12-01 17:16:54.704037
2022-12-01 17:16:54.712585
2022-12-01 17:16:54.720649
2022-12-01 17:16:54.728651
2022-12-01 17:16:54.741117
2022-12-01 17:16:54.749066
2022-12-01 17:16:54.757425
2022-12-01 17:16:54.769171
2022-12-01 17:16:54.777220
2022-12-01 17:16:54.785806
2022-12-01 17:16:54.794361
2022-12-01 17:16:54.806258
2022-12-01 17:16:54.814832
2022-12-01 17:16:54.822390
2022-12-01 17:16:54.834430
2022-12-01 17:16:54.843390
2022-12-01 17:16:54.851970
2022-12-01 17:16:54.860283
2022-12-01 17:16:54.872084
2022-12-01 17:16:54.879720
2022-12-01 17:16:54.889302
2022-12-01 17:16:54.901149
2022-12-01 17:16:54.909280
2022-12-01 17:16:54.917475
2022-12-01 17:16:54.926207
2022-12-01 17:16:54.937675
2022-12-01 17:16:54.946353
2022-12-01 17:16:54.953921
2022-12-01 17:16:54.967363
2022-12-01 17:16:54.975213
2022-12-01 17:16:54.983322
2022-12-01 17:16:54.991327
2022-12-01 17:16:55.002635
2022-12-01 17:16:55.011625
2022-12-01 17:16:55.019908
2022-12-01 17:16:55.031752
2022-12-01 17:16:55.040372
2022-12-01 17:16:55.048365
2022-12-01 17:16:55.056714
2022-12-01 17:16:55.068942
2022-12-01 17:16:55.076680
2022-12-01 17:16:55.085388
2022-12-01 17:16:55.097147
2022-12-01 17:16:55.105870
2022-12-01 17:16:55.113616
2022-12-01 17:16:55.122322
2022-12-01 17:16:55.133982
2022-12-01 17:16:55.142006
2022-12-01 17:16:55.150327
2022-12-01 17:16:55.162859
2022-12-01 17:16:55.170539
2022-12-01 17:16:55.178861
2022-12-01 17:16:55.187547
2022-12-01 17:16:55.199996
2022-12-01 17:16:55.207941
2022-12-01 17:16:55.216502
2022-12-01 17:16:55.228451
2022-12-01 17:16:55.236735
2022-12-01 17:16:55.245120
2022-12-01 17:16:55.253864
2022-12-01 17:16:55.264938
2022-12-01 17:16:55.274073
2022-12-01 17:16:55.281664
2022-12-01 17:16:55.293995
2022-12-01 17:16:55.301807
2022-12-01 17:16:55.310612
2022-12-01 17:16:55.318305
2022-12-01 17:16:55.330226
2022-12-01 17:16:55.339165
2022-12-01 17:16:55.346744
2022-12-01 17:16:55.355510
2022-12-01 17:16:55.367904
2022-12-01 17:16:55.375762
2022-12-01 17:16:55.383586
2022-12-01 17:16:55.395709
2022-12-01 17:16:55.404634
2022-12-01 17:16:55.412142
2022-12-01 17:16:55.420944
2022-12-01 17:16:55.432636
2022-12-01 17:16:55.441339
2022-12-01 17:16:55.449890
2022-12-01 17:16:55.462003
2022-12-01 17:16:55.470288
2022-12-01 17:16:55.478413
2022-12-01 17:16:55.485939
2022-12-01 17:16:55.498424
2022-12-01 17:16:55.506818
2022-12-01 17:16:55.515329
2022-12-01 17:16:55.527378
2022-12-01 17:16:55.536046
2022-12-01 17:16:55.544023
2022-12-01 17:16:55.552397
2022-12-01 17:16:55.563780
2022-12-01 17:16:55.572546
2022-12-01 17:16:55.580434
2022-12-01 17:16:55.593878
2022-12-01 17:16:55.601327
2022-12-01 17:16:55.610200
2022-12-01 17:16:55.618444
2022-12-01 17:16:55.629737
2022-12-01 17:16:55.638500
2022-12-01 17:16:55.646059
2022-12-01 17:16:55.659397
2022-12-01 17:16:55.667764
2022-12-01 17:16:55.674982
2022-12-01 17:16:55.682980
2022-12-01 17:16:55.695936
2022-12-01 17:16:55.703934
2022-12-01 17:16:55.712078
2022-12-01 17:16:55.724398
2022-12-01 17:16:55.732244
2022-12-01 17:16:55.740463
2022-12-01 17:16:55.748265
2022-12-01 17:16:55.760612
2022-12-01 17:16:55.770001
2022-12-01 17:16:55.777605
2022-12-01 17:16:55.790545
2022-12-01 17:16:55.797887
2022-12-01 17:16:55.806634
2022-12-01 17:16:55.814282
2022-12-01 17:16:55.827312
2022-12-01 17:16:55.834984
2022-12-01 17:16:55.843693
2022-12-01 17:16:55.854857
2022-12-01 17:16:55.863143
2022-12-01 17:16:55.871319
2022-12-01 17:16:55.879591
2022-12-01 17:16:55.892113
2022-12-01 17:16:55.900279
2022-12-01 17:16:55.908464
2022-12-01 17:16:55.921529
2022-12-01 17:16:55.929282
2022-12-01 17:16:55.937400
2022-12-01 17:16:55.945056
2022-12-01 17:16:55.957835
2022-12-01 17:16:55.965859
2022-12-01 17:16:55.974234
2022-12-01 17:16:55.986568
2022-12-01 17:16:55.994091
2022-12-01 17:16:56.003429
2022-12-01 17:16:56.011625
2022-12-01 17:16:56.023144
2022-12-01 17:16:56.030863
2022-12-01 17:16:56.038820
2022-12-01 17:16:56.051855
2022-12-01 17:16:56.060274
2022-12-01 17:16:56.068439
2022-12-01 17:16:56.076465
2022-12-01 17:16:56.088964
2022-12-01 17:16:56.096895
2022-12-01 17:16:56.105472
2022-12-01 17:16:56.117039
2022-12-01 17:16:56.126320
2022-12-01 17:16:56.133644
2022-12-01 17:16:56.142697
2022-12-01 17:16:56.154554
2022-12-01 17:16:56.162534
2022-12-01 17:16:56.171386
2022-12-01 17:16:56.182820
2022-12-01 17:16:56.191874
2022-12-01 17:16:56.199958
2022-12-01 17:16:56.207678
2022-12-01 17:16:56.219339
2022-12-01 17:16:56.228149
2022-12-01 17:16:56.236398
2022-12-01 17:16:56.244396
2022-12-01 17:16:56.256894
2022-12-01 17:16:56.264847
2022-12-01 17:16:56.272065
2022-12-01 17:16:56.285377
2022-12-01 17:16:56.294271
2022-12-01 17:16:56.301230
2022-12-01 17:16:56.310657
2022-12-01 17:16:56.321771
2022-12-01 17:16:56.329951
2022-12-01 17:16:56.338750
2022-12-01 17:16:56.350869
2022-12-01 17:16:56.359242
2022-12-01 17:16:56.367505
2022-12-01 17:16:56.375699
2022-12-01 17:16:56.387310
2022-12-01 17:16:56.396220
2022-12-01 17:16:56.403520
2022-12-01 17:16:56.416290
2022-12-01 17:16:56.423917
2022-12-01 17:16:56.432656
2022-12-01 17:16:56.440643
2022-12-01 17:16:56.453726
2022-12-01 17:16:56.462228
2022-12-01 17:16:56.470542
2022-12-01 17:16:56.482151
2022-12-01 17:16:56.490088
2022-12-01 17:16:56.498062
2022-12-01 17:16:56.507272
2022-12-01 17:16:56.518765
2022-12-01 17:16:56.527758
2022-12-01 17:16:56.535510
2022-12-01 17:16:56.546709
2022-12-01 17:16:56.555896
2022-12-01 17:16:56.563377
2022-12-01 17:16:56.572261
2022-12-01 17:16:56.585094
2022-12-01 17:16:56.593292
2022-12-01 17:16:56.600752
2022-12-01 17:16:56.612167
2022-12-01 17:16:56.621326
2022-12-01 17:16:56.628636
2022-12-01 17:16:56.638320
2022-12-01 17:16:56.650621
2022-12-01 17:16:56.658031
2022-12-01 17:16:56.667015
2022-12-01 17:16:56.678983
2022-12-01 17:16:56.687338
2022-12-01 17:16:56.695646
2022-12-01 17:16:56.702590
2022-12-01 17:16:56.715606
2022-12-01 17:16:56.723835
2022-12-01 17:16:56.731970
2022-12-01 17:16:56.744362
2022-12-01 17:16:56.753049
2022-12-01 17:16:56.761227
2022-12-01 17:16:56.769405
2022-12-01 17:16:56.780518
2022-12-01 17:16:56.789886
2022-12-01 17:16:56.797827
2022-12-01 17:16:56.810361
2022-12-01 17:16:56.817645
2022-12-01 17:16:56.826016
2022-12-01 17:16:56.834407
2022-12-01 17:16:56.845575
2022-12-01 17:16:56.854870
2022-12-01 17:16:56.863097
2022-12-01 17:16:56.874906
2022-12-01 17:16:56.883713
2022-12-01 17:16:56.891795
2022-12-01 17:16:56.900019
2022-12-01 17:16:56.912103
2022-12-01 17:16:56.920131
2022-12-01 17:16:56.928887
2022-12-01 17:16:56.940706
2022-12-01 17:16:56.948683
2022-12-01 17:16:56.957320
2022-12-01 17:16:56.965257
2022-12-01 17:16:56.978316
2022-12-01 17:16:56.986494
2022-12-01 17:16:56.994460
2022-12-01 17:16:57.006966
2022-12-01 17:16:57.014067
2022-12-01 17:16:57.022860
2022-12-01 17:16:57.031117
2022-12-01 17:16:57.042992
2022-12-01 17:16:57.051528
2022-12-01 17:16:57.059411
2022-12-01 17:16:57.067909
2022-12-01 17:16:57.079845
2022-12-01 17:16:57.088361
2022-12-01 17:16:57.096497
2022-12-01 17:16:57.108664
2022-12-01 17:16:57.116888
2022-12-01 17:16:57.125180
2022-12-01 17:16:57.133351
2022-12-01 17:16:57.145475
2022-12-01 17:16:57.153650
2022-12-01 17:16:57.162128
2022-12-01 17:16:57.174913
2022-12-01 17:16:57.182589
2022-12-01 17:16:57.190416
2022-12-01 17:16:57.199018
2022-12-01 17:16:57.212224
2022-12-01 17:16:57.219724
2022-12-01 17:16:57.227128
2022-12-01 17:16:57.239745
2022-12-01 17:16:57.247879
2022-12-01 17:16:57.256366
2022-12-01 17:16:57.264251
2022-12-01 17:16:57.276564
2022-12-01 17:16:57.284743
2022-12-01 17:16:57.293351
2022-12-01 17:16:57.305484
2022-12-01 17:16:57.312938
2022-12-01 17:16:57.320808
2022-12-01 17:16:57.329566
2022-12-01 17:16:57.342351
2022-12-01 17:16:57.350403
2022-12-01 17:16:57.358676
2022-12-01 17:16:57.370648
2022-12-01 17:16:57.379166
2022-12-01 17:16:57.387722
2022-12-01 17:16:57.395361
2022-12-01 17:16:57.407965
2022-12-01 17:16:57.415851
2022-12-01 17:16:57.424284
2022-12-01 17:16:57.436519
2022-12-01 17:16:57.444056
2022-12-01 17:16:57.453176
2022-12-01 17:16:57.459957
2022-12-01 17:16:57.473937
2022-12-01 17:16:57.481516
2022-12-01 17:16:57.490945
2022-12-01 17:16:57.502580
2022-12-01 17:16:57.510804
2022-12-01 17:16:57.518987
2022-12-01 17:16:57.526530
2022-12-01 17:16:57.538782
2022-12-01 17:16:57.546320
2022-12-01 17:16:57.554986
2022-12-01 17:16:57.567983
2022-12-01 17:16:57.575966
2022-12-01 17:16:57.584252
2022-12-01 17:16:57.592268
2022-12-01 17:16:57.604398
2022-12-01 17:16:57.611831
2022-12-01 17:16:57.620482
2022-12-01 17:16:57.632608
2022-12-01 17:16:57.641888
2022-12-01 17:16:57.649298
2022-12-01 17:16:57.658252
2022-12-01 17:16:57.670522
2022-12-01 17:16:57.677893
2022-12-01 17:16:57.686366
2022-12-01 17:16:57.698141
2022-12-01 17:16:57.706839
2022-12-01 17:16:57.714261
2022-12-01 17:16:57.722254
2022-12-01 17:16:57.734923
2022-12-01 17:16:57.742959
2022-12-01 17:16:57.751929
2022-12-01 17:16:57.763990
2022-12-01 17:16:57.772928
2022-12-01 17:16:57.780230
2022-12-01 17:16:57.788641
2022-12-01 17:16:57.801602
2022-12-01 17:16:57.809809
2022-12-01 17:16:57.818245
2022-12-01 17:16:57.829403
2022-12-01 17:16:57.838105
2022-12-01 17:16:57.845826
2022-12-01 17:16:57.854188
2022-12-01 17:16:57.866458
2022-12-01 17:16:57.875309
2022-12-01 17:16:57.882563
2022-12-01 17:16:57.895282
2022-12-01 17:16:57.902489
2022-12-01 17:16:57.912117
2022-12-01 17:16:57.919159
2022-12-01 17:16:57.931512
2022-12-01 17:16:57.940379
2022-12-01 17:16:57.948414
2022-12-01 17:16:57.956486
2022-12-01 17:16:57.969546
2022-12-01 17:16:57.977717
2022-12-01 17:16:57.985940
2022-12-01 17:16:57.996685
2022-12-01 17:16:58.005810
2022-12-01 17:16:58.013798
2022-12-01 17:16:58.022056
2022-12-01 17:16:58.034558
2022-12-01 17:16:58.043282
2022-12-01 17:16:58.050761
2022-12-01 17:16:58.062770
2022-12-01 17:16:58.071446
2022-12-01 17:16:58.079076
2022-12-01 17:16:58.087989
2022-12-01 17:16:58.100023
2022-12-01 17:16:58.108279
2022-12-01 17:16:58.116465
2022-12-01 17:16:58.128499
2022-12-01 17:16:58.137472
2022-12-01 17:16:58.144902
2022-12-01 17:16:58.152763
2022-12-01 17:16:58.166153
2022-12-01 17:16:58.174182
2022-12-01 17:16:58.182549
2022-12-01 17:16:58.194575
2022-12-01 17:16:58.202328
2022-12-01 17:16:58.210724
2022-12-01 17:16:58.218971
2022-12-01 17:16:58.230925
2022-12-01 17:16:58.239902
2022-12-01 17:16:58.247316
2022-12-01 17:16:58.259326
2022-12-01 17:16:58.267906
2022-12-01 17:16:58.276167
2022-12-01 17:16:58.284350
2022-12-01 17:16:58.296334
2022-12-01 17:16:58.304920
2022-12-01 17:16:58.312264
2022-12-01 17:16:58.325008
2022-12-01 17:16:58.332641
2022-12-01 17:16:58.340888
2022-12-01 17:16:58.348785
2022-12-01 17:16:58.361978
2022-12-01 17:16:58.370346
2022-12-01 17:16:58.378185
2022-12-01 17:16:58.390543
2022-12-01 17:16:58.398512
2022-12-01 17:16:58.407305
2022-12-01 17:16:58.415645
2022-12-01 17:16:58.427811
2022-12-01 17:16:58.435727
2022-12-01 17:16:58.444210
2022-12-01 17:16:58.456249
2022-12-01 17:16:58.464137
2022-12-01 17:16:58.471860
2022-12-01 17:16:58.480723
2022-12-01 17:16:58.493227
2022-12-01 17:16:58.501009
2022-12-01 17:16:58.509425
2022-12-01 17:16:58.522492
2022-12-01 17:16:58.530107
2022-12-01 17:16:58.538405
2022-12-01 17:16:58.545723
2022-12-01 17:16:58.558622
2022-12-01 17:16:58.566141
2022-12-01 17:16:58.575234
2022-12-01 17:16:58.586800
2022-12-01 17:16:58.594825
2022-12-01 17:16:58.603209
2022-12-01 17:16:58.611443
2022-12-01 17:16:58.623487
2022-12-01 17:16:58.632439
2022-12-01 17:16:58.640620
2022-12-01 17:16:58.652624
2022-12-01 17:16:58.661015
2022-12-01 17:16:58.669104
2022-12-01 17:16:58.677402
2022-12-01 17:16:58.689400
2022-12-01 17:16:58.697660
2022-12-01 17:16:58.706140
2022-12-01 17:16:58.717695
2022-12-01 17:16:58.726623
2022-12-01 17:16:58.734476
2022-12-01 17:16:58.743105
2022-12-01 17:16:58.755463
2022-12-01 17:16:58.763289
2022-12-01 17:16:58.771598
2022-12-01 17:16:58.784094
2022-12-01 17:16:58.791856
2022-12-01 17:16:58.800494
2022-12-01 17:16:58.808250
2022-12-01 17:16:58.820059
2022-12-01 17:16:58.828269
2022-12-01 17:16:58.836858
2022-12-01 17:16:58.844868
2022-12-01 17:16:58.857204
2022-12-01 17:16:58.865292
2022-12-01 17:16:58.874056
2022-12-01 17:16:58.885542
2022-12-01 17:16:58.894006
2022-12-01 17:16:58.902777
2022-12-01 17:16:58.910889
2022-12-01 17:16:58.922875
2022-12-01 17:16:58.931052
2022-12-01 17:16:58.939501
2022-12-01 17:16:58.951479
2022-12-01 17:16:58.959494
2022-12-01 17:16:58.967949
2022-12-01 17:16:58.976462
2022-12-01 17:16:58.987894
2022-12-01 17:16:58.996288
2022-12-01 17:16:59.005131
2022-12-01 17:16:59.017007
2022-12-01 17:16:59.024919
2022-12-01 17:16:59.033843
2022-12-01 17:16:59.041680
2022-12-01 17:16:59.054301
2022-12-01 17:16:59.062519
2022-12-01 17:16:59.070398
2022-12-01 17:16:59.082828
2022-12-01 17:16:59.091170
2022-12-01 17:16:59.099202
2022-12-01 17:16:59.106873
2022-12-01 17:16:59.119494
2022-12-01 17:16:59.127882
2022-12-01 17:16:59.136150
2022-12-01 17:16:59.147636
2022-12-01 17:16:59.156650
2022-12-01 17:16:59.165086
2022-12-01 17:16:59.173186
2022-12-01 17:16:59.186071
2022-12-01 17:16:59.193795
2022-12-01 17:16:59.202438
2022-12-01 17:16:59.213572
2022-12-01 17:16:59.222932
2022-12-01 17:16:59.230183
2022-12-01 17:16:59.238828
2022-12-01 17:16:59.251607
2022-12-01 17:16:59.259526
2022-12-01 17:16:59.267751
2022-12-01 17:16:59.278994
2022-12-01 17:16:59.287753
2022-12-01 17:16:59.295612
2022-12-01 17:16:59.304325
2022-12-01 17:16:59.316174
2022-12-01 17:16:59.324503
2022-12-01 17:16:59.332860
2022-12-01 17:16:59.344504
2022-12-01 17:16:59.353573
2022-12-01 17:16:59.361263
2022-12-01 17:16:59.370354
2022-12-01 17:16:59.381273
2022-12-01 17:16:59.390898
2022-12-01 17:16:59.398430
2022-12-01 17:16:59.410272
2022-12-01 17:16:59.419560
2022-12-01 17:16:59.425905
2022-12-01 17:16:59.435734
2022-12-01 17:16:59.447997
2022-12-01 17:16:59.455676
2022-12-01 17:16:59.463647
2022-12-01 17:16:59.476327
2022-12-01 17:16:59.484496
2022-12-01 17:16:59.492436
2022-12-01 17:16:59.500728
2022-12-01 17:16:59.513012
2022-12-01 17:16:59.520946
2022-12-01 17:16:59.528943
2022-12-01 17:16:59.540823
2022-12-01 17:16:59.549794
2022-12-01 17:16:59.557918
2022-12-01 17:16:59.566234
2022-12-01 17:16:59.578002
2022-12-01 17:16:59.586901
2022-12-01 17:16:59.594616
2022-12-01 17:16:59.606306
2022-12-01 17:16:59.615257
2022-12-01 17:16:59.623815
2022-12-01 17:16:59.631973
2022-12-01 17:16:59.644221
2022-12-01 17:16:59.652477
2022-12-01 17:16:59.660467
2022-12-01 17:16:59.668494
2022-12-01 17:16:59.681695
2022-12-01 17:16:59.689302
2022-12-01 17:16:59.697313
2022-12-01 17:16:59.710344
2022-12-01 17:16:59.718267
2022-12-01 17:16:59.726167
2022-12-01 17:16:59.733868
2022-12-01 17:16:59.746199
2022-12-01 17:16:59.754329
2022-12-01 17:16:59.763091
2022-12-01 17:16:59.775926
2022-12-01 17:16:59.783560
2022-12-01 17:16:59.791985
2022-12-01 17:16:59.799982
2022-12-01 17:16:59.811740
2022-12-01 17:16:59.820437
2022-12-01 17:16:59.828352
2022-12-01 17:16:59.840652
2022-12-01 17:16:59.849109
2022-12-01 17:16:59.857084
2022-12-01 17:16:59.865475
2022-12-01 17:16:59.877347
2022-12-01 17:16:59.885921
2022-12-01 17:16:59.894100
2022-12-01 17:16:59.906121
2022-12-01 17:16:59.915176
2022-12-01 17:16:59.922611
2022-12-01 17:16:59.931531
2022-12-01 17:16:59.943835
2022-12-01 17:16:59.951699
2022-12-01 17:16:59.959439
2022-12-01 17:16:59.971233
2022-12-01 17:16:59.979754
2022-12-01 17:16:59.987647
2022-12-01 17:16:59.996754
2022-12-01 17:17:00.009382
2022-12-01 17:17:00.016860
2022-12-01 17:17:00.024416
2022-12-01 17:17:00.036605
2022-12-01 17:17:00.045284
2022-12-01 17:17:00.052974
2022-12-01 17:17:00.061771
2022-12-01 17:17:00.074388
2022-12-01 17:17:00.082541
2022-12-01 17:17:00.090840
2022-12-01 17:17:00.103027
2022-12-01 17:17:00.110598
2022-12-01 17:17:00.119406
2022-12-01 17:17:00.127605
2022-12-01 17:17:00.139508
2022-12-01 17:17:00.148113
2022-12-01 17:17:00.155648
2022-12-01 17:17:00.168494
2022-12-01 17:17:00.176772
2022-12-01 17:17:00.184366
2022-12-01 17:17:00.192602
2022-12-01 17:17:00.205980
2022-12-01 17:17:00.213633
2022-12-01 17:17:00.222340
2022-12-01 17:17:00.234115
2022-12-01 17:17:00.242449
2022-12-01 17:17:00.251056
2022-12-01 17:17:00.258485
2022-12-01 17:17:00.271524
2022-12-01 17:17:00.278281
2022-12-01 17:17:00.287933
2022-12-01 17:17:00.298830
2022-12-01 17:17:00.308136
2022-12-01 17:17:00.316105
2022-12-01 17:17:00.324354
2022-12-01 17:17:00.337043
2022-12-01 17:17:00.344006
2022-12-01 17:17:00.352905
2022-12-01 17:17:00.364992
2022-12-01 17:17:00.372857
2022-12-01 17:17:00.381350
2022-12-01 17:17:00.388928
2022-12-01 17:17:00.401432
2022-12-01 17:17:00.410780
2022-12-01 17:17:00.418028
2022-12-01 17:17:00.430181
2022-12-01 17:17:00.439443
2022-12-01 17:17:00.447318
2022-12-01 17:17:00.455819
2022-12-01 17:17:00.467751
2022-12-01 17:17:00.475818
2022-12-01 17:17:00.484009
2022-12-01 17:17:00.496194
2022-12-01 17:17:00.504544
2022-12-01 17:17:00.511950
2022-12-01 17:17:00.521369
2022-12-01 17:17:00.532592
2022-12-01 17:17:00.541309
2022-12-01 17:17:00.549290
2022-12-01 17:17:00.557504
2022-12-01 17:17:00.569108
2022-12-01 17:17:00.577690
2022-12-01 17:17:00.585480
2022-12-01 17:17:00.598102
2022-12-01 17:17:00.606671
2022-12-01 17:17:00.614905
2022-12-01 17:17:00.622728
2022-12-01 17:17:00.635037
2022-12-01 17:17:00.643583
2022-12-01 17:17:00.651172
2022-12-01 17:17:00.663342
2022-12-01 17:17:00.671570
2022-12-01 17:17:00.680595
2022-12-01 17:17:00.688854
2022-12-01 17:17:00.700846
2022-12-01 17:17:00.709783
2022-12-01 17:17:00.717387
2022-12-01 17:17:00.729266
2022-12-01 17:17:00.738477
2022-12-01 17:17:00.746301
2022-12-01 17:17:00.754819
2022-12-01 17:17:00.767151
2022-12-01 17:17:00.774753
2022-12-01 17:17:00.782926
2022-12-01 17:17:00.795021
2022-12-01 17:17:00.803896
2022-12-01 17:17:00.811690
2022-12-01 17:17:00.819927
2022-12-01 17:17:00.832203
2022-12-01 17:17:00.840377
2022-12-01 17:17:00.848550
2022-12-01 17:17:00.860438
2022-12-01 17:17:00.869263
2022-12-01 17:17:00.877087
2022-12-01 17:17:00.885324
2022-12-01 17:17:00.897482
2022-12-01 17:17:00.906405
2022-12-01 17:17:00.913790
2022-12-01 17:17:00.925888
2022-12-01 17:17:00.933722
2022-12-01 17:17:00.942249
2022-12-01 17:17:00.950273
2022-12-01 17:17:00.962361
2022-12-01 17:17:00.970592
2022-12-01 17:17:00.979355
2022-12-01 17:17:00.991416
2022-12-01 17:17:00.999596
2022-12-01 17:17:01.007741
2022-12-01 17:17:01.016477
2022-12-01 17:17:01.028488
2022-12-01 17:17:01.036765
2022-12-01 17:17:01.045000
2022-12-01 17:17:01.056509
2022-12-01 17:17:01.064930
2022-12-01 17:17:01.073222
2022-12-01 17:17:01.082033
2022-12-01 17:17:01.093963
2022-12-01 17:17:01.102297
2022-12-01 17:17:01.110454
2022-12-01 17:17:01.123500
2022-12-01 17:17:01.130664
2022-12-01 17:17:01.139400
2022-12-01 17:17:01.146730
2022-12-01 17:17:01.160006
2022-12-01 17:17:01.168066
2022-12-01 17:17:01.176937
2022-12-01 17:17:01.188520
2022-12-01 17:17:01.196465
2022-12-01 17:17:01.204532
2022-12-01 17:17:01.212861
2022-12-01 17:17:01.225368
2022-12-01 17:17:01.234083
2022-12-01 17:17:01.242281
2022-12-01 17:17:01.253348
2022-12-01 17:17:01.261347
2022-12-01 17:17:01.269854
2022-12-01 17:17:01.278786
2022-12-01 17:17:01.291407
2022-12-01 17:17:01.299473
2022-12-01 17:17:01.307318
2022-12-01 17:17:01.319069
2022-12-01 17:17:01.327131
2022-12-01 17:17:01.336008
2022-12-01 17:17:01.343701
2022-12-01 17:17:01.356442
2022-12-01 17:17:01.364524
2022-12-01 17:17:01.372588
2022-12-01 17:17:01.385131
2022-12-01 17:17:01.393012
2022-12-01 17:17:01.401473
2022-12-01 17:17:01.409228
2022-12-01 17:17:01.421998
2022-12-01 17:17:01.429943
2022-12-01 17:17:01.438437
2022-12-01 17:17:01.446305
2022-12-01 17:17:01.458420
2022-12-01 17:17:01.467086
2022-12-01 17:17:01.475749
2022-12-01 17:17:01.487252
2022-12-01 17:17:01.495385
2022-12-01 17:17:01.503588
2022-12-01 17:17:01.512212
2022-12-01 17:17:01.524374
2022-12-01 17:17:01.531963
2022-12-01 17:17:01.540462
2022-12-01 17:17:01.553293
2022-12-01 17:17:01.560903
2022-12-01 17:17:01.569934
2022-12-01 17:17:01.577028
2022-12-01 17:17:01.590456
2022-12-01 17:17:01.597852
2022-12-01 17:17:01.606832
2022-12-01 17:17:01.618625
2022-12-01 17:17:01.626236
2022-12-01 17:17:01.635163
2022-12-01 17:17:01.642131
2022-12-01 17:17:01.656246
2022-12-01 17:17:01.663555
2022-12-01 17:17:01.672328
2022-12-01 17:17:01.684141
2022-12-01 17:17:01.691823
2022-12-01 17:17:01.700284
2022-12-01 17:17:01.708526
2022-12-01 17:17:01.720911
2022-12-01 17:17:01.728900
2022-12-01 17:17:01.736487
2022-12-01 17:17:01.750526
2022-12-01 17:17:01.757773
2022-12-01 17:17:01.765673
2022-12-01 17:17:01.773793
2022-12-01 17:17:01.785860
2022-12-01 17:17:01.793992
2022-12-01 17:17:01.801971
2022-12-01 17:17:01.814273
2022-12-01 17:17:01.823215
2022-12-01 17:17:01.831022
2022-12-01 17:17:01.839543
