2022-12-02 12:37:35.309175
2022-12-02 12:37:35.318270
2022-12-02 12:37:35.330291
2022-12-02 12:37:35.338580
2022-12-02 12:37:35.346319
2022-12-02 12:37:35.358620
2022-12-02 12:37:35.366773
2022-12-02 12:37:35.375187
2022-12-02 12:37:35.382926
2022-12-02 12:37:35.395540
2022-12-02 12:37:35.404028
2022-12-02 12:37:35.411837
2022-12-02 12:37:35.424374
2022-12-02 12:37:35.432903
2022-12-02 12:37:35.440806
2022-12-02 12:37:35.448980
2022-12-02 12:37:35.460751
2022-12-02 12:37:35.469272
2022-12-02 12:37:35.477076
2022-12-02 12:37:35.489482
2022-12-02 12:37:35.497908
2022-12-02 12:37:35.505948
2022-12-02 12:37:35.514512
2022-12-02 12:37:35.526339
2022-12-02 12:37:35.534620
2022-12-02 12:37:35.542534
2022-12-02 12:37:35.555316
2022-12-02 12:37:35.563606
2022-12-02 12:37:35.572160
2022-12-02 12:37:35.580036
2022-12-02 12:37:35.592554
2022-12-02 12:37:35.600147
2022-12-02 12:37:35.608324
2022-12-02 12:37:35.620756
2022-12-02 12:37:35.629142
2022-12-02 12:37:35.637404
2022-12-02 12:37:35.644923
2022-12-02 12:37:35.657495
2022-12-02 12:37:35.666139
2022-12-02 12:37:35.674122
2022-12-02 12:37:35.686242
2022-12-02 12:37:35.694499
2022-12-02 12:37:35.703159
2022-12-02 12:37:35.710908
2022-12-02 12:37:35.722765
2022-12-02 12:37:35.731305
2022-12-02 12:37:35.739353
2022-12-02 12:37:35.751824
2022-12-02 12:37:35.760088
2022-12-02 12:37:35.768114
2022-12-02 12:37:35.776510
2022-12-02 12:37:35.789146
2022-12-02 12:37:35.796887
2022-12-02 12:37:35.804848
2022-12-02 12:37:35.817848
2022-12-02 12:37:35.825836
2022-12-02 12:37:35.833316
2022-12-02 12:37:35.841820
2022-12-02 12:37:35.854263
2022-12-02 12:37:35.862770
2022-12-02 12:37:35.871038
2022-12-02 12:37:35.879375
2022-12-02 12:37:35.891383
2022-12-02 12:37:35.898909
2022-12-02 12:37:35.907628
2022-12-02 12:37:35.920160
2022-12-02 12:37:35.927653
2022-12-02 12:37:35.936471
2022-12-02 12:37:35.944566
2022-12-02 12:37:35.956214
2022-12-02 12:37:35.964486
2022-12-02 12:37:35.972991
2022-12-02 12:37:35.985007
2022-12-02 12:37:35.993246
2022-12-02 12:37:36.003486
2022-12-02 12:37:36.009966
2022-12-02 12:37:36.022423
2022-12-02 12:37:36.030870
2022-12-02 12:37:36.038740
2022-12-02 12:37:36.050596
2022-12-02 12:37:36.059575
2022-12-02 12:37:36.067414
2022-12-02 12:37:36.075404
2022-12-02 12:37:36.087261
2022-12-02 12:37:36.095830
2022-12-02 12:37:36.104249
2022-12-02 12:37:36.116242
2022-12-02 12:37:36.124751
2022-12-02 12:37:36.132532
2022-12-02 12:37:36.140615
2022-12-02 12:37:36.153292
2022-12-02 12:37:36.161703
2022-12-02 12:37:36.169320
2022-12-02 12:37:36.181964
2022-12-02 12:37:36.190566
2022-12-02 12:37:36.198835
2022-12-02 12:37:36.206396
2022-12-02 12:37:36.219404
2022-12-02 12:37:36.226937
2022-12-02 12:37:36.235811
2022-12-02 12:37:36.247743
2022-12-02 12:37:36.255384
2022-12-02 12:37:36.264241
2022-12-02 12:37:36.272558
2022-12-02 12:37:36.284181
2022-12-02 12:37:36.292393
2022-12-02 12:37:36.301028
2022-12-02 12:37:36.312543
2022-12-02 12:37:36.320956
2022-12-02 12:37:36.329690
2022-12-02 12:37:36.337615
2022-12-02 12:37:36.349465
2022-12-02 12:37:36.358468
2022-12-02 12:37:36.366416
2022-12-02 12:37:36.378626
2022-12-02 12:37:36.387014
2022-12-02 12:37:36.395485
2022-12-02 12:37:36.403245
2022-12-02 12:37:36.415499
2022-12-02 12:37:36.423161
2022-12-02 12:37:36.432065
2022-12-02 12:37:36.443722
2022-12-02 12:37:36.452624
2022-12-02 12:37:36.460113
2022-12-02 12:37:36.468608
2022-12-02 12:37:36.481088
2022-12-02 12:37:36.489577
2022-12-02 12:37:36.497348
2022-12-02 12:37:36.509460
2022-12-02 12:37:36.518095
2022-12-02 12:37:36.526075
2022-12-02 12:37:36.534851
2022-12-02 12:37:36.546619
2022-12-02 12:37:36.554660
2022-12-02 12:37:36.562700
2022-12-02 12:37:36.574887
2022-12-02 12:37:36.583592
2022-12-02 12:37:36.591550
2022-12-02 12:37:36.600260
2022-12-02 12:37:36.612045
2022-12-02 12:37:36.620495
2022-12-02 12:37:36.628503
2022-12-02 12:37:36.640893
2022-12-02 12:37:36.648892
2022-12-02 12:37:36.657327
2022-12-02 12:37:36.665686
2022-12-02 12:37:36.677516
2022-12-02 12:37:36.685929
2022-12-02 12:37:36.693943
2022-12-02 12:37:36.706629
2022-12-02 12:37:36.714161
2022-12-02 12:37:36.722676
2022-12-02 12:37:36.731289
2022-12-02 12:37:36.743584
2022-12-02 12:37:36.751801
2022-12-02 12:37:36.759687
2022-12-02 12:37:36.767995
2022-12-02 12:37:36.779834
2022-12-02 12:37:36.788428
2022-12-02 12:37:36.796530
2022-12-02 12:37:36.808966
2022-12-02 12:37:36.816743
2022-12-02 12:37:36.825178
2022-12-02 12:37:36.833807
2022-12-02 12:37:36.846007
2022-12-02 12:37:36.854102
2022-12-02 12:37:36.861670
2022-12-02 12:37:36.874359
2022-12-02 12:37:36.882695
2022-12-02 12:37:36.890421
2022-12-02 12:37:36.898829
2022-12-02 12:37:36.911416
2022-12-02 12:37:36.919668
2022-12-02 12:37:36.927030
2022-12-02 12:37:36.939209
2022-12-02 12:37:36.948394
2022-12-02 12:37:36.956118
2022-12-02 12:37:36.964819
2022-12-02 12:37:36.976942
2022-12-02 12:37:36.985076
2022-12-02 12:37:36.993490
2022-12-02 12:37:37.004629
2022-12-02 12:37:37.013350
2022-12-02 12:37:37.022166
2022-12-02 12:37:37.030092
2022-12-02 12:37:37.042474
2022-12-02 12:37:37.050815
2022-12-02 12:37:37.058850
2022-12-02 12:37:37.070609
2022-12-02 12:37:37.079396
2022-12-02 12:37:37.087391
2022-12-02 12:37:37.095847
2022-12-02 12:37:37.108035
2022-12-02 12:37:37.115830
2022-12-02 12:37:37.124343
2022-12-02 12:37:37.136754
2022-12-02 12:37:37.144418
2022-12-02 12:37:37.152978
2022-12-02 12:37:37.160554
2022-12-02 12:37:37.172972
2022-12-02 12:37:37.181603
2022-12-02 12:37:37.189673
2022-12-02 12:37:37.201432
2022-12-02 12:37:37.210071
2022-12-02 12:37:37.218739
2022-12-02 12:37:37.226506
2022-12-02 12:37:37.238796
2022-12-02 12:37:37.246676
2022-12-02 12:37:37.254985
2022-12-02 12:37:37.267018
2022-12-02 12:37:37.275196
2022-12-02 12:37:37.283945
2022-12-02 12:37:37.292261
2022-12-02 12:37:37.304339
2022-12-02 12:37:37.312124
2022-12-02 12:37:37.321176
2022-12-02 12:37:37.333361
2022-12-02 12:37:37.341542
2022-12-02 12:37:37.349068
2022-12-02 12:37:37.357356
2022-12-02 12:37:37.369918
2022-12-02 12:37:37.377515
2022-12-02 12:37:37.385944
2022-12-02 12:37:37.398786
2022-12-02 12:37:37.406266
2022-12-02 12:37:37.415321
2022-12-02 12:37:37.423297
2022-12-02 12:37:37.434887
2022-12-02 12:37:37.443471
2022-12-02 12:37:37.451881
2022-12-02 12:37:37.464186
2022-12-02 12:37:37.472444
2022-12-02 12:37:37.480042
2022-12-02 12:37:37.489081
2022-12-02 12:37:37.501329
2022-12-02 12:37:37.509142
2022-12-02 12:37:37.517541
2022-12-02 12:37:37.529950
2022-12-02 12:37:37.537643
2022-12-02 12:37:37.546047
2022-12-02 12:37:37.554693
2022-12-02 12:37:37.566265
2022-12-02 12:37:37.574646
2022-12-02 12:37:37.583087
2022-12-02 12:37:37.591205
2022-12-02 12:37:37.603535
2022-12-02 12:37:37.611256
2022-12-02 12:37:37.620206
2022-12-02 12:37:37.631869
2022-12-02 12:37:37.640179
2022-12-02 12:37:37.648868
2022-12-02 12:37:37.656152
2022-12-02 12:37:37.669096
2022-12-02 12:37:37.677357
2022-12-02 12:37:37.685254
2022-12-02 12:37:37.697843
2022-12-02 12:37:37.705834
2022-12-02 12:37:37.714110
2022-12-02 12:37:37.722602
2022-12-02 12:37:37.734728
2022-12-02 12:37:37.742298
2022-12-02 12:37:37.751322
2022-12-02 12:37:37.762525
2022-12-02 12:37:37.770845
2022-12-02 12:37:37.779385
2022-12-02 12:37:37.787650
2022-12-02 12:37:37.800024
2022-12-02 12:37:37.807678
2022-12-02 12:37:37.816502
2022-12-02 12:37:37.828851
2022-12-02 12:37:37.837261
2022-12-02 12:37:37.845139
2022-12-02 12:37:37.852875
2022-12-02 12:37:37.864846
2022-12-02 12:37:37.873583
2022-12-02 12:37:37.881967
2022-12-02 12:37:37.894457
2022-12-02 12:37:37.902240
2022-12-02 12:37:37.910804
2022-12-02 12:37:37.918310
2022-12-02 12:37:37.930677
2022-12-02 12:37:37.939329
2022-12-02 12:37:37.947797
2022-12-02 12:37:37.960025
2022-12-02 12:37:37.967893
2022-12-02 12:37:37.976386
2022-12-02 12:37:37.984297
2022-12-02 12:37:37.996950
2022-12-02 12:37:38.005102
2022-12-02 12:37:38.013316
2022-12-02 12:37:38.025593
2022-12-02 12:37:38.033765
2022-12-02 12:37:38.041984
2022-12-02 12:37:38.050365
2022-12-02 12:37:38.062238
2022-12-02 12:37:38.070159
2022-12-02 12:37:38.078910
2022-12-02 12:37:38.091830
2022-12-02 12:37:38.099160
2022-12-02 12:37:38.107790
2022-12-02 12:37:38.115808
2022-12-02 12:37:38.128235
2022-12-02 12:37:38.136199
2022-12-02 12:37:38.144473
2022-12-02 12:37:38.156951
2022-12-02 12:37:38.164456
2022-12-02 12:37:38.173578
2022-12-02 12:37:38.181597
2022-12-02 12:37:38.192695
2022-12-02 12:37:38.200852
2022-12-02 12:37:38.210653
2022-12-02 12:37:38.221425
2022-12-02 12:37:38.229919
2022-12-02 12:37:38.238273
2022-12-02 12:37:38.246984
2022-12-02 12:37:38.258345
2022-12-02 12:37:38.266901
2022-12-02 12:37:38.274976
2022-12-02 12:37:38.287693
2022-12-02 12:37:38.296005
2022-12-02 12:37:38.304194
2022-12-02 12:37:38.312425
2022-12-02 12:37:38.324769
2022-12-02 12:37:38.332934
2022-12-02 12:37:38.340683
2022-12-02 12:37:38.352900
2022-12-02 12:37:38.360837
2022-12-02 12:37:38.368988
2022-12-02 12:37:38.377162
2022-12-02 12:37:38.390171
2022-12-02 12:37:38.397932
2022-12-02 12:37:38.406593
2022-12-02 12:37:38.418650
2022-12-02 12:37:38.426164
2022-12-02 12:37:38.434906
2022-12-02 12:37:38.443514
2022-12-02 12:37:38.455196
2022-12-02 12:37:38.463417
2022-12-02 12:37:38.471358
2022-12-02 12:37:38.480228
2022-12-02 12:37:38.492331
2022-12-02 12:37:38.500837
2022-12-02 12:37:38.508814
2022-12-02 12:37:38.520863
2022-12-02 12:37:38.528910
2022-12-02 12:37:38.536764
2022-12-02 12:37:38.545310
2022-12-02 12:37:38.557259
2022-12-02 12:37:38.565663
2022-12-02 12:37:38.573771
2022-12-02 12:37:38.586483
2022-12-02 12:37:38.594543
2022-12-02 12:37:38.602429
2022-12-02 12:37:38.611206
2022-12-02 12:37:38.623357
2022-12-02 12:37:38.631101
2022-12-02 12:37:38.639793
2022-12-02 12:37:38.651682
2022-12-02 12:37:38.659891
2022-12-02 12:37:38.668118
2022-12-02 12:37:38.676324
2022-12-02 12:37:38.688862
2022-12-02 12:37:38.697313
2022-12-02 12:37:38.705422
2022-12-02 12:37:38.717775
2022-12-02 12:37:38.725194
2022-12-02 12:37:38.733739
2022-12-02 12:37:38.741624
2022-12-02 12:37:38.754739
2022-12-02 12:37:38.762857
2022-12-02 12:37:38.770906
2022-12-02 12:37:38.783358
2022-12-02 12:37:38.790624
2022-12-02 12:37:38.799485
2022-12-02 12:37:38.807859
2022-12-02 12:37:38.819849
2022-12-02 12:37:38.828378
2022-12-02 12:37:38.836042
2022-12-02 12:37:38.848608
2022-12-02 12:37:38.856869
2022-12-02 12:37:38.864673
2022-12-02 12:37:38.873137
2022-12-02 12:37:38.885486
2022-12-02 12:37:38.893687
2022-12-02 12:37:38.901913
2022-12-02 12:37:38.914423
2022-12-02 12:37:38.921869
2022-12-02 12:37:38.930541
2022-12-02 12:37:38.938807
2022-12-02 12:37:38.950804
2022-12-02 12:37:38.959635
2022-12-02 12:37:38.967412
2022-12-02 12:37:38.979604
2022-12-02 12:37:38.987569
2022-12-02 12:37:38.995952
2022-12-02 12:37:39.004305
2022-12-02 12:37:39.016470
2022-12-02 12:37:39.025180
2022-12-02 12:37:39.033061
2022-12-02 12:37:39.044642
2022-12-02 12:37:39.053141
2022-12-02 12:37:39.061871
2022-12-02 12:37:39.069786
2022-12-02 12:37:39.081463
2022-12-02 12:37:39.090420
2022-12-02 12:37:39.098401
2022-12-02 12:37:39.110908
2022-12-02 12:37:39.118999
2022-12-02 12:37:39.126777
2022-12-02 12:37:39.135549
2022-12-02 12:37:39.147555
2022-12-02 12:37:39.155740
2022-12-02 12:37:39.164256
2022-12-02 12:37:39.175820
2022-12-02 12:37:39.184438
2022-12-02 12:37:39.192412
2022-12-02 12:37:39.199888
2022-12-02 12:37:39.212587
2022-12-02 12:37:39.220872
2022-12-02 12:37:39.229462
2022-12-02 12:37:39.241344
2022-12-02 12:37:39.249481
2022-12-02 12:37:39.258283
2022-12-02 12:37:39.266132
2022-12-02 12:37:39.278560
2022-12-02 12:37:39.286591
2022-12-02 12:37:39.295161
2022-12-02 12:37:39.302853
2022-12-02 12:37:39.315462
2022-12-02 12:37:39.323615
2022-12-02 12:37:39.331701
2022-12-02 12:37:39.344253
2022-12-02 12:37:39.352718
2022-12-02 12:37:39.360039
2022-12-02 12:37:39.368734
2022-12-02 12:37:39.381128
2022-12-02 12:37:39.389131
2022-12-02 12:37:39.397382
2022-12-02 12:37:39.409209
2022-12-02 12:37:39.418120
2022-12-02 12:37:39.426544
2022-12-02 12:37:39.434531
2022-12-02 12:37:39.446582
2022-12-02 12:37:39.455243
2022-12-02 12:37:39.463075
2022-12-02 12:37:39.474673
2022-12-02 12:37:39.483664
2022-12-02 12:37:39.491629
2022-12-02 12:37:39.499863
2022-12-02 12:37:39.512229
2022-12-02 12:37:39.520616
2022-12-02 12:37:39.528191
2022-12-02 12:37:39.540335
2022-12-02 12:37:39.548965
2022-12-02 12:37:39.557180
2022-12-02 12:37:39.565042
2022-12-02 12:37:39.577241
2022-12-02 12:37:39.586257
2022-12-02 12:37:39.593739
2022-12-02 12:37:39.605912
2022-12-02 12:37:39.614943
2022-12-02 12:37:39.622616
2022-12-02 12:37:39.630403
2022-12-02 12:37:39.643206
2022-12-02 12:37:39.651657
2022-12-02 12:37:39.659204
2022-12-02 12:37:39.671687
2022-12-02 12:37:39.679947
2022-12-02 12:37:39.687926
2022-12-02 12:37:39.696735
2022-12-02 12:37:39.709058
2022-12-02 12:37:39.717031
2022-12-02 12:37:39.725486
2022-12-02 12:37:39.737528
2022-12-02 12:37:39.745281
2022-12-02 12:37:39.754109
2022-12-02 12:37:39.761671
2022-12-02 12:37:39.774503
2022-12-02 12:37:39.782647
2022-12-02 12:37:39.790344
2022-12-02 12:37:39.803031
2022-12-02 12:37:39.811428
2022-12-02 12:37:39.819692
2022-12-02 12:37:39.827217
2022-12-02 12:37:39.839627
2022-12-02 12:37:39.847455
2022-12-02 12:37:39.856491
2022-12-02 12:37:39.868152
2022-12-02 12:37:39.876909
2022-12-02 12:37:39.885273
2022-12-02 12:37:39.893011
2022-12-02 12:37:39.904744
2022-12-02 12:37:39.913696
2022-12-02 12:37:39.922093
2022-12-02 12:37:39.933565
2022-12-02 12:37:39.941590
2022-12-02 12:37:39.950476
2022-12-02 12:37:39.958544
2022-12-02 12:37:39.971096
2022-12-02 12:37:39.979224
2022-12-02 12:37:39.987446
2022-12-02 12:37:39.999598
2022-12-02 12:37:40.007304
2022-12-02 12:37:40.015554
2022-12-02 12:37:40.023617
2022-12-02 12:37:40.036627
2022-12-02 12:37:40.044221
2022-12-02 12:37:40.052948
2022-12-02 12:37:40.065469
2022-12-02 12:37:40.073416
2022-12-02 12:37:40.081027
2022-12-02 12:37:40.089843
2022-12-02 12:37:40.102069
2022-12-02 12:37:40.110129
2022-12-02 12:37:40.118500
2022-12-02 12:37:40.130195
2022-12-02 12:37:40.138582
2022-12-02 12:37:40.146994
2022-12-02 12:37:40.155373
2022-12-02 12:37:40.167647
2022-12-02 12:37:40.175810
2022-12-02 12:37:40.183671
2022-12-02 12:37:40.192438
2022-12-02 12:37:40.203851
2022-12-02 12:37:40.212115
2022-12-02 12:37:40.220505
2022-12-02 12:37:40.233189
2022-12-02 12:37:40.241414
2022-12-02 12:37:40.249885
2022-12-02 12:37:40.257992
2022-12-02 12:37:40.269360
2022-12-02 12:37:40.278291
2022-12-02 12:37:40.285926
2022-12-02 12:37:40.298211
2022-12-02 12:37:40.306989
2022-12-02 12:37:40.314799
2022-12-02 12:37:40.323726
2022-12-02 12:37:40.335191
2022-12-02 12:37:40.343802
2022-12-02 12:37:40.352104
2022-12-02 12:37:40.364165
2022-12-02 12:37:40.372457
2022-12-02 12:37:40.380216
2022-12-02 12:37:40.388856
2022-12-02 12:37:40.400530
2022-12-02 12:37:40.409560
2022-12-02 12:37:40.417230
2022-12-02 12:37:40.429509
2022-12-02 12:37:40.437595
2022-12-02 12:37:40.446268
2022-12-02 12:37:40.454268
2022-12-02 12:37:40.466807
2022-12-02 12:37:40.474282
2022-12-02 12:37:40.482989
2022-12-02 12:37:40.495099
2022-12-02 12:37:40.504011
2022-12-02 12:37:40.511515
2022-12-02 12:37:40.520133
2022-12-02 12:37:40.532642
2022-12-02 12:37:40.540769
2022-12-02 12:37:40.548626
2022-12-02 12:37:40.560635
2022-12-02 12:37:40.569596
2022-12-02 12:37:40.577638
2022-12-02 12:37:40.585683
2022-12-02 12:37:40.597732
2022-12-02 12:37:40.606304
2022-12-02 12:37:40.614256
2022-12-02 12:37:40.626838
2022-12-02 12:37:40.634729
2022-12-02 12:37:40.643711
2022-12-02 12:37:40.651155
2022-12-02 12:37:40.663818
2022-12-02 12:37:40.671858
2022-12-02 12:37:40.680345
2022-12-02 12:37:40.692695
2022-12-02 12:37:40.700039
2022-12-02 12:37:40.708785
2022-12-02 12:37:40.716604
2022-12-02 12:37:40.729206
2022-12-02 12:37:40.737427
2022-12-02 12:37:40.745656
2022-12-02 12:37:40.757675
2022-12-02 12:37:40.765937
2022-12-02 12:37:40.774674
2022-12-02 12:37:40.782330
2022-12-02 12:37:40.794816
2022-12-02 12:37:40.802637
2022-12-02 12:37:40.810746
2022-12-02 12:37:40.823685
2022-12-02 12:37:40.831054
2022-12-02 12:37:40.839927
2022-12-02 12:37:40.847419
2022-12-02 12:37:40.860525
2022-12-02 12:37:40.868336
2022-12-02 12:37:40.876779
2022-12-02 12:37:40.889059
2022-12-02 12:37:40.896635
2022-12-02 12:37:40.905239
2022-12-02 12:37:40.912965
2022-12-02 12:37:40.925661
2022-12-02 12:37:40.932994
2022-12-02 12:37:40.942580
2022-12-02 12:37:40.954478
2022-12-02 12:37:40.962736
2022-12-02 12:37:40.970418
2022-12-02 12:37:40.977824
2022-12-02 12:37:40.991653
2022-12-02 12:37:40.999597
2022-12-02 12:37:41.007768
2022-12-02 12:37:41.016133
2022-12-02 12:37:41.028305
2022-12-02 12:37:41.036658
2022-12-02 12:37:41.044624
2022-12-02 12:37:41.056919
2022-12-02 12:37:41.064496
2022-12-02 12:37:41.073139
2022-12-02 12:37:41.081344
2022-12-02 12:37:41.092644
2022-12-02 12:37:41.101732
2022-12-02 12:37:41.109900
2022-12-02 12:37:41.122121
2022-12-02 12:37:41.130589
2022-12-02 12:37:41.139061
2022-12-02 12:37:41.146548
2022-12-02 12:37:41.159088
2022-12-02 12:37:41.166895
2022-12-02 12:37:41.175441
2022-12-02 12:37:41.186863
2022-12-02 12:37:41.195947
2022-12-02 12:37:41.203424
2022-12-02 12:37:41.212162
2022-12-02 12:37:41.224710
2022-12-02 12:37:41.232805
2022-12-02 12:37:41.241057
2022-12-02 12:37:41.252718
2022-12-02 12:37:41.261372
2022-12-02 12:37:41.269009
2022-12-02 12:37:41.277885
2022-12-02 12:37:41.289203
2022-12-02 12:37:41.298357
2022-12-02 12:37:41.306713
2022-12-02 12:37:41.319132
2022-12-02 12:37:41.327650
2022-12-02 12:37:41.335659
2022-12-02 12:37:41.343763
2022-12-02 12:37:41.355311
2022-12-02 12:37:41.363768
2022-12-02 12:37:41.372115
2022-12-02 12:37:41.383961
2022-12-02 12:37:41.392707
2022-12-02 12:37:41.400284
2022-12-02 12:37:41.408667
2022-12-02 12:37:41.420511
2022-12-02 12:37:41.429070
2022-12-02 12:37:41.437925
2022-12-02 12:37:41.449664
2022-12-02 12:37:41.458287
2022-12-02 12:37:41.466159
2022-12-02 12:37:41.474649
2022-12-02 12:37:41.486815
2022-12-02 12:37:41.494234
2022-12-02 12:37:41.502370
2022-12-02 12:37:41.515134
2022-12-02 12:37:41.523300
2022-12-02 12:37:41.531897
2022-12-02 12:37:41.540014
2022-12-02 12:37:41.552271
2022-12-02 12:37:41.560550
2022-12-02 12:37:41.568149
2022-12-02 12:37:41.580465
2022-12-02 12:37:41.589699
2022-12-02 12:37:41.596985
2022-12-02 12:37:41.605828
2022-12-02 12:37:41.617823
2022-12-02 12:37:41.626700
2022-12-02 12:37:41.633899
2022-12-02 12:37:41.646319
2022-12-02 12:37:41.654518
2022-12-02 12:37:41.662976
2022-12-02 12:37:41.671145
2022-12-02 12:37:41.682746
2022-12-02 12:37:41.692006
2022-12-02 12:37:41.699642
2022-12-02 12:37:41.712102
2022-12-02 12:37:41.720332
2022-12-02 12:37:41.728099
2022-12-02 12:37:41.736031
2022-12-02 12:37:41.749135
2022-12-02 12:37:41.757582
2022-12-02 12:37:41.765432
2022-12-02 12:37:41.777793
2022-12-02 12:37:41.785222
2022-12-02 12:37:41.793657
2022-12-02 12:37:41.802231
2022-12-02 12:37:41.814515
2022-12-02 12:37:41.822880
2022-12-02 12:37:41.830619
2022-12-02 12:37:41.843017
2022-12-02 12:37:41.850589
2022-12-02 12:37:41.859262
2022-12-02 12:37:41.867258
2022-12-02 12:37:41.879822
2022-12-02 12:37:41.887852
2022-12-02 12:37:41.896074
2022-12-02 12:37:41.905134
2022-12-02 12:37:41.916119
2022-12-02 12:37:41.925029
2022-12-02 12:37:41.932762
2022-12-02 12:37:41.945346
2022-12-02 12:37:41.954044
2022-12-02 12:37:41.962243
2022-12-02 12:37:41.969934
2022-12-02 12:37:41.982094
2022-12-02 12:37:41.990859
2022-12-02 12:37:41.998916
2022-12-02 12:37:42.011852
2022-12-02 12:37:42.019689
2022-12-02 12:37:42.027732
2022-12-02 12:37:42.035751
2022-12-02 12:37:42.047712
2022-12-02 12:37:42.056034
2022-12-02 12:37:42.063954
2022-12-02 12:37:42.076487
2022-12-02 12:37:42.084660
2022-12-02 12:37:42.093123
2022-12-02 12:37:42.100679
2022-12-02 12:37:42.112752
2022-12-02 12:37:42.120690
2022-12-02 12:37:42.129300
2022-12-02 12:37:42.141855
2022-12-02 12:37:42.150377
2022-12-02 12:37:42.157785
2022-12-02 12:37:42.166150
2022-12-02 12:37:42.178502
2022-12-02 12:37:42.187127
2022-12-02 12:37:42.195883
2022-12-02 12:37:42.207987
2022-12-02 12:37:42.215812
2022-12-02 12:37:42.224211
2022-12-02 12:37:42.232279
2022-12-02 12:37:42.244089
2022-12-02 12:37:42.253070
2022-12-02 12:37:42.260936
2022-12-02 12:37:42.273276
2022-12-02 12:37:42.281467
2022-12-02 12:37:42.290038
2022-12-02 12:37:42.297859
2022-12-02 12:37:42.309951
2022-12-02 12:37:42.318264
2022-12-02 12:37:42.326259
2022-12-02 12:37:42.338461
2022-12-02 12:37:42.346953
2022-12-02 12:37:42.355608
2022-12-02 12:37:42.363584
2022-12-02 12:37:42.375814
2022-12-02 12:37:42.382923
2022-12-02 12:37:42.392223
2022-12-02 12:37:42.404684
2022-12-02 12:37:42.412511
2022-12-02 12:37:42.420977
2022-12-02 12:37:42.428202
2022-12-02 12:37:42.441449
2022-12-02 12:37:42.449233
2022-12-02 12:37:42.457769
2022-12-02 12:37:42.470151
2022-12-02 12:37:42.478369
2022-12-02 12:37:42.486690
2022-12-02 12:37:42.494358
2022-12-02 12:37:42.506507
2022-12-02 12:37:42.514929
2022-12-02 12:37:42.523352
2022-12-02 12:37:42.535140
2022-12-02 12:37:42.543045
2022-12-02 12:37:42.551908
2022-12-02 12:37:42.559931
2022-12-02 12:37:42.572545
2022-12-02 12:37:42.580448
2022-12-02 12:37:42.587848
2022-12-02 12:37:42.600678
2022-12-02 12:37:42.608268
2022-12-02 12:37:42.617027
2022-12-02 12:37:42.624882
2022-12-02 12:37:42.637121
2022-12-02 12:37:42.646010
2022-12-02 12:37:42.653934
2022-12-02 12:37:42.665747
2022-12-02 12:37:42.674363
2022-12-02 12:37:42.682894
2022-12-02 12:37:42.690873
2022-12-02 12:37:42.702674
2022-12-02 12:37:42.711505
2022-12-02 12:37:42.718994
2022-12-02 12:37:42.727374
2022-12-02 12:37:42.739651
2022-12-02 12:37:42.748005
2022-12-02 12:37:42.756318
2022-12-02 12:37:42.768506
2022-12-02 12:37:42.776956
2022-12-02 12:37:42.784742
2022-12-02 12:37:42.792569
2022-12-02 12:37:42.805205
2022-12-02 12:37:42.813406
2022-12-02 12:37:42.822091
2022-12-02 12:37:42.833400
2022-12-02 12:37:42.841954
2022-12-02 12:37:42.850227
2022-12-02 12:37:42.858612
2022-12-02 12:37:42.870580
2022-12-02 12:37:42.878849
2022-12-02 12:37:42.886785
2022-12-02 12:37:42.899188
2022-12-02 12:37:42.907506
2022-12-02 12:37:42.915467
2022-12-02 12:37:42.924560
2022-12-02 12:37:42.935524
2022-12-02 12:37:42.944480
2022-12-02 12:37:42.952821
2022-12-02 12:37:42.964455
2022-12-02 12:37:42.973049
2022-12-02 12:37:42.981263
2022-12-02 12:37:42.989139
2022-12-02 12:37:43.002181
2022-12-02 12:37:43.009711
2022-12-02 12:37:43.018335
2022-12-02 12:37:43.030797
2022-12-02 12:37:43.039056
2022-12-02 12:37:43.047381
2022-12-02 12:37:43.055262
2022-12-02 12:37:43.067819
2022-12-02 12:37:43.076000
2022-12-02 12:37:43.084227
2022-12-02 12:37:43.095990
2022-12-02 12:37:43.104759
2022-12-02 12:37:43.112283
2022-12-02 12:37:43.121293
2022-12-02 12:37:43.133398
2022-12-02 12:37:43.141163
2022-12-02 12:37:43.149801
2022-12-02 12:37:43.162054
2022-12-02 12:37:43.169799
2022-12-02 12:37:43.178283
2022-12-02 12:37:43.186942
2022-12-02 12:37:43.198915
2022-12-02 12:37:43.207707
2022-12-02 12:37:43.215460
2022-12-02 12:37:43.228033
2022-12-02 12:37:43.235625
2022-12-02 12:37:43.243326
2022-12-02 12:37:43.251748
2022-12-02 12:37:43.263632
2022-12-02 12:37:43.272447
2022-12-02 12:37:43.280614
2022-12-02 12:37:43.292896
2022-12-02 12:37:43.301301
2022-12-02 12:37:43.309538
2022-12-02 12:37:43.317106
2022-12-02 12:37:43.329961
2022-12-02 12:37:43.337992
2022-12-02 12:37:43.346142
2022-12-02 12:37:43.358837
2022-12-02 12:37:43.366559
2022-12-02 12:37:43.375104
2022-12-02 12:37:43.383135
2022-12-02 12:37:43.395350
2022-12-02 12:37:43.403020
2022-12-02 12:37:43.411570
2022-12-02 12:37:43.424140
2022-12-02 12:37:43.432097
2022-12-02 12:37:43.440814
2022-12-02 12:37:43.448899
2022-12-02 12:37:43.460795
2022-12-02 12:37:43.469607
2022-12-02 12:37:43.477926
2022-12-02 12:37:43.490067
2022-12-02 12:37:43.498203
2022-12-02 12:37:43.506695
2022-12-02 12:37:43.514609
2022-12-02 12:37:43.526336
2022-12-02 12:37:43.534869
2022-12-02 12:37:43.542050
2022-12-02 12:37:43.555600
2022-12-02 12:37:43.563597
2022-12-02 12:37:43.571923
2022-12-02 12:37:43.579041
2022-12-02 12:37:43.592275
2022-12-02 12:37:43.599586
2022-12-02 12:37:43.608762
2022-12-02 12:37:43.616464
2022-12-02 12:37:43.628503
2022-12-02 12:37:43.637601
2022-12-02 12:37:43.645673
2022-12-02 12:37:43.658049
2022-12-02 12:37:43.665503
2022-12-02 12:37:43.674588
2022-12-02 12:37:43.682298
2022-12-02 12:37:43.694132
2022-12-02 12:37:43.703006
2022-12-02 12:37:43.711268
2022-12-02 12:37:43.723570
2022-12-02 12:37:43.731489
2022-12-02 12:37:43.739906
2022-12-02 12:37:43.747762
2022-12-02 12:37:43.759967
2022-12-02 12:37:43.768248
2022-12-02 12:37:43.775819
2022-12-02 12:37:43.789162
2022-12-02 12:37:43.796888
2022-12-02 12:37:43.805231
2022-12-02 12:37:43.813288
2022-12-02 12:37:43.825825
2022-12-02 12:37:43.833832
2022-12-02 12:37:43.842705
2022-12-02 12:37:43.854604
2022-12-02 12:37:43.861957
2022-12-02 12:37:43.870935
2022-12-02 12:37:43.878965
2022-12-02 12:37:43.891608
2022-12-02 12:37:43.899207
2022-12-02 12:37:43.907881
2022-12-02 12:37:43.920001
2022-12-02 12:37:43.927598
2022-12-02 12:37:43.936186
2022-12-02 12:37:43.944841
2022-12-02 12:37:43.957007
2022-12-02 12:37:43.965038
2022-12-02 12:37:43.973596
2022-12-02 12:37:43.985616
2022-12-02 12:37:43.993035
2022-12-02 12:37:44.000963
2022-12-02 12:37:44.010168
2022-12-02 12:37:44.021385
2022-12-02 12:37:44.030375
2022-12-02 12:37:44.038384
2022-12-02 12:37:44.050690
2022-12-02 12:37:44.059712
2022-12-02 12:37:44.066978
2022-12-02 12:37:44.075608
2022-12-02 12:37:44.087744
2022-12-02 12:37:44.095748
2022-12-02 12:37:44.104018
2022-12-02 12:37:44.116267
2022-12-02 12:37:44.124923
2022-12-02 12:37:44.132912
2022-12-02 12:37:44.141206
2022-12-02 12:37:44.153189
2022-12-02 12:37:44.160903
2022-12-02 12:37:44.169169
2022-12-02 12:37:44.181890
2022-12-02 12:37:44.189018
2022-12-02 12:37:44.198514
2022-12-02 12:37:44.206830
2022-12-02 12:37:44.218599
2022-12-02 12:37:44.227208
2022-12-02 12:37:44.235367
2022-12-02 12:37:44.247638
2022-12-02 12:37:44.255902
2022-12-02 12:37:44.263839
2022-12-02 12:37:44.272288
2022-12-02 12:37:44.284163
2022-12-02 12:37:44.292795
2022-12-02 12:37:44.300764
2022-12-02 12:37:44.312672
2022-12-02 12:37:44.321697
2022-12-02 12:37:44.329264
2022-12-02 12:37:44.337926
2022-12-02 12:37:44.349614
2022-12-02 12:37:44.358323
2022-12-02 12:37:44.366114
2022-12-02 12:37:44.377983
2022-12-02 12:37:44.386486
2022-12-02 12:37:44.394227
2022-12-02 12:37:44.403490
2022-12-02 12:37:44.415175
2022-12-02 12:37:44.422579
2022-12-02 12:37:44.431859
2022-12-02 12:37:44.440037
2022-12-02 12:37:44.452687
2022-12-02 12:37:44.460733
2022-12-02 12:37:44.469153
2022-12-02 12:37:44.480930
2022-12-02 12:37:44.489709
2022-12-02 12:37:44.497742
2022-12-02 12:37:44.505794
2022-12-02 12:37:44.517795
2022-12-02 12:37:44.526435
2022-12-02 12:37:44.534155
2022-12-02 12:37:44.546107
2022-12-02 12:37:44.554652
2022-12-02 12:37:44.563091
2022-12-02 12:37:44.571235
2022-12-02 12:37:44.582736
2022-12-02 12:37:44.591641
2022-12-02 12:37:44.599392
2022-12-02 12:37:44.612234
2022-12-02 12:37:44.620819
2022-12-02 12:37:44.628624
2022-12-02 12:37:44.636666
2022-12-02 12:37:44.648044
2022-12-02 12:37:44.657281
2022-12-02 12:37:44.664848
2022-12-02 12:37:44.677904
2022-12-02 12:37:44.685951
2022-12-02 12:37:44.693958
2022-12-02 12:37:44.702445
2022-12-02 12:37:44.713493
2022-12-02 12:37:44.722957
2022-12-02 12:37:44.729649
2022-12-02 12:37:44.743317
2022-12-02 12:37:44.751450
2022-12-02 12:37:44.759824
2022-12-02 12:37:44.767633
2022-12-02 12:37:44.779516
2022-12-02 12:37:44.787450
2022-12-02 12:37:44.796497
2022-12-02 12:37:44.808289
2022-12-02 12:37:44.815909
2022-12-02 12:37:44.825624
2022-12-02 12:37:44.833274
2022-12-02 12:37:44.845281
2022-12-02 12:37:44.853130
2022-12-02 12:37:44.862160
2022-12-02 12:37:44.874513
2022-12-02 12:37:44.882425
2022-12-02 12:37:44.890871
2022-12-02 12:37:44.898948
2022-12-02 12:37:44.910404
2022-12-02 12:37:44.919083
2022-12-02 12:37:44.927244
2022-12-02 12:37:44.939925
2022-12-02 12:37:44.948031
2022-12-02 12:37:44.956731
2022-12-02 12:37:44.964361
2022-12-02 12:37:44.976230
2022-12-02 12:37:44.984177
2022-12-02 12:37:44.993091
2022-12-02 12:37:45.005123
2022-12-02 12:37:45.013360
2022-12-02 12:37:45.021864
2022-12-02 12:37:45.029837
2022-12-02 12:37:45.042725
2022-12-02 12:37:45.050304
2022-12-02 12:37:45.058768
2022-12-02 12:37:45.071116
2022-12-02 12:37:45.078479
2022-12-02 12:37:45.086487
2022-12-02 12:37:45.095648
2022-12-02 12:37:45.108040
2022-12-02 12:37:45.115796
2022-12-02 12:37:45.124439
2022-12-02 12:37:45.136428
2022-12-02 12:37:45.144643
2022-12-02 12:37:45.152628
2022-12-02 12:37:45.160626
2022-12-02 12:37:45.173617
2022-12-02 12:37:45.181631
2022-12-02 12:37:45.188914
2022-12-02 12:37:45.202130
2022-12-02 12:37:45.209518
2022-12-02 12:37:45.217783
2022-12-02 12:37:45.225915
2022-12-02 12:37:45.238478
2022-12-02 12:37:45.246936
2022-12-02 12:37:45.255117
2022-12-02 12:37:45.266966
2022-12-02 12:37:45.274890
2022-12-02 12:37:45.283511
2022-12-02 12:37:45.291642
2022-12-02 12:37:45.303397
2022-12-02 12:37:45.312448
2022-12-02 12:37:45.320268
2022-12-02 12:37:45.328187
2022-12-02 12:37:45.341622
2022-12-02 12:37:45.349086
2022-12-02 12:37:45.357612
2022-12-02 12:37:45.369778
2022-12-02 12:37:45.377794
2022-12-02 12:37:45.385509
2022-12-02 12:37:45.394052
2022-12-02 12:37:45.406962
2022-12-02 12:37:45.414722
2022-12-02 12:37:45.423592
2022-12-02 12:37:45.435286
2022-12-02 12:37:45.443848
2022-12-02 12:37:45.452080
2022-12-02 12:37:45.460051
2022-12-02 12:37:45.472292
2022-12-02 12:37:45.479682
2022-12-02 12:37:45.488844
2022-12-02 12:37:45.501090
2022-12-02 12:37:45.509251
2022-12-02 12:37:45.517462
2022-12-02 12:37:45.524988
2022-12-02 12:37:45.538110
2022-12-02 12:37:45.545920
2022-12-02 12:37:45.554601
2022-12-02 12:37:45.566429
2022-12-02 12:37:45.574956
2022-12-02 12:37:45.582495
2022-12-02 12:37:45.591317
2022-12-02 12:37:45.603627
2022-12-02 12:37:45.611698
2022-12-02 12:37:45.619928
2022-12-02 12:37:45.631651
2022-12-02 12:37:45.640281
2022-12-02 12:37:45.647905
2022-12-02 12:37:45.656712
2022-12-02 12:37:45.669130
2022-12-02 12:37:45.677134
2022-12-02 12:37:45.685723
2022-12-02 12:37:45.697598
2022-12-02 12:37:45.705942
2022-12-02 12:37:45.714004
2022-12-02 12:37:45.722513
2022-12-02 12:37:45.734728
2022-12-02 12:37:45.742410
2022-12-02 12:37:45.750936
2022-12-02 12:37:45.763611
2022-12-02 12:37:45.771753
2022-12-02 12:37:45.779186
2022-12-02 12:37:45.787946
2022-12-02 12:37:45.799842
2022-12-02 12:37:45.808275
2022-12-02 12:37:45.816335
2022-12-02 12:37:45.828308
2022-12-02 12:37:45.837192
2022-12-02 12:37:45.845130
2022-12-02 12:37:45.853729
2022-12-02 12:37:45.864771
2022-12-02 12:37:45.874072
2022-12-02 12:37:45.881276
2022-12-02 12:37:45.894045
2022-12-02 12:37:45.902721
2022-12-02 12:37:45.910309
2022-12-02 12:37:45.918911
2022-12-02 12:37:45.931242
2022-12-02 12:37:45.939573
2022-12-02 12:37:45.947636
2022-12-02 12:37:45.959839
2022-12-02 12:37:45.967944
2022-12-02 12:37:45.976241
2022-12-02 12:37:45.984521
2022-12-02 12:37:45.995944
2022-12-02 12:37:46.004986
2022-12-02 12:37:46.012999
2022-12-02 12:37:46.025459
2022-12-02 12:37:46.033383
2022-12-02 12:37:46.041631
2022-12-02 12:37:46.049748
2022-12-02 12:37:46.061479
2022-12-02 12:37:46.070534
2022-12-02 12:37:46.078361
2022-12-02 12:37:46.090315
2022-12-02 12:37:46.098612
2022-12-02 12:37:46.107214
2022-12-02 12:37:46.114622
2022-12-02 12:37:46.127179
2022-12-02 12:37:46.135969
2022-12-02 12:37:46.144152
2022-12-02 12:37:46.151925
2022-12-02 12:37:46.164499
2022-12-02 12:37:46.173002
2022-12-02 12:37:46.181140
2022-12-02 12:37:46.193501
2022-12-02 12:37:46.201194
2022-12-02 12:37:46.208647
2022-12-02 12:37:46.218027
2022-12-02 12:37:46.230022
2022-12-02 12:37:46.238744
2022-12-02 12:37:46.246533
2022-12-02 12:37:46.258540
2022-12-02 12:37:46.267048
2022-12-02 12:37:46.275217
2022-12-02 12:37:46.283488
2022-12-02 12:37:46.295049
2022-12-02 12:37:46.303797
2022-12-02 12:37:46.312218
2022-12-02 12:37:46.324127
2022-12-02 12:37:46.332390
2022-12-02 12:37:46.340909
2022-12-02 12:37:46.348825
2022-12-02 12:37:46.361612
2022-12-02 12:37:46.369731
2022-12-02 12:37:46.377716
2022-12-02 12:37:46.390051
2022-12-02 12:37:46.397723
2022-12-02 12:37:46.406713
2022-12-02 12:37:46.414035
2022-12-02 12:37:46.426425
2022-12-02 12:37:46.434052
2022-12-02 12:37:46.442962
2022-12-02 12:37:46.454883
2022-12-02 12:37:46.463209
2022-12-02 12:37:46.471734
2022-12-02 12:37:46.479792
2022-12-02 12:37:46.491997
2022-12-02 12:37:46.499630
2022-12-02 12:37:46.508601
2022-12-02 12:37:46.520039
2022-12-02 12:37:46.528653
2022-12-02 12:37:46.536825
2022-12-02 12:37:46.545338
2022-12-02 12:37:46.557634
2022-12-02 12:37:46.565640
2022-12-02 12:37:46.573308
2022-12-02 12:37:46.585550
2022-12-02 12:37:46.594170
2022-12-02 12:37:46.602658
2022-12-02 12:37:46.610875
2022-12-02 12:37:46.623179
2022-12-02 12:37:46.630696
2022-12-02 12:37:46.639736
2022-12-02 12:37:46.652093
2022-12-02 12:37:46.660307
2022-12-02 12:37:46.668280
2022-12-02 12:37:46.676415
2022-12-02 12:37:46.688930
2022-12-02 12:37:46.696975
2022-12-02 12:37:46.705354
2022-12-02 12:37:46.717369
2022-12-02 12:37:46.726089
2022-12-02 12:37:46.733697
2022-12-02 12:37:46.742343
2022-12-02 12:37:46.754718
2022-12-02 12:37:46.762553
2022-12-02 12:37:46.770834
2022-12-02 12:37:46.782872
2022-12-02 12:37:46.791696
2022-12-02 12:37:46.798644
2022-12-02 12:37:46.807431
2022-12-02 12:37:46.819514
2022-12-02 12:37:46.827763
2022-12-02 12:37:46.835865
2022-12-02 12:37:46.848487
2022-12-02 12:37:46.856363
2022-12-02 12:37:46.864337
2022-12-02 12:37:46.872984
2022-12-02 12:37:46.885494
2022-12-02 12:37:46.893291
2022-12-02 12:37:46.902159
2022-12-02 12:37:46.914179
2022-12-02 12:37:46.922722
2022-12-02 12:37:46.930602
2022-12-02 12:37:46.938546
2022-12-02 12:37:46.950861
2022-12-02 12:37:46.959534
2022-12-02 12:37:46.967231
2022-12-02 12:37:46.978399
2022-12-02 12:37:46.987523
2022-12-02 12:37:46.995860
2022-12-02 12:37:47.004716
2022-12-02 12:37:47.015719
2022-12-02 12:37:47.024474
2022-12-02 12:37:47.032729
2022-12-02 12:37:47.040946
2022-12-02 12:37:47.053482
2022-12-02 12:37:47.060937
2022-12-02 12:37:47.069904
2022-12-02 12:37:47.081712
2022-12-02 12:37:47.090058
2022-12-02 12:37:47.098212
2022-12-02 12:37:47.106546
2022-12-02 12:37:47.118814
2022-12-02 12:37:47.127202
2022-12-02 12:37:47.135380
2022-12-02 12:37:47.147359
2022-12-02 12:37:47.155418
2022-12-02 12:37:47.164202
2022-12-02 12:37:47.172357
2022-12-02 12:37:47.184407
2022-12-02 12:37:47.192711
2022-12-02 12:37:47.200773
2022-12-02 12:37:47.213405
2022-12-02 12:37:47.221736
2022-12-02 12:37:47.228785
2022-12-02 12:37:47.237793
2022-12-02 12:37:47.249292
2022-12-02 12:37:47.257447
2022-12-02 12:37:47.266215
2022-12-02 12:37:47.278484
2022-12-02 12:37:47.286970
2022-12-02 12:37:47.294692
2022-12-02 12:37:47.303020
2022-12-02 12:37:47.314916
2022-12-02 12:37:47.323691
2022-12-02 12:37:47.331687
2022-12-02 12:37:47.343464
2022-12-02 12:37:47.351901
2022-12-02 12:37:47.360322
2022-12-02 12:37:47.368233
2022-12-02 12:37:47.380604
2022-12-02 12:37:47.389412
2022-12-02 12:37:47.397079
2022-12-02 12:37:47.409582
2022-12-02 12:37:47.417534
2022-12-02 12:37:47.425635
2022-12-02 12:37:47.433646
2022-12-02 12:37:47.445996
2022-12-02 12:37:47.454531
2022-12-02 12:37:47.462641
2022-12-02 12:37:47.474315
2022-12-02 12:37:47.483316
2022-12-02 12:37:47.491735
2022-12-02 12:37:47.499381
2022-12-02 12:37:47.512184
2022-12-02 12:37:47.520191
2022-12-02 12:37:47.528413
2022-12-02 12:37:47.541021
2022-12-02 12:37:47.548726
2022-12-02 12:37:47.557392
2022-12-02 12:37:47.564958
2022-12-02 12:37:47.577260
2022-12-02 12:37:47.585626
2022-12-02 12:37:47.593711
2022-12-02 12:37:47.606732
2022-12-02 12:37:47.613889
2022-12-02 12:37:47.622844
2022-12-02 12:37:47.630800
2022-12-02 12:37:47.642978
2022-12-02 12:37:47.651745
2022-12-02 12:37:47.659874
2022-12-02 12:37:47.671589
2022-12-02 12:37:47.680130
2022-12-02 12:37:47.687410
2022-12-02 12:37:47.696418
2022-12-02 12:37:47.708872
2022-12-02 12:37:47.716873
2022-12-02 12:37:47.725630
2022-12-02 12:37:47.737448
2022-12-02 12:37:47.745546
2022-12-02 12:37:47.754020
2022-12-02 12:37:47.761832
2022-12-02 12:37:47.774752
2022-12-02 12:37:47.781724
2022-12-02 12:37:47.790891
2022-12-02 12:37:47.803179
2022-12-02 12:37:47.810752
2022-12-02 12:37:47.819638
2022-12-02 12:37:47.826854
2022-12-02 12:37:47.839320
2022-12-02 12:37:47.847938
2022-12-02 12:37:47.855308
2022-12-02 12:37:47.863814
2022-12-02 12:37:47.876235
2022-12-02 12:37:47.885427
2022-12-02 12:37:47.892560
2022-12-02 12:37:47.905625
2022-12-02 12:37:47.913427
2022-12-02 12:37:47.921984
2022-12-02 12:37:47.930038
2022-12-02 12:37:47.942561
2022-12-02 12:37:47.950636
2022-12-02 12:37:47.958688
2022-12-02 12:37:47.970273
2022-12-02 12:37:47.978144
2022-12-02 12:37:47.987728
2022-12-02 12:37:47.995355
2022-12-02 12:37:48.008027
2022-12-02 12:37:48.015790
2022-12-02 12:37:48.024421
2022-12-02 12:37:48.036763
2022-12-02 12:37:48.044584
2022-12-02 12:37:48.052179
2022-12-02 12:37:48.060733
2022-12-02 12:37:48.072907
2022-12-02 12:37:48.081000
2022-12-02 12:37:48.089371
2022-12-02 12:37:48.101492
2022-12-02 12:37:48.109645
2022-12-02 12:37:48.117847
2022-12-02 12:37:48.125881
2022-12-02 12:37:48.138944
2022-12-02 12:37:48.147153
2022-12-02 12:37:48.154768
2022-12-02 12:37:48.167638
2022-12-02 12:37:48.175914
2022-12-02 12:37:48.184036
2022-12-02 12:37:48.192132
2022-12-02 12:37:48.204740
2022-12-02 12:37:48.212698
2022-12-02 12:37:48.220995
2022-12-02 12:37:48.232869
2022-12-02 12:37:48.240495
2022-12-02 12:37:48.249267
2022-12-02 12:37:48.257748
2022-12-02 12:37:48.269610
2022-12-02 12:37:48.277918
2022-12-02 12:37:48.285915
2022-12-02 12:37:48.297925
2022-12-02 12:37:48.306276
2022-12-02 12:37:48.314596
2022-12-02 12:37:48.322695
2022-12-02 12:37:48.334407
2022-12-02 12:37:48.343061
2022-12-02 12:37:48.351373
2022-12-02 12:37:48.363636
2022-12-02 12:37:48.372074
2022-12-02 12:37:48.379896
2022-12-02 12:37:48.388434
2022-12-02 12:37:48.400288
2022-12-02 12:37:48.408696
2022-12-02 12:37:48.416329
2022-12-02 12:37:48.428613
2022-12-02 12:37:48.436849
2022-12-02 12:37:48.445482
2022-12-02 12:37:48.454068
2022-12-02 12:37:48.465610
2022-12-02 12:37:48.473693
2022-12-02 12:37:48.482055
2022-12-02 12:37:48.494443
2022-12-02 12:37:48.503229
2022-12-02 12:37:48.510597
2022-12-02 12:37:48.518865
2022-12-02 12:37:48.531313
2022-12-02 12:37:48.539186
2022-12-02 12:37:48.547977
2022-12-02 12:37:48.559935
2022-12-02 12:37:48.568044
2022-12-02 12:37:48.576723
2022-12-02 12:37:48.584737
2022-12-02 12:37:48.597048
2022-12-02 12:37:48.604996
2022-12-02 12:37:48.612946
2022-12-02 12:37:48.625883
2022-12-02 12:37:48.634039
2022-12-02 12:37:48.641481
2022-12-02 12:37:48.650559
2022-12-02 12:37:48.662348
2022-12-02 12:37:48.670402
2022-12-02 12:37:48.679061
2022-12-02 12:37:48.691235
2022-12-02 12:37:48.699599
2022-12-02 12:37:48.707422
2022-12-02 12:37:48.715658
2022-12-02 12:37:48.728319
2022-12-02 12:37:48.736686
2022-12-02 12:37:48.743876
2022-12-02 12:37:48.752423
2022-12-02 12:37:48.764991
2022-12-02 12:37:48.772965
2022-12-02 12:37:48.781399
2022-12-02 12:37:48.793441
2022-12-02 12:37:48.802149
2022-12-02 12:37:48.810542
2022-12-02 12:37:48.818559
2022-12-02 12:37:48.830746
2022-12-02 12:37:48.839034
2022-12-02 12:37:48.846401
2022-12-02 12:37:48.859387
2022-12-02 12:37:48.867816
2022-12-02 12:37:48.875754
2022-12-02 12:37:48.884064
2022-12-02 12:37:48.896459
2022-12-02 12:37:48.904743
2022-12-02 12:37:48.912810
2022-12-02 12:37:48.925374
2022-12-02 12:37:48.933021
2022-12-02 12:37:48.941890
2022-12-02 12:37:48.949469
2022-12-02 12:37:48.962091
2022-12-02 12:37:48.969509
2022-12-02 12:37:48.978768
2022-12-02 12:37:48.991025
2022-12-02 12:37:48.998756
2022-12-02 12:37:49.007542
2022-12-02 12:37:49.015461
2022-12-02 12:37:49.027449
2022-12-02 12:37:49.036044
2022-12-02 12:37:49.043793
2022-12-02 12:37:49.056158
2022-12-02 12:37:49.063698
2022-12-02 12:37:49.072235
2022-12-02 12:37:49.080902
2022-12-02 12:37:49.092886
2022-12-02 12:37:49.101665
2022-12-02 12:37:49.108946
2022-12-02 12:37:49.121998
2022-12-02 12:37:49.129882
2022-12-02 12:37:49.138754
2022-12-02 12:37:49.146645
2022-12-02 12:37:49.158382
2022-12-02 12:37:49.166803
2022-12-02 12:37:49.175510
2022-12-02 12:37:49.187745
2022-12-02 12:37:49.195436
2022-12-02 12:37:49.203985
2022-12-02 12:37:49.211634
2022-12-02 12:37:49.223760
2022-12-02 12:37:49.232406
2022-12-02 12:37:49.240740
2022-12-02 12:37:49.252457
2022-12-02 12:37:49.260960
2022-12-02 12:37:49.269373
2022-12-02 12:37:49.276985
2022-12-02 12:37:49.289964
2022-12-02 12:37:49.297333
2022-12-02 12:37:49.306752
2022-12-02 12:37:49.318575
2022-12-02 12:37:49.326523
2022-12-02 12:37:49.333900
2022-12-02 12:37:49.342462
2022-12-02 12:37:49.355744
2022-12-02 12:37:49.362936
2022-12-02 12:37:49.371865
2022-12-02 12:37:49.384110
2022-12-02 12:37:49.392557
2022-12-02 12:37:49.400307
2022-12-02 12:37:49.408833
2022-12-02 12:37:49.421119
2022-12-02 12:37:49.429235
2022-12-02 12:37:49.437631
2022-12-02 12:37:49.449414
2022-12-02 12:37:49.457778
2022-12-02 12:37:49.465796
2022-12-02 12:37:49.474068
2022-12-02 12:37:49.486043
2022-12-02 12:37:49.494559
2022-12-02 12:37:49.502130
2022-12-02 12:37:49.514293
2022-12-02 12:37:49.522345
2022-12-02 12:37:49.531065
2022-12-02 12:37:49.539751
2022-12-02 12:37:49.552003
2022-12-02 12:37:49.560049
2022-12-02 12:37:49.568307
2022-12-02 12:37:49.576755
2022-12-02 12:37:49.589076
2022-12-02 12:37:49.596288
2022-12-02 12:37:49.605743
2022-12-02 12:37:49.617651
2022-12-02 12:37:49.625605
2022-12-02 12:37:49.634053
2022-12-02 12:37:49.641902
2022-12-02 12:37:49.654255
2022-12-02 12:37:49.662691
2022-12-02 12:37:49.669688
2022-12-02 12:37:49.683114
2022-12-02 12:37:49.691760
2022-12-02 12:37:49.699968
2022-12-02 12:37:49.707727
2022-12-02 12:37:49.720005
2022-12-02 12:37:49.728256
2022-12-02 12:37:49.736291
2022-12-02 12:37:49.748552
2022-12-02 12:37:49.756948
2022-12-02 12:37:49.764928
2022-12-02 12:37:49.773934
2022-12-02 12:37:49.785743
2022-12-02 12:37:49.793550
2022-12-02 12:37:49.801896
2022-12-02 12:37:49.813685
2022-12-02 12:37:49.822027
2022-12-02 12:37:49.830374
2022-12-02 12:37:49.838630
2022-12-02 12:37:49.850207
2022-12-02 12:37:49.858492
2022-12-02 12:37:49.867216
2022-12-02 12:37:49.879581
2022-12-02 12:37:49.887876
2022-12-02 12:37:49.896016
2022-12-02 12:37:49.904345
2022-12-02 12:37:49.916550
2022-12-02 12:37:49.924748
2022-12-02 12:37:49.932356
2022-12-02 12:37:49.945025
2022-12-02 12:37:49.953182
2022-12-02 12:37:49.961195
2022-12-02 12:37:49.970020
2022-12-02 12:37:49.981891
2022-12-02 12:37:49.990633
2022-12-02 12:37:49.998383
2022-12-02 12:37:50.010492
2022-12-02 12:37:50.018630
2022-12-02 12:37:50.026741
2022-12-02 12:37:50.035758
2022-12-02 12:37:50.047216
2022-12-02 12:37:50.055237
2022-12-02 12:37:50.063874
2022-12-02 12:37:50.076314
2022-12-02 12:37:50.084218
2022-12-02 12:37:50.091852
2022-12-02 12:37:50.100666
2022-12-02 12:37:50.112846
2022-12-02 12:37:50.121353
2022-12-02 12:37:50.129291
2022-12-02 12:37:50.141797
2022-12-02 12:37:50.149237
2022-12-02 12:37:50.158337
2022-12-02 12:37:50.166643
2022-12-02 12:37:50.178551
2022-12-02 12:37:50.187067
2022-12-02 12:37:50.194996
2022-12-02 12:37:50.207030
2022-12-02 12:37:50.215354
2022-12-02 12:37:50.223713
2022-12-02 12:37:50.231698
2022-12-02 12:37:50.244229
2022-12-02 12:37:50.252521
2022-12-02 12:37:50.260412
2022-12-02 12:37:50.272876
2022-12-02 12:37:50.280623
2022-12-02 12:37:50.288680
2022-12-02 12:37:50.297200
2022-12-02 12:37:50.309850
2022-12-02 12:37:50.318049
2022-12-02 12:37:50.326239
2022-12-02 12:37:50.338745
2022-12-02 12:37:50.346589
2022-12-02 12:37:50.354904
2022-12-02 12:37:50.362771
2022-12-02 12:37:50.374917
2022-12-02 12:37:50.383750
2022-12-02 12:37:50.390778
2022-12-02 12:37:50.399954
2022-12-02 12:37:50.412639
2022-12-02 12:37:50.420636
2022-12-02 12:37:50.428730
2022-12-02 12:37:50.440675
2022-12-02 12:37:50.448818
2022-12-02 12:37:50.457638
2022-12-02 12:37:50.465071
2022-12-02 12:37:50.477529
2022-12-02 12:37:50.485055
2022-12-02 12:37:50.493789
2022-12-02 12:37:50.505336
2022-12-02 12:37:50.514314
2022-12-02 12:37:50.522559
2022-12-02 12:37:50.530706
2022-12-02 12:37:50.543252
2022-12-02 12:37:50.551715
2022-12-02 12:37:50.559999
2022-12-02 12:37:50.572124
2022-12-02 12:37:50.579437
2022-12-02 12:37:50.588559
2022-12-02 12:37:50.595758
2022-12-02 12:37:50.608397
2022-12-02 12:37:50.616906
2022-12-02 12:37:50.625348
2022-12-02 12:37:50.637317
2022-12-02 12:37:50.645699
2022-12-02 12:37:50.653723
2022-12-02 12:37:50.662175
2022-12-02 12:37:50.674107
2022-12-02 12:37:50.682445
2022-12-02 12:37:50.691136
2022-12-02 12:37:50.703054
2022-12-02 12:37:50.711208
2022-12-02 12:37:50.719729
2022-12-02 12:37:50.727398
2022-12-02 12:37:50.739941
2022-12-02 12:37:50.747913
2022-12-02 12:37:50.756745
2022-12-02 12:37:50.768361
2022-12-02 12:37:50.776436
2022-12-02 12:37:50.785030
2022-12-02 12:37:50.792599
2022-12-02 12:37:50.805653
2022-12-02 12:37:50.812650
2022-12-02 12:37:50.821945
2022-12-02 12:37:50.834134
2022-12-02 12:37:50.841367
2022-12-02 12:37:50.849791
2022-12-02 12:37:50.858092
2022-12-02 12:37:50.870978
2022-12-02 12:37:50.879167
2022-12-02 12:37:50.887643
2022-12-02 12:37:50.899405
2022-12-02 12:37:50.907235
2022-12-02 12:37:50.915990
2022-12-02 12:37:50.924369
2022-12-02 12:37:50.936285
2022-12-02 12:37:50.944708
2022-12-02 12:37:50.952926
2022-12-02 12:37:50.964448
2022-12-02 12:37:50.973339
2022-12-02 12:37:50.981318
2022-12-02 12:37:50.989854
2022-12-02 12:37:51.002170
2022-12-02 12:37:51.010306
2022-12-02 12:37:51.018759
2022-12-02 12:37:51.030198
2022-12-02 12:37:51.038627
2022-12-02 12:37:51.046954
2022-12-02 12:37:51.055269
2022-12-02 12:37:51.067573
2022-12-02 12:37:51.075109
2022-12-02 12:37:51.083843
2022-12-02 12:37:51.095792
2022-12-02 12:37:51.104334
2022-12-02 12:37:51.112187
2022-12-02 12:37:51.120941
2022-12-02 12:37:51.133617
2022-12-02 12:37:51.141836
2022-12-02 12:37:51.149280
2022-12-02 12:37:51.160702
2022-12-02 12:37:51.170609
2022-12-02 12:37:51.178596
2022-12-02 12:37:51.186774
2022-12-02 12:37:51.198408
2022-12-02 12:37:51.206893
2022-12-02 12:37:51.214925
2022-12-02 12:37:51.227103
2022-12-02 12:37:51.234917
2022-12-02 12:37:51.243461
2022-12-02 12:37:51.251936
2022-12-02 12:37:51.263542
2022-12-02 12:37:51.272346
2022-12-02 12:37:51.279832
2022-12-02 12:37:51.288716
2022-12-02 12:37:51.300901
2022-12-02 12:37:51.309031
2022-12-02 12:37:51.317057
2022-12-02 12:37:51.328503
2022-12-02 12:37:51.338032
2022-12-02 12:37:51.345668
2022-12-02 12:37:51.354354
2022-12-02 12:37:51.367194
2022-12-02 12:37:51.375150
2022-12-02 12:37:51.383522
2022-12-02 12:37:51.395339
2022-12-02 12:37:51.403761
2022-12-02 12:37:51.411666
2022-12-02 12:37:51.419885
2022-12-02 12:37:51.431894
2022-12-02 12:37:51.440156
2022-12-02 12:37:51.448241
2022-12-02 12:37:51.460410
2022-12-02 12:37:51.467931
2022-12-02 12:37:51.476796
2022-12-02 12:37:51.485282
2022-12-02 12:37:51.497057
2022-12-02 12:37:51.504882
2022-12-02 12:37:51.513623
2022-12-02 12:37:51.525609
2022-12-02 12:37:51.534372
2022-12-02 12:37:51.542584
2022-12-02 12:37:51.550152
2022-12-02 12:37:51.562370
2022-12-02 12:37:51.570609
2022-12-02 12:37:51.578938
2022-12-02 12:37:51.590983
2022-12-02 12:37:51.599825
2022-12-02 12:37:51.607881
2022-12-02 12:37:51.616162
2022-12-02 12:37:51.628453
2022-12-02 12:37:51.636441
2022-12-02 12:37:51.645212
2022-12-02 12:37:51.657134
2022-12-02 12:37:51.665343
2022-12-02 12:37:51.673766
2022-12-02 12:37:51.681139
2022-12-02 12:37:51.694239
2022-12-02 12:37:51.702971
2022-12-02 12:37:51.710857
2022-12-02 12:37:51.723449
2022-12-02 12:37:51.730981
2022-12-02 12:37:51.739333
2022-12-02 12:37:51.747457
2022-12-02 12:37:51.759747
2022-12-02 12:37:51.767905
2022-12-02 12:37:51.775942
2022-12-02 12:37:51.788566
2022-12-02 12:37:51.796474
2022-12-02 12:37:51.804976
2022-12-02 12:37:51.813175
2022-12-02 12:37:51.825138
2022-12-02 12:37:51.833396
2022-12-02 12:37:51.841484
2022-12-02 12:37:51.853678
2022-12-02 12:37:51.861941
2022-12-02 12:37:51.870206
2022-12-02 12:37:51.878457
2022-12-02 12:37:51.891097
2022-12-02 12:37:51.900054
2022-12-02 12:37:51.907278
2022-12-02 12:37:51.919576
2022-12-02 12:37:51.927627
2022-12-02 12:37:51.935922
2022-12-02 12:37:51.943877
2022-12-02 12:37:51.956936
2022-12-02 12:37:51.964508
2022-12-02 12:37:51.973306
2022-12-02 12:37:51.985689
2022-12-02 12:37:51.993312
2022-12-02 12:37:52.001235
2022-12-02 12:37:52.009609
2022-12-02 12:37:52.022082
2022-12-02 12:37:52.029889
2022-12-02 12:37:52.039358
2022-12-02 12:37:52.050555
2022-12-02 12:37:52.058493
2022-12-02 12:37:52.067507
2022-12-02 12:37:52.074364
2022-12-02 12:37:52.087092
2022-12-02 12:37:52.095429
2022-12-02 12:37:52.103758
2022-12-02 12:37:52.112040
2022-12-02 12:37:52.124280
2022-12-02 12:37:52.132116
2022-12-02 12:37:52.140453
2022-12-02 12:37:52.153001
2022-12-02 12:37:52.161192
2022-12-02 12:37:52.169993
2022-12-02 12:37:52.178020
2022-12-02 12:37:52.190114
2022-12-02 12:37:52.197657
2022-12-02 12:37:52.206916
2022-12-02 12:37:52.219155
2022-12-02 12:37:52.226392
2022-12-02 12:37:52.235404
2022-12-02 12:37:52.242103
2022-12-02 12:37:52.255667
2022-12-02 12:37:52.262782
2022-12-02 12:37:52.271789
2022-12-02 12:37:52.284175
2022-12-02 12:37:52.292070
2022-12-02 12:37:52.300987
2022-12-02 12:37:52.308416
2022-12-02 12:37:52.320187
2022-12-02 12:37:52.328474
2022-12-02 12:37:52.337844
2022-12-02 12:37:52.349230
2022-12-02 12:37:52.357051
2022-12-02 12:37:52.365337
2022-12-02 12:37:52.374232
2022-12-02 12:37:52.387118
2022-12-02 12:37:52.394887
2022-12-02 12:37:52.402954
2022-12-02 12:37:52.415127
2022-12-02 12:37:52.423567
2022-12-02 12:37:52.431177
2022-12-02 12:37:52.439738
2022-12-02 12:37:52.452213
2022-12-02 12:37:52.460107
2022-12-02 12:37:52.469024
2022-12-02 12:37:52.479629
2022-12-02 12:37:52.488440
2022-12-02 12:37:52.496194
2022-12-02 12:37:52.504982
2022-12-02 12:37:52.518098
2022-12-02 12:37:52.525464
2022-12-02 12:37:52.534655
2022-12-02 12:37:52.545779
2022-12-02 12:37:52.554042
2022-12-02 12:37:52.562210
2022-12-02 12:37:52.570492
2022-12-02 12:37:52.583416
2022-12-02 12:37:52.591094
2022-12-02 12:37:52.599640
2022-12-02 12:37:52.610801
2022-12-02 12:37:52.620114
2022-12-02 12:37:52.627395
2022-12-02 12:37:52.635355
2022-12-02 12:37:52.648221
2022-12-02 12:37:52.655961
2022-12-02 12:37:52.664293
2022-12-02 12:37:52.676904
2022-12-02 12:37:52.685432
2022-12-02 12:37:52.693384
2022-12-02 12:37:52.701931
2022-12-02 12:37:52.713477
2022-12-02 12:37:52.721354
2022-12-02 12:37:52.730252
2022-12-02 12:37:52.742419
2022-12-02 12:37:52.750076
2022-12-02 12:37:52.758940
2022-12-02 12:37:52.767112
2022-12-02 12:37:52.779299
2022-12-02 12:37:52.787109
2022-12-02 12:37:52.795581
2022-12-02 12:37:52.808015
2022-12-02 12:37:52.815961
2022-12-02 12:37:52.824513
2022-12-02 12:37:52.832680
2022-12-02 12:37:52.844863
2022-12-02 12:37:52.853505
2022-12-02 12:37:52.861597
2022-12-02 12:37:52.873639
2022-12-02 12:37:52.882181
2022-12-02 12:37:52.890110
2022-12-02 12:37:52.898499
2022-12-02 12:37:52.911347
2022-12-02 12:37:52.918438
2022-12-02 12:37:52.926729
2022-12-02 12:37:52.939733
2022-12-02 12:37:52.946407
2022-12-02 12:37:52.955902
2022-12-02 12:37:52.963658
2022-12-02 12:37:52.975923
2022-12-02 12:37:52.983913
2022-12-02 12:37:52.992081
2022-12-02 12:37:53.001526
2022-12-02 12:37:53.012750
2022-12-02 12:37:53.022028
2022-12-02 12:37:53.029485
2022-12-02 12:37:53.041268
2022-12-02 12:37:53.049193
2022-12-02 12:37:53.057485
2022-12-02 12:37:53.067008
2022-12-02 12:37:53.078505
2022-12-02 12:37:53.086632
2022-12-02 12:37:53.094961
2022-12-02 12:37:53.107219
2022-12-02 12:37:53.115142
2022-12-02 12:37:53.123347
2022-12-02 12:37:53.130700
2022-12-02 12:37:53.144105
2022-12-02 12:37:53.152349
2022-12-02 12:37:53.160729
2022-12-02 12:37:53.173491
2022-12-02 12:37:53.180882
2022-12-02 12:37:53.189808
2022-12-02 12:37:53.197258
2022-12-02 12:37:53.210063
2022-12-02 12:37:53.218598
2022-12-02 12:37:53.225951
2022-12-02 12:37:53.238320
2022-12-02 12:37:53.246069
2022-12-02 12:37:53.254034
2022-12-02 12:37:53.262731
2022-12-02 12:37:53.275475
2022-12-02 12:37:53.283834
2022-12-02 12:37:53.291633
2022-12-02 12:37:53.303970
2022-12-02 12:37:53.311632
2022-12-02 12:37:53.320350
2022-12-02 12:37:53.328102
2022-12-02 12:37:53.340460
2022-12-02 12:37:53.348497
2022-12-02 12:37:53.356535
2022-12-02 12:37:53.368462
2022-12-02 12:37:53.377341
2022-12-02 12:37:53.385347
2022-12-02 12:37:53.393606
2022-12-02 12:37:53.406371
2022-12-02 12:37:53.414460
2022-12-02 12:37:53.422519
2022-12-02 12:37:53.435603
2022-12-02 12:37:53.443003
2022-12-02 12:37:53.451673
2022-12-02 12:37:53.459733
2022-12-02 12:37:53.471890
2022-12-02 12:37:53.479463
2022-12-02 12:37:53.487942
2022-12-02 12:37:53.500146
2022-12-02 12:37:53.508576
2022-12-02 12:37:53.516818
2022-12-02 12:37:53.524918
2022-12-02 12:37:53.537966
2022-12-02 12:37:53.544716
2022-12-02 12:37:53.553991
2022-12-02 12:37:53.566674
2022-12-02 12:37:53.574437
2022-12-02 12:37:53.583065
2022-12-02 12:37:53.590330
2022-12-02 12:37:53.602820
2022-12-02 12:37:53.610492
2022-12-02 12:37:53.618875
2022-12-02 12:37:53.631290
2022-12-02 12:37:53.639472
2022-12-02 12:37:53.647437
2022-12-02 12:37:53.655926
2022-12-02 12:37:53.669174
2022-12-02 12:37:53.676614
2022-12-02 12:37:53.685450
2022-12-02 12:37:53.696175
2022-12-02 12:37:53.704910
2022-12-02 12:37:53.713423
2022-12-02 12:37:53.721847
2022-12-02 12:37:53.733353
2022-12-02 12:37:53.741986
2022-12-02 12:37:53.750437
2022-12-02 12:37:53.762344
2022-12-02 12:37:53.771039
2022-12-02 12:37:53.778351
2022-12-02 12:37:53.787311
2022-12-02 12:37:53.799261
2022-12-02 12:37:53.807728
2022-12-02 12:37:53.815899
2022-12-02 12:37:53.823521
2022-12-02 12:37:53.836606
2022-12-02 12:37:53.844633
2022-12-02 12:37:53.852954
2022-12-02 12:37:53.864657
2022-12-02 12:37:53.872856
2022-12-02 12:37:53.881674
2022-12-02 12:37:53.888881
2022-12-02 12:37:53.902476
2022-12-02 12:37:53.910284
2022-12-02 12:37:53.918274
2022-12-02 12:37:53.930290
2022-12-02 12:37:53.939380
2022-12-02 12:37:53.946846
2022-12-02 12:37:53.955676
2022-12-02 12:37:53.967622
2022-12-02 12:37:53.975512
2022-12-02 12:37:53.983944
2022-12-02 12:37:53.995430
2022-12-02 12:37:54.005038
2022-12-02 12:37:54.011550
2022-12-02 12:37:54.021397
2022-12-02 12:37:54.033702
2022-12-02 12:37:54.041044
2022-12-02 12:37:54.049543
2022-12-02 12:37:54.061395
2022-12-02 12:37:54.070126
2022-12-02 12:37:54.077339
2022-12-02 12:37:54.086727
2022-12-02 12:37:54.099157
2022-12-02 12:37:54.106420
2022-12-02 12:37:54.115522
2022-12-02 12:37:54.127413
2022-12-02 12:37:54.135526
2022-12-02 12:37:54.143691
2022-12-02 12:37:54.151615
2022-12-02 12:37:54.163680
2022-12-02 12:37:54.173149
2022-12-02 12:37:54.180203
2022-12-02 12:37:54.192919
2022-12-02 12:37:54.200972
2022-12-02 12:37:54.209334
2022-12-02 12:37:54.217166
2022-12-02 12:37:54.228817
2022-12-02 12:37:54.237939
2022-12-02 12:37:54.245467
2022-12-02 12:37:54.258119
2022-12-02 12:37:54.266642
2022-12-02 12:37:54.274700
2022-12-02 12:37:54.283009
2022-12-02 12:37:54.294467
2022-12-02 12:37:54.303556
2022-12-02 12:37:54.311305
2022-12-02 12:37:54.323501
2022-12-02 12:37:54.331929
2022-12-02 12:37:54.339689
2022-12-02 12:37:54.348503
2022-12-02 12:37:54.360475
2022-12-02 12:37:54.368813
2022-12-02 12:37:54.377393
2022-12-02 12:37:54.388346
2022-12-02 12:37:54.397666
2022-12-02 12:37:54.405816
2022-12-02 12:37:54.413837
2022-12-02 12:37:54.425878
2022-12-02 12:37:54.434868
2022-12-02 12:37:54.442639
2022-12-02 12:37:54.455207
2022-12-02 12:37:54.462922
2022-12-02 12:37:54.471355
2022-12-02 12:37:54.478908
2022-12-02 12:37:54.491790
2022-12-02 12:37:54.500091
2022-12-02 12:37:54.507552
2022-12-02 12:37:54.520342
2022-12-02 12:37:54.528546
2022-12-02 12:37:54.536120
2022-12-02 12:37:54.544135
2022-12-02 12:37:54.557052
2022-12-02 12:37:54.565509
2022-12-02 12:37:54.573502
2022-12-02 12:37:54.586153
2022-12-02 12:37:54.593406
2022-12-02 12:37:54.601507
2022-12-02 12:37:54.609930
2022-12-02 12:37:54.621938
2022-12-02 12:37:54.631082
2022-12-02 12:37:54.638949
2022-12-02 12:37:54.651012
2022-12-02 12:37:54.658858
2022-12-02 12:37:54.667341
2022-12-02 12:37:54.675785
2022-12-02 12:37:54.688155
2022-12-02 12:37:54.695633
2022-12-02 12:37:54.704476
2022-12-02 12:37:54.712821
2022-12-02 12:37:54.724599
2022-12-02 12:37:54.732396
2022-12-02 12:37:54.740658
2022-12-02 12:37:54.752976
2022-12-02 12:37:54.762077
2022-12-02 12:37:54.771000
2022-12-02 12:37:54.777783
2022-12-02 12:37:54.791378
2022-12-02 12:37:54.799388
2022-12-02 12:37:54.806955
2022-12-02 12:37:54.819799
2022-12-02 12:37:54.827076
2022-12-02 12:37:54.835812
2022-12-02 12:37:54.843523
2022-12-02 12:37:54.856165
2022-12-02 12:37:54.863688
2022-12-02 12:37:54.872983
2022-12-02 12:37:54.885620
2022-12-02 12:37:54.893023
2022-12-02 12:37:54.901958
2022-12-02 12:37:54.909756
2022-12-02 12:37:54.920968
2022-12-02 12:37:54.929882
2022-12-02 12:37:54.937442
2022-12-02 12:37:54.950368
2022-12-02 12:37:54.958559
2022-12-02 12:37:54.966915
2022-12-02 12:37:54.974575
2022-12-02 12:37:54.987682
2022-12-02 12:37:54.995553
2022-12-02 12:37:55.003985
2022-12-02 12:37:55.016127
2022-12-02 12:37:55.024137
2022-12-02 12:37:55.032313
2022-12-02 12:37:55.041023
2022-12-02 12:37:55.052371
2022-12-02 12:37:55.061002
2022-12-02 12:37:55.069918
2022-12-02 12:37:55.081660
2022-12-02 12:37:55.089538
2022-12-02 12:37:55.098693
2022-12-02 12:37:55.106667
2022-12-02 12:37:55.118279
2022-12-02 12:37:55.127103
2022-12-02 12:37:55.135432
2022-12-02 12:37:55.146992
2022-12-02 12:37:55.155675
2022-12-02 12:37:55.163196
2022-12-02 12:37:55.171840
2022-12-02 12:37:55.184074
2022-12-02 12:37:55.191583
2022-12-02 12:37:55.200303
2022-12-02 12:37:55.212503
2022-12-02 12:37:55.221577
2022-12-02 12:37:55.228885
2022-12-02 12:37:55.237274
2022-12-02 12:37:55.250233
2022-12-02 12:37:55.257459
2022-12-02 12:37:55.266578
2022-12-02 12:37:55.277583
2022-12-02 12:37:55.285999
2022-12-02 12:37:55.294245
2022-12-02 12:37:55.302740
2022-12-02 12:37:55.315493
2022-12-02 12:37:55.323421
2022-12-02 12:37:55.331102
2022-12-02 12:37:55.343830
2022-12-02 12:37:55.352002
2022-12-02 12:37:55.360158
2022-12-02 12:37:55.367681
2022-12-02 12:37:55.381213
2022-12-02 12:37:55.388869
2022-12-02 12:37:55.396627
2022-12-02 12:37:55.409037
2022-12-02 12:37:55.418150
2022-12-02 12:37:55.426336
2022-12-02 12:37:55.433970
2022-12-02 12:37:55.445974
2022-12-02 12:37:55.454549
2022-12-02 12:37:55.462511
2022-12-02 12:37:55.474982
2022-12-02 12:37:55.483133
2022-12-02 12:37:55.491296
2022-12-02 12:37:55.499683
2022-12-02 12:37:55.510816
2022-12-02 12:37:55.519941
2022-12-02 12:37:55.527429
2022-12-02 12:37:55.536184
2022-12-02 12:37:55.549217
2022-12-02 12:37:55.556510
2022-12-02 12:37:55.565032
2022-12-02 12:37:55.577181
2022-12-02 12:37:55.585540
2022-12-02 12:37:55.593541
2022-12-02 12:37:55.601964
2022-12-02 12:37:55.614213
2022-12-02 12:37:55.622480
2022-12-02 12:37:55.630585
2022-12-02 12:37:55.642733
2022-12-02 12:37:55.651151
2022-12-02 12:37:55.659527
2022-12-02 12:37:55.667776
2022-12-02 12:37:55.679200
2022-12-02 12:37:55.686432
2022-12-02 12:37:55.696016
2022-12-02 12:37:55.707743
2022-12-02 12:37:55.716347
2022-12-02 12:37:55.724599
2022-12-02 12:37:55.732572
2022-12-02 12:37:55.744876
2022-12-02 12:37:55.753714
2022-12-02 12:37:55.761349
2022-12-02 12:37:55.773140
2022-12-02 12:37:55.782262
2022-12-02 12:37:55.790573
2022-12-02 12:37:55.798886
2022-12-02 12:37:55.810288
2022-12-02 12:37:55.819605
2022-12-02 12:37:55.827359
2022-12-02 12:37:55.838913
2022-12-02 12:37:55.847668
2022-12-02 12:37:55.855410
2022-12-02 12:37:55.864135
2022-12-02 12:37:55.876511
2022-12-02 12:37:55.885354
2022-12-02 12:37:55.892633
2022-12-02 12:37:55.903885
2022-12-02 12:37:55.913241
2022-12-02 12:37:55.921247
2022-12-02 12:37:55.929277
2022-12-02 12:37:55.941817
2022-12-02 12:37:55.949956
2022-12-02 12:37:55.958067
2022-12-02 12:37:55.970607
2022-12-02 12:37:55.978367
2022-12-02 12:37:55.987479
2022-12-02 12:37:55.994937
2022-12-02 12:37:56.007446
2022-12-02 12:37:56.015696
2022-12-02 12:37:56.023865
2022-12-02 12:37:56.036223
2022-12-02 12:37:56.043854
2022-12-02 12:37:56.053186
2022-12-02 12:37:56.060534
2022-12-02 12:37:56.072588
2022-12-02 12:37:56.080476
2022-12-02 12:37:56.089063
2022-12-02 12:37:56.102178
2022-12-02 12:37:56.109719
2022-12-02 12:37:56.118469
2022-12-02 12:37:56.126593
2022-12-02 12:37:56.138955
2022-12-02 12:37:56.146127
2022-12-02 12:37:56.154708
2022-12-02 12:37:56.167420
2022-12-02 12:37:56.175312
2022-12-02 12:37:56.183263
2022-12-02 12:37:56.191887
2022-12-02 12:37:56.204080
2022-12-02 12:37:56.211555
2022-12-02 12:37:56.220415
2022-12-02 12:37:56.232538
2022-12-02 12:37:56.240525
2022-12-02 12:37:56.248995
2022-12-02 12:37:56.256897
2022-12-02 12:37:56.269275
2022-12-02 12:37:56.277179
2022-12-02 12:37:56.286407
2022-12-02 12:37:56.298190
2022-12-02 12:37:56.306286
2022-12-02 12:37:56.313889
2022-12-02 12:37:56.322661
2022-12-02 12:37:56.335536
2022-12-02 12:37:56.343646
2022-12-02 12:37:56.351475
2022-12-02 12:37:56.359477
2022-12-02 12:37:56.371885
2022-12-02 12:37:56.380040
2022-12-02 12:37:56.388355
2022-12-02 12:37:56.400357
2022-12-02 12:37:56.408425
2022-12-02 12:37:56.416590
2022-12-02 12:37:56.424895
2022-12-02 12:37:56.437143
2022-12-02 12:37:56.444689
2022-12-02 12:37:56.452819
2022-12-02 12:37:56.466659
2022-12-02 12:37:56.473979
2022-12-02 12:37:56.483321
2022-12-02 12:37:56.490582
2022-12-02 12:37:56.503098
2022-12-02 12:37:56.510976
2022-12-02 12:37:56.519446
2022-12-02 12:37:56.530423
2022-12-02 12:37:56.539776
2022-12-02 12:37:56.548017
2022-12-02 12:37:56.555687
2022-12-02 12:37:56.568198
2022-12-02 12:37:56.576357
2022-12-02 12:37:56.585213
2022-12-02 12:37:56.597810
2022-12-02 12:37:56.605323
2022-12-02 12:37:56.614085
2022-12-02 12:37:56.621580
2022-12-02 12:37:56.634617
2022-12-02 12:37:56.642046
2022-12-02 12:37:56.650210
2022-12-02 12:37:56.662164
2022-12-02 12:37:56.670008
2022-12-02 12:37:56.678870
2022-12-02 12:37:56.687033
2022-12-02 12:37:56.699384
2022-12-02 12:37:56.707701
2022-12-02 12:37:56.715257
2022-12-02 12:37:56.727181
2022-12-02 12:37:56.736277
2022-12-02 12:37:56.744541
2022-12-02 12:37:56.752939
2022-12-02 12:37:56.765228
2022-12-02 12:37:56.773535
2022-12-02 12:37:56.782138
2022-12-02 12:37:56.793532
2022-12-02 12:37:56.802622
2022-12-02 12:37:56.810260
2022-12-02 12:37:56.818875
2022-12-02 12:37:56.831184
2022-12-02 12:37:56.838638
2022-12-02 12:37:56.846880
2022-12-02 12:37:56.859480
2022-12-02 12:37:56.867213
2022-12-02 12:37:56.875343
2022-12-02 12:37:56.883772
2022-12-02 12:37:56.895883
2022-12-02 12:37:56.904161
2022-12-02 12:37:56.911967
2022-12-02 12:37:56.925388
2022-12-02 12:37:56.933190
2022-12-02 12:37:56.940899
2022-12-02 12:37:56.948637
2022-12-02 12:37:56.961463
2022-12-02 12:37:56.969688
2022-12-02 12:37:56.977526
2022-12-02 12:37:56.990681
2022-12-02 12:37:56.999129
2022-12-02 12:37:57.006759
2022-12-02 12:37:57.015194
2022-12-02 12:37:57.026874
2022-12-02 12:37:57.035699
2022-12-02 12:37:57.043538
2022-12-02 12:37:57.055669
2022-12-02 12:37:57.064159
2022-12-02 12:37:57.071795
2022-12-02 12:37:57.080315
2022-12-02 12:37:57.092857
2022-12-02 12:37:57.099606
2022-12-02 12:37:57.109530
2022-12-02 12:37:57.121687
2022-12-02 12:37:57.129654
2022-12-02 12:37:57.137749
2022-12-02 12:37:57.146083
2022-12-02 12:37:57.158976
2022-12-02 12:37:57.166580
2022-12-02 12:37:57.174897
2022-12-02 12:37:57.187613
2022-12-02 12:37:57.194509
2022-12-02 12:37:57.203571
2022-12-02 12:37:57.211138
2022-12-02 12:37:57.223563
2022-12-02 12:37:57.231656
2022-12-02 12:37:57.239400
2022-12-02 12:37:57.247951
2022-12-02 12:37:57.260509
2022-12-02 12:37:57.268905
2022-12-02 12:37:57.276763
2022-12-02 12:37:57.288576
2022-12-02 12:37:57.298141
2022-12-02 12:37:57.305671
2022-12-02 12:37:57.314828
2022-12-02 12:37:57.325582
2022-12-02 12:37:57.334278
2022-12-02 12:37:57.342457
2022-12-02 12:37:57.354754
2022-12-02 12:37:57.362826
2022-12-02 12:37:57.371300
2022-12-02 12:37:57.379164
2022-12-02 12:37:57.391750
2022-12-02 12:37:57.400011
2022-12-02 12:37:57.408334
2022-12-02 12:37:57.421008
2022-12-02 12:37:57.427990
2022-12-02 12:37:57.436300
2022-12-02 12:37:57.444382
2022-12-02 12:37:57.457121
2022-12-02 12:37:57.465801
2022-12-02 12:37:57.474050
2022-12-02 12:37:57.485765
2022-12-02 12:37:57.493357
2022-12-02 12:37:57.502163
2022-12-02 12:37:57.510021
2022-12-02 12:37:57.522235
2022-12-02 12:37:57.531686
2022-12-02 12:37:57.538509
2022-12-02 12:37:57.551620
2022-12-02 12:37:57.559761
2022-12-02 12:37:57.567928
2022-12-02 12:37:57.576141
2022-12-02 12:37:57.588760
2022-12-02 12:37:57.597133
2022-12-02 12:37:57.604938
2022-12-02 12:37:57.617727
2022-12-02 12:37:57.625265
2022-12-02 12:37:57.634116
2022-12-02 12:37:57.641541
2022-12-02 12:37:57.654092
2022-12-02 12:37:57.662008
2022-12-02 12:37:57.670832
2022-12-02 12:37:57.682668
2022-12-02 12:37:57.690574
2022-12-02 12:37:57.699553
2022-12-02 12:37:57.707100
2022-12-02 12:37:57.719531
2022-12-02 12:37:57.727610
2022-12-02 12:37:57.734974
2022-12-02 12:37:57.747862
2022-12-02 12:37:57.755665
2022-12-02 12:37:57.763499
2022-12-02 12:37:57.772211
2022-12-02 12:37:57.784191
2022-12-02 12:37:57.792463
2022-12-02 12:37:57.801021
2022-12-02 12:37:57.813205
2022-12-02 12:37:57.821334
2022-12-02 12:37:57.829789
2022-12-02 12:37:57.837696
2022-12-02 12:37:57.850353
2022-12-02 12:37:57.857943
2022-12-02 12:37:57.865971
2022-12-02 12:37:57.878881
2022-12-02 12:37:57.886738
2022-12-02 12:37:57.894578
2022-12-02 12:37:57.903854
2022-12-02 12:37:57.915639
2022-12-02 12:37:57.924462
2022-12-02 12:37:57.932227
2022-12-02 12:37:57.944175
2022-12-02 12:37:57.953001
2022-12-02 12:37:57.960750
2022-12-02 12:37:57.969888
2022-12-02 12:37:57.982137
2022-12-02 12:37:57.989858
2022-12-02 12:37:57.998295
2022-12-02 12:37:58.009454
2022-12-02 12:37:58.018823
2022-12-02 12:37:58.026242
2022-12-02 12:37:58.035373
2022-12-02 12:37:58.047542
2022-12-02 12:37:58.054957
2022-12-02 12:37:58.063707
2022-12-02 12:37:58.070873
2022-12-02 12:37:58.084450
2022-12-02 12:37:58.092273
2022-12-02 12:37:58.100710
2022-12-02 12:37:58.112680
2022-12-02 12:37:58.120872
2022-12-02 12:37:58.128869
2022-12-02 12:37:58.137815
2022-12-02 12:37:58.150106
2022-12-02 12:37:58.157767
2022-12-02 12:37:58.165766
2022-12-02 12:37:58.177032
2022-12-02 12:37:58.186260
2022-12-02 12:37:58.193869
2022-12-02 12:37:58.202426
2022-12-02 12:37:58.215547
2022-12-02 12:37:58.223410
2022-12-02 12:37:58.231624
2022-12-02 12:37:58.242985
2022-12-02 12:37:58.252102
2022-12-02 12:37:58.259709
2022-12-02 12:37:58.268462
2022-12-02 12:37:58.280522
2022-12-02 12:37:58.288751
2022-12-02 12:37:58.296885
2022-12-02 12:37:58.309294
2022-12-02 12:37:58.317604
2022-12-02 12:37:58.325776
2022-12-02 12:37:58.333913
2022-12-02 12:37:58.345664
2022-12-02 12:37:58.354346
2022-12-02 12:37:58.362493
2022-12-02 12:37:58.375424
2022-12-02 12:37:58.382325
2022-12-02 12:37:58.390772
2022-12-02 12:37:58.399587
2022-12-02 12:37:58.410592
2022-12-02 12:37:58.419595
2022-12-02 12:37:58.427710
2022-12-02 12:37:58.439990
2022-12-02 12:37:58.448495
2022-12-02 12:37:58.456732
2022-12-02 12:37:58.464725
2022-12-02 12:37:58.477134
2022-12-02 12:37:58.485375
2022-12-02 12:37:58.493476
2022-12-02 12:37:58.506326
2022-12-02 12:37:58.513715
2022-12-02 12:37:58.521715
2022-12-02 12:37:58.530265
2022-12-02 12:37:58.542918
2022-12-02 12:37:58.551458
2022-12-02 12:37:58.559871
2022-12-02 12:37:58.571714
2022-12-02 12:37:58.579712
2022-12-02 12:37:58.587889
2022-12-02 12:37:58.596004
2022-12-02 12:37:58.607918
2022-12-02 12:37:58.616378
2022-12-02 12:37:58.623569
2022-12-02 12:37:58.636994
2022-12-02 12:37:58.644941
2022-12-02 12:37:58.653489
2022-12-02 12:37:58.661456
2022-12-02 12:37:58.674377
2022-12-02 12:37:58.682629
2022-12-02 12:37:58.689933
2022-12-02 12:37:58.701970
2022-12-02 12:37:58.710521
2022-12-02 12:37:58.718525
2022-12-02 12:37:58.727050
2022-12-02 12:37:58.738502
2022-12-02 12:37:58.746735
2022-12-02 12:37:58.755119
2022-12-02 12:37:58.767226
2022-12-02 12:37:58.775939
2022-12-02 12:37:58.783645
2022-12-02 12:37:58.792341
2022-12-02 12:37:58.803762
2022-12-02 12:37:58.812231
2022-12-02 12:37:58.820806
2022-12-02 12:37:58.833149
2022-12-02 12:37:58.841615
2022-12-02 12:37:58.849481
2022-12-02 12:37:58.857280
2022-12-02 12:37:58.870272
2022-12-02 12:37:58.877627
2022-12-02 12:37:58.886471
2022-12-02 12:37:58.898427
2022-12-02 12:37:58.907134
2022-12-02 12:37:58.915044
2022-12-02 12:37:58.923051
2022-12-02 12:37:58.935471
2022-12-02 12:37:58.944001
2022-12-02 12:37:58.951435
2022-12-02 12:37:58.960414
2022-12-02 12:37:58.972733
2022-12-02 12:37:58.980371
2022-12-02 12:37:58.989073
2022-12-02 12:37:59.001287
2022-12-02 12:37:59.009039
2022-12-02 12:37:59.016849
2022-12-02 12:37:59.025792
2022-12-02 12:37:59.037573
2022-12-02 12:37:59.047243
2022-12-02 12:37:59.054902
2022-12-02 12:37:59.067728
2022-12-02 12:37:59.075038
2022-12-02 12:37:59.083825
2022-12-02 12:37:59.091569
2022-12-02 12:37:59.103773
2022-12-02 12:37:59.111958
2022-12-02 12:37:59.120216
2022-12-02 12:37:59.132293
2022-12-02 12:37:59.141413
2022-12-02 12:37:59.149677
2022-12-02 12:37:59.157410
2022-12-02 12:37:59.170130
2022-12-02 12:37:59.177305
2022-12-02 12:37:59.186380
2022-12-02 12:37:59.198260
2022-12-02 12:37:59.206408
2022-12-02 12:37:59.215071
2022-12-02 12:37:59.222507
2022-12-02 12:37:59.235528
2022-12-02 12:37:59.242648
2022-12-02 12:37:59.252078
2022-12-02 12:37:59.263754
2022-12-02 12:37:59.272006
2022-12-02 12:37:59.280027
2022-12-02 12:37:59.288097
2022-12-02 12:37:59.300162
2022-12-02 12:37:59.308839
2022-12-02 12:37:59.317019
2022-12-02 12:37:59.329142
2022-12-02 12:37:59.337413
2022-12-02 12:37:59.345761
2022-12-02 12:37:59.353737
2022-12-02 12:37:59.366135
2022-12-02 12:37:59.374063
2022-12-02 12:37:59.382691
2022-12-02 12:37:59.394142
2022-12-02 12:37:59.403497
2022-12-02 12:37:59.411017
2022-12-02 12:37:59.419580
2022-12-02 12:37:59.431748
2022-12-02 12:37:59.438986
2022-12-02 12:37:59.448020
2022-12-02 12:37:59.459172
2022-12-02 12:37:59.468285
2022-12-02 12:37:59.475897
2022-12-02 12:37:59.484529
2022-12-02 12:37:59.497212
2022-12-02 12:37:59.505977
2022-12-02 12:37:59.512964
2022-12-02 12:37:59.525853
2022-12-02 12:37:59.534558
2022-12-02 12:37:59.542520
2022-12-02 12:37:59.550416
2022-12-02 12:37:59.562067
2022-12-02 12:37:59.570631
2022-12-02 12:37:59.578838
2022-12-02 12:37:59.591335
2022-12-02 12:37:59.599636
2022-12-02 12:37:59.607711
2022-12-02 12:37:59.615725
2022-12-02 12:37:59.627980
2022-12-02 12:37:59.636974
2022-12-02 12:37:59.644500
2022-12-02 12:37:59.657158
2022-12-02 12:37:59.664833
2022-12-02 12:37:59.673361
2022-12-02 12:37:59.681280
2022-12-02 12:37:59.693340
2022-12-02 12:37:59.701434
2022-12-02 12:37:59.709989
2022-12-02 12:37:59.722141
2022-12-02 12:37:59.730816
2022-12-02 12:37:59.738598
2022-12-02 12:37:59.747007
2022-12-02 12:37:59.759066
2022-12-02 12:37:59.767629
2022-12-02 12:37:59.775684
2022-12-02 12:37:59.783885
2022-12-02 12:37:59.796206
2022-12-02 12:37:59.804607
2022-12-02 12:37:59.811946
2022-12-02 12:37:59.824439
2022-12-02 12:37:59.832085
2022-12-02 12:37:59.840520
2022-12-02 12:37:59.848947
2022-12-02 12:37:59.861708
2022-12-02 12:37:59.869441
2022-12-02 12:37:59.877888
2022-12-02 12:37:59.889823
2022-12-02 12:37:59.898166
2022-12-02 12:37:59.906147
2022-12-02 12:37:59.915048
2022-12-02 12:37:59.926703
2022-12-02 12:37:59.935499
2022-12-02 12:37:59.943363
2022-12-02 12:37:59.955271
2022-12-02 12:37:59.964116
2022-12-02 12:37:59.972641
2022-12-02 12:37:59.981135
2022-12-02 12:37:59.992336
2022-12-02 12:38:00.000892
2022-12-02 12:38:00.008715
2022-12-02 12:38:00.021199
2022-12-02 12:38:00.029261
2022-12-02 12:38:00.037279
2022-12-02 12:38:00.045330
2022-12-02 12:38:00.058198
2022-12-02 12:38:00.066531
2022-12-02 12:38:00.073870
2022-12-02 12:38:00.085936
2022-12-02 12:38:00.095022
2022-12-02 12:38:00.102777
2022-12-02 12:38:00.111343
2022-12-02 12:38:00.123608
2022-12-02 12:38:00.131934
2022-12-02 12:38:00.140217
2022-12-02 12:38:00.152333
2022-12-02 12:38:00.160713
2022-12-02 12:38:00.168728
2022-12-02 12:38:00.176514
2022-12-02 12:38:00.188475
2022-12-02 12:38:00.197196
2022-12-02 12:38:00.205617
2022-12-02 12:38:00.218634
2022-12-02 12:38:00.225702
2022-12-02 12:38:00.234418
2022-12-02 12:38:00.242239
2022-12-02 12:38:00.254444
2022-12-02 12:38:00.263459
2022-12-02 12:38:00.271330
2022-12-02 12:38:00.283722
2022-12-02 12:38:00.291865
2022-12-02 12:38:00.299698
2022-12-02 12:38:00.308307
2022-12-02 12:38:00.320231
2022-12-02 12:38:00.327810
2022-12-02 12:38:00.336309
2022-12-02 12:38:00.349684
2022-12-02 12:38:00.357856
2022-12-02 12:38:00.366070
2022-12-02 12:38:00.372921
2022-12-02 12:38:00.385079
2022-12-02 12:38:00.393458
2022-12-02 12:38:00.402894
2022-12-02 12:38:00.415296
2022-12-02 12:38:00.422901
2022-12-02 12:38:00.431465
2022-12-02 12:38:00.439494
2022-12-02 12:38:00.451724
2022-12-02 12:38:00.458815
2022-12-02 12:38:00.467986
2022-12-02 12:38:00.480204
2022-12-02 12:38:00.487712
2022-12-02 12:38:00.496288
2022-12-02 12:38:00.504015
2022-12-02 12:38:00.517652
2022-12-02 12:38:00.525461
2022-12-02 12:38:00.533983
2022-12-02 12:38:00.545288
2022-12-02 12:38:00.553974
2022-12-02 12:38:00.561152
2022-12-02 12:38:00.570063
2022-12-02 12:38:00.583121
2022-12-02 12:38:00.591209
2022-12-02 12:38:00.599467
2022-12-02 12:38:00.611086
2022-12-02 12:38:00.619494
2022-12-02 12:38:00.627227
2022-12-02 12:38:00.635895
2022-12-02 12:38:00.648169
2022-12-02 12:38:00.656158
2022-12-02 12:38:00.664420
2022-12-02 12:38:00.672458
2022-12-02 12:38:00.684836
2022-12-02 12:38:00.692713
2022-12-02 12:38:00.701943
2022-12-02 12:38:00.713278
2022-12-02 12:38:00.721830
2022-12-02 12:38:00.729449
2022-12-02 12:38:00.738351
2022-12-02 12:38:00.750093
2022-12-02 12:38:00.757933
2022-12-02 12:38:00.766610
2022-12-02 12:38:00.778983
2022-12-02 12:38:00.787408
2022-12-02 12:38:00.795806
2022-12-02 12:38:00.803583
2022-12-02 12:38:00.816158
2022-12-02 12:38:00.823989
2022-12-02 12:38:00.832405
2022-12-02 12:38:00.844553
2022-12-02 12:38:00.852331
2022-12-02 12:38:00.860358
2022-12-02 12:38:00.869879
2022-12-02 12:38:00.882238
2022-12-02 12:38:00.889972
2022-12-02 12:38:00.897899
2022-12-02 12:38:00.909658
2022-12-02 12:38:00.918362
2022-12-02 12:38:00.926006
2022-12-02 12:38:00.934585
2022-12-02 12:38:00.946049
2022-12-02 12:38:00.954534
2022-12-02 12:38:00.963364
2022-12-02 12:38:00.974906
2022-12-02 12:38:00.983746
2022-12-02 12:38:00.991137
2022-12-02 12:38:00.999974
2022-12-02 12:38:01.012448
2022-12-02 12:38:01.020362
2022-12-02 12:38:01.028430
2022-12-02 12:38:01.040663
2022-12-02 12:38:01.049629
2022-12-02 12:38:01.057580
2022-12-02 12:38:01.066240
2022-12-02 12:38:01.078846
2022-12-02 12:38:01.087070
2022-12-02 12:38:01.095012
2022-12-02 12:38:01.107500
2022-12-02 12:38:01.115647
2022-12-02 12:38:01.123399
2022-12-02 12:38:01.131464
2022-12-02 12:38:01.143174
2022-12-02 12:38:01.151931
2022-12-02 12:38:01.159453
2022-12-02 12:38:01.171730
2022-12-02 12:38:01.180778
2022-12-02 12:38:01.188893
2022-12-02 12:38:01.197118
2022-12-02 12:38:01.208157
2022-12-02 12:38:01.218019
2022-12-02 12:38:01.225006
2022-12-02 12:38:01.237660
2022-12-02 12:38:01.245123
2022-12-02 12:38:01.254150
2022-12-02 12:38:01.262215
2022-12-02 12:38:01.274621
2022-12-02 12:38:01.282504
2022-12-02 12:38:01.290539
2022-12-02 12:38:01.303538
2022-12-02 12:38:01.311771
2022-12-02 12:38:01.319820
2022-12-02 12:38:01.327895
2022-12-02 12:38:01.340819
2022-12-02 12:38:01.349020
2022-12-02 12:38:01.357460
2022-12-02 12:38:01.369569
2022-12-02 12:38:01.376954
2022-12-02 12:38:01.386055
2022-12-02 12:38:01.393234
2022-12-02 12:38:01.405074
2022-12-02 12:38:01.414249
2022-12-02 12:38:01.422339
2022-12-02 12:38:01.434278
2022-12-02 12:38:01.442538
2022-12-02 12:38:01.450673
2022-12-02 12:38:01.458414
2022-12-02 12:38:01.471115
2022-12-02 12:38:01.479869
2022-12-02 12:38:01.487818
2022-12-02 12:38:01.495691
2022-12-02 12:38:01.508285
2022-12-02 12:38:01.515571
2022-12-02 12:38:01.524343
2022-12-02 12:38:01.536676
2022-12-02 12:38:01.544781
2022-12-02 12:38:01.552880
2022-12-02 12:38:01.560637
2022-12-02 12:38:01.573661
2022-12-02 12:38:01.582186
2022-12-02 12:38:01.590047
2022-12-02 12:38:01.602301
2022-12-02 12:38:01.610467
2022-12-02 12:38:01.618662
2022-12-02 12:38:01.626947
2022-12-02 12:38:01.639476
2022-12-02 12:38:01.647578
2022-12-02 12:38:01.655795
2022-12-02 12:38:01.668057
2022-12-02 12:38:01.675994
2022-12-02 12:38:01.684967
2022-12-02 12:38:01.692385
2022-12-02 12:38:01.704642
2022-12-02 12:38:01.713058
2022-12-02 12:38:01.721077
2022-12-02 12:38:01.733356
2022-12-02 12:38:01.741738
2022-12-02 12:38:01.750114
2022-12-02 12:38:01.758130
2022-12-02 12:38:01.770181
2022-12-02 12:38:01.778745
2022-12-02 12:38:01.786136
2022-12-02 12:38:01.799468
2022-12-02 12:38:01.807576
2022-12-02 12:38:01.815736
2022-12-02 12:38:01.823745
2022-12-02 12:38:01.836222
2022-12-02 12:38:01.844097
2022-12-02 12:38:01.853224
2022-12-02 12:38:01.864468
2022-12-02 12:38:01.873173
2022-12-02 12:38:01.879979
2022-12-02 12:38:01.888386
2022-12-02 12:38:01.901281
2022-12-02 12:38:01.909494
2022-12-02 12:38:01.917058
2022-12-02 12:38:01.929306
2022-12-02 12:38:01.937911
2022-12-02 12:38:01.946453
2022-12-02 12:38:01.954856
2022-12-02 12:38:01.967571
2022-12-02 12:38:01.974963
2022-12-02 12:38:01.983598
2022-12-02 12:38:01.995878
2022-12-02 12:38:02.004082
2022-12-02 12:38:02.012246
2022-12-02 12:38:02.019972
2022-12-02 12:38:02.032187
2022-12-02 12:38:02.040840
2022-12-02 12:38:02.048752
2022-12-02 12:38:02.061832
2022-12-02 12:38:02.069799
2022-12-02 12:38:02.077508
2022-12-02 12:38:02.085959
2022-12-02 12:38:02.098762
2022-12-02 12:38:02.106228
2022-12-02 12:38:02.115015
2022-12-02 12:38:02.125874
2022-12-02 12:38:02.135604
2022-12-02 12:38:02.143037
2022-12-02 12:38:02.151487
2022-12-02 12:38:02.163833
2022-12-02 12:38:02.171549
2022-12-02 12:38:02.180189
2022-12-02 12:38:02.191436
2022-12-02 12:38:02.200239
2022-12-02 12:38:02.207962
2022-12-02 12:38:02.216495
2022-12-02 12:38:02.229751
2022-12-02 12:38:02.237767
2022-12-02 12:38:02.245887
2022-12-02 12:38:02.258095
2022-12-02 12:38:02.266664
2022-12-02 12:38:02.274748
2022-12-02 12:38:02.282962
2022-12-02 12:38:02.293903
2022-12-02 12:38:02.303115
2022-12-02 12:38:02.310889
2022-12-02 12:38:02.323854
2022-12-02 12:38:02.331738
2022-12-02 12:38:02.339878
2022-12-02 12:38:02.348089
2022-12-02 12:38:02.360159
2022-12-02 12:38:02.368368
2022-12-02 12:38:02.376604
2022-12-02 12:38:02.384839
2022-12-02 12:38:02.397221
2022-12-02 12:38:02.404963
2022-12-02 12:38:02.413617
2022-12-02 12:38:02.425162
2022-12-02 12:38:02.433729
2022-12-02 12:38:02.442128
2022-12-02 12:38:02.450157
2022-12-02 12:38:02.463357
2022-12-02 12:38:02.470967
2022-12-02 12:38:02.479276
2022-12-02 12:38:02.491315
2022-12-02 12:38:02.499737
2022-12-02 12:38:02.507785
2022-12-02 12:38:02.516030
2022-12-02 12:38:02.527979
2022-12-02 12:38:02.535775
2022-12-02 12:38:02.544190
2022-12-02 12:38:02.556487
2022-12-02 12:38:02.565248
2022-12-02 12:38:02.572651
2022-12-02 12:38:02.581568
2022-12-02 12:38:02.593523
2022-12-02 12:38:02.602146
2022-12-02 12:38:02.609840
2022-12-02 12:38:02.622429
2022-12-02 12:38:02.631018
2022-12-02 12:38:02.638587
2022-12-02 12:38:02.647786
2022-12-02 12:38:02.658675
2022-12-02 12:38:02.667917
2022-12-02 12:38:02.675593
2022-12-02 12:38:02.687740
2022-12-02 12:38:02.695248
2022-12-02 12:38:02.704120
2022-12-02 12:38:02.712175
2022-12-02 12:38:02.724708
2022-12-02 12:38:02.733642
2022-12-02 12:38:02.740892
2022-12-02 12:38:02.753145
2022-12-02 12:38:02.762240
2022-12-02 12:38:02.770379
2022-12-02 12:38:02.778662
2022-12-02 12:38:02.789761
2022-12-02 12:38:02.798518
2022-12-02 12:38:02.805943
2022-12-02 12:38:02.818465
2022-12-02 12:38:02.826909
2022-12-02 12:38:02.835458
2022-12-02 12:38:02.843377
2022-12-02 12:38:02.855853
2022-12-02 12:38:02.863393
2022-12-02 12:38:02.872168
2022-12-02 12:38:02.885184
2022-12-02 12:38:02.891976
2022-12-02 12:38:02.900557
2022-12-02 12:38:02.909069
2022-12-02 12:38:02.921182
2022-12-02 12:38:02.930270
2022-12-02 12:38:02.937862
2022-12-02 12:38:02.950259
2022-12-02 12:38:02.957818
2022-12-02 12:38:02.967100
2022-12-02 12:38:02.974704
2022-12-02 12:38:02.986604
2022-12-02 12:38:02.995705
2022-12-02 12:38:03.002598
2022-12-02 12:38:03.015874
2022-12-02 12:38:03.023088
2022-12-02 12:38:03.031675
2022-12-02 12:38:03.040211
2022-12-02 12:38:03.052236
2022-12-02 12:38:03.060657
2022-12-02 12:38:03.068954
2022-12-02 12:38:03.081083
2022-12-02 12:38:03.089415
2022-12-02 12:38:03.096591
2022-12-02 12:38:03.105416
2022-12-02 12:38:03.118131
2022-12-02 12:38:03.125971
2022-12-02 12:38:03.134866
2022-12-02 12:38:03.147369
2022-12-02 12:38:03.154491
2022-12-02 12:38:03.163669
2022-12-02 12:38:03.171465
2022-12-02 12:38:03.183801
2022-12-02 12:38:03.191696
2022-12-02 12:38:03.199999
2022-12-02 12:38:03.207584
2022-12-02 12:38:03.220163
2022-12-02 12:38:03.229674
2022-12-02 12:38:03.236346
2022-12-02 12:38:03.249124
2022-12-02 12:38:03.257699
2022-12-02 12:38:03.265440
2022-12-02 12:38:03.273554
2022-12-02 12:38:03.285997
2022-12-02 12:38:03.294024
2022-12-02 12:38:03.302176
2022-12-02 12:38:03.314838
2022-12-02 12:38:03.323044
2022-12-02 12:38:03.331577
2022-12-02 12:38:03.338861
2022-12-02 12:38:03.351552
2022-12-02 12:38:03.359602
2022-12-02 12:38:03.367909
2022-12-02 12:38:03.380284
2022-12-02 12:38:03.388156
2022-12-02 12:38:03.397183
2022-12-02 12:38:03.404032
2022-12-02 12:38:03.416103
2022-12-02 12:38:03.425148
2022-12-02 12:38:03.433974
2022-12-02 12:38:03.445585
2022-12-02 12:38:03.453161
2022-12-02 12:38:03.461949
2022-12-02 12:38:03.470254
2022-12-02 12:38:03.482006
2022-12-02 12:38:03.490745
2022-12-02 12:38:03.499363
2022-12-02 12:38:03.511485
2022-12-02 12:38:03.519153
2022-12-02 12:38:03.527705
2022-12-02 12:38:03.535326
2022-12-02 12:38:03.548241
2022-12-02 12:38:03.556073
2022-12-02 12:38:03.565141
2022-12-02 12:38:03.576249
2022-12-02 12:38:03.583814
2022-12-02 12:38:03.593285
2022-12-02 12:38:03.600809
2022-12-02 12:38:03.612765
2022-12-02 12:38:03.621715
2022-12-02 12:38:03.630064
2022-12-02 12:38:03.641653
2022-12-02 12:38:03.650663
2022-12-02 12:38:03.658274
2022-12-02 12:38:03.667432
2022-12-02 12:38:03.678694
2022-12-02 12:38:03.687176
2022-12-02 12:38:03.695573
2022-12-02 12:38:03.707332
2022-12-02 12:38:03.716096
2022-12-02 12:38:03.723852
2022-12-02 12:38:03.732544
2022-12-02 12:38:03.744615
2022-12-02 12:38:03.752297
2022-12-02 12:38:03.761009
2022-12-02 12:38:03.773393
2022-12-02 12:38:03.781720
2022-12-02 12:38:03.789902
2022-12-02 12:38:03.798092
2022-12-02 12:38:03.810017
2022-12-02 12:38:03.818515
2022-12-02 12:38:03.826247
2022-12-02 12:38:03.838523
2022-12-02 12:38:03.846737
2022-12-02 12:38:03.855493
2022-12-02 12:38:03.863292
2022-12-02 12:38:03.874796
2022-12-02 12:38:03.884175
2022-12-02 12:38:03.891838
2022-12-02 12:38:03.904131
2022-12-02 12:38:03.912530
2022-12-02 12:38:03.921226
2022-12-02 12:38:03.929345
2022-12-02 12:38:03.940738
2022-12-02 12:38:03.949255
2022-12-02 12:38:03.957317
2022-12-02 12:38:03.969580
2022-12-02 12:38:03.977470
2022-12-02 12:38:03.985702
2022-12-02 12:38:03.994046
2022-12-02 12:38:04.006925
2022-12-02 12:38:04.015233
2022-12-02 12:38:04.023391
2022-12-02 12:38:04.035648
2022-12-02 12:38:04.043531
2022-12-02 12:38:04.051666
2022-12-02 12:38:04.059678
2022-12-02 12:38:04.071759
2022-12-02 12:38:04.080064
2022-12-02 12:38:04.088149
2022-12-02 12:38:04.096462
2022-12-02 12:38:04.109146
2022-12-02 12:38:04.116692
2022-12-02 12:38:04.125178
2022-12-02 12:38:04.137354
2022-12-02 12:38:04.145186
2022-12-02 12:38:04.154036
2022-12-02 12:38:04.161617
2022-12-02 12:38:04.174566
2022-12-02 12:38:04.182541
2022-12-02 12:38:04.191060
2022-12-02 12:38:04.203248
2022-12-02 12:38:04.211766
2022-12-02 12:38:04.219838
2022-12-02 12:38:04.228085
2022-12-02 12:38:04.240187
2022-12-02 12:38:04.248334
2022-12-02 12:38:04.256660
2022-12-02 12:38:04.268557
2022-12-02 12:38:04.277304
2022-12-02 12:38:04.285189
2022-12-02 12:38:04.293469
2022-12-02 12:38:04.305414
2022-12-02 12:38:04.314691
2022-12-02 12:38:04.321824
2022-12-02 12:38:04.334624
2022-12-02 12:38:04.342548
2022-12-02 12:38:04.351232
2022-12-02 12:38:04.358976
2022-12-02 12:38:04.371874
2022-12-02 12:38:04.379826
2022-12-02 12:38:04.387725
2022-12-02 12:38:04.399922
2022-12-02 12:38:04.407969
2022-12-02 12:38:04.416256
2022-12-02 12:38:04.424393
2022-12-02 12:38:04.436766
2022-12-02 12:38:04.445788
2022-12-02 12:38:04.453163
2022-12-02 12:38:04.466147
2022-12-02 12:38:04.473362
2022-12-02 12:38:04.482680
2022-12-02 12:38:04.489408
2022-12-02 12:38:04.502176
2022-12-02 12:38:04.511286
2022-12-02 12:38:04.518349
2022-12-02 12:38:04.531725
2022-12-02 12:38:04.539840
2022-12-02 12:38:04.547628
2022-12-02 12:38:04.555923
2022-12-02 12:38:04.567913
2022-12-02 12:38:04.575979
2022-12-02 12:38:04.584249
2022-12-02 12:38:04.596145
2022-12-02 12:38:04.604044
2022-12-02 12:38:04.613147
2022-12-02 12:38:04.621324
2022-12-02 12:38:04.634191
2022-12-02 12:38:04.641563
2022-12-02 12:38:04.650581
2022-12-02 12:38:04.662577
2022-12-02 12:38:04.670425
2022-12-02 12:38:04.678703
2022-12-02 12:38:04.686582
2022-12-02 12:38:04.699689
2022-12-02 12:38:04.707111
2022-12-02 12:38:04.715749
2022-12-02 12:38:04.727749
2022-12-02 12:38:04.735742
2022-12-02 12:38:04.744127
2022-12-02 12:38:04.751231
2022-12-02 12:38:04.765449
2022-12-02 12:38:04.773201
2022-12-02 12:38:04.780957
2022-12-02 12:38:04.793254
2022-12-02 12:38:04.801531
2022-12-02 12:38:04.809520
2022-12-02 12:38:04.818546
2022-12-02 12:38:04.829958
2022-12-02 12:38:04.837779
2022-12-02 12:38:04.846249
2022-12-02 12:38:04.858297
2022-12-02 12:38:04.866465
2022-12-02 12:38:04.875119
2022-12-02 12:38:04.882654
2022-12-02 12:38:04.894999
2022-12-02 12:38:04.903390
2022-12-02 12:38:04.911339
2022-12-02 12:38:04.919983
2022-12-02 12:38:04.931474
2022-12-02 12:38:04.940642
2022-12-02 12:38:04.948627
2022-12-02 12:38:04.961080
2022-12-02 12:38:04.968779
2022-12-02 12:38:04.977545
2022-12-02 12:38:04.985935
2022-12-02 12:38:04.998013
2022-12-02 12:38:05.006308
2022-12-02 12:38:05.015030
2022-12-02 12:38:05.026272
2022-12-02 12:38:05.034917
2022-12-02 12:38:05.042824
2022-12-02 12:38:05.050832
2022-12-02 12:38:05.063518
2022-12-02 12:38:05.071646
2022-12-02 12:38:05.079579
2022-12-02 12:38:05.091369
2022-12-02 12:38:05.100364
2022-12-02 12:38:05.108483
2022-12-02 12:38:05.116452
2022-12-02 12:38:05.128797
2022-12-02 12:38:05.136751
2022-12-02 12:38:05.145263
2022-12-02 12:38:05.157253
2022-12-02 12:38:05.165516
2022-12-02 12:38:05.173508
2022-12-02 12:38:05.182178
2022-12-02 12:38:05.193580
2022-12-02 12:38:05.201804
2022-12-02 12:38:05.210906
2022-12-02 12:38:05.223166
2022-12-02 12:38:05.231341
2022-12-02 12:38:05.239523
2022-12-02 12:38:05.247736
2022-12-02 12:38:05.260024
2022-12-02 12:38:05.268473
2022-12-02 12:38:05.276614
2022-12-02 12:38:05.288786
2022-12-02 12:38:05.297278
2022-12-02 12:38:05.305165
2022-12-02 12:38:05.313579
2022-12-02 12:38:05.325652
2022-12-02 12:38:05.334789
2022-12-02 12:38:05.341988
2022-12-02 12:38:05.354438
2022-12-02 12:38:05.362531
2022-12-02 12:38:05.370720
2022-12-02 12:38:05.379552
2022-12-02 12:38:05.391161
2022-12-02 12:38:05.399614
2022-12-02 12:38:05.407296
2022-12-02 12:38:05.419516
2022-12-02 12:38:05.428329
2022-12-02 12:38:05.436574
2022-12-02 12:38:05.444664
2022-12-02 12:38:05.456529
2022-12-02 12:38:05.465709
2022-12-02 12:38:05.473458
2022-12-02 12:38:05.484866
2022-12-02 12:38:05.494171
2022-12-02 12:38:05.501957
2022-12-02 12:38:05.510815
2022-12-02 12:38:05.522902
2022-12-02 12:38:05.530221
2022-12-02 12:38:05.539341
2022-12-02 12:38:05.551022
2022-12-02 12:38:05.558890
2022-12-02 12:38:05.567542
2022-12-02 12:38:05.575351
2022-12-02 12:38:05.587992
2022-12-02 12:38:05.596031
2022-12-02 12:38:05.604137
2022-12-02 12:38:05.616296
2022-12-02 12:38:05.624445
2022-12-02 12:38:05.632506
2022-12-02 12:38:05.640851
2022-12-02 12:38:05.653333
2022-12-02 12:38:05.662279
2022-12-02 12:38:05.669530
2022-12-02 12:38:05.683020
2022-12-02 12:38:05.689625
2022-12-02 12:38:05.697560
2022-12-02 12:38:05.706601
2022-12-02 12:38:05.719035
2022-12-02 12:38:05.727500
2022-12-02 12:38:05.735201
2022-12-02 12:38:05.747759
2022-12-02 12:38:05.756027
2022-12-02 12:38:05.764281
2022-12-02 12:38:05.772417
2022-12-02 12:38:05.784305
2022-12-02 12:38:05.792374
2022-12-02 12:38:05.800633
2022-12-02 12:38:05.809012
2022-12-02 12:38:05.821359
2022-12-02 12:38:05.830196
2022-12-02 12:38:05.837348
2022-12-02 12:38:05.850188
2022-12-02 12:38:05.858222
2022-12-02 12:38:05.866012
2022-12-02 12:38:05.873974
2022-12-02 12:38:05.886726
2022-12-02 12:38:05.895413
2022-12-02 12:38:05.903103
2022-12-02 12:38:05.914707
2022-12-02 12:38:05.923006
2022-12-02 12:38:05.932071
2022-12-02 12:38:05.939836
2022-12-02 12:38:05.951752
2022-12-02 12:38:05.960451
2022-12-02 12:38:05.968918
2022-12-02 12:38:05.981692
2022-12-02 12:38:05.989234
2022-12-02 12:38:05.997549
2022-12-02 12:38:06.004560
2022-12-02 12:38:06.017531
2022-12-02 12:38:06.025849
2022-12-02 12:38:06.033843
2022-12-02 12:38:06.045701
2022-12-02 12:38:06.054369
2022-12-02 12:38:06.062823
2022-12-02 12:38:06.071575
2022-12-02 12:38:06.083760
2022-12-02 12:38:06.091620
2022-12-02 12:38:06.100009
2022-12-02 12:38:06.111908
2022-12-02 12:38:06.120195
2022-12-02 12:38:06.128588
2022-12-02 12:38:06.136727
2022-12-02 12:38:06.149788
2022-12-02 12:38:06.157235
2022-12-02 12:38:06.166126
2022-12-02 12:38:06.178329
2022-12-02 12:38:06.185627
2022-12-02 12:38:06.194220
2022-12-02 12:38:06.202119
2022-12-02 12:38:06.215248
2022-12-02 12:38:06.223156
2022-12-02 12:38:06.231146
2022-12-02 12:38:06.243759
2022-12-02 12:38:06.251540
2022-12-02 12:38:06.259759
2022-12-02 12:38:06.267018
2022-12-02 12:38:06.280158
2022-12-02 12:38:06.288435
2022-12-02 12:38:06.296847
2022-12-02 12:38:06.308618
2022-12-02 12:38:06.317467
2022-12-02 12:38:06.325010
2022-12-02 12:38:06.333931
2022-12-02 12:38:06.345606
2022-12-02 12:38:06.354524
2022-12-02 12:38:06.362694
2022-12-02 12:38:06.374424
2022-12-02 12:38:06.383218
2022-12-02 12:38:06.390346
2022-12-02 12:38:06.399475
2022-12-02 12:38:06.411303
2022-12-02 12:38:06.418868
2022-12-02 12:38:06.427875
2022-12-02 12:38:06.439633
2022-12-02 12:38:06.448164
2022-12-02 12:38:06.456257
2022-12-02 12:38:06.464261
2022-12-02 12:38:06.476744
2022-12-02 12:38:06.484629
2022-12-02 12:38:06.493138
2022-12-02 12:38:06.505361
2022-12-02 12:38:06.513118
2022-12-02 12:38:06.521873
2022-12-02 12:38:06.529103
2022-12-02 12:38:06.541761
2022-12-02 12:38:06.551052
2022-12-02 12:38:06.557973
2022-12-02 12:38:06.571526
2022-12-02 12:38:06.579728
2022-12-02 12:38:06.587505
2022-12-02 12:38:06.596039
2022-12-02 12:38:06.607520
2022-12-02 12:38:06.616058
2022-12-02 12:38:06.624234
2022-12-02 12:38:06.632434
2022-12-02 12:38:06.644554
2022-12-02 12:38:06.652799
2022-12-02 12:38:06.661221
2022-12-02 12:38:06.672811
2022-12-02 12:38:06.681863
2022-12-02 12:38:06.689284
2022-12-02 12:38:06.698083
2022-12-02 12:38:06.710772
2022-12-02 12:38:06.718637
2022-12-02 12:38:06.726584
2022-12-02 12:38:06.738934
2022-12-02 12:38:06.747695
2022-12-02 12:38:06.755630
2022-12-02 12:38:06.763575
2022-12-02 12:38:06.775483
2022-12-02 12:38:06.784238
2022-12-02 12:38:06.791272
2022-12-02 12:38:06.804950
2022-12-02 12:38:06.813304
2022-12-02 12:38:06.821081
2022-12-02 12:38:06.829550
2022-12-02 12:38:06.841138
2022-12-02 12:38:06.849271
2022-12-02 12:38:06.857295
2022-12-02 12:38:06.869811
2022-12-02 12:38:06.877909
2022-12-02 12:38:06.885856
2022-12-02 12:38:06.894311
2022-12-02 12:38:06.905745
2022-12-02 12:38:06.914892
2022-12-02 12:38:06.922764
2022-12-02 12:38:06.935524
2022-12-02 12:38:06.943690
2022-12-02 12:38:06.951204
2022-12-02 12:38:06.960319
2022-12-02 12:38:06.972753
2022-12-02 12:38:06.980499
2022-12-02 12:38:06.988885
2022-12-02 12:38:07.000195
2022-12-02 12:38:07.008159
2022-12-02 12:38:07.017481
2022-12-02 12:38:07.025572
2022-12-02 12:38:07.037189
2022-12-02 12:38:07.046560
2022-12-02 12:38:07.054099
2022-12-02 12:38:07.067306
2022-12-02 12:38:07.073888
2022-12-02 12:38:07.082676
2022-12-02 12:38:07.091121
2022-12-02 12:38:07.103333
2022-12-02 12:38:07.111460
2022-12-02 12:38:07.119303
2022-12-02 12:38:07.132130
2022-12-02 12:38:07.140287
2022-12-02 12:38:07.148645
2022-12-02 12:38:07.156767
2022-12-02 12:38:07.168695
2022-12-02 12:38:07.176985
2022-12-02 12:38:07.184952
2022-12-02 12:38:07.197348
2022-12-02 12:38:07.205464
2022-12-02 12:38:07.213669
2022-12-02 12:38:07.222082
2022-12-02 12:38:07.233803
2022-12-02 12:38:07.242599
2022-12-02 12:38:07.250609
2022-12-02 12:38:07.262710
2022-12-02 12:38:07.270972
2022-12-02 12:38:07.279005
2022-12-02 12:38:07.287362
2022-12-02 12:38:07.299648
2022-12-02 12:38:07.307674
2022-12-02 12:38:07.315807
2022-12-02 12:38:07.328041
2022-12-02 12:38:07.337251
2022-12-02 12:38:07.344874
2022-12-02 12:38:07.353028
2022-12-02 12:38:07.366138
2022-12-02 12:38:07.373689
2022-12-02 12:38:07.382277
2022-12-02 12:38:07.394093
2022-12-02 12:38:07.402118
2022-12-02 12:38:07.411008
2022-12-02 12:38:07.418509
2022-12-02 12:38:07.430801
2022-12-02 12:38:07.439326
2022-12-02 12:38:07.447598
2022-12-02 12:38:07.459966
2022-12-02 12:38:07.467188
2022-12-02 12:38:07.476374
2022-12-02 12:38:07.483965
2022-12-02 12:38:07.496213
2022-12-02 12:38:07.505010
2022-12-02 12:38:07.512997
2022-12-02 12:38:07.521357
2022-12-02 12:38:07.533795
2022-12-02 12:38:07.541112
2022-12-02 12:38:07.550126
2022-12-02 12:38:07.562745
2022-12-02 12:38:07.570367
2022-12-02 12:38:07.578387
2022-12-02 12:38:07.586717
2022-12-02 12:38:07.599616
2022-12-02 12:38:07.606815
2022-12-02 12:38:07.615593
2022-12-02 12:38:07.627966
2022-12-02 12:38:07.635769
2022-12-02 12:38:07.644287
2022-12-02 12:38:07.651849
2022-12-02 12:38:07.664201
2022-12-02 12:38:07.672261
2022-12-02 12:38:07.680956
2022-12-02 12:38:07.693899
2022-12-02 12:38:07.700649
2022-12-02 12:38:07.710218
2022-12-02 12:38:07.717222
2022-12-02 12:38:07.730796
2022-12-02 12:38:07.738665
2022-12-02 12:38:07.747199
2022-12-02 12:38:07.758679
2022-12-02 12:38:07.766817
2022-12-02 12:38:07.775225
2022-12-02 12:38:07.783516
2022-12-02 12:38:07.795877
2022-12-02 12:38:07.803666
2022-12-02 12:38:07.812238
2022-12-02 12:38:07.823523
2022-12-02 12:38:07.832639
2022-12-02 12:38:07.840175
2022-12-02 12:38:07.848468
2022-12-02 12:38:07.861766
2022-12-02 12:38:07.869256
2022-12-02 12:38:07.878215
2022-12-02 12:38:07.889032
2022-12-02 12:38:07.897870
2022-12-02 12:38:07.905694
2022-12-02 12:38:07.914993
2022-12-02 12:38:07.926100
2022-12-02 12:38:07.934226
2022-12-02 12:38:07.943272
2022-12-02 12:38:07.955139
2022-12-02 12:38:07.963748
2022-12-02 12:38:07.971549
2022-12-02 12:38:07.980087
2022-12-02 12:38:07.992330
2022-12-02 12:38:08.000076
2022-12-02 12:38:08.008780
2022-12-02 12:38:08.021646
2022-12-02 12:38:08.029192
2022-12-02 12:38:08.037976
2022-12-02 12:38:08.046548
2022-12-02 12:38:08.057620
2022-12-02 12:38:08.066589
2022-12-02 12:38:08.074022
2022-12-02 12:38:08.086359
2022-12-02 12:38:08.094267
2022-12-02 12:38:08.102174
2022-12-02 12:38:08.110769
2022-12-02 12:38:08.122363
2022-12-02 12:38:08.130963
2022-12-02 12:38:08.139976
2022-12-02 12:38:08.151809
2022-12-02 12:38:08.159236
2022-12-02 12:38:08.168042
2022-12-02 12:38:08.176390
2022-12-02 12:38:08.189050
2022-12-02 12:38:08.197692
2022-12-02 12:38:08.205096
2022-12-02 12:38:08.217235
2022-12-02 12:38:08.225897
2022-12-02 12:38:08.233356
2022-12-02 12:38:08.242820
2022-12-02 12:38:08.254369
2022-12-02 12:38:08.262776
2022-12-02 12:38:08.271002
2022-12-02 12:38:08.283863
2022-12-02 12:38:08.291081
2022-12-02 12:38:08.299891
2022-12-02 12:38:08.307415
2022-12-02 12:38:08.319941
2022-12-02 12:38:08.328303
2022-12-02 12:38:08.336168
2022-12-02 12:38:08.344412
2022-12-02 12:38:08.356779
2022-12-02 12:38:08.365693
2022-12-02 12:38:08.373132
2022-12-02 12:38:08.384326
2022-12-02 12:38:08.393663
2022-12-02 12:38:08.401266
2022-12-02 12:38:08.410115
2022-12-02 12:38:08.422263
2022-12-02 12:38:08.430620
2022-12-02 12:38:08.438935
2022-12-02 12:38:08.450214
2022-12-02 12:38:08.459782
2022-12-02 12:38:08.467785
2022-12-02 12:38:08.475644
2022-12-02 12:38:08.487919
2022-12-02 12:38:08.495878
2022-12-02 12:38:08.503394
2022-12-02 12:38:08.515772
2022-12-02 12:38:08.524304
2022-12-02 12:38:08.533221
2022-12-02 12:38:08.541194
2022-12-02 12:38:08.552765
2022-12-02 12:38:08.562263
2022-12-02 12:38:08.570441
2022-12-02 12:38:08.582239
2022-12-02 12:38:08.590004
2022-12-02 12:38:08.598616
2022-12-02 12:38:08.606536
2022-12-02 12:38:08.618451
2022-12-02 12:38:08.626935
2022-12-02 12:38:08.634995
2022-12-02 12:38:08.647872
2022-12-02 12:38:08.655679
2022-12-02 12:38:08.663481
2022-12-02 12:38:08.672021
2022-12-02 12:38:08.683638
2022-12-02 12:38:08.692917
2022-12-02 12:38:08.700334
2022-12-02 12:38:08.713098
2022-12-02 12:38:08.721186
2022-12-02 12:38:08.729828
2022-12-02 12:38:08.737846
2022-12-02 12:38:08.750105
2022-12-02 12:38:08.757996
2022-12-02 12:38:08.766211
2022-12-02 12:38:08.778712
2022-12-02 12:38:08.786921
2022-12-02 12:38:08.795273
2022-12-02 12:38:08.802630
2022-12-02 12:38:08.815637
2022-12-02 12:38:08.823125
2022-12-02 12:38:08.832085
2022-12-02 12:38:08.844484
2022-12-02 12:38:08.851961
2022-12-02 12:38:08.861163
2022-12-02 12:38:08.868644
2022-12-02 12:38:08.881698
2022-12-02 12:38:08.889338
2022-12-02 12:38:08.897474
2022-12-02 12:38:08.909528
2022-12-02 12:38:08.917709
2022-12-02 12:38:08.925652
2022-12-02 12:38:08.934361
2022-12-02 12:38:08.946224
2022-12-02 12:38:08.954314
2022-12-02 12:38:08.962107
2022-12-02 12:38:08.974794
2022-12-02 12:38:08.983517
2022-12-02 12:38:08.991638
2022-12-02 12:38:08.999245
2022-12-02 12:38:09.012311
2022-12-02 12:38:09.020935
2022-12-02 12:38:09.029245
2022-12-02 12:38:09.040829
2022-12-02 12:38:09.049556
2022-12-02 12:38:09.057118
2022-12-02 12:38:09.066217
2022-12-02 12:38:09.077576
2022-12-02 12:38:09.085856
2022-12-02 12:38:09.093300
2022-12-02 12:38:09.106227
2022-12-02 12:38:09.115192
2022-12-02 12:38:09.122412
2022-12-02 12:38:09.131633
2022-12-02 12:38:09.142822
2022-12-02 12:38:09.151298
2022-12-02 12:38:09.159712
2022-12-02 12:38:09.171882
2022-12-02 12:38:09.180332
2022-12-02 12:38:09.188393
2022-12-02 12:38:09.197078
2022-12-02 12:38:09.209145
2022-12-02 12:38:09.216587
2022-12-02 12:38:09.225747
2022-12-02 12:38:09.233142
2022-12-02 12:38:09.245216
2022-12-02 12:38:09.253455
2022-12-02 12:38:09.261769
2022-12-02 12:38:09.273700
2022-12-02 12:38:09.282159
2022-12-02 12:38:09.290249
2022-12-02 12:38:09.298557
2022-12-02 12:38:09.311301
2022-12-02 12:38:09.319287
2022-12-02 12:38:09.327689
2022-12-02 12:38:09.339457
2022-12-02 12:38:09.348165
2022-12-02 12:38:09.356230
2022-12-02 12:38:09.365015
2022-12-02 12:38:09.376645
2022-12-02 12:38:09.384776
2022-12-02 12:38:09.393702
2022-12-02 12:38:09.405206
2022-12-02 12:38:09.413264
2022-12-02 12:38:09.421865
2022-12-02 12:38:09.430135
2022-12-02 12:38:09.441877
2022-12-02 12:38:09.450202
2022-12-02 12:38:09.458684
2022-12-02 12:38:09.471200
2022-12-02 12:38:09.479538
2022-12-02 12:38:09.487527
2022-12-02 12:38:09.495730
2022-12-02 12:38:09.507587
2022-12-02 12:38:09.516090
2022-12-02 12:38:09.524099
2022-12-02 12:38:09.535465
2022-12-02 12:38:09.544588
2022-12-02 12:38:09.552969
2022-12-02 12:38:09.561378
2022-12-02 12:38:09.573180
2022-12-02 12:38:09.580475
2022-12-02 12:38:09.589292
2022-12-02 12:38:09.601830
2022-12-02 12:38:09.610194
2022-12-02 12:38:09.617723
2022-12-02 12:38:09.627271
2022-12-02 12:38:09.638441
2022-12-02 12:38:09.647633
2022-12-02 12:38:09.655093
2022-12-02 12:38:09.666732
2022-12-02 12:38:09.675206
2022-12-02 12:38:09.683976
2022-12-02 12:38:09.692129
2022-12-02 12:38:09.704418
2022-12-02 12:38:09.711680
2022-12-02 12:38:09.720501
2022-12-02 12:38:09.732911
2022-12-02 12:38:09.741078
2022-12-02 12:38:09.749081
2022-12-02 12:38:09.757405
2022-12-02 12:38:09.770050
2022-12-02 12:38:09.777969
2022-12-02 12:38:09.785755
2022-12-02 12:38:09.797993
2022-12-02 12:38:09.806545
2022-12-02 12:38:09.814392
2022-12-02 12:38:09.823069
2022-12-02 12:38:09.835391
2022-12-02 12:38:09.843223
2022-12-02 12:38:09.851696
2022-12-02 12:38:09.863912
2022-12-02 12:38:09.871549
2022-12-02 12:38:09.880032
2022-12-02 12:38:09.888626
2022-12-02 12:38:09.900745
2022-12-02 12:38:09.909300
2022-12-02 12:38:09.916972
2022-12-02 12:38:09.929101
2022-12-02 12:38:09.937770
2022-12-02 12:38:09.946642
2022-12-02 12:38:09.953400
2022-12-02 12:38:09.966291
2022-12-02 12:38:09.974545
2022-12-02 12:38:09.982781
2022-12-02 12:38:09.995698
2022-12-02 12:38:10.003686
2022-12-02 12:38:10.011405
2022-12-02 12:38:10.019617
2022-12-02 12:38:10.032193
2022-12-02 12:38:10.040056
2022-12-02 12:38:10.048293
2022-12-02 12:38:10.056567
2022-12-02 12:38:10.069033
2022-12-02 12:38:10.076448
2022-12-02 12:38:10.085297
2022-12-02 12:38:10.097434
2022-12-02 12:38:10.105716
2022-12-02 12:38:10.113843
2022-12-02 12:38:10.121336
2022-12-02 12:38:10.134453
2022-12-02 12:38:10.142639
2022-12-02 12:38:10.150502
2022-12-02 12:38:10.162885
2022-12-02 12:38:10.170430
2022-12-02 12:38:10.179083
2022-12-02 12:38:10.187132
2022-12-02 12:38:10.199178
2022-12-02 12:38:10.207567
2022-12-02 12:38:10.215734
2022-12-02 12:38:10.228504
2022-12-02 12:38:10.237534
2022-12-02 12:38:10.245416
2022-12-02 12:38:10.253846
2022-12-02 12:38:10.265789
2022-12-02 12:38:10.273644
2022-12-02 12:38:10.282001
2022-12-02 12:38:10.294512
2022-12-02 12:38:10.302172
2022-12-02 12:38:10.311313
2022-12-02 12:38:10.317748
2022-12-02 12:38:10.331691
2022-12-02 12:38:10.339214
2022-12-02 12:38:10.347371
2022-12-02 12:38:10.358903
2022-12-02 12:38:10.366924
2022-12-02 12:38:10.375951
2022-12-02 12:38:10.384021
2022-12-02 12:38:10.396288
2022-12-02 12:38:10.404406
2022-12-02 12:38:10.412396
2022-12-02 12:38:10.424599
2022-12-02 12:38:10.433109
2022-12-02 12:38:10.441550
2022-12-02 12:38:10.449351
2022-12-02 12:38:10.462256
2022-12-02 12:38:10.470348
2022-12-02 12:38:10.478635
2022-12-02 12:38:10.490725
2022-12-02 12:38:10.499041
2022-12-02 12:38:10.507162
2022-12-02 12:38:10.515785
2022-12-02 12:38:10.527848
2022-12-02 12:38:10.535925
2022-12-02 12:38:10.544187
2022-12-02 12:38:10.555648
2022-12-02 12:38:10.563476
2022-12-02 12:38:10.572411
2022-12-02 12:38:10.580934
2022-12-02 12:38:10.592289
2022-12-02 12:38:10.601228
2022-12-02 12:38:10.609333
2022-12-02 12:38:10.621373
2022-12-02 12:38:10.630384
2022-12-02 12:38:10.638047
2022-12-02 12:38:10.647170
2022-12-02 12:38:10.658354
2022-12-02 12:38:10.666285
2022-12-02 12:38:10.675712
2022-12-02 12:38:10.687245
2022-12-02 12:38:10.695689
2022-12-02 12:38:10.703689
2022-12-02 12:38:10.712054
2022-12-02 12:38:10.724310
2022-12-02 12:38:10.731700
2022-12-02 12:38:10.740351
2022-12-02 12:38:10.752921
2022-12-02 12:38:10.761290
2022-12-02 12:38:10.769286
2022-12-02 12:38:10.777635
2022-12-02 12:38:10.788839
2022-12-02 12:38:10.798133
2022-12-02 12:38:10.806181
2022-12-02 12:38:10.818396
2022-12-02 12:38:10.827286
2022-12-02 12:38:10.834813
2022-12-02 12:38:10.843365
2022-12-02 12:38:10.854834
2022-12-02 12:38:10.863728
2022-12-02 12:38:10.871279
2022-12-02 12:38:10.883691
2022-12-02 12:38:10.892344
2022-12-02 12:38:10.899829
2022-12-02 12:38:10.909193
2022-12-02 12:38:10.921006
2022-12-02 12:38:10.928463
2022-12-02 12:38:10.937230
2022-12-02 12:38:10.945390
2022-12-02 12:38:10.958360
2022-12-02 12:38:10.965509
2022-12-02 12:38:10.973767
2022-12-02 12:38:10.985540
2022-12-02 12:38:10.994153
2022-12-02 12:38:11.001977
2022-12-02 12:38:11.010172
2022-12-02 12:38:11.023226
2022-12-02 12:38:11.031063
2022-12-02 12:38:11.039422
2022-12-02 12:38:11.051633
2022-12-02 12:38:11.059313
2022-12-02 12:38:11.068315
2022-12-02 12:38:11.076001
2022-12-02 12:38:11.087734
2022-12-02 12:38:11.097004
2022-12-02 12:38:11.105087
2022-12-02 12:38:11.116694
2022-12-02 12:38:11.125061
2022-12-02 12:38:11.133850
2022-12-02 12:38:11.142814
2022-12-02 12:38:11.154155
2022-12-02 12:38:11.161907
2022-12-02 12:38:11.169813
2022-12-02 12:38:11.182045
2022-12-02 12:38:11.191126
2022-12-02 12:38:11.198137
2022-12-02 12:38:11.206202
2022-12-02 12:38:11.219347
2022-12-02 12:38:11.227537
2022-12-02 12:38:11.235537
2022-12-02 12:38:11.248329
2022-12-02 12:38:11.256036
2022-12-02 12:38:11.264428
2022-12-02 12:38:11.272616
2022-12-02 12:38:11.284589
2022-12-02 12:38:11.293164
2022-12-02 12:38:11.301342
2022-12-02 12:38:11.313083
2022-12-02 12:38:11.322039
2022-12-02 12:38:11.329779
2022-12-02 12:38:11.337704
2022-12-02 12:38:11.350714
2022-12-02 12:38:11.359007
2022-12-02 12:38:11.366789
2022-12-02 12:38:11.379472
2022-12-02 12:38:11.387362
2022-12-02 12:38:11.396010
2022-12-02 12:38:11.403911
2022-12-02 12:38:11.416344
2022-12-02 12:38:11.424560
2022-12-02 12:38:11.432347
2022-12-02 12:38:11.445237
2022-12-02 12:38:11.453534
2022-12-02 12:38:11.461765
2022-12-02 12:38:11.469867
2022-12-02 12:38:11.481982
2022-12-02 12:38:11.490353
2022-12-02 12:38:11.498603
2022-12-02 12:38:11.511450
2022-12-02 12:38:11.518699
2022-12-02 12:38:11.527622
2022-12-02 12:38:11.535127
2022-12-02 12:38:11.547798
2022-12-02 12:38:11.555334
2022-12-02 12:38:11.563772
2022-12-02 12:38:11.576155
2022-12-02 12:38:11.584128
2022-12-02 12:38:11.591788
2022-12-02 12:38:11.600074
2022-12-02 12:38:11.612950
2022-12-02 12:38:11.620631
2022-12-02 12:38:11.630153
2022-12-02 12:38:11.641634
2022-12-02 12:38:11.649926
2022-12-02 12:38:11.658134
2022-12-02 12:38:11.665897
2022-12-02 12:38:11.679349
2022-12-02 12:38:11.686647
2022-12-02 12:38:11.695608
2022-12-02 12:38:11.707875
2022-12-02 12:38:11.715536
2022-12-02 12:38:11.723714
2022-12-02 12:38:11.732026
2022-12-02 12:38:11.744288
2022-12-02 12:38:11.751608
2022-12-02 12:38:11.760305
2022-12-02 12:38:11.768926
2022-12-02 12:38:11.781634
2022-12-02 12:38:11.789192
2022-12-02 12:38:11.798043
2022-12-02 12:38:11.810323
2022-12-02 12:38:11.818125
2022-12-02 12:38:11.826296
2022-12-02 12:38:11.834339
2022-12-02 12:38:11.847291
2022-12-02 12:38:11.853891
2022-12-02 12:38:11.862383
2022-12-02 12:38:11.875535
2022-12-02 12:38:11.883411
2022-12-02 12:38:11.891911
2022-12-02 12:38:11.899271
2022-12-02 12:38:11.912211
2022-12-02 12:38:11.920436
2022-12-02 12:38:11.929027
2022-12-02 12:38:11.940182
2022-12-02 12:38:11.949016
2022-12-02 12:38:11.957768
2022-12-02 12:38:11.965399
2022-12-02 12:38:11.977652
2022-12-02 12:38:11.986543
2022-12-02 12:38:11.994642
2022-12-02 12:38:12.005717
2022-12-02 12:38:12.014638
2022-12-02 12:38:12.022508
2022-12-02 12:38:12.031010
2022-12-02 12:38:12.043909
2022-12-02 12:38:12.051375
2022-12-02 12:38:12.059900
2022-12-02 12:38:12.071750
2022-12-02 12:38:12.080209
2022-12-02 12:38:12.087452
2022-12-02 12:38:12.096302
2022-12-02 12:38:12.108772
2022-12-02 12:38:12.116525
2022-12-02 12:38:12.125841
2022-12-02 12:38:12.137431
2022-12-02 12:38:12.144348
2022-12-02 12:38:12.153924
2022-12-02 12:38:12.162720
2022-12-02 12:38:12.174170
2022-12-02 12:38:12.182429
2022-12-02 12:38:12.190499
2022-12-02 12:38:12.203162
2022-12-02 12:38:12.211296
2022-12-02 12:38:12.219494
2022-12-02 12:38:12.226791
2022-12-02 12:38:12.239401
2022-12-02 12:38:12.247907
2022-12-02 12:38:12.256139
2022-12-02 12:38:12.268294
2022-12-02 12:38:12.276218
2022-12-02 12:38:12.284824
2022-12-02 12:38:12.293719
2022-12-02 12:38:12.304939
2022-12-02 12:38:12.313083
2022-12-02 12:38:12.321458
2022-12-02 12:38:12.334152
2022-12-02 12:38:12.342147
2022-12-02 12:38:12.350227
2022-12-02 12:38:12.358614
2022-12-02 12:38:12.370669
2022-12-02 12:38:12.379190
2022-12-02 12:38:12.387422
2022-12-02 12:38:12.399491
2022-12-02 12:38:12.407894
2022-12-02 12:38:12.415777
2022-12-02 12:38:12.424229
2022-12-02 12:38:12.437035
2022-12-02 12:38:12.445308
2022-12-02 12:38:12.453476
2022-12-02 12:38:12.464380
2022-12-02 12:38:12.473189
2022-12-02 12:38:12.481621
2022-12-02 12:38:12.489819
2022-12-02 12:38:12.502101
2022-12-02 12:38:12.509744
2022-12-02 12:38:12.518341
2022-12-02 12:38:12.530705
2022-12-02 12:38:12.538722
2022-12-02 12:38:12.547562
2022-12-02 12:38:12.554933
2022-12-02 12:38:12.567581
2022-12-02 12:38:12.575902
2022-12-02 12:38:12.583832
2022-12-02 12:38:12.596363
2022-12-02 12:38:12.603808
2022-12-02 12:38:12.613231
2022-12-02 12:38:12.620386
2022-12-02 12:38:12.632859
2022-12-02 12:38:12.641407
2022-12-02 12:38:12.649484
2022-12-02 12:38:12.658299
2022-12-02 12:38:12.670501
2022-12-02 12:38:12.677867
2022-12-02 12:38:12.686675
2022-12-02 12:38:12.698191
2022-12-02 12:38:12.707501
2022-12-02 12:38:12.714892
2022-12-02 12:38:12.723069
2022-12-02 12:38:12.735617
2022-12-02 12:38:12.743797
2022-12-02 12:38:12.751891
2022-12-02 12:38:12.764238
2022-12-02 12:38:12.771933
2022-12-02 12:38:12.779944
2022-12-02 12:38:12.788185
2022-12-02 12:38:12.800595
2022-12-02 12:38:12.809179
2022-12-02 12:38:12.817248
2022-12-02 12:38:12.830315
2022-12-02 12:38:12.837148
2022-12-02 12:38:12.846139
2022-12-02 12:38:12.853810
2022-12-02 12:38:12.866434
2022-12-02 12:38:12.874815
2022-12-02 12:38:12.882633
2022-12-02 12:38:12.895564
2022-12-02 12:38:12.903549
2022-12-02 12:38:12.911655
2022-12-02 12:38:12.919939
2022-12-02 12:38:12.931644
2022-12-02 12:38:12.940043
2022-12-02 12:38:12.947818
2022-12-02 12:38:12.960667
2022-12-02 12:38:12.968751
2022-12-02 12:38:12.977825
2022-12-02 12:38:12.984929
2022-12-02 12:38:12.996863
2022-12-02 12:38:13.005696
2022-12-02 12:38:13.013943
2022-12-02 12:38:13.026932
2022-12-02 12:38:13.034288
2022-12-02 12:38:13.043209
2022-12-02 12:38:13.050324
2022-12-02 12:38:13.062415
2022-12-02 12:38:13.070588
2022-12-02 12:38:13.079126
2022-12-02 12:38:13.091681
2022-12-02 12:38:13.099723
2022-12-02 12:38:13.108252
2022-12-02 12:38:13.116216
2022-12-02 12:38:13.128539
2022-12-02 12:38:13.136912
2022-12-02 12:38:13.144427
2022-12-02 12:38:13.158010
2022-12-02 12:38:13.165101
2022-12-02 12:38:13.174380
2022-12-02 12:38:13.181260
2022-12-02 12:38:13.194781
2022-12-02 12:38:13.202968
2022-12-02 12:38:13.210400
2022-12-02 12:38:13.222679
2022-12-02 12:38:13.229907
2022-12-02 12:38:13.239043
2022-12-02 12:38:13.247534
2022-12-02 12:38:13.259340
2022-12-02 12:38:13.267881
2022-12-02 12:38:13.275500
2022-12-02 12:38:13.287980
2022-12-02 12:38:13.296479
2022-12-02 12:38:13.304571
2022-12-02 12:38:13.313215
2022-12-02 12:38:13.325867
2022-12-02 12:38:13.333712
2022-12-02 12:38:13.342348
2022-12-02 12:38:13.353214
2022-12-02 12:38:13.362826
2022-12-02 12:38:13.370227
2022-12-02 12:38:13.378464
2022-12-02 12:38:13.390817
2022-12-02 12:38:13.399047
2022-12-02 12:38:13.407328
2022-12-02 12:38:13.419644
2022-12-02 12:38:13.427658
2022-12-02 12:38:13.435969
2022-12-02 12:38:13.444967
2022-12-02 12:38:13.455689
2022-12-02 12:38:13.464349
2022-12-02 12:38:13.472532
2022-12-02 12:38:13.480452
2022-12-02 12:38:13.493065
2022-12-02 12:38:13.501274
2022-12-02 12:38:13.509181
2022-12-02 12:38:13.521270
2022-12-02 12:38:13.529958
2022-12-02 12:38:13.538032
2022-12-02 12:38:13.545865
2022-12-02 12:38:13.557972
2022-12-02 12:38:13.566361
2022-12-02 12:38:13.574772
2022-12-02 12:38:13.586470
2022-12-02 12:38:13.595808
2022-12-02 12:38:13.603410
2022-12-02 12:38:13.611804
2022-12-02 12:38:13.624479
2022-12-02 12:38:13.632316
2022-12-02 12:38:13.640572
2022-12-02 12:38:13.653627
2022-12-02 12:38:13.660261
2022-12-02 12:38:13.669637
2022-12-02 12:38:13.678217
2022-12-02 12:38:13.689009
2022-12-02 12:38:13.697852
2022-12-02 12:38:13.706896
2022-12-02 12:38:13.719086
2022-12-02 12:38:13.727252
2022-12-02 12:38:13.734641
2022-12-02 12:38:13.743302
2022-12-02 12:38:13.755236
2022-12-02 12:38:13.763606
2022-12-02 12:38:13.771746
2022-12-02 12:38:13.783914
2022-12-02 12:38:13.792186
2022-12-02 12:38:13.800053
2022-12-02 12:38:13.808327
2022-12-02 12:38:13.819975
2022-12-02 12:38:13.829642
2022-12-02 12:38:13.836741
2022-12-02 12:38:13.849275
2022-12-02 12:38:13.857768
2022-12-02 12:38:13.865671
2022-12-02 12:38:13.874744
2022-12-02 12:38:13.886929
2022-12-02 12:38:13.895203
2022-12-02 12:38:13.902814
2022-12-02 12:38:13.914805
2022-12-02 12:38:13.923902
2022-12-02 12:38:13.931043
2022-12-02 12:38:13.939796
2022-12-02 12:38:13.952060
2022-12-02 12:38:13.960246
2022-12-02 12:38:13.968363
2022-12-02 12:38:13.979683
2022-12-02 12:38:13.988499
2022-12-02 12:38:13.996770
2022-12-02 12:38:14.004351
2022-12-02 12:38:14.017658
2022-12-02 12:38:14.025640
2022-12-02 12:38:14.034580
2022-12-02 12:38:14.046408
2022-12-02 12:38:14.054340
2022-12-02 12:38:14.063119
2022-12-02 12:38:14.070780
2022-12-02 12:38:14.082694
2022-12-02 12:38:14.091918
2022-12-02 12:38:14.098793
2022-12-02 12:38:14.111796
2022-12-02 12:38:14.119778
2022-12-02 12:38:14.128213
2022-12-02 12:38:14.135394
2022-12-02 12:38:14.148412
2022-12-02 12:38:14.157341
2022-12-02 12:38:14.164756
2022-12-02 12:38:14.176572
2022-12-02 12:38:14.185623
2022-12-02 12:38:14.193788
2022-12-02 12:38:14.201337
2022-12-02 12:38:14.213302
2022-12-02 12:38:14.222100
2022-12-02 12:38:14.230309
2022-12-02 12:38:14.243230
2022-12-02 12:38:14.250912
2022-12-02 12:38:14.259451
2022-12-02 12:38:14.267103
2022-12-02 12:38:14.279746
2022-12-02 12:38:14.287572
2022-12-02 12:38:14.295636
2022-12-02 12:38:14.307756
2022-12-02 12:38:14.316089
2022-12-02 12:38:14.324108
2022-12-02 12:38:14.332508
2022-12-02 12:38:14.344287
2022-12-02 12:38:14.352624
2022-12-02 12:38:14.362242
2022-12-02 12:38:14.368347
2022-12-02 12:38:14.381827
2022-12-02 12:38:14.390819
2022-12-02 12:38:14.398577
2022-12-02 12:38:14.411418
2022-12-02 12:38:14.419097
2022-12-02 12:38:14.427441
2022-12-02 12:38:14.435817
2022-12-02 12:38:14.447359
2022-12-02 12:38:14.455580
2022-12-02 12:38:14.463235
2022-12-02 12:38:14.476464
2022-12-02 12:38:14.485173
2022-12-02 12:38:14.492518
2022-12-02 12:38:14.501326
2022-12-02 12:38:14.513220
2022-12-02 12:38:14.520625
2022-12-02 12:38:14.529533
2022-12-02 12:38:14.541789
2022-12-02 12:38:14.550110
2022-12-02 12:38:14.558208
2022-12-02 12:38:14.566133
2022-12-02 12:38:14.579207
2022-12-02 12:38:14.586285
2022-12-02 12:38:14.595618
2022-12-02 12:38:14.607562
2022-12-02 12:38:14.615651
2022-12-02 12:38:14.623774
2022-12-02 12:38:14.631239
2022-12-02 12:38:14.644409
2022-12-02 12:38:14.652950
2022-12-02 12:38:14.661751
2022-12-02 12:38:14.673439
2022-12-02 12:38:14.680894
2022-12-02 12:38:14.689236
2022-12-02 12:38:14.697145
2022-12-02 12:38:14.709318
2022-12-02 12:38:14.718501
2022-12-02 12:38:14.725254
2022-12-02 12:38:14.738167
2022-12-02 12:38:14.747227
2022-12-02 12:38:14.755011
2022-12-02 12:38:14.763370
2022-12-02 12:38:14.775565
2022-12-02 12:38:14.783226
2022-12-02 12:38:14.791767
2022-12-02 12:38:14.803842
2022-12-02 12:38:14.812366
2022-12-02 12:38:14.819757
2022-12-02 12:38:14.827905
2022-12-02 12:38:14.840643
2022-12-02 12:38:14.848410
2022-12-02 12:38:14.857518
2022-12-02 12:38:14.869656
2022-12-02 12:38:14.877439
2022-12-02 12:38:14.886319
2022-12-02 12:38:14.893571
2022-12-02 12:38:14.907150
2022-12-02 12:38:14.914160
2022-12-02 12:38:14.922758
2022-12-02 12:38:14.935531
2022-12-02 12:38:14.942696
2022-12-02 12:38:14.950803
2022-12-02 12:38:14.959434
2022-12-02 12:38:14.971707
2022-12-02 12:38:14.979826
2022-12-02 12:38:14.987859
2022-12-02 12:38:14.999958
2022-12-02 12:38:15.007840
2022-12-02 12:38:15.016920
2022-12-02 12:38:15.025076
2022-12-02 12:38:15.037103
2022-12-02 12:38:15.045650
2022-12-02 12:38:15.053583
2022-12-02 12:38:15.065719
2022-12-02 12:38:15.074328
2022-12-02 12:38:15.081909
2022-12-02 12:38:15.091512
2022-12-02 12:38:15.102065
2022-12-02 12:38:15.110923
2022-12-02 12:38:15.119102
2022-12-02 12:38:15.130534
2022-12-02 12:38:15.139642
2022-12-02 12:38:15.147986
2022-12-02 12:38:15.156199
2022-12-02 12:38:15.168157
2022-12-02 12:38:15.176460
2022-12-02 12:38:15.184731
2022-12-02 12:38:15.193147
2022-12-02 12:38:15.205201
2022-12-02 12:38:15.213399
2022-12-02 12:38:15.221532
2022-12-02 12:38:15.234353
2022-12-02 12:38:15.242787
2022-12-02 12:38:15.250965
2022-12-02 12:38:15.259176
2022-12-02 12:38:15.270510
2022-12-02 12:38:15.279753
2022-12-02 12:38:15.287172
2022-12-02 12:38:15.299538
2022-12-02 12:38:15.306908
2022-12-02 12:38:15.315771
2022-12-02 12:38:15.324263
2022-12-02 12:38:15.336288
2022-12-02 12:38:15.344491
2022-12-02 12:38:15.352835
2022-12-02 12:38:15.364615
2022-12-02 12:38:15.373886
2022-12-02 12:38:15.382493
2022-12-02 12:38:15.389688
