HR_time,RR-interval,heart_rate
1.3579313921104412,917.0,63.97191815946609
2.33865961974576,980.0,61.81986268846998
3.3571081638285905,1018.0,60.42309591642924
4.3378363914639095,980.0,61.238807711301035
5.280844302651715,943.0,61.994096410256404
6.261572530287034,980.0,61.735959766309634
7.25487419673819,993.0,61.735959766309634
8.197882107925997,943.0,64.06656489451476
9.078022825034616,880.0,69.58735827956988
9.857576031616535,779.0,74.03430322580644
10.637129238198455,779.0,75.05176889744824
11.479549638859563,842.0,70.32576465296606
12.435130988863206,955.0,65.59976040848389
13.39071233886685,955.0,63.35400284495021
14.321146811238819,930.0,62.30753047652915
15.327021916505812,1005.0,62.586589774774765
16.27002982769362,943.0,63.49483377934271
17.162743983618075,892.0,68.86008100156494
17.954870629015833,792.0,75.55750415945967
18.671556641518567,716.0,80.11411814847852
19.413389531652975,741.0,74.03020917926835
20.456984953367478,1043.0,64.62007005238138
21.538300691529496,1081.0,57.29761012352596
22.556749235612326,1018.0,58.267955098362016
23.550050902063482,515.0,60.16495927248247
24.530779129698804,477.0,60.410428099642964
25.536654234965795,980.0,60.668564743589734
26.517382462601113,1005.0,62.065331515630476
27.435243496157245,980.0,66.65371036178433
28.252517019186676,917.0,71.50913771221167
29.044643664584434,817.0,73.82015182595183
29.874490626429704,792.0,71.44099242424241
30.779778221169998,829.0,68.28496464646464
31.685065815910292,905.0,66.27658333333333
32.590353410650586,905.0,64.31904711673698
33.583655077101746,905.0,61.62487706253644
34.61467706000041,993.0,58.69699587110404
35.65827248171492,1031.0,59.491785011676996
36.61385383171856,1043.0,61.88332226526871
37.531714865274694,955.0,64.50857065609227
38.44957589883082,917.0,64.23675965130758
39.417730687650305,917.0,62.581856235320075
40.41103235410146,968.0,62.00080125815113
41.354040265289264,993.0,62.83827300262287
42.284474737661235,943.0,63.361251138411134
43.25262952648072,930.0,61.79025064458397
44.27107807056355,968.0,59.23130920314253
45.32724693109389,1018.0,58.966467711301036
46.30797515872921,1056.0,61.118523182297146
47.22583619228534,980.0,63.390863182297146
48.16884410347315,917.0,64.49317641861037
49.09927857584512,943.0,64.19872288288288
50.02971304821708,930.0,65.39356832889226
50.92242720414154,930.0,67.2901955149018
51.77742104361849,892.0,68.84781204447485
52.64498832191127,855.0,68.53665437624323
53.550275916651565,867.0,66.35342574879226
54.49328382783937,905.0,65.39289555555555
55.398571422579664,943.0,67.0415667827529
56.24099182324077,905.0,67.92525456053068
57.14627941798106,842.0,66.22585498788109
58.12700764561638,905.0,62.619647544087414
59.12030931206754,980.0,61.45690046806402
60.07589066207118,993.0,61.9935529646902
61.03147201207483,955.0,62.788342105263155
61.98705336207847,955.0,63.95108918128655
62.892340956818764,955.0,66.07436645054665
63.759908235111546,905.0,70.39314130434781
64.5520348805093,867.0,73.15466560990338
65.3567349647229,792.0,72.19413541666665
66.26202255946319,804.0,67.6035495580808
67.23017734828267,905.0,63.67927817650186
68.18575869828632,968.0,63.67927817650186
69.09104629302661,955.0,65.11383625730994
69.99633388776691,905.0,64.84202525252525
70.96448867658638,905.0,64.24493891618891
71.89492314895836,968.0,63.647852579852575
72.82535762133033,930.0,66.38195151033385
73.68035146080727,930.0,68.9874191598015
74.51019842265254,855.0,71.23317672333518
75.35261882331365,829.0,69.0499480958842
76.29562673450145,842.0,66.44448044641655
77.22606120687342,943.0,66.44448044641656
78.06848160753452,930.0,71.31200656663515
78.83546137530061,842.0,76.32753179186037
79.58986770425085,766.0,79.54663222191348
80.33170059438527,754.0,79.12605104793147
81.11125380096718,741.0,76.35628338623992
81.95367420162829,779.0,69.78911215633988
82.93440242926361,842.0,62.209092361618474
84.0408650450573,502.0,56.9640173876511
85.12218078321932,477.0,57.22885887949259
86.0903355720388,1106.0,60.94298870514639
87.00819660559493,1081.0,65.83893330158962
87.86319044507188,968.0,67.58464905062931
88.75590460099633,917.0,67.2901955149018
89.6863390733683,855.0,65.10696688745082
90.62934698455611,892.0,63.912121441441435
91.57235489574391,930.0,62.05451950617283
92.59080343982674,943.0,60.01032609251821
93.63439886154124,477.0,58.199843816095445
94.66542084443992,465.0,78.32828764325593
95.16835839707342,1018.0,99.94956413383363
95.65872251089107,1043.0,100.9443346153846
96.63945073852639,1031.0,81.0613596153846
97.64532584379339,502.0,59.913276044634365
98.66377438787622,490.0,59.913276044634365
99.64450261551154,980.0,60.95974841305542
100.60008396551518,1005.0,63.725594352891974
101.49279812143963,1018.0,65.73615159377316
102.38551227736409,980.0,66.30181233346022
103.31594674973606,955.0,64.29125509257904
104.29667497737138,892.0,62.54553934353934
105.26482976619086,892.0,63.77383123543123
106.14497048329947,930.0,66.43376100131752
107.01253776159226,980.0,66.16891950947601
107.99326598922758,968.0,63.58017773732413
108.98656765567874,880.0,62.619647544087414
109.89185525041903,867.0,65.96771834393434
110.73427565108014,980.0,72.34369344941956
111.48868198003038,993.0,77.67629210842338
112.21794143134895,905.0,78.78914518678161
113.02264151556255,842.0,72.16148685344827
114.02851662082954,754.0,64.3741999228395
115.04696516491238,729.0,60.17811753647586
116.01511995373185,804.0,63.34786717415702
116.88268723202464,1005.0,65.20546910942562
117.81312170439661,1018.0,63.26122098108338
118.88186400374279,968.0,59.14466301006888
119.93803286427313,867.0,58.579002270381835
120.89361421427677,930.0,63.6064797067295
121.73603461493788,565.0,67.39371304006283
122.6161753320465,502.0,65.86229006188569
123.64719731494516,1056.0,61.51944878048779
124.67821929784384,955.0,59.725496148908846
125.63380064784748,842.0,62.419666203109394
126.53908824258777,880.0,63.95108918128655
127.49466959259142,1031.0,88.46844181286549
127.93473995114573,1031.0,103.36782876376988
128.47539782022673,955.0,102.83117626714369
129.45612604786206,905.0,79.78772837981975
130.34884020378652,955.0,68.87217977135617
131.11581997155258,980.0,75.4393510012562
131.857652861687,980.0,79.54663222191348
132.61205919063724,892.0,73.10810560786774
133.63050773472008,766.0,64.86152774146694
134.69925003406627,741.0,57.74891879837751
135.73027201696493,754.0,58.76904898917437
136.6984268057844,1018.0,59.45368514412416
137.72944878868307,1068.0,81.91455549072236
138.20723946368489,1031.0,95.83600608360774
138.7856176492134,968.0,95.3741483600305
139.84178650974377,1031.0,74.44470099160945
140.7973678597474,477.0,59.50312020792722
141.81581640383024,578.0,60.44992854126055
142.82169150909723,1056.0,58.91850556308339
143.8527134919959,955.0,59.16397439024389
144.8585885972629,1018.0,61.0705610340795
145.77644963081903,1005.0,64.3959366438356
146.65659034792765,1031.0,66.60515608828005
147.56187794266793,1005.0,65.2083893162393
148.54260617030326,917.0,63.69349598290598
149.48561408149106,880.0,63.09640964656964
150.41604855386302,905.0,66.44448044641656
151.25846895452415,980.0,67.9593737797499
152.13860967163276,943.0,67.12190203527814
153.10676446045224,930.0,63.26401136363636
154.11263956571923,842.0,60.67526959148446
155.10594123217038,880.0,62.10982767229254
156.01122882691067,968.0,63.72196078040065
156.94166329928265,1005.0,65.08241066066066
157.8720977716546,993.0,63.647852579852575
158.84025256047408,905.0,63.361251138411134
159.78326047166192,930.0,64.58954303030302
160.66340118877054,930.0,66.02410111111111
161.56868878351082,968.0,64.69856944444444
162.57456388877782,943.0,61.37319383468834
163.60558587167648,880.0,60.21044675866494
164.56116722168014,905.0,61.822579866773054
165.4916016940521,1005.0,62.81735034832403
166.47232992168742,1031.0,62.54553934353934
167.4404847105069,955.0,61.979878603852285
168.39606606051055,930.0,61.721741959905515
169.3893677269617,980.0,60.46212998651305
170.42038970986036,968.0,59.1701887909315
171.4388382539432,955.0,59.96497793150445
172.39441960394683,993.0,62.659147985705
173.29970719868712,1031.0,65.11383625730994
174.20499479342743,1018.0,66.27658333333333
175.11028238816772,955.0,68.28496464646464
175.940129350013,905.0,71.0464889520202
176.74482943422657,905.0,68.83726950757574
177.75070453949357,905.0,63.450081985294105
178.81944683883975,829.0,58.4793382352941
179.82532194410675,804.0,60.38592487912972
180.74318297766288,1005.0,63.76473108828005
181.64847057240317,1068.0,66.2851082009561
182.54118472832764,1005.0,68.23641222876229
183.38360512898873,917.0,71.79966939722107
184.16315833557067,905.0,75.05176889744824
184.94271154215258,892.0,72.5194098924731
185.88571945334039,842.0,64.53771383512543
187.01732894676576,779.0,58.76523722222221
188.02320405203275,779.0,57.949525427350416
189.00393227966805,943.0,59.44008312480691
190.04752770138256,1131.0,59.19461429764642
191.0659762454654,1005.0,59.7312667942726
192.02155759546903,980.0,63.29035354126055
192.90169831257765,1043.0,66.37624736842105
193.7818390296863,1018.0,67.85015211267606
194.67455318561073,955.0,67.85015211267606
195.55469390271935,880.0,66.91631375651167
196.4725549362755,880.0,67.23636164383561
197.3526956533841,892.0,64.6476198716837
198.34599731983528,880.0,63.25085309964297
199.32672554747057,917.0,60.92024797143784
200.3074537751059,880.0,63.50898974358974
201.18759449221452,993.0,66.50793016591251
202.04258833169146,980.0,69.16785993179879
202.91015560998426,980.0,68.84781204447485
203.8028697659087,880.0,67.24563839419282
204.72073079946483,855.0,66.59626586918772
205.6134449553893,867.0,68.29348951408741
206.44329191723457,892.0,69.55665250793297
207.31085919552734,917.0,68.08274776367796
208.266440545531,892.0,64.37496687789707
209.2471687731663,829.0,63.725594352891974
210.13988292909076,867.0,66.89672274204668
210.96972989093604,955.0,70.97528171640565
211.78700341396546,980.0,73.04328344988345
212.6042769369949,892.0,72.33444298642533
213.45927077647184,829.0,71.60395481191327
214.30169117713294,817.0,70.87346663740122
215.14411157779406,817.0,66.64604459629562
216.18770699950855,855.0,60.98061074283565
217.29416961530225,842.0,55.52294047349271
218.3880587922801,842.0,56.49328544832876
219.38136045873125,1043.0,59.075489993783314
220.34951524755076,1106.0,76.94315822784809
220.90274655544758,1093.0,98.66739473684208
221.38053723044942,993.0,96.50554907088014
222.46185296861142,968.0,104.5390743234054
222.91449676598157,553.0,95.1421795865633
223.5305952679576,477.0,116.41233888888887
224.03353282059112,1081.0,115.2181662162162
224.49875005677708,1068.0,123.54175595980594
224.98911417059475,502.0,125.63470069664805
225.4669048455966,465.0,102.52745948043184
226.47277995086355,490.0,81.3793759096816
227.4912284949464,477.0,60.44992854126055
228.44680984495005,1005.0,62.659147985705
229.35209743969034,1018.0,64.23014847953216
230.29510535087815,955.0,63.95833747474747
231.26326013969762,905.0,61.030456283315075
232.30685556141214,943.0,59.95660784449651
233.30015722786328,968.0,59.691766352655016
234.2808854554986,1043.0,60.66211132749107
235.27418712194975,993.0,60.16495927248247
236.2926356660326,980.0,60.16495927248247
237.27336389366792,993.0,61.81986268846998
238.19122492722403,1018.0,64.27455096007492
239.09651252196434,980.0,65.37686419638817
240.0269469943363,917.0,63.22480872539205
241.04539553841914,905.0,62.34112094761427
241.98840344960695,930.0,65.31736668566
242.80567697263638,1018.0,69.4207261844623
243.64809737329747,943.0,68.09519451779562
244.65397247856447,817.0,63.021865061885684
245.68499446146313,842.0,59.16397439024389
246.69086956673013,1005.0,57.77679008791831
247.77218530489216,1031.0,56.25110277632609
248.89122135950169,1005.0,74.24046110965944
249.41930578976687,616.0,91.09218152309612
249.98511053647954,465.0,105.68184444444444
250.60120903845558,641.0,114.59298169934638
251.02870595819405,477.0,113.08883229036293
251.6196575825384,528.0,121.41242203395267
252.11002169635606,565.0,92.91214684801625
253.2039108733339,1043.0,78.46680953613249
254.23493285623258,590.0,57.56419479254274
255.24080796149957,490.0,59.41565761809199
256.2341096279507,565.0,60.947080596269146
257.1896909779544,528.0,64.80497126791094
258.03211137861547,1031.0,68.77088879763859
258.8619583404608,1005.0,70.24479354189359
259.75467249638524,993.0,65.66824112326385
260.7982679180997,955.0,61.96046023748297
261.77899614573505,842.0,61.05221623291502
262.709430618107,829.0,63.09640964656964
263.65243852929484,892.0,63.361251138411134
264.6205933181143,1043.0,64.58954303030302
265.50073403522293,980.0,66.772771657754
266.3557278746999,930.0,69.50687058823527
267.2107217141768,943.0,68.57303223207089
268.12858274773293,968.0,67.90469693795325
269.0087234648416,880.0,68.61353740141136
269.83857042668683,855.0,67.48161212121212
270.8067252155063,855.0,63.47160035650623
271.87546751485246,917.0,59.505682826778575
272.86876918130366,880.0,61.57144646314221
273.74890989841225,829.0,64.3531663359562
274.67934437078424,968.0,65.42701477477476
275.62235228197204,1068.0,64.19872288288288
276.552786754344,993.0,65.75633941245593
277.4203540326368,880.0,70.20328435869249
278.1999072392187,930.0,72.09991154470202
279.05490107869565,943.0,68.93016190702086
280.0607761839626,930.0,62.67273468436154
281.09179816686134,867.0,58.91850556308339
282.1102467109441,779.0,60.530638671191504
283.0406811833161,855.0,63.856014280947605
283.92082190042476,1005.0,65.71361621621621
284.8512563727967,1031.0,92.4196596232596
285.26617985371934,1018.0,94.94448184548182
286.05830649911707,930.0,104.63835412953057
286.6995518787248,880.0,80.53777837195483
287.5293988405701,930.0,112.0980561497326
287.8814551274135,1207.0,125.09346464646464
288.3340989247837,641.0,121.38568376068375
289.31482715241896,829.0,83.97520815092767
290.3458491353177,804.0,59.67379426203876
291.35172424058464,980.0,62.333724027925044
292.2192915188774,1031.0,68.18392185990336
293.0114181642752,1005.0,73.54916908212559
293.8035448096729,867.0,72.89979655712048
294.6962589655974,792.0,67.04959872514218
295.72728094849606,792.0,63.59093814675556
296.6451419820522,892.0,63.91098603407951
297.5252826991608,1031.0,65.44240901225666
298.48086404916444,917.0,63.535822368421044
299.48673915443146,880.0,60.69539736842104
300.4926142596984,955.0,62.48934999999999
301.3727549768071,1005.0,67.07772884615383
302.1900284998365,1005.0,70.58648914027148
303.04502233931345,880.0,69.95528358471593
303.95030993405373,817.0,66.14156610219845
304.91846472287324,855.0,63.67927817650186
305.87404607287687,905.0,63.08219184016552
306.80448054524885,968.0,63.08219184016552
307.7726353340683,955.0,63.647852579852575
308.7030698064403,930.0,65.89361014338625
309.5454902071014,968.0,71.31200656663515
310.3124699748675,930.0,75.89293124541229
311.0794497426335,842.0,79.1120316754654
311.821282632768,766.0,107.8855850954767
312.18591235842723,766.0,125.99394119748035
312.6385561557974,741.0,123.88769384578544
313.443256240011,817.0,94.28632986111111
314.23538288540874,804.0,96.8854115604575
314.6628798051472,792.0,113.8905875472996
315.140670480149,905.0,109.57181269349843
316.0962518301527,955.0,82.92300033311125
317.08955349660386,993.0,61.9935529646902
318.0451348466075,955.0,63.467457708945204
318.93784900253195,892.0,66.05619948109711
319.81798971964054,880.0,66.05619948109711
320.7735710696442,955.0,64.3104837320574
321.74172585846367,968.0,61.721741959905515
322.7350275249148,993.0,62.28740269959257
323.6654619972868,930.0,64.03311844863225
324.55817615321126,892.0,66.30181233346022
325.45089030913573,892.0,65.73615159377316
326.40647165913936,955.0,65.12236112493272
327.3243326926955,917.0,66.45987468389845
328.1667530933566,842.0,68.2538273154774
329.04689381046524,880.0,65.86229006188569
330.0779157933639,1031.0,61.05759105691056
331.1340846538942,1056.0,57.27035772357723
332.19025351442457,502.0,58.2651282051282
333.1709817420599,553.0,58.966467711301036
334.18943028614274,980.0,59.19461429764642
335.2330257078572,1018.0,57.73798609251821
336.2891945683876,1043.0,58.758116283315076
337.25734935720703,1056.0,61.38336467413864
338.1752103907632,968.0,62.839992879266845
339.1559386183985,917.0,61.58038090587438
340.1869606012972,980.0,59.67379426203876
341.19283570656415,1031.0,61.37319383468834
342.09812330130444,1005.0,68.05120223132968
342.8651030690705,905.0,75.1281933330246
343.606935959205,766.0,78.69145050148337
344.3864891657869,741.0,81.01966771459813
345.09060173947375,779.0,98.2440905017921
345.5432455368439,1156.0,91.75295214190092
346.5868409585584,1043.0,84.5572088085676
347.5298488697462,943.0,60.50747814752681
348.52315053619736,993.0,60.27933156118143
349.5793193967277,1056.0,58.46884928475866
350.6103413796264,1031.0,59.54269772357723
351.5533492908142,943.0,62.39609270074617
352.4712103243703,917.0,63.65570467413864
353.4393651131898,968.0,62.084704180311476
354.45781365727265,1018.0,61.79025064458397
355.38824812964464,930.0,62.34112094761427
356.33125604083244,943.0,61.639781441441436
357.38742490136275,1056.0,59.30898658634538
358.4310203230773,1043.0,58.758116283315076
359.39917511189674,968.0,61.914144061092856
360.304462706637,905.0,62.6328058080808
361.31033781190405,1005.0,61.61267561728394
362.3287863559869,1018.0,59.157987345679
363.3472349000697,1018.0,60.77012045378711
364.27766937244166,930.0,63.856014280947605
365.1578100895503,880.0,65.14795547652915
366.11339143955394,955.0,63.78750559626915
367.1066931060051,993.0,60.947080596269146
368.1125682112721,1005.0,59.655139400687595
369.1310167553549,1018.0,60.72898783950616
370.0740246665427,943.0,60.980671067354265
371.0673263329939,993.0,60.74118928475866
372.09834831589257,1031.0,58.46884928475866
373.15451717642287,1056.0,57.97169722975006
374.1729657205057,1018.0,58.45664783950616
375.1788408257727,1005.0,58.01627187051391
376.26015656393474,1081.0,57.09215393296853
377.3288988632809,1068.0,63.28521171985377
378.095878631047,766.0,82.66175435551268
378.62396306131217,528.0,85.44347422832668
379.55439753368415,930.0,93.21080314356908
380.14534915802847,590.0,75.99610617387212
381.11350394684797,968.0,74.89379293755889
382.0942321744833,980.0,60.21474448844328
383.1378275961978,1043.0,61.05221623291502
384.06826206856977,930.0,64.40028703276194
384.9106824692309,842.0,69.70732762590374
385.7279559922603,817.0,94.9956901060309
386.1554529119988,930.0,111.02077443438911
386.65839046463225,930.0,108.04452869634338
387.58882493700423,842.0,85.00192377974989
388.43124533766536,779.0,70.89142539265312
389.21079854424727,804.0,74.25003603454502
390.0154986284609,1005.0,70.39214536290322
391.02137373372784,1068.0,63.450081985294105
392.090116033074,955.0,59.52581060371516
393.04569738307765,905.0,61.735030048159615
393.950984977818,905.0,65.11383625730994
394.8562725725583,905.0,66.27658333333333
395.76156016729857,880.0,66.90778888888889
396.64170088440716,817.0,69.28694829059829
397.4589744074366,754.0,73.70538717948718
398.21338073638685,792.0,76.2302094017094
399.00550738178464,842.0,75.49972122719734
399.8479277824457,968.0,69.64672425750038
400.8160825712652,943.0,65.60700870194482
401.759090482453,943.0,63.07464969696969
402.7020983936408,968.0,63.07464969696969
403.67025318246027,980.0,62.2589379020979
404.6509814100956,943.0,62.2589379020979
405.5939893212834,855.0,64.99303683257918
406.44898316076035,917.0,66.38980360461991
407.3668441943165,968.0,65.8389333015896
408.33499898313596,968.0,63.10483437110834
409.30315377195546,943.0,62.52377939393939
410.24616168314327,880.0,64.58954303030302
411.12630240025186,855.0,67.3236419607843
411.9812962397288,917.0,67.90469693795325
412.89915727328497,917.0,66.97085858178886
413.8170183068411,804.0,68.43284203767122
414.6217183910547,792.0,71.89150261605783
415.41384503645247,1106.0,68.17737279040404
416.5203076522461,1081.0,61.819444738078445
417.6016233904082,993.0,56.70588074370433
418.5949250568593,980.0,59.023243797317384
419.57565328449465,1031.0,59.925477489886866
420.6066752673933,1018.0,59.42832543487827
421.6251238114761,943.0,60.24403722975006
422.56813172266396,842.0,64.58687851114796
423.41055212332503,855.0,68.34110763242609
424.265545962802,842.0,70.87346663740122
425.1079663634631,905.0,69.22479541020388
426.0132539582034,855.0,69.22479541020387
426.86824779768034,817.0,69.95528358471593
427.68552132070977,855.0,71.25482443438912
428.5405151601867,930.0,69.35819724837958
429.4709496325587,943.0,66.09535006889242
430.4139575437465,905.0,64.79580921921922
431.3192451384868,943.0,64.50920777777777
432.2622530496746,1018.0,62.93820728395061
433.28070159375744,1056.0,59.78217950617283
434.33687045428775,930.0,60.06878094761427
435.26730492665973,880.0,63.15467477477477
436.1474456437683,930.0,65.71361621621621
437.0778801161403,955.0,65.14795547652915
438.03346146614393,943.0,63.63306214319582
438.97646937733174,880.0,64.86135403508771
439.8566100944404,917.0,65.72146831050227
440.7744711279965,955.0,65.44240901225666
441.7300524780002,955.0,63.648456380677715
442.6856338280038,980.0,62.25168960863697
443.6663620556391,880.0,64.04564224021593
444.5465027727477,829.0,67.21677062937061
445.376349734593,855.0,70.21571105169339
446.23134357406997,829.0,71.59288680926915
447.0611905359152,867.0,70.54503568937454
447.928757814208,829.0,71.25387615283266
448.7586047760533,829.0,71.25387615283266
449.58845173789854,930.0,69.6962596232596
450.5188862102705,1031.0,64.99370825592776
451.5499081931692,980.0,61.28592737014687
452.5306364208045,930.0,61.28592737014687
453.4610708931765,905.0,63.98009742434742
454.3663584879168,930.0,65.08241066066066
455.2967929602887,892.0,65.9906546652286
456.1895071162132,867.0,66.95118485846531
457.05707439450595,867.0,68.50880138803836
457.92464167279877,842.0,69.8463149470041
458.76706207345984,829.0,70.89416606689869
459.59690903530515,892.0,70.24479354189359
460.4896231912296,955.0,67.43337523867285
461.44520454123324,993.0,63.467457708945204
462.4385062076844,943.0,62.272612262935816
463.3815141188722,968.0,62.00080125815113
464.3496689076917,1043.0,61.030456283315075
465.3932643294062,1068.0,58.53533785194253
466.46200662875236,955.0,58.80714885672721
467.417587978756,880.0,62.36623560371517
468.29772869586463,892.0,66.05619948109711
469.1904428517891,1018.0,64.76425828551555
470.2088913958719,1081.0,60.53664898318997
471.29020713403395,1031.0,57.531321260757814
472.3212291169326,968.0,58.55145145155468
473.28938390575206,993.0,60.19031898172836
474.2826855722032,980.0,61.18508946327933
475.26341379983853,1005.0,60.410428099642964
476.26928890510555,955.0,61.205217240215916
477.2248702551092,955.0,61.7418697368421
478.1804516051128,1031.0,61.256919127086
479.21147358801153,980.0,60.72026663045982
480.1922018156468,955.0,60.72026663045982
481.1477831656505,829.0,65.42281799779167
481.97763012749573,867.0,68.08274776367796
482.8451974057885,943.0,68.36180706192357
483.7882053169763,930.0,65.75633941245593
484.7186397893483,855.0,66.09535006889242
485.57363362882523,829.0,68.9874191598015
486.4034805906705,817.0,71.96366489784724
487.2207541136999,829.0,72.67250536130535
488.0506010755452,829.0,72.67250536130535
488.88044803739047,867.0,71.25387615283266
489.74801531568323,1031.0,66.55132478550081
490.77903729858195,1068.0,61.164137263219175
491.8477795979281,1031.0,57.509437015781906
492.8788015808268,842.0,74.26227626190163
493.4320328887236,792.0,74.04467872428194
494.51334862688566,817.0,79.11800818019188
495.3306221499151,892.0,65.37049665650432
496.22333630583955,1005.0,66.7576809588299
497.2292114111065,968.0,81.08237589316384
497.74472240255585,955.0,102.86341266937669
498.197366199926,1056.0,103.90988503779774
499.15294754992965,1031.0,84.0500029239766
500.20911641046,968.0,59.263638425331614
501.2401383933587,829.0,58.991827420546926
502.2082931821781,842.0,64.15623651145602
503.03814014402343,880.0,68.49907779285391
503.8805605446845,955.0,70.56484142921754
504.76070126179314,930.0,67.39371304006283
505.71628261179677,917.0,65.14795547652915
506.64671708416876,943.0,64.21411712036476
507.56457811772486,980.0,64.49317641861037
508.50758602891267,955.0,63.390863182297146
509.488314256548,930.0,62.530748906882586
510.4438956065516,968.0,62.81735034832403
511.3743300789236,955.0,63.08219184016552
512.3424848677431,917.0,63.08219184016552
513.2980662177467,855.0,63.37664537589303
514.2159272513029,829.0,66.1107443063743
515.0709210907798,855.0,69.281872695529
515.900768052625,917.0,70.88404634581103
516.755761892102,930.0,69.281872695529
517.6736229256582,892.0,66.67640504606135
518.6040573980301,855.0,65.68802186461977
519.4967715539545,943.0,67.2901955149018
520.3517653934315,980.0,67.00359407346036
521.2947733046193,980.0,64.99303683257918
522.2755015322547,905.0,61.994096410256404
523.25622975989,892.0,62.877784188034184
524.1615173546303,930.0,64.88834142891537
525.0542315105547,968.0,65.9906546652286
525.9846659829267,968.0,64.55609658442052
526.9528207717461,867.0,62.81038083538083
527.9209755605657,867.0,64.36799736495388
528.7885428388585,905.0,66.76308563899867
529.6561101171512,968.0,68.19764371980676
530.5613977118916,1031.0,65.80255544576195
531.529552500711,980.0,62.147855198324706
532.5605744836097,980.0,60.44845562567513
533.541302711245,1031.0,60.183614133833636
534.5220309388803,1043.0,60.183614133833636
535.553052921779,1031.0,58.95513251505081
536.5966483434935,917.0,57.96036203349984
537.6276703263921,829.0,60.351899287091555
538.5455313599483,817.0,65.28816179165526
539.3753783217935,930.0,70.36149124756521
540.192651844823,1043.0,70.06703771183771
541.123086317195,1056.0,65.130775207274
542.1666817389095,993.0,59.59558802778682
543.2228505994398,980.0,58.23513814752681
544.216152265891,1005.0,59.463619766309634
545.1968804935262,1005.0,60.410428099642964
546.2027555987933,955.0,60.15874487179486
547.2086307040603,867.0,60.69539736842104
548.1642120540639,880.0,63.865147006102205
549.0317793323567,880.0,66.7055720061022
549.9119200494653,917.0,68.49952463768115
550.792060766574,880.0,67.23636164383561
551.70992180013,842.0,67.23636164383561
552.5900625172387,917.0,68.2538273154774
553.4324829178997,1043.0,68.2538273154774
554.3503439514559,980.0,64.69474056848944
555.3939393731704,855.0,61.34666976864253
556.3746676008058,817.0,62.948843418924554
557.2296614402827,842.0,68.25588401206636
558.0469349633121,905.0,71.60395481191327
558.8893553639732,490.0,70.30441396224008
559.7946429587136,565.0,64.7692267827529
560.8508118192439,943.0,69.949052020202
561.5423509541149,905.0,77.31311683501683
562.2213166501701,955.0,100.23584490519227
562.699107325172,1081.0,92.24460136452241
563.6546886751756,817.0,81.28413280293756
564.7360044133376,1119.0,63.89659191224931
565.5532779363671,1018.0,72.42340380308752
566.2322436324223,993.0,99.3744131054131
566.6723139909766,980.0,94.54056543209876
567.6907625350594,867.0,85.21896440068758
568.6840642015105,792.0,60.16495927248247
569.6647924291459,842.0,63.58017773732412
570.5323597074387,955.0,68.69374173169825
571.3244863528364,1005.0,72.04181253154516
572.1669067534975,930.0,69.91853526228506
573.1224881035012,943.0,64.55328804006282
574.1283632087682,993.0,62.30753047652915
575.0587976811402,502.0,62.586589774774765
576.001805592328,565.0,62.83827300262287
576.9951072587791,1005.0,60.056553129808876
578.0638495581253,855.0,58.731021463142206
579.0697246633923,779.0,61.988098529411744
579.9247185028693,779.0,68.93016190702086
580.7042717094512,829.0,74.7026385199241
581.4838249160331,905.0,75.41147898338221
582.3136718778783,943.0,71.84822181492342
583.2189594726186,930.0,67.40127686868686
584.1619673838064,1031.0,64.79580921921922
585.0924018561784,578.0,62.10163916501867
586.1234238390771,515.0,59.176327900650854
587.217313016055,1018.0,70.81951145920941
587.8208380792152,565.0,99.62263858411703
588.2357615601378,477.0,116.68695429292927
588.8015663068504,1056.0,125.40755736310471
589.2793569818523,1043.0,96.14257251461987
590.3355258423826,1043.0,79.95937465652082
591.3791212640971,955.0,57.26479317269076
592.4227166858116,980.0,59.258073874445145
593.3782980358153,1018.0,88.2949121365846
593.7932215167378,980.0,104.47810999468366
594.3590262634506,930.0,103.18616879910212
595.3774748075334,917.0,75.37781215574547
596.3582030351687,955.0,61.525409152742476
597.2886375075407,980.0,63.67746462373859
598.2064985410968,980.0,64.21411712036476
599.1620798911005,880.0,63.11180388405153
600.1428081187357,905.0,61.71503711201079
601.1235363463711,930.0,63.50898974358974
602.0036770634797,943.0,65.2083893162393
602.90896465822,880.0,66.31070255255256
603.839399130592,905.0,64.79580921921922
604.7824070417798,917.0,65.42701477477476
605.6625477588884,955.0,66.02410111111111
606.5678353536287,968.0,66.60515608828005
607.4856963871848,905.0,64.81120345670111
608.4412777371884,892.0,63.37664537589303
609.409432526008,968.0,63.67927817650186
610.3147201207482,1043.0,65.15318292075686
611.2074342766728,1005.0,65.15318292075686
612.1755890654922,955.0,62.225301729324464
613.2191844872067,968.0,59.704924616648405
614.2250595924737,1031.0,59.97673562143309
615.1806409424773,1005.0,61.47005873205741
616.1487957312968,892.0,60.98510812230131
617.1798177141955,867.0,59.938635753880256
618.1856928194625,905.0,61.684351502919945
619.0784069753869,930.0,65.3390517503572
619.9459742536798,917.0,67.54827119480166
620.85126184842,930.0,66.6400271902337
621.781696320792,1031.0,65.37686419638817
622.6995573543481,993.0,64.77977786005182
623.6299918267201,880.0,62.682694142187614
624.6610138096188,754.0,61.0277907262001
625.6543154760699,754.0,62.256082618091995
626.5344561931785,855.0,69.36869156118144
627.2888625221287,666.0,75.74466666666666
628.043268851079,528.0,76.4130019607843
628.898262690556,565.0,79.91440636330002
629.5646549477954,452.0,91.27610636330002
630.0927393780605,1043.0,103.23188218029348
630.6585441247732,1119.0,117.40423333333332
631.1111879221434,1119.0,98.69621325301205
632.1547833438578,653.0,81.22103922055263
633.2738193984674,1332.0,54.90898741031541
634.3928554530769,1018.0,66.33386646499567
635.0466742715005,540.0,75.88632248979226
635.775933722819,540.0,91.15227707780724
636.3794587859792,1043.0,80.20059094295443
637.397907330062,943.0,71.27158853718058
638.4792230682241,1043.0,57.29761012352596
639.5228184899386,1068.0,58.86861061735313
640.4658264011264,1043.0,59.53713317269076
641.5094218228409,943.0,59.08620815497282
642.5781641221871,817.0,57.042014741318205
643.6217595439016,829.0,59.08620815497282
644.5647674550894,905.0,64.84417376583255
645.3820409781188,1005.0,69.78043627039627
646.2118879399641,1005.0,70.66412404817405
647.1171755347044,930.0,66.07574520202019
648.1230506399713,980.0,61.858144444444434
649.1289257452383,1018.0,61.261058108108095
650.0593602176103,1005.0,61.77087797990297
651.0400884452456,955.0,61.525409152742476
652.0585369893284,930.0,59.913276044634365
653.0644120945955,1056.0,60.44992854126055
654.0199934445991,1068.0,62.30753047652915
654.9504279169711,1068.0,61.36072214319582
656.0065967775014,968.0,59.14466301006888
657.0753390768476,968.0,56.3629431372549
658.1440813761938,1081.0,58.084412834224594
659.1122361650133,1093.0,60.02866096256684
660.0803909538328,1068.0,59.81106342494714
661.1617066919948,1005.0,57.43662246360963
662.2555958689726,1005.0,55.492374335267385
663.3243381683188,993.0,73.14744727395659
663.8775694762156,943.0,99.04864076054663
664.3302132735859,880.0,100.2182275252525
665.3360883788528,804.0,84.20202211673697
666.329390045304,754.0,61.22613989451476
667.2723979564918,729.0,64.06656489451476
668.1525386736004,741.0,68.78562541666666
668.957238757814,779.0,74.08775208333333
669.7116450867642,766.0,78.78914518678161
670.4409045380828,1018.0,80.89539253847651
671.1827374282173,578.0,80.0402108180464
671.9622906347992,565.0,78.69145050148339
672.7292704025652,628.0,71.36899057262798
673.747718946648,502.0,63.193077421263204
674.8919018788893,1018.0,54.79080018993351
676.0235113723146,540.0,63.557544017094
676.7276239460015,477.0,109.70352555555554
677.0419599163974,1043.0,111.66727617283948
678.0604084604803,540.0,102.42733942585153
679.1040038821948,490.0,58.199843816095445
680.1350258650934,477.0,58.69699587110404
681.1283275315446,515.0,62.924417912209634
681.9833213710216,855.0,69.602426308851
682.7503011387877,766.0,73.20863375264467
683.5927215394487,842.0,68.98121171153909
684.6363169611633,1043.0,61.400969622328255
685.7176326993252,1081.0,56.37349218598058
686.7863749986715,1068.0,58.41768559963519
687.7293829098593,943.0,62.32524701463684
688.6220970657837,892.0,67.00359407346036
689.4770909052606,855.0,66.72453477521475
690.4326722552643,955.0,63.03457089783281
691.5014145546105,1068.0,60.03563047551004
692.4821427822458,980.0,82.09639932330519
692.9473600184318,465.0,102.17905986849888
693.4628710098812,515.0,102.17905986849888
694.4435992375164,980.0,78.82634982512216
695.4620477815993,1018.0,59.42832543487827
696.4930697644979,1031.0,58.199843816095445
697.5366651862124,1043.0,58.95513251505081
698.5173934138478,980.0,61.64930256925136
699.422681008588,905.0,62.877784188034184
700.4034092362234,980.0,62.122495489078815
701.4218577803061,1018.0,59.19461429764642
702.4654532020207,1043.0,58.68479442585154
703.4713283072876,1005.0,59.704924616648405
704.4394830961072,968.0,62.33017300747197
705.3573441296633,917.0,65.83893330158962
706.2123379691402,855.0,67.58464905062931
707.1050521250647,892.0,66.72453477521475
708.0606334750684,955.0,63.467457708945204
709.0539351415194,993.0,60.947080596269146
710.0598102467865,1005.0,61.5127413359562
710.9902447191585,930.0,65.11894877974989
711.8326651198196,842.0,69.33654953732565
712.6625120816649,829.0,71.23317672333518
713.5175059211418,855.0,67.88510592348825
714.4982341487771,980.0,65.57409180974813
715.4160951823333,917.0,65.57409180974813
716.2710890218102,855.0,68.2340215756344
717.138656300103,867.0,67.37390730021986
718.0942376501066,955.0,64.11683023395031
719.0875393165578,993.0,62.55921370437726
720.0179737889297,930.0,64.03311844863225
720.9106879448542,892.0,66.30181233346022
721.8034021007786,892.0,67.5301042253521
722.6835428178873,880.0,68.86761778431784
723.5259632185483,842.0,90.64865456053067
723.9786070159186,1571.0,96.32950456053067
724.6827195896054,930.0,120.78979040404039
725.0976430705281,1056.0,98.1005096232596
726.0280775429001,666.0,88.63242628992627
727.0842464034304,1244.0,70.44331251062383
727.7506386606698,1005.0,65.01525490756622
728.9954091034376,1031.0,65.96206324089954
730.0012842087046,905.0,55.348049895294395
731.0323061916033,829.0,61.37319383468834
731.9375937863437,892.0,65.5907945922641
732.7674407481888,943.0,68.59612231469626
733.6601549041134,980.0,67.71243453691847
734.6031628153012,943.0,64.00465365113759
735.5838910429364,968.0,62.8098082051282
736.5268989541242,993.0,62.2589379020979
737.4950537429437,1081.0,62.00080125815113
738.4883554093949,1005.0,59.28808528915888
739.569671147557,993.0,58.51342392552251
740.5755462528239,993.0,58.51342392552251
741.5688479192751,993.0,60.152291455696194
742.5621495857262,1018.0,60.4039746835443
743.5554512521774,968.0,59.9068226285357
744.5738997962602,1005.0,60.429800764323964
745.5420545850797,980.0,60.17811753647586
746.5479296903467,980.0,60.93340623543123
747.528657917982,917.0,60.668564743589734
748.5093861456173,792.0,62.57515138742535
749.4272471791735,829.0,67.4305787378527
750.2193738245712,955.0,71.13835962363359
751.0492207864165,628.0,70.27824534821903
752.0048021364202,502.0,62.70377868155236
753.1364116298455,1018.0,58.240709096816104
754.1548601739283,968.0,57.96889809203142
755.1230149627478,980.0,60.687937408270734
756.1037431903832,993.0,61.18508946327933
757.0970448568343,477.0,60.16495927248247
758.1154934009171,540.0,60.429800764323964
759.0836481897366,968.0,63.01854253647586
759.9637889068453,880.0,64.3104837320574
760.9193702568489,955.0,62.36623560371517
761.988112556195,1068.0,59.28034177655467
763.0065611002778,1018.0,59.008530771769976
763.9747158890973,968.0,93.31640920314253
764.3519190535725,842.0,116.66911924651923
764.8171362897584,867.0,119.06420752056403
765.6847035680512,968.0,86.70057721753372
766.6528583568708,993.0,63.84501922916562
767.6461600233218,1005.0,60.67526959148446
768.6520351285889,930.0,61.5127413359562
769.5824696009608,930.0,62.873191216216206
770.5129040733328,980.0,63.38301108801108
771.4936323009681,980.0,62.280697851697845
772.4743605286035,842.0,64.52645541523152
773.3167809292645,804.0,68.98737929343666
774.1214810134782,804.0,73.44830317164178
774.9261810976917,955.0,70.63688486842105
775.8817624476953,1119.0,63.65550319707273
777.0007985023049,1018.0,58.439290619912235
778.0192470463877,930.0,59.00495135959929
778.9496815187597,943.0,62.34112094761427
779.8926894299475,1018.0,62.34112094761427
780.9111379740303,943.0,62.05451950617283
781.8541458852181,930.0,62.34112094761427
782.7845803575901,1005.0,62.586589774774765
783.7904554628572,1081.0,59.873873805782516
784.8717712010191,1068.0,57.09215393296853
785.9405135003653,917.0,58.99874057680414
786.8583745339214,892.0,62.90630199180578
787.7510886898459,955.0,65.12236112493272
788.7066700398495,1018.0,62.970305653936606
789.7251185839324,1018.0,60.204459714100054
790.7435671280152,993.0,59.4096705735271
791.7368687944663,880.0,62.4955644006876
792.617009511575,917.0,64.6476198716837
793.5348705451311,1005.0,64.3959366438356
794.5407456503981,1433.0,61.31004281667511
795.5591941944809,540.0,87.721632687991
795.9741176754036,829.0,104.83023908333983
796.5147755444846,842.0,109.2933086680761
797.3446225063299,917.0,84.83302282456637
798.187042906991,779.0,69.63100307305315
799.104903940547,553.0,71.18587892838062
799.884457147129,616.0,83.59587689310246
800.4376884550259,817.0,94.26831524926683
801.0537869570019,804.0,93.08421748251746
801.8710604800314,817.0,81.78707259615385
802.6757605642449,766.0,73.79642644230769
803.4930340872744,754.0,75.4011053830391
804.2600138550404,804.0,77.05801996637243
805.0144201839906,741.0,77.44038487021857
805.8191202682043,792.0,78.32431818502823
806.5609531583386,616.0,77.06190707391713
807.3530798037365,980.0,84.67018832391713
807.9691783057125,603.0,78.10301709401708
808.9499065333478,804.0,85.99308653846153
809.553431596508,641.0,103.23852403846152
809.9557816386148,515.0,132.55316666666664
810.3581316807216,540.0,130.60385539215685
810.9993770603293,993.0,119.69246667264464
811.5148880517786,842.0,106.97661056799349
812.0555459208596,779.0,114.58367895632442
812.5710569123089,691.0,117.64652491267873
813.0488475873108,704.0,141.83332813271448
813.3757569965226,716.0,141.83332813271448
813.8912679879719,704.0,125.62988500877562
814.6708211945538,704.0,93.37219130248192
815.3623603294249,754.0,82.98039252199412
816.0664729031117,741.0,85.2308707336523
816.7831589156145,817.0,84.71442982456138
817.4872714893014,842.0,84.71442982456138
818.1913840629883,766.0,83.31913333333333
818.9457903919385,829.0,81.87484943502824
819.687623282073,855.0,77.9419532811821
820.5048968051024,829.0,75.17218561949055
821.3473172057635,829.0,74.28825230468087
822.1142969735296,804.0,73.91747421610279
822.9441439353749,804.0,73.56834383857864
823.7991377748518,766.0,71.59288680926915
824.628984736697,766.0,71.59288680926915
825.4588316985423,842.0,73.05487026515151
826.2635317827559,867.0,73.80801325757575
827.0682318669695,829.0,75.78347028688523
827.8352116347356,829.0,77.00578432377048
828.6021914025017,792.0,75.89293124541227
829.4446118031627,804.0,72.86962309620819
830.3121790814556,829.0,70.89416606689869
831.1420260433008,766.0,71.25387615283266
831.9718730051461,766.0,73.44937373737372
832.7639996505438,741.0,74.20251672979796
833.5686997347575,741.0,74.20251672979796
834.3985466966027,792.0,75.03032729446099
835.1655264643688,842.0,76.25264133134624
835.9325062321349,867.0,79.1120316754654
836.6743391222693,943.0,79.99596499027507
837.4161720124036,855.0,79.16815442561204
838.2082986578015,867.0,75.94905399555891
839.0507190584625,905.0,72.04181253154516
839.9182863367554,704.0,68.00209697598962
840.8612942479432,842.0,67.65296659846545
841.7162880874201,1508.0,67.65296659846545
842.5838553657129,729.0,68.53665437624323
843.4891429604531,729.0,73.54916908212559
844.19325553414,691.0,74.23731011608622
845.0356759348011,641.0,76.61646951779562
845.8529494578306,955.0,77.13291042688653
846.5444885927017,490.0,80.81683785869302
847.2737480440202,565.0,83.77027711598745
848.0030074953388,666.0,83.77027711598745
848.6945466302099,678.0,87.53446440469602
849.3357920098176,716.0,111.42057452705421
849.7255686131085,779.0,117.84739472907441
850.2913733598213,829.0,127.4440040805073
850.7817374736388,779.0,111.48061196581195
851.3475422203516,754.0,106.14513859054989
852.013934477591,766.0,94.81580810621941
852.6929001736462,792.0,87.3742268196697
853.4095861861489,817.0,83.01764069672387
854.1891393927308,855.0,77.66195719504037
855.0189863545761,855.0,75.4114789833822
855.798539561158,804.0,76.2666607038123
856.5529458901083,829.0,78.2421177331218
857.3199256578744,817.0,77.83488834244079
858.1120523032721,804.0,75.7956088552613
858.9293258263015,804.0,73.11131136249371
859.7843196657784,792.0,71.25482443438912
860.6393135052554,804.0,71.63718933823529
861.444013589469,741.0,72.34602980169339
862.2738605513142,804.0,73.4256483537296
863.0911340743437,829.0,73.4256483537296
863.8958341585572,892.0,74.17879134615384
864.7005342427709,917.0,74.95565972222221
865.4926608881686,880.0,74.95565972222221
866.2973609723822,817.0,77.06190707391713
867.0391938625166,792.0,76.6674036016949
867.8438939467302,792.0,75.91426060927066
868.6737409085755,804.0,71.35764662025181
869.5664550645,842.0,68.29348951408741
870.4843160980561,867.0,66.91631375651167
871.3644568151648,855.0,68.98431548998946
872.1817303381941,930.0,72.44297606837605
872.9738569835919,943.0,74.96779829059828
873.7659836289897,943.0,75.35016319444443
874.5706837132033,930.0,73.84280664386401
875.4131041138644,905.0,71.64730905932294
876.2806713921572,817.0,70.18532560344059
877.1356652316341,842.0,67.9395680399069
878.0660997040061,905.0,66.09535006889242
879.0091076151939,905.0,63.912121441441435
879.9521155263817,867.0,63.912121441441435
880.8825499987537,855.0,64.79580921921922
881.7878375934939,792.0,68.0586563987064
882.6051111165234,792.0,70.30441396224008
883.4475315171845,880.0,70.30441396224008
884.3528191119248,943.0,67.92525456053068
885.2581067066651,955.0,67.23711352657004
886.1256739849579,917.0,68.53665437624323
886.9806678244348,917.0,71.69268215402101
887.7727944698325,917.0,73.88817973856209
888.5649211152303,930.0,73.21984444444443
889.445061832339,930.0,69.18012888888887
890.3880697435268,880.0,64.86135403508771
891.3436510935304,817.0,63.92751567892333
892.2615121270865,842.0,64.50857065609227
893.1793731606426,892.0,65.36868493150683
894.0972341941988,943.0,65.07423139577932
895.0276686665708,955.0,64.77977786005182
895.9581031389428,917.0,65.71361621621621
896.8382438560513,867.0,68.68986195426194
897.6555173790807,905.0,70.93561951779563
898.4979377797418,892.0,70.61557163047169
899.3906519356664,880.0,67.35272445098451
900.3336598468542,855.0,64.54130614776378
901.2892411968578,829.0,63.92751567892333
902.207102230414,880.0,65.77173364993781
903.0746695087067,930.0,66.93448072596121
903.979957103447,955.0,67.54827119480166
904.8726712593715,955.0,67.21894655712049
905.7528119764801,892.0,68.5184874067937
906.607805815957,842.0,70.21571105169339
907.4376527778023,842.0,70.21571105169339
908.3177934949109,880.0,68.31908386568387
909.2482279672829,917.0,65.14795547652915
910.2038093172865,905.0,63.35400284495021
911.1593906672902,867.0,64.26224684951816
912.0521048232146,892.0,67.0736651527389
912.8945252238757,930.0,69.88508345595963
913.7369456245368,930.0,70.20513134328357
914.6170863416454,880.0,68.2538273154774
915.5349473752016,829.0,66.60515608828005
916.4402349699419,842.0,66.93448072596121
917.3078022482347,880.0,67.54827119480166
918.2005164041591,867.0,66.95118485846533
919.1309508765311,867.0,65.39356832889226
920.0613853489031,842.0,65.71361621621621
920.9415260660116,930.0,68.31908386568387
921.771373027857,955.0,70.56484142921754
922.6137934285181,968.0,70.56484142921754
923.4939341456267,943.0,69.51699030932294
924.3615014239194,855.0,68.8288492753623
925.2290687022122,880.0,69.8463149470041
926.0714891028733,930.0,68.28869841743105
927.0019235752453,930.0,66.16542114817095
927.9575049252489,905.0,63.08219184016552
928.9256597140684,817.0,62.79559039872408
929.8686676252562,842.0,65.25787832442067
930.7236614647331,855.0,67.3236419607843
931.6038021818418,892.0,67.61024340222573
932.5342366542137,917.0,65.71361621621621
933.4646711265857,892.0,65.08241066066066
934.369958721326,943.0,68.0586563987064
935.1872322443554,943.0,70.30441396224008
936.0296526450165,930.0,71.60395481191327
936.8846464844935,892.0,69.53595307843548
937.777360640418,842.0,67.58464905062931
938.6952216739741,892.0,66.59626586918772
939.5879358298986,943.0,65.40142042317834
940.5309437410864,905.0,64.82036544600939
941.4739516522742,867.0,63.912121441441435
942.4043861246462,792.0,65.10696688745082
943.2971002805706,855.0,67.63932589242594
944.1395206812317,917.0,68.5475698969939
945.0322348371561,930.0,67.35272445098451
945.9752427483439,943.0,65.70405322378716
946.8805303430843,905.0,66.35342574879226
947.748097621377,829.0,70.39314130434781
948.5402242667748,855.0,71.69268215402101
949.3952181062517,892.0,70.42951916017547
950.3130791398079,880.0,66.67640504606135
951.2435136121799,892.0,64.49317641861037
952.1865215233677,855.0,64.79580921921922
953.0918091181079,804.0,67.40127686868686
953.9216560799532,829.0,69.58450549613784
954.7766499194302,880.0,69.89566316436944
955.6693640753546,917.0,68.5184874067937
956.5495047924633,905.0,67.5301042253521
957.4422189483877,842.0,68.5184874067937
958.2972127878646,792.0,70.6488061567937
959.1019128720782,829.0,72.34602980169339
959.9317598339235,855.0,71.67769450757575
960.8119005510321,892.0,68.61353740141136
961.7297615845882,855.0,66.60515608828005
962.6350491793286,817.0,67.62262175992184
963.4774695799897,829.0,71.08128233830845
964.2695962253874,817.0,73.08966365143976
965.0994431872326,829.0,72.74053327391562
965.9544370267096,855.0,69.89566316436944
966.8471511826341,804.0,69.18682270091134
967.702145022111,779.0,70.26644125294754
968.5194185451404,817.0,71.96366489784724
969.3492655069857,829.0,73.04328344988345
970.1665390300152,855.0,72.67250536130535
970.9963859918604,842.0,71.96366489784724
971.8513798313373,829.0,72.34602980169339
972.656079915551,779.0,73.90090565702086
973.4356331221329,779.0,74.98052420905707
974.2529066451623,792.0,74.22738121663282
975.0827536070076,829.0,71.96366489784724
975.9377474464845,842.0,71.23317672333518
976.7801678471457,855.0,71.23317672333519
977.6100148089909,804.0,73.49689304212076
978.3895680155729,754.0,75.4114789833822
979.1691212221548,766.0,76.55912544802867
979.9612478675525,766.0,75.0042495927012
980.7910948293978,817.0,73.08966365143976
981.6335152300588,817.0,71.23317672333518
982.4885090695358,855.0,71.98631971575944
983.2932091537494,804.0,74.75608737745097
984.0476154826997,817.0,77.44038487021857
984.8145952504658,880.0,78.66269890710382
985.5815750182318,892.0,76.62341941992433
986.3988485412613,905.0,75.01874047919293
987.2161220642907,892.0,72.33444298642533
988.0711159037677,829.0,72.71680789027148
988.8758159879812,792.0,72.71680789027148
989.6930895110106,766.0,72.04847259615384
990.5732302281193,817.0,69.5981059588299
991.4659443840437,855.0,67.21894655712049
992.3712319787841,892.0,66.89889866979655
993.2639461347085,867.0,68.59612231469626
994.0937930965538,829.0,71.75215009247403
994.8859197419515,766.0,75.42483076668321
995.6528995097176,804.0,75.7956088552613
996.4701730327471,855.0,73.93912192715673
997.325166872224,880.0,70.26644125294754
998.2178810281484,880.0,68.84781204447485
999.0854483064412,842.0,69.55665250793297
999.9152952682865,779.0,73.22933318214214
1000.6822750360526,817.0,75.03032729446099
1001.4869751202662,855.0,74.32148683100289
1002.3419689597431,892.0,70.96885404411763
1003.2221096768517,917.0,68.83853529411763
1004.1022503939604,855.0,69.18766567164178
1004.9446707946214,792.0,72.119717284545
1005.7242240012034,842.0,73.86767113069885
1006.5414975242328,855.0,73.5185407531747
1007.3964913637097,892.0,70.26644125294754
1008.2892055196342,892.0,67.58464905062931
1009.2070665531903,905.0,67.58464905062931
1010.0620603926673,880.0,70.42951916017546
1010.854187038065,792.0,72.38082318798165
1011.6966074387261,804.0,72.38082318798165
1012.5516012782031,867.0,69.53595307843548
1013.4443154341276,880.0,68.19843951946976
1014.337029590052,917.0,66.89889866979655
1015.2423171847923,892.0,67.21894655712049
1016.1224579019009,855.0,70.06381666666667
1016.9145845472987,779.0,72.82534097222222
1017.7192846315122,754.0,73.15466560990338
1018.5868519098051,766.0,70.62984338768115
1019.4669926269137,842.0,67.56568628151676
1020.3848536604698,880.0,66.91631375651167
1021.2775678163943,855.0,67.58464905062931
1022.1325616558712,804.0,71.45053901969692
1022.9121148624531,829.0,75.5578202403542
1023.6665211914034,867.0,78.2421177331218
1024.4335009591694,855.0,76.32753179186037
1025.2759213598306,867.0,72.54029845852703
1026.1560620769392,804.0,69.85600096575942
1027.0110559164161,766.0,70.96885404411763
1027.8157560006298,741.0,72.34602980169339
1028.645602962475,704.0,72.0070191452569
1029.5131702407677,716.0,70.54503568937454
1030.3681640802447,678.0,69.49718456947996
1031.2357313585376,691.0,71.29817868179879
1032.040431442751,691.0,73.98247617456639
1032.807411210517,704.0,77.88971763858015
1033.5492441006515,804.0,81.44024888858014
1034.2533566743384,855.0,83.2701459262563
1034.9700426868412,842.0,85.76643908382064
1035.6490083828965,804.0,86.28287999291155
1036.3405475177674,792.0,87.29764107744106
1037.0320866526386,817.0,86.24563181818179
1037.7361992263254,817.0,82.1786596590909
1038.540899310539,804.0,76.64970404411763
1039.395893150016,779.0,71.98631971575942
1040.238313550677,741.0,71.98631971575944
1041.0430136348907,729.0,73.84280664386401
1041.8351402802884,754.0,74.57329481837607
1042.6524138033178,792.0,74.1909299145299
1043.4696873263472,829.0,73.79642644230769
1044.2743874105608,880.0,74.98052420905707
1045.0539406171429,842.0,77.46913646459814
1045.7957735072773,779.0,80.0402108180464
1046.5250329585958,817.0,80.89539253847651
1047.279439287546,829.0,79.18364865900382
1048.0715659329437,867.0,75.8594313131313
1048.901412894789,892.0,72.07219797979798
1049.7815536118976,892.0,70.56484142921754
1050.6239740125588,792.0,72.119717284545
1051.4035272191406,754.0,73.86767113069885
1052.2208007421702,792.0,74.22738121663282
1053.0506477040153,817.0,71.62465424141075
1053.9182149823082,892.0,69.55665250793297
1054.8109291382327,1144.0,67.85942886303326
1055.703643294157,540.0,70.05492644757433
1056.495769939555,754.0,74.1622076682316
1057.2501762685051,741.0,77.00707777777777
1058.0423029139029,779.0,76.2302094017094
1058.8595764369322,741.0,72.12292818105212
1059.7522905928568,678.0,69.27805807150595
1060.6450047487813,704.0,70.05492644757433
1061.437131394179,779.0,74.1622076682316
1062.1915377231292,829.0,78.71882165725046
1062.9333706132636,892.0,79.12605104793147
1063.7129238198456,829.0,79.57538381629305
1064.4547567099798,754.0,82.0716769738574
1065.133722406035,766.0,84.82047536095416
1065.8378349797222,779.0,83.51596087216248
1066.617388186304,792.0,78.16027737047898
1067.4472351481493,817.0,72.15937948315502
1068.3399493040738,817.0,70.60450362782757
1069.1697962659189,779.0,73.01456120358515
1069.9242025948693,842.0,76.68724187779432
1070.6911823626353,855.0,78.2421177331218
1071.4707355692171,880.0,76.9797066220107
1072.262862214615,905.0,75.37502768127929
1073.0801357376445,855.0,74.1909299145299
1073.8974092606738,779.0,74.59815930521091
1074.6769624672559,817.0,73.86767113069885
1075.5193828679169,867.0,72.78805257866266
1076.3743767073938,930.0,69.85600096575942
1077.2545174245024,930.0,68.20732973856208
1078.1598050192426,855.0,68.20732973856208
1079.0147988587196,792.0,71.1393813514653
1079.7943520653016,779.0,73.5185407531747
1080.611625588331,855.0,73.17953009673822
1081.4791928666239,943.0,69.01918659194311
1082.4096273389957,943.0,66.04294085389736
1083.3400618113678,892.0,66.38195151033385
1084.1950556508448,842.0,70.13506562444798
1084.9871822962425,867.0,74.29540912924308
1085.7667355028243,829.0,74.29540912924308
1086.6217293423013,792.0,70.25569357368752
1087.564737253489,779.0,65.80874862745097
1088.5077451646769,754.0,64.82036544600939
1089.4004593206014,804.0,67.35272445098451
1090.2428797212624,880.0,69.196942421999
1091.1104469995553,955.0,70.89416606689869
1091.9402939614006,955.0,72.40152261747912
1092.7324206067983,867.0,75.0042495927012
1093.51197381338,792.0,77.41430716845878
1094.2663801423305,804.0,77.01980369623655
1095.0710802265442,829.0,74.08775208333333
1095.9512209436527,880.0,68.50656611842105
1096.9068022936563,930.0,104.83123198380565
1097.233711702868,905.0,113.92059198380565
1097.86238364366,855.0,116.04386925306575
1098.7299509219526,880.0,80.11370685990337
1099.5220775673506,905.0,73.15466560990338
1100.326777651564,917.0,74.20251672979796
1101.1566246134093,905.0,71.67769450757575
1102.036765330518,867.0,68.31908386568387
1102.96719980289,817.0,66.31070255255256
1103.8724873976303,867.0,66.9790378466702
1104.7274812371072,943.0,68.20732973856208
1105.6076219542158,930.0,68.20732973856208
1106.512909548956,880.0,66.60515608828005
1107.4307705825122,829.0,65.9739505327245
1108.3360581772524,829.0,66.93448072596121
1109.2036254555453,792.0,69.61627292827944
1110.0208989785747,779.0,70.57680312151615
1110.8884662568676,804.0,68.73258515050166
1111.8314741680554,792.0,65.75633941245593
1112.7619086404272,842.0,65.42701477477476
1113.6420493575358,943.0,68.31908386568387
1114.4718963193811,477.0,70.9245515151515
1115.3017432812264,477.0,73.44937373737372
1116.0938699266242,905.0,75.0042495927012
1116.8734231332062,817.0,75.75739258512544
1117.6781232174196,842.0,75.75739258512544
1118.4702498628176,829.0,73.84280664386401
1119.3126702634786,842.0,70.19759456053067
1120.2556781746664,829.0,86.80826707515055
1120.7334688496683,804.0,104.92629614035087
1121.2112595246701,867.0,105.80998391812865
1122.1165471194104,905.0,88.4224430274404
1122.9338206424397,917.0,70.30441396224008
1123.776241043101,880.0,72.31279527537139
1124.606088004946,817.0,71.58230710085932
1125.4485084056073,842.0,71.9420171867933
1126.2783553674526,867.0,72.69516017921754
1127.083055451666,892.0,72.0070191452569
1127.950622729959,855.0,69.9986378321256
1128.8559103246992,804.0,66.93448072596121
1129.7737713582553,817.0,66.60515608828005
1130.653912075364,817.0,68.98431548998946
1131.4711855983933,867.0,70.93561951779563
1132.3136059990545,829.0,71.26494415547678
1133.1811732773472,817.0,69.196942421999
1134.0738874332717,880.0,68.84781204447485
1134.9288812727486,930.0,70.6488061567937
1135.7335813569623,955.0,72.71680789027148
1136.5508548799917,829.0,73.79642644230769
1137.368128403021,779.0,71.99543232998884
1138.235695681314,792.0,71.62465424141075
1139.0655426431592,842.0,71.62465424141075
1139.8828161661886,867.0,71.2953296037296
1140.7629568832972,804.0,68.68986195426194
1141.6933913556693,754.0,65.14795547652915
1142.6489727056728,817.0,66.52513123410492
1143.478819667518,867.0,70.68547473890003
1144.2583728741001,880.0,75.0042495927012
1145.0504995194979,855.0,74.64453950676723
1145.8929199201589,779.0,72.04181253154516
1146.7604871984518,804.0,71.64730905932294
1147.5651872826652,804.0,74.41707672101448
1148.3195936116156,817.0,75.83570592948718
1149.136867134645,829.0,74.03471181716833
1150.0044344129378,779.0,70.247478483835
1150.8845751300464,766.0,69.16785993179879
1151.7395689695234,817.0,71.77058690702086
1152.5191221761052,880.0,73.90090565702087
1153.3238222603188,892.0,75.36288911290322
1154.1285223445325,892.0,74.17879134615384
1154.9457958675619,817.0,73.4256483537296
1155.7756428294072,754.0,74.22738121663282
1156.555196035989,766.0,75.83206015736423
1157.322175803755,779.0,76.20283824594232
1158.1394493267846,817.0,73.27078663303908
1159.0195900438932,842.0,69.5981059588299
1159.9123041998175,804.0,67.5301042253521
1160.805018355742,804.0,69.27805807150595
1161.6222918787714,817.0,73.38533929216322
1162.3766982077218,892.0,77.05801996637243
1163.143677975488,842.0,78.2421177331218
1163.9232311820697,817.0,76.20283824594232
1164.7405047050993,766.0,73.86767113069885
1165.5829251057603,754.0,73.06593826779563
1166.387625189974,754.0,73.44830317164178
1167.1923252741874,779.0,74.17879134615384
1168.009598797217,792.0,71.72842470882989
1168.9023129531413,792.0,70.61557163047169
1169.7447333538025,766.0,70.61557163047169
1170.562006876832,804.0,74.28825230468087
1171.328986644598,880.0,77.05801996637243
1172.0833929735481,880.0,79.0972994535519
1172.8377993024985,880.0,78.67671827956988
1173.6173525090803,804.0,77.41430716845878
1174.4094791544783,804.0,76.15189605734767
1175.201605799876,817.0,76.57247723132969
1175.968585567642,817.0,76.17797375910746
1176.7732856518555,817.0,73.65315153688525
1177.6534263689641,754.0,70.30051875
1178.533567086073,741.0,68.1702
1179.4137078031815,779.0,70.30051875
1180.218407887395,829.0,72.4308375
1181.0231079716086,880.0,74.17879134615384
1181.840381494638,917.0,73.79642644230769
1182.6576550176676,829.0,73.41406153846154
1183.474928540697,754.0,75.45334102564102
1184.2293348696471,729.0,77.9419532811821
1184.9711677597816,741.0,79.12605104793147
1185.7507209663636,779.0,76.71599347217389
1186.580567928209,842.0,72.47942737047897
1187.4607086453175,892.0,68.61353740141136
1188.3785696788736,779.0,68.61353740141136
1189.2084166407187,N/A,72.4007707347447
1189.962822969669,N/A,78.03600219435737
1190.6920824209876,N/A,80.89539253847651
1191.433915311122,N/A,80.0402108180464
1192.2134685177039,N/A,76.35628338623992
1193.055888918365,N/A,71.79966939722107
1193.9486030742896,N/A,71.79966939722107
1194.7281562808714,N/A,73.7142553384825
