2022-12-14 15:34:49.898658, 1.67644
2022-12-14 15:34:49.899656, 1.65689
2022-12-14 15:34:49.900654, 1.65200
2022-12-14 15:34:49.932598, 1.64711
2022-12-14 15:34:49.932598, 1.64222
2022-12-14 15:34:49.933565, 1.66177
2022-12-14 15:34:49.966477, 1.63734
2022-12-14 15:34:49.966477, 1.63245
2022-12-14 15:34:49.999428, 1.64711
2022-12-14 15:34:50.000385, 1.64222
2022-12-14 15:34:50.000385, 1.63245
2022-12-14 15:34:50.033297, 1.62267
2022-12-14 15:34:50.033297, 1.64222
2022-12-14 15:34:50.034309, 1.63245
2022-12-14 15:34:50.066242, 1.62267
2022-12-14 15:34:50.067209, 1.64222
2022-12-14 15:34:50.100229, 1.62267
2022-12-14 15:34:50.100229, 1.63245
2022-12-14 15:34:50.101228, 1.64222
2022-12-14 15:34:50.134141, 1.61779
2022-12-14 15:34:50.134141, 1.61779
2022-12-14 15:34:50.135139, 1.62267
2022-12-14 15:34:50.167637, 1.61779
2022-12-14 15:34:50.167637, 1.60801
2022-12-14 15:34:50.201606, 1.60801
2022-12-14 15:34:50.201842, 1.62267
2022-12-14 15:34:50.202439, 1.61779
2022-12-14 15:34:50.235179, 1.61779
2022-12-14 15:34:50.235466, 1.64711
2022-12-14 15:34:50.235466, 1.69110
2022-12-14 15:34:50.268744, 1.74975
2022-12-14 15:34:50.269080, 1.74486
2022-12-14 15:34:50.302390, 1.77419
2022-12-14 15:34:50.302624, 1.79863
2022-12-14 15:34:50.302624, 1.80351
2022-12-14 15:34:50.335983, 1.79863
2022-12-14 15:34:50.336270, 1.79374
2022-12-14 15:34:50.336782, 1.79374
2022-12-14 15:34:50.369517, 1.78885
2022-12-14 15:34:50.369854, 1.75953
2022-12-14 15:34:50.403075, 1.75464
2022-12-14 15:34:50.403356, 1.75953
2022-12-14 15:34:50.403356, 1.75464
2022-12-14 15:34:50.436737, 1.74486
2022-12-14 15:34:50.436737, 1.73998
2022-12-14 15:34:50.437738, 1.74486
2022-12-14 15:34:50.469005, 1.74486
2022-12-14 15:34:50.470039, 1.72531
2022-12-14 15:34:50.501951, 1.72531
2022-12-14 15:34:50.502948, 1.72531
2022-12-14 15:34:50.502948, 1.73020
2022-12-14 15:34:50.535862, 1.72043
2022-12-14 15:34:50.536858, 1.72043
2022-12-14 15:34:50.536858, 1.72531
2022-12-14 15:34:50.569931, 1.73998
2022-12-14 15:34:50.569931, 1.72043
2022-12-14 15:34:50.603125, 1.72043
2022-12-14 15:34:50.603125, 1.72043
2022-12-14 15:34:50.604122, 1.72531
2022-12-14 15:34:50.636813, 1.73020
2022-12-14 15:34:50.637776, 1.70576
2022-12-14 15:34:50.637776, 1.72043
2022-12-14 15:34:50.671058, 1.71065
2022-12-14 15:34:50.672066, 1.69599
2022-12-14 15:34:50.703831, 1.69110
2022-12-14 15:34:50.703831, 1.69110
2022-12-14 15:34:50.704595, 1.70576
2022-12-14 15:34:50.738117, 1.68132
2022-12-14 15:34:50.738404, 1.67155
2022-12-14 15:34:50.738404, 1.67155
2022-12-14 15:34:50.771559, 1.67155
2022-12-14 15:34:50.771900, 1.66177
2022-12-14 15:34:50.805274, 1.65689
2022-12-14 15:34:50.805518, 1.65200
2022-12-14 15:34:50.806519, 1.66177
2022-12-14 15:34:50.838846, 1.65200
2022-12-14 15:34:50.838846, 1.64222
2022-12-14 15:34:50.839880, 1.64222
2022-12-14 15:34:50.872547, 1.64711
2022-12-14 15:34:50.872547, 1.64222
2022-12-14 15:34:50.905858, 1.63734
2022-12-14 15:34:50.905858, 1.63245
2022-12-14 15:34:50.906895, 1.63245
2022-12-14 15:34:50.939372, 1.64711
2022-12-14 15:34:50.939372, 1.61779
2022-12-14 15:34:50.940366, 1.62267
2022-12-14 15:34:50.972883, 1.62756
2022-12-14 15:34:50.973885, 1.62267
2022-12-14 15:34:51.005872, 1.61779
2022-12-14 15:34:51.006885, 1.61779
2022-12-14 15:34:51.006885, 1.62756
2022-12-14 15:34:51.038787, 1.61779
2022-12-14 15:34:51.039785, 1.63245
2022-12-14 15:34:51.039785, 1.60801
2022-12-14 15:34:51.072876, 1.61779
2022-12-14 15:34:51.073879, 1.61290
2022-12-14 15:34:51.106292, 1.63245
2022-12-14 15:34:51.106292, 1.60312
2022-12-14 15:34:51.107328, 1.62756
2022-12-14 15:34:51.139625, 1.61290
2022-12-14 15:34:51.140626, 1.61290
2022-12-14 15:34:51.140626, 1.63734
2022-12-14 15:34:51.173082, 1.67644
2022-12-14 15:34:51.174084, 1.72043
2022-12-14 15:34:51.206460, 1.74486
2022-12-14 15:34:51.207462, 1.81329
2022-12-14 15:34:51.207462, 1.82306
2022-12-14 15:34:51.239799, 1.85728
2022-12-14 15:34:51.240801, 1.84261
2022-12-14 15:34:51.240801, 1.81329
2022-12-14 15:34:51.273659, 1.80840
2022-12-14 15:34:51.274662, 1.80351
2022-12-14 15:34:51.307154, 1.77908
2022-12-14 15:34:51.307154, 1.76930
2022-12-14 15:34:51.308151, 1.76930
2022-12-14 15:34:51.341046, 1.76930
2022-12-14 15:34:51.341046, 1.74975
2022-12-14 15:34:51.341777, 1.74486
2022-12-14 15:34:51.373957, 1.74975
2022-12-14 15:34:51.374949, 1.74975
2022-12-14 15:34:51.407372, 1.73509
2022-12-14 15:34:51.408357, 1.73020
2022-12-14 15:34:51.408357, 1.72531
2022-12-14 15:34:51.441800, 1.73020
2022-12-14 15:34:51.442019, 1.74486
2022-12-14 15:34:51.442451, 1.71554
2022-12-14 15:34:51.475270, 1.71554
2022-12-14 15:34:51.476113, 1.72531
2022-12-14 15:34:51.508632, 1.72531
2022-12-14 15:34:51.508927, 1.74486
2022-12-14 15:34:51.508927, 1.73998
2022-12-14 15:34:51.542372, 1.71554
2022-12-14 15:34:51.542372, 1.71065
2022-12-14 15:34:51.543373, 1.69599
2022-12-14 15:34:51.576148, 1.69599
2022-12-14 15:34:51.576488, 1.70087
2022-12-14 15:34:51.608616, 1.69599
2022-12-14 15:34:51.609614, 1.67644
2022-12-14 15:34:51.609614, 1.67644
2022-12-14 15:34:51.643415, 1.67644
2022-12-14 15:34:51.643703, 1.67155
2022-12-14 15:34:51.643703, 1.69110
2022-12-14 15:34:51.676906, 1.66177
2022-12-14 15:34:51.677243, 1.66666
2022-12-14 15:34:51.710225, 1.65200
2022-12-14 15:34:51.710460, 1.67155
2022-12-14 15:34:51.710460, 1.64222
2022-12-14 15:34:51.743986, 1.64222
2022-12-14 15:34:51.744273, 1.64222
2022-12-14 15:34:51.744273, 1.62267
2022-12-14 15:34:51.777329, 1.62756
2022-12-14 15:34:51.777667, 1.63734
2022-12-14 15:34:51.811023, 1.63245
2022-12-14 15:34:51.811261, 1.64711
2022-12-14 15:34:51.811261, 1.62267
2022-12-14 15:34:51.844402, 1.62756
2022-12-14 15:34:51.844402, 1.62756
2022-12-14 15:34:51.845403, 1.61290
2022-12-14 15:34:51.877398, 1.61779
2022-12-14 15:34:51.878394, 1.61779
2022-12-14 15:34:51.910585, 1.61290
2022-12-14 15:34:51.911592, 1.60312
2022-12-14 15:34:51.911592, 1.60312
2022-12-14 15:34:51.945145, 1.60801
2022-12-14 15:34:51.945433, 1.60801
2022-12-14 15:34:51.945433, 1.60312
2022-12-14 15:34:51.978722, 1.60801
2022-12-14 15:34:51.979085, 1.60801
2022-12-14 15:34:52.012233, 1.60801
2022-12-14 15:34:52.012469, 1.59824
2022-12-14 15:34:52.012469, 1.60801
2022-12-14 15:34:52.045665, 1.60312
2022-12-14 15:34:52.045955, 1.60312
2022-12-14 15:34:52.046406, 1.58846
2022-12-14 15:34:52.079315, 1.58846
2022-12-14 15:34:52.079653, 1.59824
2022-12-14 15:34:52.112727, 1.60312
2022-12-14 15:34:52.112963, 1.59335
2022-12-14 15:34:52.112963, 1.60312
2022-12-14 15:34:52.146162, 1.62267
2022-12-14 15:34:52.146162, 1.65689
2022-12-14 15:34:52.147163, 1.71065
2022-12-14 15:34:52.179399, 1.73998
2022-12-14 15:34:52.179399, 1.78396
2022-12-14 15:34:52.213358, 1.81818
2022-12-14 15:34:52.213595, 1.82306
2022-12-14 15:34:52.213595, 1.82795
2022-12-14 15:34:52.247057, 1.82795
2022-12-14 15:34:52.247369, 1.82306
2022-12-14 15:34:52.248371, 1.80351
2022-12-14 15:34:52.280525, 1.78885
2022-12-14 15:34:52.280862, 1.77908
2022-12-14 15:34:52.313929, 1.77419
2022-12-14 15:34:52.314165, 1.76441
2022-12-14 15:34:52.314619, 1.75464
2022-12-14 15:34:52.347471, 1.75464
2022-12-14 15:34:52.347759, 1.76930
2022-12-14 15:34:52.347759, 1.75464
2022-12-14 15:34:52.380950, 1.73998
2022-12-14 15:34:52.380950, 1.73509
2022-12-14 15:34:52.414617, 1.73509
2022-12-14 15:34:52.414855, 1.73020
2022-12-14 15:34:52.414855, 1.73020
2022-12-14 15:34:52.447989, 1.75464
2022-12-14 15:34:52.448627, 1.73509
2022-12-14 15:34:52.448627, 1.73020
2022-12-14 15:34:52.480383, 1.72531
2022-12-14 15:34:52.481390, 1.72531
2022-12-14 15:34:52.515088, 1.72531
2022-12-14 15:34:52.515324, 1.72531
2022-12-14 15:34:52.515324, 1.70576
2022-12-14 15:34:52.548603, 1.70576
2022-12-14 15:34:52.548890, 1.70087
2022-12-14 15:34:52.549474, 1.72531
2022-12-14 15:34:52.582201, 1.68132
2022-12-14 15:34:52.582542, 1.67644
2022-12-14 15:34:52.615723, 1.67644
2022-12-14 15:34:52.615959, 1.68621
2022-12-14 15:34:52.616510, 1.65689
2022-12-14 15:34:52.649352, 1.65200
2022-12-14 15:34:52.649352, 1.68132
2022-12-14 15:34:52.650289, 1.65200
2022-12-14 15:34:52.682815, 1.63734
2022-12-14 15:34:52.683153, 1.63734
2022-12-14 15:34:52.715160, 1.63734
2022-12-14 15:34:52.716158, 1.63734
2022-12-14 15:34:52.716158, 1.65200
2022-12-14 15:34:52.749495, 1.61779
2022-12-14 15:34:52.749495, 1.61779
2022-12-14 15:34:52.750501, 1.62267
2022-12-14 15:34:52.783232, 1.60801
2022-12-14 15:34:52.783232, 1.60312
2022-12-14 15:34:52.816865, 1.63734
2022-12-14 15:34:52.816865, 1.61290
2022-12-14 15:34:52.817866, 1.60312
2022-12-14 15:34:52.850409, 1.61290
2022-12-14 15:34:52.850696, 1.60312
2022-12-14 15:34:52.850696, 1.60312
2022-12-14 15:34:52.884018, 1.58846
2022-12-14 15:34:52.884359, 1.58846
2022-12-14 15:34:52.917528, 1.61290
2022-12-14 15:34:52.917766, 1.59335
2022-12-14 15:34:52.917766, 1.58846
2022-12-14 15:34:52.951140, 1.58357
2022-12-14 15:34:52.951455, 1.59335
2022-12-14 15:34:52.952013, 1.59335
2022-12-14 15:34:52.984571, 1.57869
2022-12-14 15:34:52.984571, 1.57869
2022-12-14 15:34:53.016994, 1.60312
2022-12-14 15:34:53.018002, 1.59335
2022-12-14 15:34:53.018002, 1.58357
2022-12-14 15:34:53.051016, 1.57869
2022-12-14 15:34:53.051016, 1.57869
2022-12-14 15:34:53.051686, 1.59335
2022-12-14 15:34:53.085077, 1.57380
2022-12-14 15:34:53.085421, 1.57380
2022-12-14 15:34:53.118603, 1.57869
2022-12-14 15:34:53.118841, 1.58357
2022-12-14 15:34:53.119431, 1.57869
2022-12-14 15:34:53.152299, 1.57869
2022-12-14 15:34:53.152587, 1.60312
2022-12-14 15:34:53.152587, 1.63245
2022-12-14 15:34:53.185719, 1.68132
2022-12-14 15:34:53.186058, 1.72043
2022-12-14 15:34:53.219292, 1.77419
2022-12-14 15:34:53.219292, 1.82795
2022-12-14 15:34:53.220294, 1.83284
2022-12-14 15:34:53.252845, 1.83773
2022-12-14 15:34:53.253141, 1.83773
2022-12-14 15:34:53.253601, 1.83284
2022-12-14 15:34:53.286510, 1.82306
2022-12-14 15:34:53.286510, 1.79374
2022-12-14 15:34:53.319812, 1.79374
2022-12-14 15:34:53.319812, 1.78885
2022-12-14 15:34:53.320813, 1.77908
2022-12-14 15:34:53.353372, 1.76441
2022-12-14 15:34:53.353372, 1.77908
2022-12-14 15:34:53.354378, 1.76930
2022-12-14 15:34:53.386509, 1.75953
2022-12-14 15:34:53.386509, 1.74486
2022-12-14 15:34:53.420282, 1.74486
2022-12-14 15:34:53.420282, 1.74486
2022-12-14 15:34:53.421282, 1.74486
2022-12-14 15:34:53.453938, 1.73509
2022-12-14 15:34:53.453938, 1.74486
2022-12-14 15:34:53.454944, 1.77419
2022-12-14 15:34:53.487149, 1.74975
2022-12-14 15:34:53.487462, 1.73509
2022-12-14 15:34:53.520997, 1.73998
2022-12-14 15:34:53.521232, 1.74486
2022-12-14 15:34:53.521232, 1.74486
2022-12-14 15:34:53.554634, 1.73509
2022-12-14 15:34:53.554922, 1.73020
2022-12-14 15:34:53.554922, 1.72531
2022-12-14 15:34:53.588244, 1.72531
2022-12-14 15:34:53.588581, 1.70576
2022-12-14 15:34:53.621700, 1.70087
2022-12-14 15:34:53.621938, 1.70576
2022-12-14 15:34:53.621938, 1.70576
2022-12-14 15:34:53.655261, 1.69110
2022-12-14 15:34:53.656043, 1.68621
2022-12-14 15:34:53.656043, 1.68621
2022-12-14 15:34:53.688233, 1.69110
2022-12-14 15:34:53.688233, 1.67155
2022-12-14 15:34:53.721285, 1.66666
2022-12-14 15:34:53.721781, 1.67644
2022-12-14 15:34:53.721781, 1.67155
2022-12-14 15:34:53.755267, 1.66177
2022-12-14 15:34:53.755588, 1.65200
2022-12-14 15:34:53.756073, 1.65689
2022-12-14 15:34:53.789160, 1.66666
2022-12-14 15:34:53.789160, 1.65200
2022-12-14 15:34:53.822450, 1.64711
2022-12-14 15:34:53.822450, 1.64711
2022-12-14 15:34:53.823453, 1.65689
2022-12-14 15:34:53.855939, 1.64222
2022-12-14 15:34:53.855939, 1.64222
2022-12-14 15:34:53.856949, 1.64222
2022-12-14 15:34:53.889279, 1.64711
2022-12-14 15:34:53.889279, 1.63734
2022-12-14 15:34:53.922889, 1.64222
2022-12-14 15:34:53.923125, 1.63245
2022-12-14 15:34:53.923125, 1.66177
2022-12-14 15:34:53.956852, 1.63245
2022-12-14 15:34:53.956852, 1.62756
2022-12-14 15:34:53.957823, 1.63245
2022-12-14 15:34:53.990266, 1.63245
2022-12-14 15:34:53.991268, 1.63245
2022-12-14 15:34:54.023770, 1.61779
2022-12-14 15:34:54.024438, 1.62267
2022-12-14 15:34:54.024438, 1.62756
2022-12-14 15:34:54.056887, 1.62756
2022-12-14 15:34:54.056887, 1.61779
2022-12-14 15:34:54.056887, 1.61779
2022-12-14 15:34:54.090001, 1.62756
2022-12-14 15:34:54.090998, 1.62267
2022-12-14 15:34:54.124076, 1.61779
2022-12-14 15:34:54.124076, 1.64222
2022-12-14 15:34:54.125115, 1.63734
2022-12-14 15:34:54.157375, 1.67155
2022-12-14 15:34:54.158409, 1.71554
2022-12-14 15:34:54.158409, 1.78396
2022-12-14 15:34:54.190727, 1.80351
2022-12-14 15:34:54.191729, 1.83284
2022-12-14 15:34:54.224071, 1.84261
2022-12-14 15:34:54.225073, 1.85239
2022-12-14 15:34:54.225073, 1.85239
2022-12-14 15:34:54.257414, 1.84261
2022-12-14 15:34:54.258415, 1.81818
2022-12-14 15:34:54.258415, 1.80351
2022-12-14 15:34:54.291765, 1.79374
2022-12-14 15:34:54.291765, 1.78885
2022-12-14 15:34:54.325483, 1.79374
2022-12-14 15:34:54.326121, 1.75953
2022-12-14 15:34:54.326121, 1.75953
2022-12-14 15:34:54.358448, 1.77908
2022-12-14 15:34:54.358448, 1.73998
2022-12-14 15:34:54.359444, 1.73020
2022-12-14 15:34:54.391740, 1.72531
2022-12-14 15:34:54.392742, 1.73020
2022-12-14 15:34:54.426136, 1.73998
2022-12-14 15:34:54.426136, 1.71554
2022-12-14 15:34:54.426989, 1.72043
2022-12-14 15:34:54.459208, 1.73020
2022-12-14 15:34:54.459208, 1.72531
2022-12-14 15:34:54.459208, 1.72531
2022-12-14 15:34:54.492870, 1.73020
2022-12-14 15:34:54.493143, 1.73998
2022-12-14 15:34:54.526325, 1.75464
2022-12-14 15:34:54.526325, 1.71554
2022-12-14 15:34:54.527201, 1.71554
2022-12-14 15:34:54.559756, 1.71554
2022-12-14 15:34:54.559756, 1.71554
2022-12-14 15:34:54.560764, 1.69599
2022-12-14 15:34:54.593307, 1.68621
2022-12-14 15:34:54.593909, 1.69110
2022-12-14 15:34:54.626959, 1.70576
2022-12-14 15:34:54.627194, 1.66666
2022-12-14 15:34:54.627705, 1.66666
2022-12-14 15:34:54.660797, 1.67155
2022-12-14 15:34:54.660797, 1.66177
2022-12-14 15:34:54.661704, 1.65200
2022-12-14 15:34:54.693932, 1.64711
2022-12-14 15:34:54.693932, 1.65200
2022-12-14 15:34:54.727342, 1.63734
2022-12-14 15:34:54.727342, 1.62756
2022-12-14 15:34:54.728295, 1.62756
2022-12-14 15:34:54.761386, 1.65689
2022-12-14 15:34:54.761672, 1.63245
2022-12-14 15:34:54.761672, 1.61290
2022-12-14 15:34:54.795044, 1.60801
2022-12-14 15:34:54.795382, 1.61290
2022-12-14 15:34:54.828459, 1.60801
2022-12-14 15:34:54.828696, 1.59824
2022-12-14 15:34:54.829212, 1.59824
2022-12-14 15:34:54.861888, 1.59824
2022-12-14 15:34:54.861888, 1.60801
2022-12-14 15:34:54.862890, 1.58357
2022-12-14 15:34:54.895516, 1.58357
2022-12-14 15:34:54.895516, 1.58846
2022-12-14 15:34:54.929265, 1.60801
2022-12-14 15:34:54.929504, 1.57380
2022-12-14 15:34:54.929504, 1.57869
2022-12-14 15:34:54.962474, 1.58357
2022-12-14 15:34:54.962474, 1.59335
2022-12-14 15:34:54.963506, 1.57380
2022-12-14 15:34:54.995104, 1.57380
2022-12-14 15:34:54.996102, 1.60312
2022-12-14 15:34:55.029676, 1.57380
2022-12-14 15:34:55.029914, 1.56402
2022-12-14 15:34:55.029914, 1.56402
2022-12-14 15:34:55.063253, 1.57380
2022-12-14 15:34:55.063542, 1.59335
2022-12-14 15:34:55.063542, 1.61290
2022-12-14 15:34:55.096905, 1.65200
2022-12-14 15:34:55.097243, 1.70576
2022-12-14 15:34:55.130303, 1.75953
2022-12-14 15:34:55.130540, 1.79374
2022-12-14 15:34:55.130993, 1.81329
2022-12-14 15:34:55.163927, 1.83284
2022-12-14 15:34:55.163927, 1.84261
2022-12-14 15:34:55.164940, 1.82306
2022-12-14 15:34:55.197324, 1.80840
2022-12-14 15:34:55.197324, 1.79863
2022-12-14 15:34:55.230914, 1.79863
2022-12-14 15:34:55.231922, 1.78396
2022-12-14 15:34:55.231922, 1.76441
2022-12-14 15:34:55.263319, 1.75464
2022-12-14 15:34:55.264326, 1.75464
2022-12-14 15:34:55.264326, 1.74486
2022-12-14 15:34:55.298017, 1.73509
2022-12-14 15:34:55.298358, 1.73020
2022-12-14 15:34:55.331468, 1.73020
2022-12-14 15:34:55.331468, 1.72043
2022-12-14 15:34:55.332469, 1.72043
2022-12-14 15:34:55.364956, 1.73020
2022-12-14 15:34:55.364956, 1.70576
2022-12-14 15:34:55.365886, 1.70087
2022-12-14 15:34:55.398583, 1.69599
2022-12-14 15:34:55.398920, 1.72043
2022-12-14 15:34:55.432252, 1.70087
2022-12-14 15:34:55.432487, 1.69599
2022-12-14 15:34:55.432487, 1.69110
2022-12-14 15:34:55.465643, 1.70087
2022-12-14 15:34:55.465928, 1.69110
2022-12-14 15:34:55.466437, 1.68621
2022-12-14 15:34:55.499303, 1.68132
2022-12-14 15:34:55.499303, 1.70087
2022-12-14 15:34:55.532600, 1.67155
2022-12-14 15:34:55.532600, 1.65689
2022-12-14 15:34:55.533602, 1.65200
2022-12-14 15:34:55.565607, 1.64222
2022-12-14 15:34:55.565607, 1.64711
2022-12-14 15:34:55.566632, 1.65689
2022-12-14 15:34:55.598869, 1.62267
2022-12-14 15:34:55.599489, 1.62267
2022-12-14 15:34:55.633280, 1.62267
2022-12-14 15:34:55.633516, 1.61779
2022-12-14 15:34:55.634115, 1.60312
2022-12-14 15:34:55.666055, 1.59824
2022-12-14 15:34:55.666055, 1.59824
2022-12-14 15:34:55.667006, 1.59335
2022-12-14 15:34:55.699784, 1.59824
2022-12-14 15:34:55.699784, 1.57869
2022-12-14 15:34:55.733000, 1.58357
2022-12-14 15:34:55.733000, 1.58357
2022-12-14 15:34:55.733999, 1.57869
2022-12-14 15:34:55.767302, 1.56891
2022-12-14 15:34:55.767670, 1.56891
2022-12-14 15:34:55.767670, 1.57380
2022-12-14 15:34:55.800877, 1.58846
2022-12-14 15:34:55.800877, 1.55425
2022-12-14 15:34:55.833692, 1.56402
2022-12-14 15:34:55.834701, 1.56402
2022-12-14 15:34:55.834701, 1.55425
2022-12-14 15:34:55.867557, 1.55425
2022-12-14 15:34:55.867829, 1.55425
2022-12-14 15:34:55.867829, 1.55913
2022-12-14 15:34:55.901529, 1.54936
2022-12-14 15:34:55.901870, 1.54936
2022-12-14 15:34:55.935159, 1.54936
2022-12-14 15:34:55.935394, 1.55425
2022-12-14 15:34:55.935394, 1.56891
2022-12-14 15:34:55.968660, 1.53958
2022-12-14 15:34:55.968987, 1.53958
2022-12-14 15:34:55.969533, 1.57869
2022-12-14 15:34:56.002188, 1.54447
2022-12-14 15:34:56.002575, 1.53470
2022-12-14 15:34:56.035725, 1.53958
2022-12-14 15:34:56.035961, 1.55425
2022-12-14 15:34:56.036506, 1.57380
2022-12-14 15:34:56.069250, 1.59335
2022-12-14 15:34:56.069250, 1.64711
2022-12-14 15:34:56.070253, 1.71065
2022-12-14 15:34:56.102542, 1.74975
2022-12-14 15:34:56.103163, 1.77908
2022-12-14 15:34:56.135718, 1.81329
2022-12-14 15:34:56.135718, 1.82795
2022-12-14 15:34:56.135718, 1.82306
2022-12-14 15:34:56.169653, 1.83284
2022-12-14 15:34:56.169653, 1.81818
2022-12-14 15:34:56.170653, 1.78396
2022-12-14 15:34:56.203324, 1.76441
2022-12-14 15:34:56.203662, 1.74486
2022-12-14 15:34:56.236761, 1.76930
2022-12-14 15:34:56.236997, 1.76441
2022-12-14 15:34:56.237586, 1.73509
2022-12-14 15:34:56.270367, 1.74486
2022-12-14 15:34:56.270654, 1.71554
2022-12-14 15:34:56.270654, 1.74975
2022-12-14 15:34:56.303978, 1.71065
2022-12-14 15:34:56.304363, 1.69110
2022-12-14 15:34:56.337616, 1.68621
2022-12-14 15:34:56.337616, 1.70576
2022-12-14 15:34:56.338617, 1.68621
2022-12-14 15:34:56.370941, 1.68132
2022-12-14 15:34:56.371436, 1.68621
2022-12-14 15:34:56.372439, 1.68621
2022-12-14 15:34:56.403755, 1.68621
2022-12-14 15:34:56.404200, 1.67155
2022-12-14 15:34:56.437986, 1.68132
2022-12-14 15:34:56.438226, 1.70087
2022-12-14 15:34:56.438226, 1.67155
2022-12-14 15:34:56.471326, 1.65689
2022-12-14 15:34:56.471614, 1.65200
2022-12-14 15:34:56.471614, 1.64711
2022-12-14 15:34:56.505028, 1.64711
2022-12-14 15:34:56.505368, 1.63245
2022-12-14 15:34:56.538632, 1.62756
2022-12-14 15:34:56.538873, 1.62756
2022-12-14 15:34:56.539476, 1.62756
2022-12-14 15:34:56.572319, 1.61290
2022-12-14 15:34:56.572606, 1.60801
2022-12-14 15:34:56.573055, 1.60801
2022-12-14 15:34:56.605741, 1.62756
2022-12-14 15:34:56.606137, 1.59824
2022-12-14 15:34:56.639278, 1.58357
2022-12-14 15:34:56.639833, 1.58846
2022-12-14 15:34:56.639833, 1.58846
2022-12-14 15:34:56.671402, 1.57380
2022-12-14 15:34:56.672408, 1.56402
2022-12-14 15:34:56.672408, 1.56891
2022-12-14 15:34:56.706232, 1.57380
2022-12-14 15:34:56.706571, 1.58846
2022-12-14 15:34:56.739768, 1.55913
2022-12-14 15:34:56.739768, 1.55913
2022-12-14 15:34:56.740609, 1.56891
2022-12-14 15:34:56.772363, 1.55425
2022-12-14 15:34:56.773361, 1.54447
2022-12-14 15:34:56.773361, 1.54936
2022-12-14 15:34:56.806986, 1.55425
2022-12-14 15:34:56.807324, 1.54447
2022-12-14 15:34:56.840432, 1.53958
2022-12-14 15:34:56.840669, 1.53958
2022-12-14 15:34:56.841122, 1.54447
2022-12-14 15:34:56.873981, 1.54447
2022-12-14 15:34:56.874816, 1.52981
2022-12-14 15:34:56.874816, 1.52981
2022-12-14 15:34:56.907520, 1.55913
2022-12-14 15:34:56.907862, 1.54447
2022-12-14 15:34:56.941063, 1.52492
2022-12-14 15:34:56.941063, 1.52492
2022-12-14 15:34:56.942091, 1.55425
2022-12-14 15:34:56.973973, 1.53958
2022-12-14 15:34:56.974982, 1.51515
2022-12-14 15:34:56.974982, 1.52003
2022-12-14 15:34:57.007272, 1.52981
2022-12-14 15:34:57.007272, 1.52492
2022-12-14 15:34:57.041408, 1.52492
2022-12-14 15:34:57.041408, 1.53470
2022-12-14 15:34:57.042437, 1.57380
2022-12-14 15:34:57.074942, 1.61779
2022-12-14 15:34:57.075796, 1.66177
2022-12-14 15:34:57.075796, 1.71065
2022-12-14 15:34:57.108400, 1.75464
2022-12-14 15:34:57.109403, 1.77908
2022-12-14 15:34:57.141999, 1.77908
2022-12-14 15:34:57.141999, 1.77908
2022-12-14 15:34:57.143035, 1.77908
2022-12-14 15:34:57.175651, 1.78885
2022-12-14 15:34:57.175651, 1.76930
2022-12-14 15:34:57.176664, 1.73509
2022-12-14 15:34:57.208738, 1.73509
2022-12-14 15:34:57.209741, 1.71554
2022-12-14 15:34:57.242107, 1.69599
2022-12-14 15:34:57.242107, 1.68621
2022-12-14 15:34:57.243110, 1.69110
2022-12-14 15:34:57.275474, 1.69110
2022-12-14 15:34:57.275474, 1.67155
2022-12-14 15:34:57.276476, 1.66666
2022-12-14 15:34:57.308824, 1.66666
2022-12-14 15:34:57.309826, 1.67155
2022-12-14 15:34:57.342157, 1.66666
2022-12-14 15:34:57.343164, 1.64711
2022-12-14 15:34:57.343164, 1.65200
2022-12-14 15:34:57.376037, 1.65689
2022-12-14 15:34:57.376037, 1.68132
2022-12-14 15:34:57.377037, 1.65200
2022-12-14 15:34:57.409628, 1.65200
2022-12-14 15:34:57.410463, 1.65689
2022-12-14 15:34:57.442961, 1.64222
2022-12-14 15:34:57.443944, 1.64222
2022-12-14 15:34:57.443944, 1.66666
2022-12-14 15:34:57.476937, 1.63734
2022-12-14 15:34:57.476937, 1.62267
2022-12-14 15:34:57.477923, 1.62267
2022-12-14 15:34:57.510762, 1.61290
2022-12-14 15:34:57.511019, 1.61290
2022-12-14 15:34:57.544179, 1.60312
2022-12-14 15:34:57.544179, 1.59335
2022-12-14 15:34:57.545160, 1.58846
2022-12-14 15:34:57.577474, 1.60801
2022-12-14 15:34:57.577474, 1.58357
2022-12-14 15:34:57.578133, 1.58357
2022-12-14 15:34:57.611337, 1.57380
2022-12-14 15:34:57.611676, 1.57869
2022-12-14 15:34:57.644514, 1.56891
2022-12-14 15:34:57.644731, 1.58357
2022-12-14 15:34:57.645167, 1.55913
2022-12-14 15:34:57.678303, 1.56402
2022-12-14 15:34:57.679299, 1.55913
2022-12-14 15:34:57.679299, 1.56402
2022-12-14 15:34:57.711663, 1.55425
2022-12-14 15:34:57.711947, 1.55913
2022-12-14 15:34:57.745518, 1.55425
2022-12-14 15:34:57.745754, 1.54447
2022-12-14 15:34:57.745754, 1.54936
2022-12-14 15:34:57.779035, 1.55425
2022-12-14 15:34:57.779035, 1.54447
2022-12-14 15:34:57.780038, 1.53958
2022-12-14 15:34:57.812401, 1.53958
2022-12-14 15:34:57.812401, 1.54936
2022-12-14 15:34:57.846029, 1.54936
2022-12-14 15:34:57.846263, 1.53958
2022-12-14 15:34:57.846777, 1.53958
2022-12-14 15:34:57.879737, 1.54936
2022-12-14 15:34:57.880023, 1.55425
2022-12-14 15:34:57.880023, 1.53470
2022-12-14 15:34:57.913126, 1.53958
2022-12-14 15:34:57.913464, 1.54447
2022-12-14 15:34:57.946673, 1.54447
2022-12-14 15:34:57.947703, 1.53470
2022-12-14 15:34:57.947703, 1.53470
2022-12-14 15:34:57.980334, 1.54936
2022-12-14 15:34:57.980648, 1.55425
2022-12-14 15:34:57.980648, 1.55913
2022-12-14 15:34:58.013904, 1.58846
2022-12-14 15:34:58.014283, 1.63245
2022-12-14 15:34:58.047410, 1.68621
2022-12-14 15:34:58.047647, 1.71554
2022-12-14 15:34:58.048242, 1.74975
2022-12-14 15:34:58.080965, 1.77419
2022-12-14 15:34:58.081252, 1.78885
2022-12-14 15:34:58.081252, 1.77419
2022-12-14 15:34:58.114324, 1.76930
2022-12-14 15:34:58.114664, 1.75464
2022-12-14 15:34:58.147851, 1.74975
2022-12-14 15:34:58.147851, 1.72531
2022-12-14 15:34:58.148685, 1.71065
2022-12-14 15:34:58.181549, 1.70576
2022-12-14 15:34:58.181834, 1.70576
2022-12-14 15:34:58.181834, 1.69110
2022-12-14 15:34:58.214920, 1.69110
2022-12-14 15:34:58.215263, 1.68621
2022-12-14 15:34:58.248554, 1.68621
2022-12-14 15:34:58.248554, 1.67155
2022-12-14 15:34:58.249555, 1.66666
2022-12-14 15:34:58.281956, 1.66666
2022-12-14 15:34:58.282434, 1.67155
2022-12-14 15:34:58.283468, 1.66666
2022-12-14 15:34:58.315105, 1.67155
2022-12-14 15:34:58.315105, 1.67644
2022-12-14 15:34:58.349107, 1.69110
2022-12-14 15:34:58.349345, 1.69599
2022-12-14 15:34:58.349345, 1.69110
2022-12-14 15:34:58.382600, 1.67644
2022-12-14 15:34:58.382887, 1.67644
2022-12-14 15:34:58.382887, 1.67644
2022-12-14 15:34:58.416155, 1.67155
2022-12-14 15:34:58.416494, 1.69110
2022-12-14 15:34:58.449659, 1.66177
2022-12-14 15:34:58.449899, 1.65200
2022-12-14 15:34:58.450410, 1.64222
2022-12-14 15:34:58.483358, 1.64222
2022-12-14 15:34:58.483644, 1.65200
2022-12-14 15:34:58.484646, 1.63734
2022-12-14 15:34:58.516732, 1.62267
2022-12-14 15:34:58.517073, 1.61779
2022-12-14 15:34:58.550356, 1.63734
2022-12-14 15:34:58.550356, 1.62267
2022-12-14 15:34:58.551357, 1.60801
2022-12-14 15:34:58.583709, 1.60801
2022-12-14 15:34:58.583709, 1.64222
2022-12-14 15:34:58.584711, 1.61290
2022-12-14 15:34:58.616751, 1.60312
2022-12-14 15:34:58.616751, 1.62756
2022-12-14 15:34:58.650735, 1.60801
2022-12-14 15:34:58.651189, 1.60801
2022-12-14 15:34:58.651710, 1.60312
2022-12-14 15:34:58.684270, 1.61290
2022-12-14 15:34:58.684270, 1.59824
2022-12-14 15:34:58.685289, 1.60312
2022-12-14 15:34:58.717858, 1.59335
2022-12-14 15:34:58.717858, 1.59335
2022-12-14 15:34:58.751247, 1.59824
2022-12-14 15:34:58.751247, 1.60801
2022-12-14 15:34:58.752249, 1.58846
2022-12-14 15:34:58.784433, 1.59335
2022-12-14 15:34:58.784433, 1.59335
2022-12-14 15:34:58.785434, 1.61290
2022-12-14 15:34:58.818447, 1.58357
2022-12-14 15:34:58.818787, 1.58846
2022-12-14 15:34:58.851965, 1.59335
2022-12-14 15:34:58.851965, 1.59824
2022-12-14 15:34:58.852966, 1.61290
2022-12-14 15:34:58.885034, 1.61290
2022-12-14 15:34:58.885034, 1.64711
2022-12-14 15:34:58.886064, 1.69599
2022-12-14 15:34:58.919112, 1.75464
2022-12-14 15:34:58.919452, 1.76441
2022-12-14 15:34:58.952477, 1.79374
2022-12-14 15:34:58.952713, 1.81329
2022-12-14 15:34:58.952713, 1.79863
2022-12-14 15:34:58.986168, 1.78885
2022-12-14 15:34:58.986457, 1.77419
2022-12-14 15:34:58.986457, 1.76930
2022-12-14 15:34:59.019670, 1.77908
2022-12-14 15:34:59.020050, 1.75953
2022-12-14 15:34:59.053308, 1.73020
2022-12-14 15:34:59.053598, 1.72531
2022-12-14 15:34:59.054185, 1.71065
2022-12-14 15:34:59.086666, 1.69599
2022-12-14 15:34:59.086957, 1.69110
2022-12-14 15:34:59.086957, 1.70576
2022-12-14 15:34:59.120169, 1.70087
2022-12-14 15:34:59.120169, 1.70087
2022-12-14 15:34:59.152737, 1.66177
2022-12-14 15:34:59.152737, 1.66666
2022-12-14 15:34:59.153736, 1.66177
2022-12-14 15:34:59.187222, 1.66177
2022-12-14 15:34:59.187513, 1.66666
2022-12-14 15:34:59.187513, 1.67155
2022-12-14 15:34:59.220912, 1.66666
2022-12-14 15:34:59.221251, 1.66177
2022-12-14 15:34:59.254358, 1.67644
2022-12-14 15:34:59.254594, 1.66177
2022-12-14 15:34:59.255194, 1.65689
2022-12-14 15:34:59.288015, 1.64222
2022-12-14 15:34:59.288304, 1.64711
2022-12-14 15:34:59.288304, 1.64222
2022-12-14 15:34:59.321364, 1.63245
2022-12-14 15:34:59.321364, 1.62267
2022-12-14 15:34:59.354990, 1.61779
2022-12-14 15:34:59.355254, 1.62267
2022-12-14 15:34:59.355254, 1.61290
2022-12-14 15:34:59.388339, 1.61779
2022-12-14 15:34:59.388339, 1.59824
2022-12-14 15:34:59.389341, 1.59824
2022-12-14 15:34:59.420714, 1.59824
2022-12-14 15:34:59.421722, 1.58357
2022-12-14 15:34:59.455428, 1.58846
2022-12-14 15:34:59.455663, 1.58846
2022-12-14 15:34:59.455663, 1.58846
2022-12-14 15:34:59.489114, 1.57869
2022-12-14 15:34:59.489404, 1.57869
2022-12-14 15:34:59.489404, 1.57869
2022-12-14 15:34:59.522579, 1.58357
2022-12-14 15:34:59.522919, 1.57380
2022-12-14 15:34:59.556280, 1.57380
2022-12-14 15:34:59.556517, 1.56891
2022-12-14 15:34:59.557104, 1.57869
2022-12-14 15:34:59.589606, 1.56402
2022-12-14 15:34:59.589606, 1.56402
2022-12-14 15:34:59.590617, 1.56891
2022-12-14 15:34:59.623344, 1.57869
2022-12-14 15:34:59.623683, 1.56891
2022-12-14 15:34:59.656875, 1.58357
2022-12-14 15:34:59.657110, 1.60801
2022-12-14 15:34:59.657110, 1.64711
2022-12-14 15:34:59.690298, 1.70576
2022-12-14 15:34:59.690298, 1.71554
2022-12-14 15:34:59.691298, 1.75953
2022-12-14 15:34:59.723163, 1.79863
2022-12-14 15:34:59.723163, 1.81818
2022-12-14 15:34:59.757295, 1.79374
2022-12-14 15:34:59.757532, 1.78885
2022-12-14 15:34:59.757532, 1.77908
2022-12-14 15:34:59.790836, 1.75953
2022-12-14 15:34:59.791125, 1.74486
2022-12-14 15:34:59.791677, 1.73998
2022-12-14 15:34:59.824367, 1.73998
2022-12-14 15:34:59.824703, 1.72531
2022-12-14 15:34:59.858037, 1.71554
2022-12-14 15:34:59.858275, 1.71554
2022-12-14 15:34:59.858275, 1.73509
2022-12-14 15:34:59.891443, 1.71065
2022-12-14 15:34:59.891730, 1.71065
2022-12-14 15:34:59.891730, 1.69110
2022-12-14 15:34:59.925162, 1.69110
2022-12-14 15:34:59.925503, 1.67644
2022-12-14 15:34:59.958653, 1.67155
2022-12-14 15:34:59.958891, 1.67155
2022-12-14 15:34:59.958891, 1.68132
2022-12-14 15:34:59.992218, 1.67644
2022-12-14 15:34:59.992505, 1.66666
2022-12-14 15:34:59.992505, 1.67155
2022-12-14 15:35:00.025362, 1.67644
2022-12-14 15:35:00.026357, 1.66666
2022-12-14 15:35:00.058270, 1.66177
2022-12-14 15:35:00.058270, 1.65200
2022-12-14 15:35:00.059272, 1.65200
2022-12-14 15:35:00.092248, 1.65200
2022-12-14 15:35:00.092535, 1.63245
2022-12-14 15:35:00.092535, 1.63245
2022-12-14 15:35:00.126100, 1.64222
2022-12-14 15:35:00.127102, 1.63734
2022-12-14 15:35:00.159688, 1.62267
2022-12-14 15:35:00.159688, 1.62267
2022-12-14 15:35:00.160724, 1.62756
2022-12-14 15:35:00.193155, 1.61779
2022-12-14 15:35:00.194193, 1.60801
2022-12-14 15:35:00.194193, 1.60312
2022-12-14 15:35:00.226558, 1.60801
2022-12-14 15:35:00.226558, 1.61290
2022-12-14 15:35:00.259822, 1.59824
2022-12-14 15:35:00.259822, 1.59335
2022-12-14 15:35:00.260857, 1.59824
2022-12-14 15:35:00.293288, 1.61290
2022-12-14 15:35:00.293288, 1.58357
2022-12-14 15:35:00.294289, 1.58357
2022-12-14 15:35:00.326630, 1.58357
2022-12-14 15:35:00.327392, 1.58846
2022-12-14 15:35:00.360307, 1.59335
2022-12-14 15:35:00.360307, 1.57869
2022-12-14 15:35:00.361304, 1.57869
2022-12-14 15:35:00.393509, 1.58846
2022-12-14 15:35:00.394474, 1.60312
2022-12-14 15:35:00.394474, 1.58357
2022-12-14 15:35:00.427474, 1.59824
2022-12-14 15:35:00.427474, 1.65689
2022-12-14 15:35:00.460906, 1.65689
2022-12-14 15:35:00.460906, 1.70087
2022-12-14 15:35:00.461889, 1.74975
2022-12-14 15:35:00.494270, 1.80351
2022-12-14 15:35:00.494270, 1.81818
2022-12-14 15:35:00.495259, 1.84750
2022-12-14 15:35:00.527333, 1.82795
2022-12-14 15:35:00.528330, 1.82306
2022-12-14 15:35:00.561039, 1.80351
2022-12-14 15:35:00.562057, 1.78396
2022-12-14 15:35:00.562057, 1.77419
2022-12-14 15:35:00.594812, 1.78885
2022-12-14 15:35:00.595384, 1.75464
2022-12-14 15:35:00.596381, 1.73998
2022-12-14 15:35:00.628741, 1.73998
2022-12-14 15:35:00.628741, 1.73998
2022-12-14 15:35:00.662063, 1.73020
2022-12-14 15:35:00.662312, 1.71065
2022-12-14 15:35:00.662712, 1.70576
2022-12-14 15:35:00.695604, 1.70087
2022-12-14 15:35:00.695990, 1.70087
2022-12-14 15:35:00.696430, 1.66666
2022-12-14 15:35:00.729003, 1.66666
2022-12-14 15:35:00.729423, 1.66666
2022-12-14 15:35:00.763142, 1.67155
2022-12-14 15:35:00.763380, 1.65200
2022-12-14 15:35:00.763380, 1.65689
2022-12-14 15:35:00.796612, 1.65689
2022-12-14 15:35:00.796900, 1.65689
2022-12-14 15:35:00.797357, 1.64222
2022-12-14 15:35:00.829353, 1.63734
2022-12-14 15:35:00.830308, 1.63734
2022-12-14 15:35:00.863625, 1.62756
2022-12-14 15:35:00.863859, 1.61290
2022-12-14 15:35:00.863859, 1.60801
2022-12-14 15:35:00.897448, 1.60312
2022-12-14 15:35:00.897448, 1.59824
2022-12-14 15:35:00.898454, 1.57869
2022-12-14 15:35:00.930896, 1.57380
2022-12-14 15:35:00.931268, 1.57869
2022-12-14 15:35:00.964408, 1.56891
2022-12-14 15:35:00.964642, 1.55425
2022-12-14 15:35:00.964642, 1.55425
2022-12-14 15:35:00.997952, 1.54936
2022-12-14 15:35:00.998241, 1.54936
2022-12-14 15:35:00.998241, 1.54936
2022-12-14 15:35:01.031224, 1.52981
2022-12-14 15:35:01.031224, 1.52981
2022-12-14 15:35:01.064888, 1.55425
2022-12-14 15:35:01.065124, 1.51515
2022-12-14 15:35:01.065578, 1.51515
2022-12-14 15:35:01.098376, 1.52492
2022-12-14 15:35:01.098907, 1.52003
2022-12-14 15:35:01.098907, 1.51026
2022-12-14 15:35:01.131883, 1.51515
2022-12-14 15:35:01.132221, 1.51026
2022-12-14 15:35:01.165390, 1.51515
2022-12-14 15:35:01.165390, 1.53958
2022-12-14 15:35:01.166407, 1.50048
2022-12-14 15:35:01.199014, 1.50537
2022-12-14 15:35:01.199014, 1.52003
2022-12-14 15:35:01.200018, 1.50048
2022-12-14 15:35:01.232373, 1.49560
2022-12-14 15:35:01.232373, 1.50048
2022-12-14 15:35:01.266093, 1.51026
2022-12-14 15:35:01.266329, 1.50048
2022-12-14 15:35:01.266928, 1.51026
2022-12-14 15:35:01.299532, 1.54936
2022-12-14 15:35:01.299824, 1.57869
2022-12-14 15:35:01.299824, 1.60801
2022-12-14 15:35:01.333265, 1.64222
2022-12-14 15:35:01.333604, 1.67644
2022-12-14 15:35:01.366588, 1.68621
2022-12-14 15:35:01.366588, 1.68621
2022-12-14 15:35:01.367426, 1.67644
2022-12-14 15:35:01.400193, 1.66666
2022-12-14 15:35:01.400479, 1.66177
2022-12-14 15:35:01.400479, 1.65689
2022-12-14 15:35:01.433710, 1.66177
2022-12-14 15:35:01.433710, 1.63734
2022-12-14 15:35:01.467229, 1.63734
2022-12-14 15:35:01.467597, 1.63245
2022-12-14 15:35:01.468601, 1.62756
2022-12-14 15:35:01.499537, 1.62756
2022-12-14 15:35:01.500570, 1.62756
2022-12-14 15:35:01.500570, 1.62267
2022-12-14 15:35:01.534342, 1.60801
2022-12-14 15:35:01.534342, 1.61290
2022-12-14 15:35:01.567845, 1.60312
2022-12-14 15:35:01.568081, 1.59824
2022-12-14 15:35:01.568081, 1.58846
2022-12-14 15:35:01.601520, 1.58846
2022-12-14 15:35:01.601808, 1.59824
2022-12-14 15:35:01.601808, 1.59335
2022-12-14 15:35:01.635107, 1.58357
2022-12-14 15:35:01.635480, 1.58357
2022-12-14 15:35:01.668457, 1.58846
2022-12-14 15:35:01.668696, 1.58846
2022-12-14 15:35:01.668696, 1.59335
2022-12-14 15:35:01.702012, 1.57380
2022-12-14 15:35:01.702298, 1.57380
2022-12-14 15:35:01.702845, 1.56891
2022-12-14 15:35:01.735482, 1.56402
2022-12-14 15:35:01.735482, 1.56402
2022-12-14 15:35:01.768503, 1.55425
2022-12-14 15:35:01.768503, 1.55913
2022-12-14 15:35:01.768503, 1.54447
2022-12-14 15:35:01.801883, 1.54447
2022-12-14 15:35:01.801883, 1.54447
2022-12-14 15:35:01.802837, 1.54447
2022-12-14 15:35:01.836208, 1.53470
2022-12-14 15:35:01.836548, 1.52981
2022-12-14 15:35:01.869679, 1.53470
2022-12-14 15:35:01.869914, 1.53958
2022-12-14 15:35:01.869914, 1.52492
2022-12-14 15:35:01.903198, 1.52003
2022-12-14 15:35:01.903485, 1.52981
2022-12-14 15:35:01.903940, 1.54936
2022-12-14 15:35:01.936700, 1.52003
2022-12-14 15:35:01.936700, 1.51515
2022-12-14 15:35:01.970223, 1.51515
2022-12-14 15:35:01.970461, 1.54936
2022-12-14 15:35:01.970461, 1.51515
2022-12-14 15:35:02.003794, 1.51515
2022-12-14 15:35:02.004208, 1.52981
2022-12-14 15:35:02.005212, 1.52003
2022-12-14 15:35:02.035964, 1.51026
2022-12-14 15:35:02.036973, 1.50537
2022-12-14 15:35:02.070731, 1.54447
2022-12-14 15:35:02.070968, 1.52003
2022-12-14 15:35:02.070968, 1.51515
2022-12-14 15:35:02.104289, 1.51515
2022-12-14 15:35:02.104289, 1.52003
2022-12-14 15:35:02.105297, 1.52492
2022-12-14 15:35:02.137972, 1.52003
2022-12-14 15:35:02.138311, 1.51515
2022-12-14 15:35:02.171448, 1.54936
2022-12-14 15:35:02.171684, 1.52003
2022-12-14 15:35:02.171684, 1.52003
2022-12-14 15:35:02.205171, 1.52003
2022-12-14 15:35:02.205498, 1.54447
2022-12-14 15:35:02.205955, 1.52492
2022-12-14 15:35:02.238672, 1.52981
2022-12-14 15:35:02.238672, 1.53958
2022-12-14 15:35:02.272056, 1.56402
2022-12-14 15:35:02.272339, 1.59335
2022-12-14 15:35:02.272339, 1.61779
2022-12-14 15:35:02.305546, 1.63734
2022-12-14 15:35:02.306260, 1.65200
2022-12-14 15:35:02.306260, 1.66177
2022-12-14 15:35:02.338172, 1.66177
2022-12-14 15:35:02.339179, 1.64711
2022-12-14 15:35:02.371557, 1.64222
2022-12-14 15:35:02.372176, 1.64222
2022-12-14 15:35:02.372572, 1.64222
2022-12-14 15:35:02.406033, 1.62756
2022-12-14 15:35:02.406321, 1.66177
2022-12-14 15:35:02.406321, 1.65200
2022-12-14 15:35:02.439534, 1.65689
2022-12-14 15:35:02.439534, 1.63734
2022-12-14 15:35:02.473064, 1.63734
2022-12-14 15:35:02.473064, 1.64222
2022-12-14 15:35:02.473913, 1.64711
2022-12-14 15:35:02.506687, 1.63245
2022-12-14 15:35:02.506972, 1.63734
2022-12-14 15:35:02.507618, 1.63734
2022-12-14 15:35:02.540417, 1.64711
2022-12-14 15:35:02.540755, 1.63734
2022-12-14 15:35:02.573972, 1.67155
2022-12-14 15:35:02.574205, 1.65200
2022-12-14 15:35:02.574205, 1.65689
2022-12-14 15:35:02.607380, 1.64711
2022-12-14 15:35:02.607773, 1.64222
2022-12-14 15:35:02.607773, 1.64222
2022-12-14 15:35:02.640374, 1.64711
2022-12-14 15:35:02.640374, 1.63734
2022-12-14 15:35:02.674221, 1.63245
2022-12-14 15:35:02.674221, 1.63245
2022-12-14 15:35:02.675222, 1.63734
2022-12-14 15:35:02.707949, 1.62267
2022-12-14 15:35:02.708238, 1.64222
2022-12-14 15:35:02.708238, 1.62267
2022-12-14 15:35:02.741415, 1.62756
2022-12-14 15:35:02.741756, 1.61779
2022-12-14 15:35:02.775054, 1.61779
2022-12-14 15:35:02.775291, 1.64711
2022-12-14 15:35:02.775291, 1.61779
2022-12-14 15:35:02.808644, 1.61290
2022-12-14 15:35:02.808934, 1.60312
2022-12-14 15:35:02.809444, 1.60801
2022-12-14 15:35:02.842277, 1.61779
2022-12-14 15:35:02.842277, 1.64222
2022-12-14 15:35:02.875444, 1.60312
2022-12-14 15:35:02.876162, 1.60801
2022-12-14 15:35:02.876162, 1.61290
2022-12-14 15:35:02.908061, 1.60312
2022-12-14 15:35:02.908742, 1.60801
2022-12-14 15:35:02.908742, 1.62267
2022-12-14 15:35:02.942466, 1.60801
2022-12-14 15:35:02.942807, 1.60801
2022-12-14 15:35:02.976131, 1.60312
2022-12-14 15:35:02.976368, 1.60801
2022-12-14 15:35:02.976368, 1.62756
2022-12-14 15:35:03.009642, 1.60801
2022-12-14 15:35:03.009930, 1.59824
2022-12-14 15:35:03.009930, 1.60312
2022-12-14 15:35:03.043311, 1.61290
2022-12-14 15:35:03.043649, 1.61290
2022-12-14 15:35:03.076698, 1.62756
2022-12-14 15:35:03.076936, 1.60801
2022-12-14 15:35:03.077937, 1.61290
2022-12-14 15:35:03.110422, 1.61290
2022-12-14 15:35:03.110422, 1.60312
2022-12-14 15:35:03.111425, 1.60312
2022-12-14 15:35:03.143835, 1.61779
2022-12-14 15:35:03.143835, 1.62267
2022-12-14 15:35:03.177420, 1.60801
2022-12-14 15:35:03.178430, 1.64222
2022-12-14 15:35:03.178430, 1.61779
2022-12-14 15:35:03.209972, 1.62756
2022-12-14 15:35:03.210982, 1.64222
2022-12-14 15:35:03.210982, 1.65200
2022-12-14 15:35:03.244113, 1.68132
2022-12-14 15:35:03.244113, 1.70576
2022-12-14 15:35:03.277553, 1.70576
2022-12-14 15:35:03.277553, 1.70576
2022-12-14 15:35:03.278555, 1.70087
2022-12-14 15:35:03.310186, 1.70087
2022-12-14 15:35:03.311184, 1.69599
2022-12-14 15:35:03.311184, 1.67155
2022-12-14 15:35:03.344351, 1.66666
2022-12-14 15:35:03.345050, 1.66666
2022-12-14 15:35:03.377727, 1.64711
2022-12-14 15:35:03.377727, 1.64222
2022-12-14 15:35:03.378730, 1.64711
2022-12-14 15:35:03.411099, 1.65200
2022-12-14 15:35:03.412102, 1.64222
2022-12-14 15:35:03.412102, 1.63734
2022-12-14 15:35:03.444483, 1.64222
2022-12-14 15:35:03.445486, 1.64222
2022-12-14 15:35:03.477837, 1.62756
2022-12-14 15:35:03.478841, 1.61779
2022-12-14 15:35:03.478841, 1.62267
2022-12-14 15:35:03.512005, 1.63245
2022-12-14 15:35:03.512005, 1.65200
2022-12-14 15:35:03.513002, 1.64222
2022-12-14 15:35:03.546104, 1.61779
2022-12-14 15:35:03.546104, 1.62756
2022-12-14 15:35:03.578634, 1.61779
2022-12-14 15:35:03.579631, 1.61290
2022-12-14 15:35:03.579631, 1.62267
2022-12-14 15:35:03.612718, 1.61290
2022-12-14 15:35:03.612718, 1.60312
2022-12-14 15:35:03.613719, 1.60312
2022-12-14 15:35:03.646131, 1.61290
2022-12-14 15:35:03.646131, 1.60801
2022-12-14 15:35:03.679787, 1.59824
2022-12-14 15:35:03.679931, 1.59335
2022-12-14 15:35:03.679931, 1.60312
2022-12-14 15:35:03.713214, 1.60801
2022-12-14 15:35:03.713214, 1.61290
2022-12-14 15:35:03.713927, 1.59824
2022-12-14 15:35:03.747120, 1.59824
2022-12-14 15:35:03.747456, 1.60312
2022-12-14 15:35:03.779904, 1.60801
2022-12-14 15:35:03.779904, 1.61290
2022-12-14 15:35:03.780973, 1.59335
2022-12-14 15:35:03.814094, 1.59824
2022-12-14 15:35:03.814094, 1.59824
2022-12-14 15:35:03.815095, 1.60801
2022-12-14 15:35:03.846601, 1.62267
2022-12-14 15:35:03.847598, 1.59824
2022-12-14 15:35:03.880871, 1.59824
2022-12-14 15:35:03.881134, 1.58846
2022-12-14 15:35:03.881786, 1.58846
2022-12-14 15:35:03.914940, 1.59824
2022-12-14 15:35:03.915259, 1.60801
2022-12-14 15:35:03.915259, 1.58846
2022-12-14 15:35:03.948164, 1.58846
2022-12-14 15:35:03.948164, 1.59824
2022-12-14 15:35:03.981977, 1.59335
2022-12-14 15:35:03.982213, 1.60801
2022-12-14 15:35:03.982800, 1.60312
2022-12-14 15:35:04.015362, 1.59824
2022-12-14 15:35:04.015650, 1.59824
2022-12-14 15:35:04.016163, 1.58846
2022-12-14 15:35:04.049033, 1.58357
2022-12-14 15:35:04.049372, 1.59335
2022-12-14 15:35:04.082308, 1.59824
2022-12-14 15:35:04.082308, 1.58846
2022-12-14 15:35:04.083309, 1.58357
2022-12-14 15:35:04.116014, 1.59335
2022-12-14 15:35:04.116413, 1.59335
2022-12-14 15:35:04.117429, 1.60312
2022-12-14 15:35:04.148493, 1.61779
2022-12-14 15:35:04.149494, 1.62267
2022-12-14 15:35:04.183062, 1.65200
2022-12-14 15:35:04.183298, 1.65689
2022-12-14 15:35:04.183298, 1.66666
2022-12-14 15:35:04.216582, 1.69599
2022-12-14 15:35:04.216872, 1.67644
2022-12-14 15:35:04.216872, 1.65689
2022-12-14 15:35:04.250229, 1.64711
2022-12-14 15:35:04.250568, 1.64222
2022-12-14 15:35:04.283592, 1.64222
2022-12-14 15:35:04.283592, 1.62756
2022-12-14 15:35:04.284340, 1.62756
2022-12-14 15:35:04.317314, 1.62756
2022-12-14 15:35:04.317602, 1.66177
2022-12-14 15:35:04.317602, 1.63734
2022-12-14 15:35:04.350622, 1.63245
2022-12-14 15:35:04.350622, 1.63245
2022-12-14 15:35:04.383599, 1.64222
2022-12-14 15:35:04.384608, 1.63245
2022-12-14 15:35:04.384608, 1.62267
2022-12-14 15:35:04.417482, 1.63734
2022-12-14 15:35:04.417600, 1.63245
2022-12-14 15:35:04.417600, 1.62756
2022-12-14 15:35:04.451299, 1.61779
2022-12-14 15:35:04.451642, 1.61779
2022-12-14 15:35:04.485039, 1.63245
2022-12-14 15:35:04.485317, 1.63734
2022-12-14 15:35:04.485914, 1.64711
2022-12-14 15:35:04.518331, 1.61779
2022-12-14 15:35:04.518331, 1.62756
2022-12-14 15:35:04.519186, 1.62267
2022-12-14 15:35:04.550871, 1.61779
2022-12-14 15:35:04.551869, 1.61290
2022-12-14 15:35:04.585474, 1.62267
2022-12-14 15:35:04.585710, 1.62756
2022-12-14 15:35:04.586225, 1.60801
2022-12-14 15:35:04.619120, 1.60801
2022-12-14 15:35:04.619407, 1.61290
2022-12-14 15:35:04.619994, 1.62267
2022-12-14 15:35:04.652412, 1.60312
2022-12-14 15:35:04.652412, 1.62756
2022-12-14 15:35:04.684729, 1.61290
2022-12-14 15:35:04.685737, 1.60801
2022-12-14 15:35:04.685737, 1.59824
2022-12-14 15:35:04.719354, 1.59824
2022-12-14 15:35:04.719354, 1.60312
2022-12-14 15:35:04.720367, 1.61290
2022-12-14 15:35:04.753179, 1.59824
2022-12-14 15:35:04.753522, 1.60312
2022-12-14 15:35:04.786722, 1.60312
2022-12-14 15:35:04.786722, 1.60312
2022-12-14 15:35:04.787723, 1.59335
2022-12-14 15:35:04.820319, 1.59335
2022-12-14 15:35:04.820604, 1.60801
2022-12-14 15:35:04.821114, 1.60312
2022-12-14 15:35:04.853822, 1.59335
2022-12-14 15:35:04.854163, 1.59335
2022-12-14 15:35:04.885860, 1.59335
2022-12-14 15:35:04.886858, 1.60801
2022-12-14 15:35:04.886858, 1.59335
2022-12-14 15:35:04.920819, 1.58846
2022-12-14 15:35:04.920819, 1.59335
2022-12-14 15:35:04.921823, 1.59824
2022-12-14 15:35:04.953915, 1.58846
2022-12-14 15:35:04.954921, 1.58846
2022-12-14 15:35:04.987087, 1.59335
2022-12-14 15:35:04.987087, 1.60312
2022-12-14 15:35:04.987806, 1.58846
2022-12-14 15:35:05.021247, 1.58846
2022-12-14 15:35:05.021536, 1.59335
2022-12-14 15:35:05.022129, 1.59824
2022-12-14 15:35:05.054931, 1.58846
2022-12-14 15:35:05.055269, 1.58357
2022-12-14 15:35:05.088406, 1.59335
2022-12-14 15:35:05.088647, 1.59824
2022-12-14 15:35:05.088647, 1.62267
2022-12-14 15:35:05.122070, 1.58846
2022-12-14 15:35:05.122360, 1.59824
2022-12-14 15:35:05.122360, 1.60801
2022-12-14 15:35:05.155694, 1.61779
2022-12-14 15:35:05.156032, 1.62756
2022-12-14 15:35:05.189150, 1.66177
2022-12-14 15:35:05.189387, 1.68132
2022-12-14 15:35:05.189387, 1.68132
2022-12-14 15:35:05.222561, 1.67644
2022-12-14 15:35:05.222893, 1.67155
2022-12-14 15:35:05.222893, 1.67155
2022-12-14 15:35:05.256366, 1.65689
2022-12-14 15:35:05.256366, 1.63734
2022-12-14 15:35:05.288692, 1.63734
2022-12-14 15:35:05.288692, 1.64222
2022-12-14 15:35:05.289697, 1.64222
2022-12-14 15:35:05.321750, 1.65200
2022-12-14 15:35:05.322746, 1.64711
2022-12-14 15:35:05.322746, 1.65200
2022-12-14 15:35:05.356189, 1.65200
2022-12-14 15:35:05.357187, 1.64222
2022-12-14 15:35:05.390228, 1.64222
2022-12-14 15:35:05.390463, 1.64222
2022-12-14 15:35:05.390463, 1.65689
2022-12-14 15:35:05.423636, 1.62756
2022-12-14 15:35:05.423923, 1.63245
2022-12-14 15:35:05.423923, 1.63734
2022-12-14 15:35:05.457338, 1.64222
2022-12-14 15:35:05.457677, 1.63245
2022-12-14 15:35:05.490882, 1.63245
2022-12-14 15:35:05.491148, 1.64222
2022-12-14 15:35:05.491653, 1.64711
2022-12-14 15:35:05.524474, 1.65200
2022-12-14 15:35:05.524474, 1.64222
2022-12-14 15:35:05.525476, 1.66177
2022-12-14 15:35:05.557758, 1.63245
2022-12-14 15:35:05.557758, 1.61779
2022-12-14 15:35:05.591027, 1.61779
2022-12-14 15:35:05.592035, 1.62267
2022-12-14 15:35:05.592035, 1.63245
2022-12-14 15:35:05.624155, 1.61779
2022-12-14 15:35:05.624155, 1.61290
2022-12-14 15:35:05.625150, 1.62267
2022-12-14 15:35:05.657078, 1.62756
2022-12-14 15:35:05.658043, 1.62267
2022-12-14 15:35:05.691079, 1.61779
2022-12-14 15:35:05.691079, 1.62267
2022-12-14 15:35:05.692075, 1.62756
2022-12-14 15:35:05.725384, 1.62267
2022-12-14 15:35:05.725673, 1.61779
2022-12-14 15:35:05.725673, 1.62267
2022-12-14 15:35:05.758960, 1.62756
2022-12-14 15:35:05.759297, 1.62267
2022-12-14 15:35:05.792573, 1.61779
2022-12-14 15:35:05.792573, 1.62267
2022-12-14 15:35:05.793373, 1.62756
2022-12-14 15:35:05.826221, 1.64711
2022-12-14 15:35:05.826510, 1.61290
2022-12-14 15:35:05.827112, 1.61779
2022-12-14 15:35:05.859635, 1.62267
2022-12-14 15:35:05.860017, 1.61290
2022-12-14 15:35:05.893060, 1.60801
2022-12-14 15:35:05.894130, 1.60801
2022-12-14 15:35:05.894130, 1.61779
2022-12-14 15:35:05.925862, 1.61290
2022-12-14 15:35:05.925862, 1.61290
2022-12-14 15:35:05.926826, 1.63734
2022-12-14 15:35:05.960057, 1.62756
2022-12-14 15:35:05.960057, 1.61779
2022-12-14 15:35:05.993584, 1.61290
2022-12-14 15:35:05.993820, 1.61779
2022-12-14 15:35:05.993820, 1.62267
2022-12-14 15:35:06.027269, 1.61779
2022-12-14 15:35:06.027560, 1.60801
2022-12-14 15:35:06.028186, 1.61290
2022-12-14 15:35:06.060858, 1.62267
2022-12-14 15:35:06.061197, 1.62756
2022-12-14 15:35:06.094408, 1.62267
2022-12-14 15:35:06.094646, 1.64711
2022-12-14 15:35:06.095678, 1.65200
2022-12-14 15:35:06.127934, 1.67155
2022-12-14 15:35:06.128224, 1.68132
2022-12-14 15:35:06.129226, 1.69110
2022-12-14 15:35:06.161522, 1.70087
2022-12-14 15:35:06.161522, 1.70087
2022-12-14 15:35:06.194965, 1.67644
2022-12-14 15:35:06.195494, 1.67155
2022-12-14 15:35:06.195494, 1.67155
2022-12-14 15:35:06.228483, 1.66177
2022-12-14 15:35:06.229424, 1.64711
2022-12-14 15:35:06.229424, 1.64711
2022-12-14 15:35:06.261693, 1.65200
2022-12-14 15:35:06.262701, 1.66666
2022-12-14 15:35:06.294346, 1.64711
2022-12-14 15:35:06.295343, 1.64711
2022-12-14 15:35:06.295343, 1.65689
2022-12-14 15:35:06.328733, 1.65689
2022-12-14 15:35:06.328733, 1.64222
2022-12-14 15:35:06.329737, 1.64222
2022-12-14 15:35:06.362112, 1.65200
2022-12-14 15:35:06.362727, 1.65200
2022-12-14 15:35:06.395463, 1.64711
2022-12-14 15:35:06.395463, 1.65200
2022-12-14 15:35:06.396504, 1.66177
2022-12-14 15:35:06.428846, 1.65689
2022-12-14 15:35:06.429435, 1.64711
2022-12-14 15:35:06.429435, 1.64711
2022-12-14 15:35:06.462229, 1.65200
2022-12-14 15:35:06.462795, 1.66177
2022-12-14 15:35:06.495518, 1.67644
2022-12-14 15:35:06.496550, 1.64222
2022-12-14 15:35:06.496550, 1.64222
2022-12-14 15:35:06.528946, 1.64711
2022-12-14 15:35:06.529946, 1.63245
2022-12-14 15:35:06.530630, 1.63734
2022-12-14 15:35:06.563238, 1.64222
2022-12-14 15:35:06.563546, 1.66666
2022-12-14 15:35:06.596686, 1.65689
2022-12-14 15:35:06.596686, 1.63245
2022-12-14 15:35:06.596686, 1.63734
2022-12-14 15:35:06.630079, 1.64222
2022-12-14 15:35:06.630727, 1.64222
2022-12-14 15:35:06.630727, 1.65200
2022-12-14 15:35:06.663767, 1.66666
2022-12-14 15:35:06.664190, 1.64711
2022-12-14 15:35:06.697165, 1.63734
2022-12-14 15:35:06.697487, 1.63245
2022-12-14 15:35:06.697925, 1.63734
2022-12-14 15:35:06.730666, 1.64222
2022-12-14 15:35:06.731038, 1.64222
2022-12-14 15:35:06.731478, 1.63734
2022-12-14 15:35:06.764397, 1.65689
2022-12-14 15:35:06.764719, 1.64222
2022-12-14 15:35:06.798195, 1.63734
2022-12-14 15:35:06.798428, 1.63245
2022-12-14 15:35:06.798975, 1.63245
2022-12-14 15:35:06.831288, 1.63734
2022-12-14 15:35:06.832044, 1.64222
2022-12-14 15:35:06.832198, 1.63245
2022-12-14 15:35:06.865271, 1.63245
2022-12-14 15:35:06.865271, 1.64222
2022-12-14 15:35:06.898809, 1.64711
2022-12-14 15:35:06.899786, 1.62756
2022-12-14 15:35:06.899786, 1.63245
2022-12-14 15:35:06.931807, 1.63734
2022-12-14 15:35:06.931807, 1.64222
2022-12-14 15:35:06.932802, 1.63245
2022-12-14 15:35:06.965946, 1.64222
2022-12-14 15:35:06.966285, 1.65689
2022-12-14 15:35:06.999477, 1.68132
2022-12-14 15:35:06.999713, 1.67155
2022-12-14 15:35:06.999713, 1.69599
2022-12-14 15:35:07.033018, 1.71554
2022-12-14 15:35:07.033018, 1.73020
2022-12-14 15:35:07.033957, 1.72531
2022-12-14 15:35:07.066374, 1.72531
2022-12-14 15:35:07.066374, 1.72043
2022-12-14 15:35:07.099932, 1.71554
2022-12-14 15:35:07.100167, 1.70087
2022-12-14 15:35:07.100622, 1.69599
2022-12-14 15:35:07.133553, 1.69599
2022-12-14 15:35:07.133839, 1.69599
2022-12-14 15:35:07.133839, 1.68621
2022-12-14 15:35:07.167055, 1.69110
2022-12-14 15:35:07.167055, 1.69599
2022-12-14 15:35:07.200588, 1.70576
2022-12-14 15:35:07.200588, 1.71065
2022-12-14 15:35:07.201599, 1.69599
2022-12-14 15:35:07.234028, 1.69599
2022-12-14 15:35:07.234028, 1.70087
2022-12-14 15:35:07.235034, 1.69110
2022-12-14 15:35:07.266588, 1.69110
2022-12-14 15:35:07.267587, 1.69599
2022-12-14 15:35:07.301258, 1.71065
2022-12-14 15:35:07.301495, 1.70087
2022-12-14 15:35:07.302089, 1.70087
2022-12-14 15:35:07.334666, 1.70576
2022-12-14 15:35:07.334960, 1.71065
2022-12-14 15:35:07.334960, 1.72043
2022-12-14 15:35:07.368300, 1.70087
2022-12-14 15:35:07.368637, 1.69599
2022-12-14 15:35:07.401785, 1.70576
2022-12-14 15:35:07.401785, 1.70087
2022-12-14 15:35:07.402587, 1.70087
2022-12-14 15:35:07.435355, 1.71065
2022-12-14 15:35:07.435646, 1.70576
2022-12-14 15:35:07.436235, 1.69599
2022-12-14 15:35:07.468891, 1.69110
2022-12-14 15:35:07.469228, 1.69599
2022-12-14 15:35:07.502426, 1.70087
2022-12-14 15:35:07.502426, 1.70087
2022-12-14 15:35:07.503427, 1.69599
2022-12-14 15:35:07.535894, 1.70087
2022-12-14 15:35:07.535894, 1.73020
2022-12-14 15:35:07.536754, 1.69599
2022-12-14 15:35:07.569337, 1.69110
2022-12-14 15:35:07.570344, 1.69599
2022-12-14 15:35:07.602018, 1.70087
2022-12-14 15:35:07.603018, 1.70087
2022-12-14 15:35:07.603140, 1.69599
2022-12-14 15:35:07.636478, 1.70576
2022-12-14 15:35:07.636765, 1.73020
2022-12-14 15:35:07.636765, 1.70087
2022-12-14 15:35:07.670116, 1.68621
2022-12-14 15:35:07.670453, 1.69110
2022-12-14 15:35:07.703535, 1.69599
2022-12-14 15:35:07.703535, 1.71065
2022-12-14 15:35:07.704538, 1.71065
2022-12-14 15:35:07.737101, 1.69599
2022-12-14 15:35:07.737101, 1.70087
2022-12-14 15:35:07.738042, 1.71065
2022-12-14 15:35:07.770852, 1.71554
2022-12-14 15:35:07.771193, 1.73020
2022-12-14 15:35:07.804175, 1.75464
2022-12-14 15:35:07.804409, 1.76930
2022-12-14 15:35:07.804409, 1.76930
2022-12-14 15:35:07.837000, 1.76441
2022-12-14 15:35:07.837000, 1.76930
2022-12-14 15:35:07.837950, 1.79374
2022-12-14 15:35:07.870403, 1.77419
2022-12-14 15:35:07.871402, 1.73998
2022-12-14 15:35:07.904817, 1.73998
2022-12-14 15:35:07.905056, 1.73998
2022-12-14 15:35:07.905648, 1.72531
2022-12-14 15:35:07.938394, 1.72531
2022-12-14 15:35:07.938685, 1.73020
2022-12-14 15:35:07.938685, 1.73998
2022-12-14 15:35:07.971830, 1.74975
2022-12-14 15:35:07.971830, 1.73998
2022-12-14 15:35:08.005391, 1.75953
2022-12-14 15:35:08.005627, 1.72531
2022-12-14 15:35:08.006140, 1.71065
2022-12-14 15:35:08.039087, 1.70576
2022-12-14 15:35:08.039376, 1.71065
2022-12-14 15:35:08.039376, 1.71065
2022-12-14 15:35:08.072416, 1.70087
2022-12-14 15:35:08.072416, 1.69599
2022-12-14 15:35:08.105121, 1.70087
2022-12-14 15:35:08.106129, 1.71554
2022-12-14 15:35:08.106129, 1.68621
2022-12-14 15:35:08.139351, 1.67644
2022-12-14 15:35:08.139640, 1.67644
2022-12-14 15:35:08.139640, 1.68132
2022-12-14 15:35:08.173032, 1.69599
2022-12-14 15:35:08.173032, 1.65689
2022-12-14 15:35:08.206562, 1.65689
2022-12-14 15:35:08.206800, 1.66177
2022-12-14 15:35:08.207392, 1.67155
2022-12-14 15:35:08.240233, 1.64222
2022-12-14 15:35:08.240525, 1.64222
2022-12-14 15:35:08.240525, 1.66666
2022-12-14 15:35:08.273696, 1.64711
2022-12-14 15:35:08.274037, 1.63245
2022-12-14 15:35:08.307060, 1.65200
2022-12-14 15:35:08.307060, 1.64222
2022-12-14 15:35:08.308066, 1.64222
2022-12-14 15:35:08.340803, 1.66177
2022-12-14 15:35:08.341117, 1.63734
2022-12-14 15:35:08.341677, 1.64222
2022-12-14 15:35:08.374279, 1.63734
2022-12-14 15:35:08.374279, 1.62756
2022-12-14 15:35:08.407131, 1.63245
2022-12-14 15:35:08.407131, 1.63734
2022-12-14 15:35:08.408137, 1.63734
2022-12-14 15:35:08.440531, 1.62756
2022-12-14 15:35:08.440943, 1.63245
2022-12-14 15:35:08.440943, 1.64222
2022-12-14 15:35:08.474675, 1.66177
2022-12-14 15:35:08.474675, 1.63734
2022-12-14 15:35:08.507913, 1.65689
2022-12-14 15:35:08.507913, 1.68132
2022-12-14 15:35:08.508651, 1.70576
2022-12-14 15:35:08.541675, 1.71065
2022-12-14 15:35:08.541675, 1.73509
2022-12-14 15:35:08.542678, 1.71065
2022-12-14 15:35:08.575021, 1.71065
2022-12-14 15:35:08.575021, 1.68621
2022-12-14 15:35:08.608322, 1.68132
2022-12-14 15:35:08.608322, 1.67644
2022-12-14 15:35:08.609323, 1.69110
2022-12-14 15:35:08.641771, 1.67155
2022-12-14 15:35:08.641771, 1.66177
2022-12-14 15:35:08.642773, 1.66177
2022-12-14 15:35:08.675548, 1.66666
2022-12-14 15:35:08.675927, 1.66177
2022-12-14 15:35:08.709334, 1.66177
2022-12-14 15:35:08.709596, 1.67644
2022-12-14 15:35:08.709596, 1.66177
2022-12-14 15:35:08.742762, 1.64711
2022-12-14 15:35:08.743612, 1.64711
2022-12-14 15:35:08.743612, 1.64711
2022-12-14 15:35:08.775917, 1.64711
2022-12-14 15:35:08.775917, 1.64711
2022-12-14 15:35:08.810059, 1.64711
2022-12-14 15:35:08.810298, 1.65200
2022-12-14 15:35:08.810298, 1.67644
2022-12-14 15:35:08.843548, 1.64222
2022-12-14 15:35:08.843835, 1.64222
2022-12-14 15:35:08.843835, 1.64711
2022-12-14 15:35:08.877087, 1.64711
2022-12-14 15:35:08.877087, 1.63245
2022-12-14 15:35:08.910539, 1.63734
2022-12-14 15:35:08.910777, 1.65200
2022-12-14 15:35:08.910777, 1.63734
2022-12-14 15:35:08.943291, 1.62756
2022-12-14 15:35:08.944322, 1.62267
2022-12-14 15:35:08.944322, 1.61779
2022-12-14 15:35:08.977754, 1.63245
2022-12-14 15:35:08.978094, 1.62267
2022-12-14 15:35:09.011353, 1.61290
2022-12-14 15:35:09.011617, 1.61779
2022-12-14 15:35:09.012113, 1.62267
2022-12-14 15:35:09.044731, 1.62267
2022-12-14 15:35:09.045415, 1.61779
2022-12-14 15:35:09.045415, 1.63734
2022-12-14 15:35:09.076985, 1.63734
2022-12-14 15:35:09.077992, 1.61290
2022-12-14 15:35:09.111889, 1.60801
2022-12-14 15:35:09.112163, 1.61290
2022-12-14 15:35:09.112163, 1.61779
2022-12-14 15:35:09.145295, 1.61290
2022-12-14 15:35:09.145295, 1.60312
2022-12-14 15:35:09.146296, 1.60801
2022-12-14 15:35:09.178990, 1.64222
2022-12-14 15:35:09.179329, 1.60801
2022-12-14 15:35:09.212395, 1.59824
2022-12-14 15:35:09.212630, 1.60312
2022-12-14 15:35:09.213632, 1.61779
2022-12-14 15:35:09.245957, 1.63245
2022-12-14 15:35:09.246909, 1.62267
2022-12-14 15:35:09.247083, 1.64222
2022-12-14 15:35:09.279448, 1.66666
2022-12-14 15:35:09.280450, 1.68132
2022-12-14 15:35:09.312990, 1.68132
2022-12-14 15:35:09.313575, 1.67155
2022-12-14 15:35:09.314019, 1.67155
2022-12-14 15:35:09.346498, 1.66666
2022-12-14 15:35:09.347524, 1.64711
2022-12-14 15:35:09.348521, 1.64222
2022-12-14 15:35:09.379777, 1.64222
2022-12-14 15:35:09.380361, 1.64711
2022-12-14 15:35:09.413231, 1.63734
2022-12-14 15:35:09.414266, 1.64222
2022-12-14 15:35:09.414266, 1.64711
2022-12-14 15:35:09.446644, 1.65200
2022-12-14 15:35:09.447359, 1.64222
2022-12-14 15:35:09.447359, 1.64222
2022-12-14 15:35:09.480018, 1.66177
2022-12-14 15:35:09.480728, 1.64222
2022-12-14 15:35:09.513378, 1.63245
2022-12-14 15:35:09.513746, 1.62756
2022-12-14 15:35:09.514750, 1.62756
2022-12-14 15:35:09.546715, 1.64222
2022-12-14 15:35:09.547717, 1.64711
2022-12-14 15:35:09.547717, 1.63734
2022-12-14 15:35:09.580054, 1.63734
2022-12-14 15:35:09.581056, 1.64222
2022-12-14 15:35:09.614300, 1.62756
2022-12-14 15:35:09.614300, 1.62756
2022-12-14 15:35:09.615302, 1.62756
2022-12-14 15:35:09.647110, 1.64222
2022-12-14 15:35:09.648106, 1.63245
2022-12-14 15:35:09.648618, 1.62756
2022-12-14 15:35:09.681340, 1.63245
2022-12-14 15:35:09.681635, 1.66177
2022-12-14 15:35:09.714313, 1.62267
2022-12-14 15:35:09.715294, 1.62267
2022-12-14 15:35:09.715657, 1.62267
2022-12-14 15:35:09.748451, 1.63245
2022-12-14 15:35:09.748827, 1.64711
2022-12-14 15:35:09.748827, 1.61779
2022-12-14 15:35:09.781802, 1.62267
2022-12-14 15:35:09.782234, 1.62756
2022-12-14 15:35:09.815711, 1.61779
2022-12-14 15:35:09.815711, 1.61779
2022-12-14 15:35:09.816712, 1.62756
2022-12-14 15:35:09.849074, 1.62756
2022-12-14 15:35:09.849357, 1.62267
2022-12-14 15:35:09.849872, 1.61290
2022-12-14 15:35:09.882798, 1.61290
2022-12-14 15:35:09.883137, 1.62267
2022-12-14 15:35:09.915512, 1.62267
2022-12-14 15:35:09.915512, 1.64222
2022-12-14 15:35:09.916509, 1.61290
2022-12-14 15:35:09.949584, 1.61779
2022-12-14 15:35:09.949881, 1.61779
2022-12-14 15:35:09.950367, 1.61290
2022-12-14 15:35:09.983452, 1.60801
2022-12-14 15:35:09.983792, 1.63734
2022-12-14 15:35:10.017112, 1.61779
2022-12-14 15:35:10.017348, 1.60801
2022-12-14 15:35:10.017348, 1.61290
2022-12-14 15:35:10.050521, 1.61779
2022-12-14 15:35:10.050808, 1.61779
2022-12-14 15:35:10.050808, 1.60801
2022-12-14 15:35:10.084026, 1.60801
2022-12-14 15:35:10.084364, 1.61290
2022-12-14 15:35:10.117736, 1.61779
2022-12-14 15:35:10.117973, 1.59824
2022-12-14 15:35:10.117973, 1.60312
2022-12-14 15:35:10.151067, 1.60801
2022-12-14 15:35:10.151067, 1.61290
2022-12-14 15:35:10.151964, 1.60312
2022-12-14 15:35:10.184689, 1.60312
2022-12-14 15:35:10.184689, 1.60801
2022-12-14 15:35:10.217005, 1.61779
2022-12-14 15:35:10.218013, 1.60312
2022-12-14 15:35:10.218013, 1.60801
2022-12-14 15:35:10.251741, 1.60801
2022-12-14 15:35:10.252030, 1.61290
2022-12-14 15:35:10.252030, 1.61779
2022-12-14 15:35:10.285241, 1.62756
2022-12-14 15:35:10.285241, 1.65200
2022-12-14 15:35:10.318879, 1.67155
2022-12-14 15:35:10.318879, 1.67644
2022-12-14 15:35:10.319881, 1.68621
2022-12-14 15:35:10.352320, 1.69110
2022-12-14 15:35:10.352609, 1.70576
2022-12-14 15:35:10.353125, 1.70576
2022-12-14 15:35:10.385966, 1.66666
2022-12-14 15:35:10.386307, 1.65200
2022-12-14 15:35:10.419399, 1.65689
2022-12-14 15:35:10.419633, 1.64222
2022-12-14 15:35:10.420147, 1.63734
2022-12-14 15:35:10.452924, 1.63734
2022-12-14 15:35:10.453381, 1.64711
2022-12-14 15:35:10.454384, 1.64222
2022-12-14 15:35:10.485989, 1.66177
2022-12-14 15:35:10.485989, 1.64711
2022-12-14 15:35:10.520089, 1.65200
2022-12-14 15:35:10.520325, 1.64222
2022-12-14 15:35:10.520325, 1.63245
2022-12-14 15:35:10.553466, 1.63245
2022-12-14 15:35:10.553466, 1.64711
2022-12-14 15:35:10.554472, 1.64222
2022-12-14 15:35:10.587074, 1.63245
2022-12-14 15:35:10.587410, 1.64222
2022-12-14 15:35:10.620635, 1.65200
2022-12-14 15:35:10.620869, 1.66177
2022-12-14 15:35:10.620869, 1.63734
2022-12-14 15:35:10.654131, 1.64222
2022-12-14 15:35:10.654421, 1.64222
2022-12-14 15:35:10.654888, 1.64222
2022-12-14 15:35:10.687779, 1.63245
2022-12-14 15:35:10.688119, 1.63245
2022-12-14 15:35:10.721255, 1.64222
2022-12-14 15:35:10.721255, 1.64222
2022-12-14 15:35:10.722256, 1.64222
2022-12-14 15:35:10.754725, 1.64711
2022-12-14 15:35:10.755551, 1.64222
2022-12-14 15:35:10.755551, 1.63734
2022-12-14 15:35:10.787168, 1.62756
2022-12-14 15:35:10.788177, 1.62756
2022-12-14 15:35:10.821824, 1.63245
2022-12-14 15:35:10.822062, 1.63734
2022-12-14 15:35:10.822062, 1.63245
2022-12-14 15:35:10.855316, 1.64711
2022-12-14 15:35:10.855603, 1.63245
2022-12-14 15:35:10.856193, 1.63734
2022-12-14 15:35:10.888722, 1.62756
2022-12-14 15:35:10.889062, 1.62756
2022-12-14 15:35:10.922443, 1.63245
2022-12-14 15:35:10.922679, 1.63245
2022-12-14 15:35:10.923237, 1.62756
2022-12-14 15:35:10.956061, 1.62756
2022-12-14 15:35:10.956347, 1.64222
2022-12-14 15:35:10.956347, 1.63734
2022-12-14 15:35:10.989476, 1.62756
2022-12-14 15:35:10.989827, 1.62756
2022-12-14 15:35:11.023004, 1.63245
2022-12-14 15:35:11.024011, 1.63245
2022-12-14 15:35:11.024011, 1.64222
2022-12-14 15:35:11.055595, 1.63734
2022-12-14 15:35:11.055595, 1.62756
2022-12-14 15:35:11.056591, 1.63734
2022-12-14 15:35:11.090066, 1.62756
2022-12-14 15:35:11.090406, 1.62756
2022-12-14 15:35:11.123530, 1.62756
2022-12-14 15:35:11.123763, 1.63734
2022-12-14 15:35:11.124357, 1.63734
2022-12-14 15:35:11.157124, 1.65689
2022-12-14 15:35:11.157414, 1.62756
2022-12-14 15:35:11.158001, 1.63734
2022-12-14 15:35:11.190682, 1.63245
2022-12-14 15:35:11.191020, 1.62756
2022-12-14 15:35:11.224324, 1.63245
2022-12-14 15:35:11.224561, 1.64222
2022-12-14 15:35:11.224561, 1.64222
2022-12-14 15:35:11.257591, 1.63734
2022-12-14 15:35:11.258114, 1.64222
2022-12-14 15:35:11.258114, 1.67155
2022-12-14 15:35:11.289829, 1.63734
2022-12-14 15:35:11.290829, 1.63245
2022-12-14 15:35:11.324679, 1.63734
2022-12-14 15:35:11.324916, 1.64711
2022-12-14 15:35:11.325470, 1.64222
2022-12-14 15:35:11.357764, 1.64222
2022-12-14 15:35:11.357764, 1.65689
2022-12-14 15:35:11.358761, 1.68621
2022-12-14 15:35:11.391903, 1.69110
2022-12-14 15:35:11.392243, 1.70087
2022-12-14 15:35:11.425411, 1.72043
2022-12-14 15:35:11.425647, 1.73020
2022-12-14 15:35:11.426253, 1.72531
2022-12-14 15:35:11.459019, 1.70576
2022-12-14 15:35:11.459305, 1.69599
2022-12-14 15:35:11.459757, 1.69599
2022-12-14 15:35:11.492644, 1.68621
2022-12-14 15:35:11.493025, 1.67155
2022-12-14 15:35:11.525805, 1.67644
2022-12-14 15:35:11.526519, 1.69110
2022-12-14 15:35:11.526519, 1.68621
2022-12-14 15:35:11.559047, 1.67644
2022-12-14 15:35:11.559047, 1.67155
2022-12-14 15:35:11.559047, 1.68132
2022-12-14 15:35:11.591790, 1.67644
2022-12-14 15:35:11.592790, 1.66666
2022-12-14 15:35:11.626542, 1.67155
2022-12-14 15:35:11.626779, 1.68132
2022-12-14 15:35:11.627379, 1.69599
2022-12-14 15:35:11.660004, 1.70087
2022-12-14 15:35:11.660004, 1.69599
2022-12-14 15:35:11.661015, 1.68132
2022-12-14 15:35:11.693589, 1.68621
2022-12-14 15:35:11.693931, 1.67644
2022-12-14 15:35:11.727267, 1.67644
2022-12-14 15:35:11.727505, 1.68132
2022-12-14 15:35:11.728016, 1.68621
2022-12-14 15:35:11.760752, 1.67644
2022-12-14 15:35:11.761082, 1.67155
2022-12-14 15:35:11.761082, 1.68132
2022-12-14 15:35:11.793224, 1.68132
2022-12-14 15:35:11.794225, 1.67155
2022-12-14 15:35:11.827055, 1.67155
2022-12-14 15:35:11.828062, 1.67644
2022-12-14 15:35:11.828062, 1.68621
2022-12-14 15:35:11.860841, 1.67644
2022-12-14 15:35:11.861129, 1.68132
2022-12-14 15:35:11.861129, 1.69110
2022-12-14 15:35:11.894678, 1.68621
2022-12-14 15:35:11.894678, 1.67644
2022-12-14 15:35:11.928301, 1.67155
2022-12-14 15:35:11.928536, 1.67644
2022-12-14 15:35:11.928536, 1.68621
2022-12-14 15:35:11.961854, 1.68132
2022-12-14 15:35:11.962144, 1.68132
2022-12-14 15:35:11.962733, 1.68132
2022-12-14 15:35:11.995183, 1.69110
2022-12-14 15:35:11.995183, 1.67644
2022-12-14 15:35:12.028895, 1.67644
2022-12-14 15:35:12.028895, 1.68132
2022-12-14 15:35:12.029896, 1.69599
2022-12-14 15:35:12.062478, 1.68621
2022-12-14 15:35:12.062777, 1.68621
2022-12-14 15:35:12.063317, 1.68621
2022-12-14 15:35:12.096094, 1.69110
2022-12-14 15:35:12.096434, 1.68621
2022-12-14 15:35:12.129488, 1.68132
2022-12-14 15:35:12.130238, 1.70576
2022-12-14 15:35:12.130238, 1.69110
2022-12-14 15:35:12.162537, 1.69110
2022-12-14 15:35:12.162537, 1.68132
2022-12-14 15:35:12.163545, 1.68621
2022-12-14 15:35:12.195903, 1.69110
2022-12-14 15:35:12.195903, 1.69110
2022-12-14 15:35:12.229961, 1.68621
2022-12-14 15:35:12.230196, 1.68132
2022-12-14 15:35:12.230196, 1.69599
2022-12-14 15:35:12.263472, 1.69599
2022-12-14 15:35:12.263760, 1.71554
2022-12-14 15:35:12.263760, 1.69110
2022-12-14 15:35:12.297030, 1.69110
2022-12-14 15:35:12.297885, 1.69110
2022-12-14 15:35:12.330562, 1.68621
2022-12-14 15:35:12.330562, 1.68621
2022-12-14 15:35:12.331596, 1.69599
2022-12-14 15:35:12.364155, 1.70576
2022-12-14 15:35:12.364611, 1.71554
2022-12-14 15:35:12.364611, 1.69110
2022-12-14 15:35:12.397580, 1.70576
2022-12-14 15:35:12.397580, 1.72531
2022-12-14 15:35:12.431535, 1.72531
2022-12-14 15:35:12.431535, 1.73509
2022-12-14 15:35:12.432540, 1.77419
2022-12-14 15:35:12.464592, 1.76930
2022-12-14 15:35:12.464592, 1.72043
2022-12-14 15:35:12.465600, 1.71065
2022-12-14 15:35:12.497200, 1.70576
2022-12-14 15:35:12.498208, 1.69599
2022-12-14 15:35:12.530934, 1.67155
2022-12-14 15:35:12.531551, 1.66666
2022-12-14 15:35:12.531551, 1.66177
2022-12-14 15:35:12.564564, 1.66666
2022-12-14 15:35:12.564564, 1.65689
2022-12-14 15:35:12.565568, 1.65200
2022-12-14 15:35:12.598496, 1.65689
2022-12-14 15:35:12.598496, 1.66666
2022-12-14 15:35:12.631261, 1.64711
2022-12-14 15:35:12.632265, 1.64222
2022-12-14 15:35:12.632600, 1.64222
2022-12-14 15:35:12.665292, 1.65200
2022-12-14 15:35:12.665292, 1.63734
2022-12-14 15:35:12.666295, 1.63734
2022-12-14 15:35:12.698313, 1.63734
2022-12-14 15:35:12.699315, 1.65200
2022-12-14 15:35:12.732846, 1.67155
2022-12-14 15:35:12.733082, 1.63734
2022-12-14 15:35:12.733553, 1.64222
2022-12-14 15:35:12.765921, 1.64711
2022-12-14 15:35:12.766194, 1.64222
2022-12-14 15:35:12.766194, 1.63734
2022-12-14 15:35:12.799369, 1.63245
2022-12-14 15:35:12.799369, 1.64222
2022-12-14 15:35:12.833138, 1.63734
2022-12-14 15:35:12.833138, 1.65689
2022-12-14 15:35:12.834139, 1.63245
2022-12-14 15:35:12.866206, 1.64222
2022-12-14 15:35:12.866819, 1.63734
2022-12-14 15:35:12.867783, 1.63734
2022-12-14 15:35:12.900048, 1.63245
2022-12-14 15:35:12.900355, 1.63734
2022-12-14 15:35:12.934138, 1.63734
2022-12-14 15:35:12.934421, 1.63245
2022-12-14 15:35:12.935014, 1.66666
2022-12-14 15:35:12.967470, 1.64222
2022-12-14 15:35:12.967756, 1.63734
2022-12-14 15:35:12.967756, 1.63245
2022-12-14 15:35:13.000575, 1.63734
2022-12-14 15:35:13.000575, 1.64222
2022-12-14 15:35:13.034585, 1.63734
2022-12-14 15:35:13.034823, 1.63245
2022-12-14 15:35:13.034823, 1.63245
2022-12-14 15:35:13.068121, 1.64222
2022-12-14 15:35:13.068410, 1.64711
2022-12-14 15:35:13.068955, 1.63245
2022-12-14 15:35:13.100692, 1.63245
2022-12-14 15:35:13.101689, 1.66177
2022-12-14 15:35:13.135120, 1.64222
2022-12-14 15:35:13.135120, 1.62756
2022-12-14 15:35:13.136120, 1.62756
2022-12-14 15:35:13.167898, 1.64222
2022-12-14 15:35:13.168542, 1.65689
2022-12-14 15:35:13.168542, 1.62756
2022-12-14 15:35:13.202290, 1.62756
2022-12-14 15:35:13.202630, 1.64711
2022-12-14 15:35:13.235779, 1.67155
2022-12-14 15:35:13.236015, 1.63245
2022-12-14 15:35:13.236015, 1.63245
2022-12-14 15:35:13.269325, 1.63245
2022-12-14 15:35:13.269614, 1.64222
2022-12-14 15:35:13.269614, 1.64711
2022-12-14 15:35:13.303023, 1.64222
2022-12-14 15:35:13.303419, 1.63245
2022-12-14 15:35:13.336410, 1.63734
2022-12-14 15:35:13.336701, 1.62756
2022-12-14 15:35:13.336701, 1.63245
2022-12-14 15:35:13.369890, 1.63734
2022-12-14 15:35:13.369890, 1.65689
2022-12-14 15:35:13.370796, 1.66177
2022-12-14 15:35:13.403334, 1.67644
2022-12-14 15:35:13.403897, 1.69110
2022-12-14 15:35:13.436847, 1.70087
2022-12-14 15:35:13.436847, 1.69110
2022-12-14 15:35:13.437849, 1.70087
2022-12-14 15:35:13.470235, 1.70576
2022-12-14 15:35:13.470663, 1.67644
2022-12-14 15:35:13.470663, 1.65689
2022-12-14 15:35:13.503984, 1.64711
2022-12-14 15:35:13.503984, 1.64711
2022-12-14 15:35:13.537560, 1.65200
2022-12-14 15:35:13.537798, 1.64711
2022-12-14 15:35:13.537798, 1.63734
2022-12-14 15:35:13.571046, 1.64222
2022-12-14 15:35:13.571333, 1.65200
2022-12-14 15:35:13.571333, 1.64222
2022-12-14 15:35:13.604570, 1.64222
2022-12-14 15:35:13.604910, 1.64711
2022-12-14 15:35:13.638160, 1.66177
2022-12-14 15:35:13.638397, 1.63734
2022-12-14 15:35:13.638397, 1.63245
2022-12-14 15:35:13.671499, 1.63734
2022-12-14 15:35:13.671499, 1.64222
2022-12-14 15:35:13.672311, 1.66666
2022-12-14 15:35:13.705235, 1.63245
2022-12-14 15:35:13.705574, 1.63734
2022-12-14 15:35:13.738608, 1.63734
2022-12-14 15:35:13.738608, 1.63734
2022-12-14 15:35:13.739608, 1.63245
2022-12-14 15:35:13.772140, 1.63245
2022-12-14 15:35:13.773147, 1.63734
2022-12-14 15:35:13.773147, 1.63245
2022-12-14 15:35:13.805728, 1.62267
2022-12-14 15:35:13.805728, 1.62267
2022-12-14 15:35:13.839294, 1.62756
2022-12-14 15:35:13.839528, 1.63245
2022-12-14 15:35:13.840124, 1.62267
2022-12-14 15:35:13.872958, 1.65200
2022-12-14 15:35:13.873250, 1.62756
2022-12-14 15:35:13.873250, 1.62756
2022-12-14 15:35:13.906546, 1.62267
2022-12-14 15:35:13.906909, 1.62267
2022-12-14 15:35:13.940083, 1.63245
2022-12-14 15:35:13.940352, 1.64222
2022-12-14 15:35:13.940822, 1.61779
2022-12-14 15:35:13.973435, 1.61779
2022-12-14 15:35:13.973722, 1.62267
2022-12-14 15:35:13.974311, 1.63245
2022-12-14 15:35:14.006966, 1.63245
2022-12-14 15:35:14.007305, 1.61779
2022-12-14 15:35:14.040429, 1.62267
2022-12-14 15:35:14.040429, 1.62756
2022-12-14 15:35:14.041430, 1.61779
2022-12-14 15:35:14.073953, 1.61779
2022-12-14 15:35:14.074733, 1.62267
2022-12-14 15:35:14.074733, 1.62756
2022-12-14 15:35:14.106539, 1.62267
2022-12-14 15:35:14.107546, 1.64711
2022-12-14 15:35:14.140604, 1.65200
2022-12-14 15:35:14.140604, 1.62756
2022-12-14 15:35:14.140604, 1.61779
2022-12-14 15:35:14.173375, 1.61779
2022-12-14 15:35:14.174374, 1.62267
2022-12-14 15:35:14.174374, 1.65200
2022-12-14 15:35:14.208079, 1.61779
2022-12-14 15:35:14.208425, 1.61779
2022-12-14 15:35:14.241897, 1.62267
2022-12-14 15:35:14.242169, 1.62756
2022-12-14 15:35:14.242677, 1.62267
2022-12-14 15:35:14.275369, 1.62756
2022-12-14 15:35:14.275657, 1.61779
2022-12-14 15:35:14.276244, 1.62267
2022-12-14 15:35:14.308699, 1.61779
2022-12-14 15:35:14.308699, 1.61779
2022-12-14 15:35:14.342263, 1.62267
2022-12-14 15:35:14.342263, 1.65200
2022-12-14 15:35:14.343197, 1.63734
2022-12-14 15:35:14.374878, 1.65200
2022-12-14 15:35:14.375885, 1.67155
2022-12-14 15:35:14.375885, 1.69110
2022-12-14 15:35:14.408936, 1.69110
2022-12-14 15:35:14.409260, 1.68621
2022-12-14 15:35:14.442903, 1.68132
2022-12-14 15:35:14.443140, 1.67644
2022-12-14 15:35:14.443733, 1.66666
2022-12-14 15:35:14.476444, 1.65200
2022-12-14 15:35:14.476444, 1.67644
2022-12-14 15:35:14.477448, 1.65200
2022-12-14 15:35:14.510043, 1.67155
2022-12-14 15:35:14.510382, 1.65200
2022-12-14 15:35:14.543607, 1.64222
2022-12-14 15:35:14.543844, 1.64711
2022-12-14 15:35:14.543844, 1.64711
2022-12-14 15:35:14.577029, 1.64222
2022-12-14 15:35:14.577315, 1.64222
2022-12-14 15:35:14.577825, 1.64711
2022-12-14 15:35:14.610551, 1.64711
2022-12-14 15:35:14.610936, 1.63734
2022-12-14 15:35:14.643972, 1.64222
2022-12-14 15:35:14.643972, 1.65689
2022-12-14 15:35:14.644870, 1.64711
2022-12-14 15:35:14.677565, 1.63734
2022-12-14 15:35:14.678571, 1.64222
2022-12-14 15:35:14.678571, 1.64711
2022-12-14 15:35:14.710433, 1.65689
2022-12-14 15:35:14.710433, 1.63734
2022-12-14 15:35:14.744468, 1.63734
2022-12-14 15:35:14.744705, 1.63734
2022-12-14 15:35:14.744705, 1.64222
2022-12-14 15:35:14.778227, 1.63245
2022-12-14 15:35:14.778227, 1.63245
2022-12-14 15:35:14.779228, 1.63734
2022-12-14 15:35:14.811774, 1.64711
2022-12-14 15:35:14.812114, 1.63245
2022-12-14 15:35:14.845360, 1.63245
2022-12-14 15:35:14.845597, 1.63734
2022-12-14 15:35:14.845597, 1.64222
2022-12-14 15:35:14.878808, 1.63245
2022-12-14 15:35:14.879487, 1.63245
2022-12-14 15:35:14.879487, 1.64222
2022-12-14 15:35:14.912363, 1.63734
2022-12-14 15:35:14.912363, 1.62756
2022-12-14 15:35:14.946127, 1.62756
2022-12-14 15:35:14.946362, 1.62756
2022-12-14 15:35:14.946952, 1.63734
2022-12-14 15:35:14.979447, 1.62756
2022-12-14 15:35:14.979922, 1.62756
2022-12-14 15:35:14.979922, 1.63245
2022-12-14 15:35:15.011736, 1.63734
2022-12-14 15:35:15.012744, 1.62756
2022-12-14 15:35:15.045085, 1.62267
2022-12-14 15:35:15.046094, 1.63245
2022-12-14 15:35:15.046094, 1.63734
2022-12-14 15:35:15.079995, 1.63245
2022-12-14 15:35:15.080281, 1.63734
2022-12-14 15:35:15.080281, 1.63245
2022-12-14 15:35:15.113534, 1.63734
2022-12-14 15:35:15.113873, 1.63245
2022-12-14 15:35:15.146996, 1.62267
2022-12-14 15:35:15.146996, 1.63245
2022-12-14 15:35:15.147838, 1.66177
2022-12-14 15:35:15.180563, 1.63245
2022-12-14 15:35:15.180563, 1.62756
2022-12-14 15:35:15.181414, 1.62756
2022-12-14 15:35:15.214228, 1.63734
2022-12-14 15:35:15.214568, 1.62756
2022-12-14 15:35:15.247670, 1.62267
2022-12-14 15:35:15.247670, 1.62267
2022-12-14 15:35:15.248671, 1.64711
2022-12-14 15:35:15.281515, 1.63245
2022-12-14 15:35:15.282519, 1.62267
2022-12-14 15:35:15.282519, 1.62756
2022-12-14 15:35:15.313789, 1.63245
2022-12-14 15:35:15.314852, 1.63245
2022-12-14 15:35:15.348007, 1.63245
2022-12-14 15:35:15.348873, 1.66177
2022-12-14 15:35:15.348873, 1.65689
2022-12-14 15:35:15.380983, 1.67155
2022-12-14 15:35:15.380983, 1.67644
2022-12-14 15:35:15.381936, 1.69599
2022-12-14 15:35:15.415192, 1.70576
2022-12-14 15:35:15.415946, 1.70576
2022-12-14 15:35:15.448965, 1.68621
2022-12-14 15:35:15.448965, 1.67644
2022-12-14 15:35:15.449970, 1.67644
2022-12-14 15:35:15.482295, 1.66666
2022-12-14 15:35:15.482979, 1.68132
2022-12-14 15:35:15.482979, 1.65200
2022-12-14 15:35:15.516016, 1.65200
2022-12-14 15:35:15.516016, 1.65200
2022-12-14 15:35:15.549064, 1.64222
2022-12-14 15:35:15.549064, 1.64711
2022-12-14 15:35:15.550077, 1.65200
2022-12-14 15:35:15.582428, 1.65689
2022-12-14 15:35:15.583075, 1.64711
2022-12-14 15:35:15.583450, 1.65200
2022-12-14 15:35:15.616124, 1.67155
2022-12-14 15:35:15.616124, 1.65200
2022-12-14 15:35:15.649139, 1.64222
2022-12-14 15:35:15.649139, 1.64711
2022-12-14 15:35:15.650143, 1.65200
2022-12-14 15:35:15.683059, 1.66177
2022-12-14 15:35:15.683059, 1.65689
2022-12-14 15:35:15.684057, 1.64711
2022-12-14 15:35:15.716647, 1.65200
2022-12-14 15:35:15.716647, 1.65689
2022-12-14 15:35:15.749666, 1.64222
2022-12-14 15:35:15.749666, 1.63734
2022-12-14 15:35:15.750676, 1.64222
2022-12-14 15:35:15.782741, 1.64711
2022-12-14 15:35:15.783746, 1.63734
2022-12-14 15:35:15.784250, 1.63734
2022-12-14 15:35:15.817096, 1.63734
2022-12-14 15:35:15.817495, 1.65200
2022-12-14 15:35:15.850801, 1.64711
2022-12-14 15:35:15.851096, 1.65200
2022-12-14 15:35:15.851535, 1.67155
2022-12-14 15:35:15.884411, 1.64222
2022-12-14 15:35:15.884411, 1.63734
2022-12-14 15:35:15.885206, 1.63245
2022-12-14 15:35:15.917781, 1.63245
2022-12-14 15:35:15.918300, 1.64222
2022-12-14 15:35:15.951421, 1.63245
2022-12-14 15:35:15.952059, 1.62756
2022-12-14 15:35:15.952059, 1.63734
2022-12-14 15:35:15.985029, 1.63734
2022-12-14 15:35:15.985319, 1.63734
2022-12-14 15:35:15.985908, 1.62756
2022-12-14 15:35:16.018539, 1.63245
2022-12-14 15:35:16.018539, 1.64711
2022-12-14 15:35:16.052271, 1.63734
2022-12-14 15:35:16.052506, 1.62756
2022-12-14 15:35:16.052506, 1.63245
2022-12-14 15:35:16.085751, 1.63734
2022-12-14 15:35:16.085751, 1.63734
2022-12-14 15:35:16.086689, 1.63245
2022-12-14 15:35:16.119301, 1.63734
2022-12-14 15:35:16.119640, 1.64711
2022-12-14 15:35:16.152868, 1.64711
2022-12-14 15:35:16.153105, 1.65200
2022-12-14 15:35:16.153105, 1.63245
2022-12-14 15:35:16.186260, 1.63734
2022-12-14 15:35:16.186260, 1.64222
2022-12-14 15:35:16.187056, 1.63245
2022-12-14 15:35:16.219936, 1.63245
2022-12-14 15:35:16.220274, 1.63734
2022-12-14 15:35:16.253377, 1.63734
2022-12-14 15:35:16.253612, 1.63245
2022-12-14 15:35:16.254121, 1.63245
2022-12-14 15:35:16.286887, 1.66177
2022-12-14 15:35:16.287597, 1.67155
2022-12-14 15:35:16.287597, 1.63245
2022-12-14 15:35:16.320055, 1.63245
2022-12-14 15:35:16.320055, 1.64711
2022-12-14 15:35:16.353913, 1.66177
2022-12-14 15:35:16.353913, 1.67155
2022-12-14 15:35:16.354797, 1.69110
2022-12-14 15:35:16.387508, 1.71065
2022-12-14 15:35:16.387797, 1.73020
2022-12-14 15:35:16.387797, 1.72043
2022-12-14 15:35:16.421183, 1.71554
2022-12-14 15:35:16.421523, 1.71065
2022-12-14 15:35:16.454591, 1.70576
2022-12-14 15:35:16.454827, 1.68621
2022-12-14 15:35:16.454827, 1.68132
2022-12-14 15:35:16.488226, 1.68132
2022-12-14 15:35:16.488514, 1.68621
2022-12-14 15:35:16.488514, 1.67155
2022-12-14 15:35:16.521636, 1.68621
2022-12-14 15:35:16.521976, 1.68132
2022-12-14 15:35:16.555166, 1.68621
2022-12-14 15:35:16.555403, 1.68132
2022-12-14 15:35:16.555403, 1.67644
2022-12-14 15:35:16.588672, 1.67644
2022-12-14 15:35:16.588965, 1.68132
2022-12-14 15:35:16.589474, 1.67155
2022-12-14 15:35:16.622786, 1.67155
2022-12-14 15:35:16.622786, 1.67644
2022-12-14 15:35:16.655022, 1.69110
2022-12-14 15:35:16.655022, 1.68621
2022-12-14 15:35:16.656018, 1.68621
2022-12-14 15:35:16.689316, 1.68621
2022-12-14 15:35:16.689603, 1.69599
2022-12-14 15:35:16.689603, 1.69110
2022-12-14 15:35:16.722994, 1.68132
2022-12-14 15:35:16.723377, 1.69110
2022-12-14 15:35:16.756560, 1.68621
2022-12-14 15:35:16.756841, 1.68621
2022-12-14 15:35:16.757440, 1.67644
2022-12-14 15:35:16.789885, 1.68132
2022-12-14 15:35:16.790172, 1.68621
2022-12-14 15:35:16.790681, 1.67644
2022-12-14 15:35:16.823412, 1.67644
2022-12-14 15:35:16.823752, 1.67644
2022-12-14 15:35:16.856984, 1.68132
2022-12-14 15:35:16.857219, 1.69110
2022-12-14 15:35:16.857778, 1.68132
2022-12-14 15:35:16.890470, 1.69599
2022-12-14 15:35:16.890759, 1.68132
2022-12-14 15:35:16.890759, 1.68621
2022-12-14 15:35:16.924032, 1.67155
2022-12-14 15:35:16.924032, 1.67155
2022-12-14 15:35:16.956875, 1.67644
2022-12-14 15:35:16.956875, 1.68132
2022-12-14 15:35:16.957561, 1.69110
2022-12-14 15:35:16.991109, 1.67155
2022-12-14 15:35:16.991395, 1.67644
2022-12-14 15:35:16.991395, 1.68132
2022-12-14 15:35:17.024565, 1.67155
2022-12-14 15:35:17.024565, 1.67155
2022-12-14 15:35:17.058327, 1.67155
2022-12-14 15:35:17.058603, 1.68621
2022-12-14 15:35:17.058603, 1.68621
2022-12-14 15:35:17.091596, 1.67155
2022-12-14 15:35:17.091884, 1.68132
2022-12-14 15:35:17.092348, 1.67644
2022-12-14 15:35:17.125356, 1.66666
2022-12-14 15:35:17.125694, 1.66666
2022-12-14 15:35:17.158731, 1.67155
2022-12-14 15:35:17.158965, 1.68132
2022-12-14 15:35:17.158965, 1.68132
2022-12-14 15:35:17.192296, 1.68621
2022-12-14 15:35:17.192749, 1.70087
2022-12-14 15:35:17.193752, 1.68132
2022-12-14 15:35:17.224576, 1.67155
2022-12-14 15:35:17.225614, 1.67155
2022-12-14 15:35:17.259256, 1.68621
2022-12-14 15:35:17.259496, 1.71065
2022-12-14 15:35:17.259496, 1.72043
2022-12-14 15:35:17.292893, 1.73509
2022-12-14 15:35:17.293183, 1.75464
2022-12-14 15:35:17.293183, 1.76441
2022-12-14 15:35:17.326301, 1.74975
2022-12-14 15:35:17.326301, 1.74486
2022-12-14 15:35:17.359908, 1.73509
2022-12-14 15:35:17.360145, 1.73020
2022-12-14 15:35:17.360692, 1.71554
2022-12-14 15:35:17.393614, 1.70576
2022-12-14 15:35:17.393901, 1.70576
2022-12-14 15:35:17.393901, 1.71065
2022-12-14 15:35:17.426920, 1.70576
2022-12-14 15:35:17.426920, 1.70087
2022-12-14 15:35:17.460005, 1.70087
2022-12-14 15:35:17.460005, 1.70576
2022-12-14 15:35:17.461022, 1.72531
2022-12-14 15:35:17.493986, 1.72043
2022-12-14 15:35:17.494274, 1.69110
2022-12-14 15:35:17.494274, 1.69599
2022-12-14 15:35:17.527528, 1.69110
2022-12-14 15:35:17.527528, 1.68621
2022-12-14 15:35:17.561165, 1.69110
2022-12-14 15:35:17.561402, 1.70087
2022-12-14 15:35:17.561402, 1.69599
2022-12-14 15:35:17.594594, 1.70576
2022-12-14 15:35:17.594884, 1.70576
2022-12-14 15:35:17.594884, 1.69110
2022-12-14 15:35:17.628152, 1.68621
2022-12-14 15:35:17.628492, 1.68132
2022-12-14 15:35:17.661592, 1.68132
2022-12-14 15:35:17.662377, 1.71554
2022-12-14 15:35:17.662377, 1.68132
2022-12-14 15:35:17.695182, 1.67155
2022-12-14 15:35:17.695182, 1.67155
2022-12-14 15:35:17.696184, 1.68132
2022-12-14 15:35:17.728640, 1.68132
2022-12-14 15:35:17.729647, 1.67155
2022-12-14 15:35:17.761105, 1.67644
2022-12-14 15:35:17.762112, 1.67155
2022-12-14 15:35:17.762112, 1.67155
2022-12-14 15:35:17.795707, 1.66666
2022-12-14 15:35:17.795707, 1.66666
2022-12-14 15:35:17.796711, 1.69110
2022-12-14 15:35:17.829329, 1.66666
2022-12-14 15:35:17.829669, 1.65689
2022-12-14 15:35:17.862842, 1.65689
2022-12-14 15:35:17.862842, 1.66177
2022-12-14 15:35:17.863843, 1.66177
2022-12-14 15:35:17.896306, 1.65200
2022-12-14 15:35:17.896306, 1.65200
2022-12-14 15:35:17.897313, 1.65689
2022-12-14 15:35:17.930036, 1.66177
2022-12-14 15:35:17.930374, 1.65200
2022-12-14 15:35:17.963671, 1.65689
2022-12-14 15:35:17.963939, 1.65200
2022-12-14 15:35:17.963939, 1.65689
2022-12-14 15:35:17.997203, 1.64222
2022-12-14 15:35:17.997203, 1.64222
2022-12-14 15:35:17.998204, 1.66177
2022-12-14 15:35:18.030828, 1.65200
2022-12-14 15:35:18.031835, 1.64222
2022-12-14 15:35:18.063218, 1.64711
2022-12-14 15:35:18.063218, 1.66666
2022-12-14 15:35:18.064041, 1.70087
2022-12-14 15:35:18.097442, 1.70087
2022-12-14 15:35:18.097442, 1.71554
2022-12-14 15:35:18.098444, 1.73509
2022-12-14 15:35:18.131165, 1.74486
2022-12-14 15:35:18.131506, 1.73509
2022-12-14 15:35:18.164571, 1.73998
2022-12-14 15:35:18.164806, 1.73998
2022-12-14 15:35:18.164806, 1.72531
2022-12-14 15:35:18.198225, 1.73509
2022-12-14 15:35:18.198225, 1.70576
2022-12-14 15:35:18.199226, 1.70087
2022-12-14 15:35:18.231623, 1.70576
2022-12-14 15:35:18.231623, 1.70087
2022-12-14 15:35:18.265278, 1.69599
2022-12-14 15:35:18.265278, 1.72043
2022-12-14 15:35:18.266287, 1.71065
2022-12-14 15:35:18.298966, 1.70576
2022-12-14 15:35:18.299972, 1.69110
2022-12-14 15:35:18.299972, 1.69110
2022-12-14 15:35:18.331388, 1.69599
2022-12-14 15:35:18.331388, 1.68621
2022-12-14 15:35:18.365635, 1.67644
2022-12-14 15:35:18.365635, 1.67644
2022-12-14 15:35:18.366645, 1.68621
2022-12-14 15:35:18.398988, 1.68621
2022-12-14 15:35:18.398988, 1.68132
2022-12-14 15:35:18.399990, 1.68132
2022-12-14 15:35:18.432213, 1.69599
2022-12-14 15:35:18.432213, 1.68132
2022-12-14 15:35:18.466209, 1.67155
2022-12-14 15:35:18.466209, 1.67155
2022-12-14 15:35:18.467211, 1.67644
2022-12-14 15:35:18.499785, 1.67155
2022-12-14 15:35:18.500450, 1.66177
2022-12-14 15:35:18.500450, 1.65689
2022-12-14 15:35:18.533466, 1.66666
2022-12-14 15:35:18.533466, 1.66177
2022-12-14 15:35:18.566687, 1.65200
2022-12-14 15:35:18.566687, 1.64711
2022-12-14 15:35:18.567692, 1.65200
2022-12-14 15:35:18.600027, 1.65200
2022-12-14 15:35:18.600700, 1.64222
2022-12-14 15:35:18.600700, 1.63734
2022-12-14 15:35:18.633355, 1.64222
2022-12-14 15:35:18.633984, 1.64222
2022-12-14 15:35:18.666458, 1.66177
2022-12-14 15:35:18.667446, 1.65200
2022-12-14 15:35:18.667446, 1.65200
2022-12-14 15:35:18.700297, 1.63734
2022-12-14 15:35:18.700297, 1.62756
2022-12-14 15:35:18.701300, 1.62267
2022-12-14 15:35:18.733411, 1.63245
2022-12-14 15:35:18.734452, 1.63734
2022-12-14 15:35:18.767428, 1.61779
2022-12-14 15:35:18.767428, 1.61779
2022-12-14 15:35:18.768430, 1.62756
2022-12-14 15:35:18.800509, 1.65689
2022-12-14 15:35:18.801511, 1.61779
2022-12-14 15:35:18.801511, 1.61290
2022-12-14 15:35:18.835224, 1.62756
2022-12-14 15:35:18.835224, 1.63734
2022-12-14 15:35:18.867931, 1.64711
2022-12-14 15:35:18.867931, 1.67155
2022-12-14 15:35:18.868879, 1.70087
2022-12-14 15:35:18.901895, 1.73020
2022-12-14 15:35:18.902555, 1.73509
2022-12-14 15:35:18.902555, 1.73509
2022-12-14 15:35:18.935566, 1.73509
2022-12-14 15:35:18.935566, 1.73509
2022-12-14 15:35:18.968910, 1.73020
2022-12-14 15:35:18.969305, 1.71554
2022-12-14 15:35:18.969709, 1.71065
2022-12-14 15:35:19.002762, 1.71554
2022-12-14 15:35:19.003050, 1.70576
2022-12-14 15:35:19.003050, 1.72043
2022-12-14 15:35:19.035926, 1.71554
2022-12-14 15:35:19.036581, 1.72531
2022-12-14 15:35:19.069767, 1.71065
2022-12-14 15:35:19.069767, 1.70087
2022-12-14 15:35:19.070653, 1.70087
2022-12-14 15:35:19.102806, 1.69599
2022-12-14 15:35:19.102806, 1.69110
2022-12-14 15:35:19.103802, 1.68621
2022-12-14 15:35:19.136859, 1.69110
2022-12-14 15:35:19.137203, 1.69599
2022-12-14 15:35:19.170367, 1.69110
2022-12-14 15:35:19.170603, 1.68132
2022-12-14 15:35:19.171119, 1.68132
2022-12-14 15:35:19.203995, 1.69110
2022-12-14 15:35:19.204285, 1.68621
2022-12-14 15:35:19.204285, 1.68132
2022-12-14 15:35:19.237281, 1.68621
2022-12-14 15:35:19.237281, 1.71065
2022-12-14 15:35:19.270958, 1.68132
2022-12-14 15:35:19.271988, 1.66666
2022-12-14 15:35:19.271988, 1.66666
2022-12-14 15:35:19.303833, 1.67644
2022-12-14 15:35:19.303833, 1.70087
2022-12-14 15:35:19.304841, 1.65689
2022-12-14 15:35:19.337950, 1.65689
2022-12-14 15:35:19.338289, 1.66177
2022-12-14 15:35:19.371498, 1.66177
2022-12-14 15:35:19.371498, 1.65200
2022-12-14 15:35:19.372499, 1.64222
2022-12-14 15:35:19.405209, 1.64711
2022-12-14 15:35:19.405495, 1.64711
2022-12-14 15:35:19.405495, 1.63734
2022-12-14 15:35:19.438567, 1.63245
2022-12-14 15:35:19.438567, 1.64711
2022-12-14 15:35:19.472176, 1.63734
2022-12-14 15:35:19.472413, 1.62756
2022-12-14 15:35:19.472927, 1.62756
2022-12-14 15:35:19.505819, 1.63245
2022-12-14 15:35:19.506108, 1.63245
2022-12-14 15:35:19.506108, 1.61779
2022-12-14 15:35:19.538963, 1.61290
2022-12-14 15:35:19.539304, 1.62267
2022-12-14 15:35:19.572485, 1.62267
2022-12-14 15:35:19.573492, 1.61290
2022-12-14 15:35:19.573492, 1.61290
2022-12-14 15:35:19.605591, 1.61779
2022-12-14 15:35:19.605591, 1.61779
2022-12-14 15:35:19.606437, 1.60801
2022-12-14 15:35:19.639776, 1.60801
2022-12-14 15:35:19.640114, 1.64222
2022-12-14 15:35:19.673338, 1.62756
2022-12-14 15:35:19.673575, 1.63734
2022-12-14 15:35:19.674175, 1.66177
2022-12-14 15:35:19.707021, 1.70087
2022-12-14 15:35:19.707308, 1.73020
2022-12-14 15:35:19.707308, 1.74486
2022-12-14 15:35:19.740247, 1.74975
2022-12-14 15:35:19.740585, 1.75953
2022-12-14 15:35:19.774069, 1.76441
2022-12-14 15:35:19.774304, 1.75953
2022-12-14 15:35:19.774909, 1.73998
2022-12-14 15:35:19.807493, 1.73998
2022-12-14 15:35:19.807782, 1.73509
2022-12-14 15:35:19.808254, 1.73020
2022-12-14 15:35:19.840713, 1.72043
2022-12-14 15:35:19.840713, 1.72043
2022-12-14 15:35:19.874446, 1.75953
2022-12-14 15:35:19.874446, 1.72531
2022-12-14 15:35:19.875461, 1.71554
2022-12-14 15:35:19.907656, 1.71554
2022-12-14 15:35:19.907924, 1.71554
2022-12-14 15:35:19.908366, 1.71065
2022-12-14 15:35:19.941401, 1.69599
2022-12-14 15:35:19.941740, 1.69110
2022-12-14 15:35:19.975134, 1.70087
2022-12-14 15:35:19.975372, 1.71065
2022-12-14 15:35:19.975372, 1.68621
2022-12-14 15:35:20.008808, 1.69110
2022-12-14 15:35:20.009097, 1.70087
2022-12-14 15:35:20.009644, 1.69599
2022-12-14 15:35:20.042092, 1.68132
2022-12-14 15:35:20.042092, 1.67644
2022-12-14 15:35:20.075736, 1.68132
2022-12-14 15:35:20.075973, 1.70576
2022-12-14 15:35:20.076572, 1.66666
2022-12-14 15:35:20.109281, 1.67644
2022-12-14 15:35:20.109281, 1.69599
2022-12-14 15:35:20.110284, 1.66177
2022-12-14 15:35:20.142068, 1.64711
2022-12-14 15:35:20.142719, 1.64711
2022-12-14 15:35:20.176266, 1.64711
2022-12-14 15:35:20.176504, 1.66666
2022-12-14 15:35:20.177101, 1.63734
2022-12-14 15:35:20.209104, 1.63245
2022-12-14 15:35:20.210057, 1.63245
2022-12-14 15:35:20.210057, 1.63245
2022-12-14 15:35:20.242275, 1.64711
2022-12-14 15:35:20.243274, 1.61779
2022-12-14 15:35:20.276099, 1.61779
2022-12-14 15:35:20.276099, 1.62756
2022-12-14 15:35:20.277097, 1.61290
2022-12-14 15:35:20.310606, 1.61290
2022-12-14 15:35:20.310895, 1.61290
2022-12-14 15:35:20.311408, 1.64222
2022-12-14 15:35:20.343821, 1.61290
2022-12-14 15:35:20.343821, 1.61779
2022-12-14 15:35:20.377015, 1.61290
2022-12-14 15:35:20.377015, 1.61779
2022-12-14 15:35:20.378022, 1.60801
2022-12-14 15:35:20.410140, 1.60801
2022-12-14 15:35:20.410140, 1.60801
2022-12-14 15:35:20.411143, 1.64711
2022-12-14 15:35:20.444389, 1.61290
2022-12-14 15:35:20.444389, 1.61290
2022-12-14 15:35:20.478168, 1.61290
2022-12-14 15:35:20.478403, 1.61779
2022-12-14 15:35:20.478403, 1.60801
2022-12-14 15:35:20.511581, 1.61290
2022-12-14 15:35:20.511581, 1.62756
2022-12-14 15:35:20.512584, 1.61779
2022-12-14 15:35:20.545174, 1.61779
2022-12-14 15:35:20.545514, 1.60801
2022-12-14 15:35:20.578687, 1.62267
2022-12-14 15:35:20.578925, 1.66666
2022-12-14 15:35:20.578925, 1.66177
2022-12-14 15:35:20.612194, 1.68621
2022-12-14 15:35:20.612194, 1.72531
2022-12-14 15:35:20.613196, 1.76441
2022-12-14 15:35:20.645541, 1.78396
2022-12-14 15:35:20.646565, 1.81818
2022-12-14 15:35:20.679142, 1.78885
2022-12-14 15:35:20.679142, 1.79374
2022-12-14 15:35:20.680149, 1.78396
2022-12-14 15:35:20.712674, 1.79863
2022-12-14 15:35:20.712674, 1.77908
2022-12-14 15:35:20.713681, 1.76930
2022-12-14 15:35:20.746344, 1.75953
2022-12-14 15:35:20.746683, 1.74486
2022-12-14 15:35:20.779861, 1.73998
2022-12-14 15:35:20.779861, 1.74486
2022-12-14 15:35:20.780867, 1.74486
2022-12-14 15:35:20.813538, 1.73020
2022-12-14 15:35:20.813825, 1.73509
2022-12-14 15:35:20.814340, 1.73020
2022-12-14 15:35:20.846954, 1.75464
2022-12-14 15:35:20.846954, 1.73020
2022-12-14 15:35:20.880373, 1.71554
2022-12-14 15:35:20.880373, 1.72531
2022-12-14 15:35:20.881382, 1.73020
2022-12-14 15:35:20.913340, 1.72043
2022-12-14 15:35:20.913340, 1.72043
2022-12-14 15:35:20.914328, 1.73020
2022-12-14 15:35:20.947495, 1.74975
2022-12-14 15:35:20.947835, 1.71554
2022-12-14 15:35:20.981113, 1.73509
2022-12-14 15:35:20.981351, 1.71065
2022-12-14 15:35:20.981351, 1.71554
2022-12-14 15:35:21.014544, 1.69599
2022-12-14 15:35:21.014544, 1.69599
2022-12-14 15:35:21.015550, 1.70087
2022-12-14 15:35:21.048129, 1.70576
2022-12-14 15:35:21.048468, 1.70087
2022-12-14 15:35:21.081723, 1.68621
2022-12-14 15:35:21.082002, 1.68621
2022-12-14 15:35:21.082557, 1.69110
2022-12-14 15:35:21.115192, 1.68132
2022-12-14 15:35:21.115847, 1.67644
2022-12-14 15:35:21.115847, 1.68621
2022-12-14 15:35:21.147958, 1.68132
2022-12-14 15:35:21.147958, 1.67155
2022-12-14 15:35:21.181118, 1.66666
2022-12-14 15:35:21.182070, 1.66666
2022-12-14 15:35:21.182070, 1.67155
2022-12-14 15:35:21.215762, 1.67644
2022-12-14 15:35:21.216051, 1.65689
2022-12-14 15:35:21.216051, 1.65689
2022-12-14 15:35:21.249323, 1.67155
2022-12-14 15:35:21.249661, 1.65689
2022-12-14 15:35:21.282890, 1.65200
2022-12-14 15:35:21.283126, 1.65689
2022-12-14 15:35:21.283126, 1.66177
2022-12-14 15:35:21.316403, 1.67155
2022-12-14 15:35:21.316690, 1.67644
2022-12-14 15:35:21.317146, 1.65200
2022-12-14 15:35:21.349897, 1.65689
2022-12-14 15:35:21.350238, 1.65689
2022-12-14 15:35:21.383443, 1.65689
2022-12-14 15:35:21.383677, 1.64711
2022-12-14 15:35:21.383677, 1.65200
2022-12-14 15:35:21.417029, 1.65689
2022-12-14 15:35:21.417850, 1.64222
2022-12-14 15:35:21.417850, 1.63734
2022-12-14 15:35:21.449797, 1.64222
2022-12-14 15:35:21.450803, 1.64222
2022-12-14 15:35:21.482536, 1.64222
2022-12-14 15:35:21.483543, 1.66177
2022-12-14 15:35:21.483543, 1.66666
2022-12-14 15:35:21.517556, 1.69110
2022-12-14 15:35:21.517556, 1.71065
2022-12-14 15:35:21.518562, 1.74486
2022-12-14 15:35:21.550814, 1.77419
2022-12-14 15:35:21.551595, 1.77908
2022-12-14 15:35:21.584238, 1.77419
2022-12-14 15:35:21.584966, 1.76930
2022-12-14 15:35:21.584966, 1.76441
2022-12-14 15:35:21.617939, 1.75464
2022-12-14 15:35:21.618319, 1.73509
2022-12-14 15:35:21.619324, 1.73020
2022-12-14 15:35:21.651640, 1.73998
2022-12-14 15:35:21.651640, 1.74975
2022-12-14 15:35:21.684732, 1.73509
2022-12-14 15:35:21.684990, 1.71065
2022-12-14 15:35:21.685996, 1.71554
2022-12-14 15:35:21.718349, 1.72043
2022-12-14 15:35:21.718349, 1.69599
2022-12-14 15:35:21.719149, 1.69110
2022-12-14 15:35:21.751705, 1.69110
2022-12-14 15:35:21.751705, 1.69110
2022-12-14 15:35:21.784687, 1.67644
2022-12-14 15:35:21.785717, 1.68132
2022-12-14 15:35:21.785717, 1.68621
2022-12-14 15:35:21.818533, 1.69599
2022-12-14 15:35:21.818533, 1.71065
2022-12-14 15:35:21.819528, 1.69110
2022-12-14 15:35:21.852260, 1.68132
2022-12-14 15:35:21.852260, 1.68132
2022-12-14 15:35:21.885371, 1.66666
2022-12-14 15:35:21.885371, 1.66177
2022-12-14 15:35:21.886333, 1.67155
2022-12-14 15:35:21.919356, 1.68132
2022-12-14 15:35:21.919703, 1.64711
2022-12-14 15:35:21.920136, 1.64222
2022-12-14 15:35:21.952935, 1.64711
2022-12-14 15:35:21.953363, 1.64222
2022-12-14 15:35:21.986509, 1.64222
2022-12-14 15:35:21.986832, 1.63245
2022-12-14 15:35:21.987267, 1.63245
2022-12-14 15:35:22.020212, 1.63734
2022-12-14 15:35:22.020500, 1.62756
2022-12-14 15:35:22.020954, 1.62756
2022-12-14 15:35:22.053338, 1.62267
2022-12-14 15:35:22.053338, 1.61779
2022-12-14 15:35:22.087182, 1.62267
2022-12-14 15:35:22.087654, 1.60801
2022-12-14 15:35:22.087654, 1.60801
2022-12-14 15:35:22.120280, 1.63245
2022-12-14 15:35:22.120280, 1.60801
2022-12-14 15:35:22.121277, 1.60312
2022-12-14 15:35:22.154390, 1.60312
2022-12-14 15:35:22.154729, 1.60801
2022-12-14 15:35:22.188052, 1.62267
2022-12-14 15:35:22.188289, 1.59824
2022-12-14 15:35:22.188289, 1.60312
2022-12-14 15:35:22.221458, 1.60312
2022-12-14 15:35:22.221748, 1.60801
2022-12-14 15:35:22.222329, 1.59335
2022-12-14 15:35:22.255110, 1.59335
2022-12-14 15:35:22.255448, 1.63245
2022-12-14 15:35:22.288555, 1.59824
2022-12-14 15:35:22.288790, 1.59335
2022-12-14 15:35:22.289243, 1.59824
2022-12-14 15:35:22.322164, 1.59824
2022-12-14 15:35:22.322453, 1.59335
2022-12-14 15:35:22.322453, 1.59335
2022-12-14 15:35:22.355504, 1.58846
2022-12-14 15:35:22.355504, 1.59335
2022-12-14 15:35:22.389146, 1.60312
2022-12-14 15:35:22.390172, 1.59824
2022-12-14 15:35:22.390172, 1.62267
2022-12-14 15:35:22.422675, 1.65689
2022-12-14 15:35:22.422962, 1.69599
2022-12-14 15:35:22.422962, 1.73509
2022-12-14 15:35:22.456194, 1.73509
2022-12-14 15:35:22.456533, 1.76930
2022-12-14 15:35:22.489803, 1.77419
2022-12-14 15:35:22.490037, 1.76441
2022-12-14 15:35:22.490037, 1.73998
2022-12-14 15:35:22.523336, 1.73509
2022-12-14 15:35:22.523336, 1.73509
2022-12-14 15:35:22.524348, 1.72043
2022-12-14 15:35:22.556937, 1.71065
2022-12-14 15:35:22.557276, 1.71554
2022-12-14 15:35:22.590331, 1.72043
2022-12-14 15:35:22.590567, 1.71065
2022-12-14 15:35:22.591037, 1.70576
2022-12-14 15:35:22.623989, 1.70576
2022-12-14 15:35:22.624276, 1.71065
2022-12-14 15:35:22.624276, 1.69110
2022-12-14 15:35:22.657375, 1.68621
2022-12-14 15:35:22.657721, 1.71554
2022-12-14 15:35:22.690993, 1.68621
2022-12-14 15:35:22.690993, 1.67644
2022-12-14 15:35:22.692012, 1.67644
2022-12-14 15:35:22.724336, 1.68132
2022-12-14 15:35:22.724336, 1.68621
2022-12-14 15:35:22.725342, 1.68132
2022-12-14 15:35:22.757100, 1.67155
2022-12-14 15:35:22.757100, 1.68621
2022-12-14 15:35:22.791462, 1.68132
2022-12-14 15:35:22.791698, 1.66666
2022-12-14 15:35:22.792304, 1.66177
2022-12-14 15:35:22.824940, 1.66177
2022-12-14 15:35:22.825231, 1.68132
2022-12-14 15:35:22.825231, 1.68132
2022-12-14 15:35:22.858668, 1.63734
2022-12-14 15:35:22.859049, 1.63734
2022-12-14 15:35:22.892093, 1.64222
2022-12-14 15:35:22.892329, 1.64711
2022-12-14 15:35:22.892329, 1.62756
2022-12-14 15:35:22.925659, 1.62267
2022-12-14 15:35:22.925945, 1.62756
2022-12-14 15:35:22.926457, 1.62267
2022-12-14 15:35:22.959261, 1.61779
2022-12-14 15:35:22.959261, 1.61290
2022-12-14 15:35:22.992687, 1.61290
2022-12-14 15:35:22.992923, 1.61290
2022-12-14 15:35:22.992923, 1.59824
2022-12-14 15:35:23.025778, 1.59824
2022-12-14 15:35:23.026786, 1.60801
2022-12-14 15:35:23.026786, 1.59824
2022-12-14 15:35:23.059691, 1.58846
2022-12-14 15:35:23.059691, 1.61290
2022-12-14 15:35:23.093323, 1.59335
2022-12-14 15:35:23.093559, 1.60801
2022-12-14 15:35:23.093559, 1.58846
2022-12-14 15:35:23.126834, 1.58846
2022-12-14 15:35:23.127124, 1.59335
2022-12-14 15:35:23.127124, 1.58846
2022-12-14 15:35:23.160388, 1.59335
2022-12-14 15:35:23.160789, 1.58357
2022-12-14 15:35:23.193870, 1.58846
2022-12-14 15:35:23.193870, 1.59335
2022-12-14 15:35:23.194873, 1.57869
2022-12-14 15:35:23.227351, 1.57869
2022-12-14 15:35:23.227351, 1.58357
2022-12-14 15:35:23.228352, 1.61779
2022-12-14 15:35:23.260996, 1.57869
2022-12-14 15:35:23.262005, 1.57869
2022-12-14 15:35:23.293380, 1.58357
2022-12-14 15:35:23.294387, 1.58846
2022-12-14 15:35:23.294387, 1.57380
2022-12-14 15:35:23.327369, 1.56891
2022-12-14 15:35:23.327369, 1.59335
2022-12-14 15:35:23.328372, 1.57869
2022-12-14 15:35:23.360929, 1.56891
2022-12-14 15:35:23.360929, 1.57869
2022-12-14 15:35:23.394996, 1.58846
2022-12-14 15:35:23.395231, 1.62267
2022-12-14 15:35:23.395231, 1.64711
2022-12-14 15:35:23.428527, 1.68621
2022-12-14 15:35:23.428854, 1.73509
2022-12-14 15:35:23.429309, 1.73998
2022-12-14 15:35:23.462089, 1.73998
2022-12-14 15:35:23.462430, 1.73998
2022-12-14 15:35:23.495468, 1.73998
2022-12-14 15:35:23.495703, 1.73998
2022-12-14 15:35:23.496214, 1.72531
2022-12-14 15:35:23.529070, 1.71554
2022-12-14 15:35:23.529502, 1.74486
2022-12-14 15:35:23.530504, 1.73509
2022-12-14 15:35:23.561518, 1.70576
2022-12-14 15:35:23.562524, 1.70087
2022-12-14 15:35:23.596196, 1.71065
2022-12-14 15:35:23.596196, 1.73998
2022-12-14 15:35:23.597041, 1.73020
2022-12-14 15:35:23.629809, 1.70087
2022-12-14 15:35:23.630098, 1.69599
2022-12-14 15:35:23.630098, 1.69110
2022-12-14 15:35:23.663339, 1.68621
2022-12-14 15:35:23.663678, 1.67644
2022-12-14 15:35:23.696881, 1.68132
2022-12-14 15:35:23.697116, 1.68621
2022-12-14 15:35:23.697116, 1.69110
2022-12-14 15:35:23.730236, 1.68621
2022-12-14 15:35:23.730236, 1.68621
2022-12-14 15:35:23.731091, 1.69110
2022-12-14 15:35:23.763871, 1.69110
2022-12-14 15:35:23.764253, 1.67155
2022-12-14 15:35:23.797210, 1.67155
2022-12-14 15:35:23.797210, 1.67155
2022-12-14 15:35:23.798221, 1.67155
2022-12-14 15:35:23.829630, 1.65689
2022-12-14 15:35:23.830647, 1.65200
2022-12-14 15:35:23.830647, 1.65689
2022-12-14 15:35:23.864458, 1.65689
2022-12-14 15:35:23.864797, 1.64222
2022-12-14 15:35:23.898056, 1.64222
2022-12-14 15:35:23.898293, 1.64222
2022-12-14 15:35:23.898293, 1.65689
2022-12-14 15:35:23.931560, 1.62756
2022-12-14 15:35:23.931846, 1.62756
2022-12-14 15:35:23.931846, 1.62756
2022-12-14 15:35:23.964964, 1.62756
2022-12-14 15:35:23.964964, 1.61290
2022-12-14 15:35:23.998551, 1.61290
2022-12-14 15:35:23.998835, 1.61779
2022-12-14 15:35:23.999333, 1.61779
2022-12-14 15:35:24.032085, 1.60801
2022-12-14 15:35:24.032421, 1.61290
2022-12-14 15:35:24.032421, 1.64222
2022-12-14 15:35:24.065520, 1.61290
2022-12-14 15:35:24.065520, 1.60312
2022-12-14 15:35:24.098942, 1.61290
2022-12-14 15:35:24.098942, 1.60312
2022-12-14 15:35:24.099949, 1.60801
2022-12-14 15:35:24.131380, 1.63245
2022-12-14 15:35:24.132386, 1.59824
2022-12-14 15:35:24.132386, 1.59824
2022-12-14 15:35:24.166231, 1.60801
2022-12-14 15:35:24.166569, 1.59824
2022-12-14 15:35:24.199799, 1.59335
2022-12-14 15:35:24.200036, 1.59824
2022-12-14 15:35:24.200036, 1.60801
2022-12-14 15:35:24.233369, 1.59335
2022-12-14 15:35:24.233658, 1.58846
2022-12-14 15:35:24.233658, 1.59335
2022-12-14 15:35:24.266960, 1.63245
2022-12-14 15:35:24.267299, 1.59335
2022-12-14 15:35:24.300392, 1.58846
2022-12-14 15:35:24.300633, 1.58846
2022-12-14 15:35:24.300633, 1.60312
2022-12-14 15:35:24.334019, 1.58846
2022-12-14 15:35:24.334019, 1.58357
2022-12-14 15:35:24.335021, 1.58357
2022-12-14 15:35:24.367441, 1.61779
2022-12-14 15:35:24.367441, 1.58357
2022-12-14 15:35:24.400977, 1.57869
2022-12-14 15:35:24.400977, 1.58357
2022-12-14 15:35:24.401821, 1.62756
2022-12-14 15:35:24.434082, 1.61290
2022-12-14 15:35:24.434082, 1.63734
2022-12-14 15:35:24.435107, 1.67644
2022-12-14 15:35:24.467390, 1.72043
2022-12-14 15:35:24.467390, 1.74486
2022-12-14 15:35:24.501385, 1.74975
2022-12-14 15:35:24.501385, 1.76441
2022-12-14 15:35:24.502389, 1.76930
2022-12-14 15:35:24.535011, 1.75953
2022-12-14 15:35:24.535900, 1.73998
2022-12-14 15:35:24.535900, 1.73509
2022-12-14 15:35:24.568453, 1.73509
2022-12-14 15:35:24.569461, 1.72531
2022-12-14 15:35:24.602119, 1.71065
2022-12-14 15:35:24.602119, 1.70576
2022-12-14 15:35:24.603130, 1.72531
2022-12-14 15:35:24.635557, 1.72043
2022-12-14 15:35:24.635557, 1.70087
2022-12-14 15:35:24.636564, 1.69110
2022-12-14 15:35:24.669129, 1.69599
2022-12-14 15:35:24.670138, 1.69599
2022-12-14 15:35:24.702288, 1.68132
2022-12-14 15:35:24.702288, 1.70087
2022-12-14 15:35:24.703293, 1.68132
2022-12-14 15:35:24.734945, 1.68621
2022-12-14 15:35:24.735971, 1.67644
2022-12-14 15:35:24.735971, 1.68132
2022-12-14 15:35:24.769048, 1.69110
2022-12-14 15:35:24.770043, 1.69110
2022-12-14 15:35:24.802431, 1.70087
2022-12-14 15:35:24.803438, 1.70087
2022-12-14 15:35:24.803438, 1.68132
2022-12-14 15:35:24.835851, 1.68132
2022-12-14 15:35:24.836881, 1.66666
2022-12-14 15:35:24.836881, 1.66177
2022-12-14 15:35:24.869347, 1.66666
2022-12-14 15:35:24.870359, 1.66666
2022-12-14 15:35:24.902856, 1.65689
2022-12-14 15:35:24.903859, 1.68132
2022-12-14 15:35:24.903859, 1.65200
2022-12-14 15:35:24.936855, 1.65200
2022-12-14 15:35:24.936855, 1.63734
2022-12-14 15:35:24.937853, 1.63734
2022-12-14 15:35:24.970821, 1.63734
2022-12-14 15:35:24.971159, 1.64222
2022-12-14 15:35:25.003544, 1.63245
2022-12-14 15:35:25.004540, 1.62756
2022-12-14 15:35:25.004540, 1.62756
2022-12-14 15:35:25.037028, 1.63245
2022-12-14 15:35:25.038021, 1.62267
2022-12-14 15:35:25.038021, 1.61779
2022-12-14 15:35:25.071133, 1.61779
2022-12-14 15:35:25.071647, 1.62756
2022-12-14 15:35:25.104030, 1.62267
2022-12-14 15:35:25.104030, 1.61779
2022-12-14 15:35:25.105028, 1.61779
2022-12-14 15:35:25.138413, 1.62756
2022-12-14 15:35:25.138703, 1.62756
2022-12-14 15:35:25.139288, 1.64222
2022-12-14 15:35:25.172072, 1.61779
2022-12-14 15:35:25.172414, 1.62267
2022-12-14 15:35:25.204558, 1.62267
2022-12-14 15:35:25.205554, 1.63734
2022-12-14 15:35:25.205554, 1.64222
2022-12-14 15:35:25.239140, 1.61779
2022-12-14 15:35:25.239430, 1.61779
2022-12-14 15:35:25.239430, 1.60801
2022-12-14 15:35:25.272482, 1.61290
2022-12-14 15:35:25.273229, 1.62267
2022-12-14 15:35:25.304801, 1.61779
2022-12-14 15:35:25.305800, 1.60801
2022-12-14 15:35:25.306313, 1.61290
2022-12-14 15:35:25.339801, 1.61779
2022-12-14 15:35:25.340113, 1.61290
2022-12-14 15:35:25.340113, 1.61290
2022-12-14 15:35:25.373351, 1.61290
2022-12-14 15:35:25.373732, 1.62756
2022-12-14 15:35:25.406840, 1.61779
2022-12-14 15:35:25.407076, 1.60801
2022-12-14 15:35:25.407076, 1.60801
2022-12-14 15:35:25.440248, 1.61290
2022-12-14 15:35:25.440248, 1.62267
2022-12-14 15:35:25.441255, 1.62267
2022-12-14 15:35:25.473809, 1.65200
2022-12-14 15:35:25.474162, 1.69110
2022-12-14 15:35:25.507291, 1.75464
2022-12-14 15:35:25.507527, 1.76930
2022-12-14 15:35:25.507527, 1.77419
2022-12-14 15:35:25.540842, 1.79374
2022-12-14 15:35:25.541132, 1.80351
2022-12-14 15:35:25.541642, 1.78396
2022-12-14 15:35:25.574504, 1.77908
2022-12-14 15:35:25.574846, 1.77419
2022-12-14 15:35:25.607795, 1.76441
2022-12-14 15:35:25.607795, 1.74975
2022-12-14 15:35:25.608598, 1.73998
2022-12-14 15:35:25.640117, 1.73998
2022-12-14 15:35:25.641125, 1.77419
2022-12-14 15:35:25.641125, 1.74486
2022-12-14 15:35:25.675052, 1.72531
2022-12-14 15:35:25.675390, 1.72531
2022-12-14 15:35:25.708574, 1.72531
2022-12-14 15:35:25.708861, 1.71065
2022-12-14 15:35:25.708861, 1.71065
2022-12-14 15:35:25.742241, 1.71065
2022-12-14 15:35:25.742570, 1.71554
2022-12-14 15:35:25.742570, 1.71554
2022-12-14 15:35:25.775617, 1.71065
2022-12-14 15:35:25.775954, 1.72043
2022-12-14 15:35:25.809252, 1.73020
2022-12-14 15:35:25.809491, 1.72043
2022-12-14 15:35:25.810080, 1.72043
2022-12-14 15:35:25.842684, 1.73020
2022-12-14 15:35:25.842684, 1.72531
2022-12-14 15:35:25.843685, 1.71554
2022-12-14 15:35:25.876590, 1.70576
2022-12-14 15:35:25.877593, 1.70576
2022-12-14 15:35:25.909177, 1.71065
2022-12-14 15:35:25.909177, 1.70576
2022-12-14 15:35:25.909177, 1.72043
2022-12-14 15:35:25.943299, 1.69599
2022-12-14 15:35:25.943589, 1.69599
2022-12-14 15:35:25.943589, 1.69110
2022-12-14 15:35:25.976679, 1.68132
2022-12-14 15:35:25.976679, 1.68621
2022-12-14 15:35:26.010347, 1.70087
2022-12-14 15:35:26.010582, 1.68132
2022-12-14 15:35:26.011584, 1.67155
2022-12-14 15:35:26.043855, 1.67155
2022-12-14 15:35:26.044145, 1.67155
2022-12-14 15:35:26.044658, 1.67155
2022-12-14 15:35:26.077370, 1.66666
2022-12-14 15:35:26.077370, 1.67155
2022-12-14 15:35:26.110911, 1.66666
2022-12-14 15:35:26.111148, 1.66666
2022-12-14 15:35:26.111696, 1.65689
2022-12-14 15:35:26.144453, 1.66177
2022-12-14 15:35:26.144453, 1.66177
2022-12-14 15:35:26.145456, 1.65689
2022-12-14 15:35:26.177855, 1.64711
2022-12-14 15:35:26.177855, 1.64711
2022-12-14 15:35:26.210116, 1.65200
2022-12-14 15:35:26.211123, 1.66177
2022-12-14 15:35:26.211123, 1.63734
2022-12-14 15:35:26.244829, 1.64222
2022-12-14 15:35:26.244829, 1.64711
2022-12-14 15:35:26.245837, 1.64222
2022-12-14 15:35:26.278537, 1.63245
2022-12-14 15:35:26.278904, 1.63245
2022-12-14 15:35:26.312256, 1.63245
2022-12-14 15:35:26.312531, 1.64222
2022-12-14 15:35:26.313129, 1.62267
2022-12-14 15:35:26.345596, 1.62267
2022-12-14 15:35:26.345883, 1.63734
2022-12-14 15:35:26.346337, 1.62756
2022-12-14 15:35:26.379270, 1.61290
2022-12-14 15:35:26.379609, 1.60801
2022-12-14 15:35:26.412716, 1.61779
2022-12-14 15:35:26.412716, 1.62267
2022-12-14 15:35:26.413717, 1.63734
2022-12-14 15:35:26.446217, 1.66177
2022-12-14 15:35:26.446960, 1.70087
2022-12-14 15:35:26.446960, 1.73998
2022-12-14 15:35:26.479082, 1.74975
2022-12-14 15:35:26.480088, 1.77908
2022-12-14 15:35:26.512659, 1.77419
2022-12-14 15:35:26.512659, 1.78885
2022-12-14 15:35:26.512659, 1.77908
2022-12-14 15:35:26.546400, 1.73998
2022-12-14 15:35:26.546400, 1.73020
2022-12-14 15:35:26.546400, 1.73020
2022-12-14 15:35:26.580259, 1.72043
2022-12-14 15:35:26.580597, 1.70576
2022-12-14 15:35:26.613884, 1.70576
2022-12-14 15:35:26.614163, 1.70576
2022-12-14 15:35:26.614671, 1.69599
2022-12-14 15:35:26.647463, 1.68621
2022-12-14 15:35:26.647784, 1.68621
2022-12-14 15:35:26.648786, 1.69110
2022-12-14 15:35:26.680897, 1.67644
2022-12-14 15:35:26.680897, 1.66666
2022-12-14 15:35:26.714601, 1.67155
2022-12-14 15:35:26.714601, 1.68132
2022-12-14 15:35:26.715604, 1.68621
2022-12-14 15:35:26.746847, 1.71065
2022-12-14 15:35:26.747872, 1.68621
2022-12-14 15:35:26.747872, 1.69110
2022-12-14 15:35:26.781081, 1.69110
2022-12-14 15:35:26.781406, 1.67644
2022-12-14 15:35:26.814997, 1.68132
2022-12-14 15:35:26.814997, 1.68132
2022-12-14 15:35:26.815844, 1.68132
2022-12-14 15:35:26.848532, 1.68621
2022-12-14 15:35:26.848817, 1.68621
2022-12-14 15:35:26.848817, 1.66666
2022-12-14 15:35:26.882145, 1.66177
2022-12-14 15:35:26.882485, 1.65200
2022-12-14 15:35:26.915541, 1.64711
2022-12-14 15:35:26.915541, 1.65200
2022-12-14 15:35:26.916341, 1.65689
2022-12-14 15:35:26.949164, 1.63245
2022-12-14 15:35:26.949450, 1.63734
2022-12-14 15:35:26.950040, 1.63245
2022-12-14 15:35:26.982734, 1.63245
2022-12-14 15:35:26.983116, 1.65200
2022-12-14 15:35:27.016358, 1.61779
2022-12-14 15:35:27.016358, 1.61779
2022-12-14 15:35:27.017367, 1.62267
2022-12-14 15:35:27.048991, 1.64222
2022-12-14 15:35:27.048991, 1.60801
2022-12-14 15:35:27.050000, 1.61290
2022-12-14 15:35:27.082837, 1.61779
2022-12-14 15:35:27.083168, 1.60312
2022-12-14 15:35:27.116775, 1.59824
2022-12-14 15:35:27.116775, 1.61290
2022-12-14 15:35:27.117777, 1.61290
2022-12-14 15:35:27.150370, 1.60312
2022-12-14 15:35:27.150657, 1.60312
2022-12-14 15:35:27.150657, 1.59824
2022-12-14 15:35:27.183972, 1.60312
2022-12-14 15:35:27.184310, 1.61290
2022-12-14 15:35:27.217487, 1.59335
2022-12-14 15:35:27.217722, 1.59335
2022-12-14 15:35:27.217722, 1.60312
2022-12-14 15:35:27.250964, 1.59335
2022-12-14 15:35:27.251253, 1.58846
2022-12-14 15:35:27.251253, 1.59335
2022-12-14 15:35:27.284403, 1.62267
2022-12-14 15:35:27.284403, 1.58846
2022-12-14 15:35:27.318055, 1.58846
2022-12-14 15:35:27.319066, 1.59824
2022-12-14 15:35:27.319066, 1.61290
2022-12-14 15:35:27.350987, 1.63245
2022-12-14 15:35:27.350987, 1.66177
2022-12-14 15:35:27.350987, 1.70087
2022-12-14 15:35:27.384133, 1.76441
2022-12-14 15:35:27.385128, 1.75953
2022-12-14 15:35:27.418425, 1.76441
2022-12-14 15:35:27.418425, 1.77419
2022-12-14 15:35:27.419290, 1.77908
2022-12-14 15:35:27.452033, 1.76930
2022-12-14 15:35:27.452837, 1.75464
2022-12-14 15:35:27.453074, 1.74486
2022-12-14 15:35:27.485418, 1.74486
2022-12-14 15:35:27.486252, 1.73509
2022-12-14 15:35:27.519161, 1.72043
2022-12-14 15:35:27.519618, 1.71554
2022-12-14 15:35:27.519618, 1.72043
2022-12-14 15:35:27.552576, 1.71554
2022-12-14 15:35:27.552986, 1.70576
2022-12-14 15:35:27.553987, 1.69599
2022-12-14 15:35:27.586321, 1.70087
2022-12-14 15:35:27.586321, 1.70087
2022-12-14 15:35:27.619087, 1.70087
2022-12-14 15:35:27.619087, 1.71065
2022-12-14 15:35:27.620096, 1.69110
2022-12-14 15:35:27.651992, 1.69110
2022-12-14 15:35:27.653006, 1.68621
2022-12-14 15:35:27.653006, 1.68621
2022-12-14 15:35:27.686618, 1.69110
2022-12-14 15:35:27.687627, 1.69110
2022-12-14 15:35:27.719989, 1.69599
2022-12-14 15:35:27.721001, 1.69110
2022-12-14 15:35:27.721001, 1.70576
2022-12-14 15:35:27.753468, 1.68621
2022-12-14 15:35:27.753468, 1.67155
2022-12-14 15:35:27.754502, 1.66666
2022-12-14 15:35:27.787022, 1.67155
2022-12-14 15:35:27.788030, 1.69599
2022-12-14 15:35:27.820062, 1.65200
2022-12-14 15:35:27.820062, 1.64711
2022-12-14 15:35:27.821088, 1.64711
2022-12-14 15:35:27.853613, 1.65200
2022-12-14 15:35:27.854621, 1.63734
2022-12-14 15:35:27.854621, 1.63734
2022-12-14 15:35:27.886959, 1.63734
2022-12-14 15:35:27.887950, 1.63734
2022-12-14 15:35:27.920133, 1.62756
2022-12-14 15:35:27.921149, 1.61779
2022-12-14 15:35:27.921149, 1.64711
2022-12-14 15:35:27.954870, 1.62756
2022-12-14 15:35:27.954870, 1.61779
2022-12-14 15:35:27.954870, 1.61779
2022-12-14 15:35:27.987681, 1.61290
2022-12-14 15:35:27.988677, 1.61779
2022-12-14 15:35:28.021640, 1.61779
2022-12-14 15:35:28.022002, 1.60801
2022-12-14 15:35:28.022438, 1.60801
2022-12-14 15:35:28.055069, 1.61779
2022-12-14 15:35:28.055443, 1.60801
2022-12-14 15:35:28.055443, 1.60312
2022-12-14 15:35:28.088537, 1.60801
2022-12-14 15:35:28.088960, 1.60801
2022-12-14 15:35:28.122098, 1.60312
2022-12-14 15:35:28.122419, 1.59824
2022-12-14 15:35:28.122884, 1.61290
2022-12-14 15:35:28.155151, 1.60312
2022-12-14 15:35:28.156150, 1.59824
2022-12-14 15:35:28.156150, 1.58846
2022-12-14 15:35:28.189385, 1.59824
2022-12-14 15:35:28.189385, 1.59824
2022-12-14 15:35:28.222776, 1.59824
2022-12-14 15:35:28.222776, 1.58846
2022-12-14 15:35:28.223777, 1.61290
2022-12-14 15:35:28.256233, 1.63245
2022-12-14 15:35:28.256233, 1.66177
2022-12-14 15:35:28.257236, 1.69110
2022-12-14 15:35:28.290730, 1.73020
2022-12-14 15:35:28.290730, 1.76930
2022-12-14 15:35:28.323261, 1.78885
2022-12-14 15:35:28.323504, 1.82306
2022-12-14 15:35:28.323504, 1.80840
2022-12-14 15:35:28.357140, 1.80351
2022-12-14 15:35:28.357428, 1.79863
2022-12-14 15:35:28.357428, 1.79374
2022-12-14 15:35:28.390817, 1.76930
2022-12-14 15:35:28.391161, 1.76441
2022-12-14 15:35:28.424232, 1.75953
2022-12-14 15:35:28.424469, 1.74486
2022-12-14 15:35:28.424469, 1.73998
2022-12-14 15:35:28.457892, 1.73998
2022-12-14 15:35:28.457892, 1.74486
2022-12-14 15:35:28.458892, 1.73020
2022-12-14 15:35:28.491326, 1.75464
2022-12-14 15:35:28.491669, 1.72043
2022-12-14 15:35:28.525021, 1.72043
2022-12-14 15:35:28.525254, 1.70087
2022-12-14 15:35:28.525851, 1.70087
2022-12-14 15:35:28.558316, 1.71065
2022-12-14 15:35:28.558316, 1.72043
2022-12-14 15:35:28.559316, 1.70576
2022-12-14 15:35:28.591996, 1.71065
2022-12-14 15:35:28.593035, 1.72531
2022-12-14 15:35:28.624521, 1.71554
2022-12-14 15:35:28.624521, 1.70087
2022-12-14 15:35:28.625518, 1.69599
2022-12-14 15:35:28.659008, 1.70087
2022-12-14 15:35:28.659298, 1.70087
2022-12-14 15:35:28.659883, 1.70087
2022-12-14 15:35:28.692586, 1.70576
2022-12-14 15:35:28.692925, 1.70087
2022-12-14 15:35:28.726202, 1.68132
2022-12-14 15:35:28.726439, 1.67155
2022-12-14 15:35:28.727036, 1.66666
2022-12-14 15:35:28.759762, 1.66177
2022-12-14 15:35:28.760047, 1.69599
2022-12-14 15:35:28.760634, 1.65689
2022-12-14 15:35:28.793132, 1.65200
2022-12-14 15:35:28.793540, 1.64711
2022-12-14 15:35:28.826775, 1.65200
2022-12-14 15:35:28.827012, 1.64222
2022-12-14 15:35:28.827012, 1.63245
2022-12-14 15:35:28.860247, 1.63245
2022-12-14 15:35:28.860534, 1.66177
2022-12-14 15:35:28.860534, 1.63245
2022-12-14 15:35:28.894021, 1.62267
2022-12-14 15:35:28.895027, 1.65689
2022-12-14 15:35:28.925857, 1.63734
2022-12-14 15:35:28.926865, 1.63245
2022-12-14 15:35:28.926865, 1.63734
2022-12-14 15:35:28.960698, 1.62267
2022-12-14 15:35:28.960985, 1.62756
2022-12-14 15:35:28.961537, 1.62267
2022-12-14 15:35:28.994328, 1.62267
2022-12-14 15:35:28.994668, 1.61779
2022-12-14 15:35:29.027887, 1.61779
2022-12-14 15:35:29.028173, 1.64711
2022-12-14 15:35:29.028173, 1.60801
2022-12-14 15:35:29.061402, 1.60801
2022-12-14 15:35:29.061690, 1.64711
2022-12-14 15:35:29.062200, 1.61290
2022-12-14 15:35:29.095085, 1.60801
2022-12-14 15:35:29.095422, 1.60312
2022-12-14 15:35:29.128468, 1.60801
2022-12-14 15:35:29.128702, 1.60312
2022-12-14 15:35:29.129213, 1.60312
2022-12-14 15:35:29.161884, 1.59824
2022-12-14 15:35:29.161884, 1.60801
2022-12-14 15:35:29.162886, 1.60801
2022-12-14 15:35:29.195020, 1.60801
2022-12-14 15:35:29.195020, 1.60801
2022-12-14 15:35:29.228233, 1.63734
2022-12-14 15:35:29.228233, 1.67155
2022-12-14 15:35:29.229229, 1.71065
2022-12-14 15:35:29.262186, 1.74975
2022-12-14 15:35:29.262186, 1.78885
2022-12-14 15:35:29.263181, 1.81818
2022-12-14 15:35:29.296241, 1.81818
2022-12-14 15:35:29.296586, 1.82306
2022-12-14 15:35:29.329630, 1.81818
2022-12-14 15:35:29.329866, 1.81329
2022-12-14 15:35:29.330464, 1.79374
2022-12-14 15:35:29.363148, 1.79863
2022-12-14 15:35:29.363148, 1.80840
2022-12-14 15:35:29.364151, 1.77908
2022-12-14 15:35:29.396884, 1.75953
2022-12-14 15:35:29.397228, 1.75464
2022-12-14 15:35:29.430292, 1.75464
2022-12-14 15:35:29.430530, 1.75464
2022-12-14 15:35:29.430530, 1.75464
2022-12-14 15:35:29.464033, 1.73509
2022-12-14 15:35:29.464033, 1.73509
2022-12-14 15:35:29.465037, 1.73509
2022-12-14 15:35:29.496586, 1.72531
2022-12-14 15:35:29.497592, 1.72531
2022-12-14 15:35:29.530733, 1.73020
2022-12-14 15:35:29.530733, 1.73998
2022-12-14 15:35:29.531734, 1.73998
2022-12-14 15:35:29.564300, 1.74486
2022-12-14 15:35:29.564590, 1.72531
2022-12-14 15:35:29.565173, 1.73020
2022-12-14 15:35:29.598002, 1.72043
2022-12-14 15:35:29.598346, 1.71065
2022-12-14 15:35:29.631456, 1.71065
2022-12-14 15:35:29.631693, 1.71554
2022-12-14 15:35:29.631693, 1.73020
2022-12-14 15:35:29.665173, 1.71554
2022-12-14 15:35:29.665173, 1.68621
2022-12-14 15:35:29.666174, 1.69110
2022-12-14 15:35:29.698626, 1.68132
2022-12-14 15:35:29.698973, 1.67155
2022-12-14 15:35:29.731952, 1.67155
2022-12-14 15:35:29.732474, 1.67155
2022-12-14 15:35:29.733477, 1.66666
2022-12-14 15:35:29.764468, 1.65689
2022-12-14 15:35:29.765474, 1.67155
2022-12-14 15:35:29.765474, 1.65200
2022-12-14 15:35:29.799069, 1.65200
2022-12-14 15:35:29.799412, 1.63734
2022-12-14 15:35:29.832468, 1.63734
2022-12-14 15:35:29.832468, 1.64222
2022-12-14 15:35:29.833393, 1.63734
2022-12-14 15:35:29.866226, 1.62756
2022-12-14 15:35:29.866516, 1.62756
2022-12-14 15:35:29.866516, 1.63245
2022-12-14 15:35:29.899650, 1.63245
2022-12-14 15:35:29.899991, 1.63734
2022-12-14 15:35:29.933204, 1.61779
2022-12-14 15:35:29.933485, 1.62756
2022-12-14 15:35:29.934049, 1.62756
2022-12-14 15:35:29.966755, 1.62756
2022-12-14 15:35:29.967090, 1.61779
2022-12-14 15:35:29.967090, 1.61779
2022-12-14 15:35:30.000418, 1.64222
2022-12-14 15:35:30.000418, 1.61290
2022-12-14 15:35:30.033844, 1.60801
2022-12-14 15:35:30.034373, 1.61290
2022-12-14 15:35:30.035376, 1.62756
2022-12-14 15:35:30.066696, 1.61290
2022-12-14 15:35:30.066696, 1.60801
2022-12-14 15:35:30.067701, 1.61290
2022-12-14 15:35:30.100310, 1.61779
2022-12-14 15:35:30.100630, 1.60801
2022-12-14 15:35:30.134304, 1.60312
2022-12-14 15:35:30.134544, 1.60801
2022-12-14 15:35:30.134544, 1.63245
2022-12-14 15:35:30.167946, 1.60801
2022-12-14 15:35:30.168241, 1.60312
2022-12-14 15:35:30.168829, 1.61290
2022-12-14 15:35:30.201398, 1.62267
2022-12-14 15:35:30.201741, 1.63734
2022-12-14 15:35:30.235062, 1.70087
2022-12-14 15:35:30.235300, 1.71554
2022-12-14 15:35:30.235896, 1.76930
2022-12-14 15:35:30.268608, 1.80351
2022-12-14 15:35:30.268898, 1.84750
2022-12-14 15:35:30.268898, 1.85239
2022-12-14 15:35:30.302181, 1.86217
2022-12-14 15:35:30.302526, 1.87194
2022-12-14 15:35:30.335602, 1.84261
2022-12-14 15:35:30.335602, 1.83773
2022-12-14 15:35:30.336604, 1.82306
2022-12-14 15:35:30.369179, 1.80840
2022-12-14 15:35:30.369179, 1.78885
2022-12-14 15:35:30.370187, 1.78396
2022-12-14 15:35:30.401833, 1.78396
2022-12-14 15:35:30.401833, 1.77908
2022-12-14 15:35:30.436125, 1.76441
2022-12-14 15:35:30.436360, 1.76441
2022-12-14 15:35:30.436360, 1.76441
2022-12-14 15:35:30.469473, 1.75464
2022-12-14 15:35:30.469473, 1.74486
2022-12-14 15:35:30.470398, 1.74486
2022-12-14 15:35:30.503260, 1.74975
2022-12-14 15:35:30.503260, 1.75464
2022-12-14 15:35:30.536714, 1.74975
2022-12-14 15:35:30.537276, 1.75464
2022-12-14 15:35:30.537276, 1.76930
2022-12-14 15:35:30.570255, 1.75953
2022-12-14 15:35:30.570255, 1.74975
2022-12-14 15:35:30.571308, 1.74975
2022-12-14 15:35:30.603810, 1.74975
2022-12-14 15:35:30.604319, 1.74486
2022-12-14 15:35:30.637347, 1.72531
2022-12-14 15:35:30.637347, 1.72043
2022-12-14 15:35:30.638388, 1.72043
