63.97191815946609
61.81986268846998
60.42309591642924
61.238807711301035
61.994096410256404
61.735959766309634
61.735959766309634
64.06656489451476
69.58735827956988
74.03430322580644
75.05176889744824
70.32576465296606
65.59976040848389
63.35400284495021
62.30753047652915
62.586589774774765
63.49483377934271
68.86008100156494
75.55750415945967
80.11411814847852
74.03020917926835
64.62007005238138
57.29761012352596
58.267955098362016
60.16495927248247
60.410428099642964
60.668564743589734
62.065331515630476
66.65371036178433
71.50913771221167
73.82015182595183
71.44099242424241
68.28496464646464
66.27658333333333
64.31904711673698
61.62487706253644
58.69699587110404
59.491785011676996
61.88332226526871
64.50857065609227
64.23675965130758
62.581856235320075
62.00080125815113
62.83827300262287
63.361251138411134
61.79025064458397
59.23130920314253
58.966467711301036
61.118523182297146
63.390863182297146
64.49317641861037
64.19872288288288
65.39356832889226
67.2901955149018
68.84781204447485
68.53665437624323
66.35342574879226
65.39289555555555
67.0415667827529
67.92525456053068
66.22585498788109
62.619647544087414
61.45690046806402
61.9935529646902
62.788342105263155
63.95108918128655
66.07436645054665
70.39314130434781
73.15466560990338
72.19413541666665
67.6035495580808
63.67927817650186
63.67927817650186
65.11383625730994
64.84202525252525
64.24493891618891
63.647852579852575
66.38195151033385
68.9874191598015
71.23317672333518
69.0499480958842
66.44448044641655
66.44448044641656
71.31200656663515
76.32753179186037
79.54663222191348
79.12605104793147
76.35628338623992
69.78911215633988
62.209092361618474
56.9640173876511
57.22885887949259
60.94298870514639
65.83893330158962
67.58464905062931
67.2901955149018
65.10696688745082
63.912121441441435
62.05451950617283
60.01032609251821
58.199843816095445
78.32828764325593
99.94956413383363
100.9443346153846
81.0613596153846
59.913276044634365
59.913276044634365
60.95974841305542
63.725594352891974
65.73615159377316
66.30181233346022
64.29125509257904
62.54553934353934
63.77383123543123
66.43376100131752
66.16891950947601
63.58017773732413
62.619647544087414
65.96771834393434
72.34369344941956
77.67629210842338
78.78914518678161
72.16148685344827
64.3741999228395
60.17811753647586
63.34786717415702
65.20546910942562
63.26122098108338
59.14466301006888
58.579002270381835
63.6064797067295
67.39371304006283
65.86229006188569
61.51944878048779
59.725496148908846
62.419666203109394
63.95108918128655
88.46844181286549
103.36782876376988
102.83117626714369
79.78772837981975
68.87217977135617
75.4393510012562
79.54663222191348
73.10810560786774
64.86152774146694
57.74891879837751
58.76904898917437
59.45368514412416
81.91455549072236
95.83600608360774
95.3741483600305
74.44470099160945
59.50312020792722
60.44992854126055
58.91850556308339
59.16397439024389
61.0705610340795
64.3959366438356
66.60515608828005
65.2083893162393
63.69349598290598
63.09640964656964
66.44448044641656
67.9593737797499
67.12190203527814
63.26401136363636
60.67526959148446
62.10982767229254
63.72196078040065
65.08241066066066
63.647852579852575
63.361251138411134
64.58954303030302
66.02410111111111
64.69856944444444
61.37319383468834
60.21044675866494
61.822579866773054
62.81735034832403
62.54553934353934
61.979878603852285
61.721741959905515
60.46212998651305
59.1701887909315
59.96497793150445
62.659147985705
65.11383625730994
66.27658333333333
68.28496464646464
71.0464889520202
68.83726950757574
63.450081985294105
58.4793382352941
60.38592487912972
63.76473108828005
66.2851082009561
68.23641222876229
71.79966939722107
75.05176889744824
72.5194098924731
64.53771383512543
58.76523722222221
57.949525427350416
59.44008312480691
59.19461429764642
59.7312667942726
63.29035354126055
66.37624736842105
67.85015211267606
67.85015211267606
66.91631375651167
67.23636164383561
64.6476198716837
63.25085309964297
60.92024797143784
63.50898974358974
66.50793016591251
69.16785993179879
68.84781204447485
67.24563839419282
66.59626586918772
68.29348951408741
69.55665250793297
68.08274776367796
64.37496687789707
63.725594352891974
66.89672274204668
70.97528171640565
73.04328344988345
72.33444298642533
71.60395481191327
70.87346663740122
66.64604459629562
60.98061074283565
55.52294047349271
56.49328544832876
59.075489993783314
76.94315822784809
98.66739473684208
96.50554907088014
104.5390743234054
95.1421795865633
116.41233888888887
115.2181662162162
123.54175595980594
125.63470069664805
102.52745948043184
81.3793759096816
60.44992854126055
62.659147985705
64.23014847953216
63.95833747474747
61.030456283315075
59.95660784449651
59.691766352655016
60.66211132749107
60.16495927248247
60.16495927248247
61.81986268846998
64.27455096007492
65.37686419638817
63.22480872539205
62.34112094761427
65.31736668566
69.4207261844623
68.09519451779562
63.021865061885684
59.16397439024389
57.77679008791831
56.25110277632609
74.24046110965944
91.09218152309612
105.68184444444444
114.59298169934638
113.08883229036293
121.41242203395267
92.91214684801625
78.46680953613249
57.56419479254274
59.41565761809199
60.947080596269146
64.80497126791094
68.77088879763859
70.24479354189359
65.66824112326385
61.96046023748297
61.05221623291502
63.09640964656964
63.361251138411134
64.58954303030302
66.772771657754
69.50687058823527
68.57303223207089
67.90469693795325
68.61353740141136
67.48161212121212
63.47160035650623
59.505682826778575
61.57144646314221
64.3531663359562
65.42701477477476
64.19872288288288
65.75633941245593
70.20328435869249
72.09991154470202
68.93016190702086
62.67273468436154
58.91850556308339
60.530638671191504
63.856014280947605
65.71361621621621
92.4196596232596
94.94448184548182
104.63835412953057
80.53777837195483
112.0980561497326
125.09346464646464
121.38568376068375
83.97520815092767
59.67379426203876
62.333724027925044
68.18392185990336
73.54916908212559
72.89979655712048
67.04959872514218
63.59093814675556
63.91098603407951
65.44240901225666
63.535822368421044
60.69539736842104
62.48934999999999
67.07772884615383
70.58648914027148
69.95528358471593
66.14156610219845
63.67927817650186
63.08219184016552
63.08219184016552
63.647852579852575
65.89361014338625
71.31200656663515
75.89293124541229
79.1120316754654
107.8855850954767
125.99394119748035
123.88769384578544
94.28632986111111
96.8854115604575
113.8905875472996
109.57181269349843
82.92300033311125
61.9935529646902
63.467457708945204
66.05619948109711
66.05619948109711
64.3104837320574
61.721741959905515
62.28740269959257
64.03311844863225
66.30181233346022
65.73615159377316
65.12236112493272
66.45987468389845
68.2538273154774
65.86229006188569
61.05759105691056
57.27035772357723
58.2651282051282
58.966467711301036
59.19461429764642
57.73798609251821
58.758116283315076
61.38336467413864
62.839992879266845
61.58038090587438
59.67379426203876
61.37319383468834
68.05120223132968
75.1281933330246
78.69145050148337
81.01966771459813
98.2440905017921
91.75295214190092
84.5572088085676
60.50747814752681
60.27933156118143
58.46884928475866
59.54269772357723
62.39609270074617
63.65570467413864
62.084704180311476
61.79025064458397
62.34112094761427
61.639781441441436
59.30898658634538
58.758116283315076
61.914144061092856
62.6328058080808
61.61267561728394
59.157987345679
60.77012045378711
63.856014280947605
65.14795547652915
63.78750559626915
60.947080596269146
59.655139400687595
60.72898783950616
60.980671067354265
60.74118928475866
58.46884928475866
57.97169722975006
58.45664783950616
58.01627187051391
57.09215393296853
63.28521171985377
82.66175435551268
85.44347422832668
93.21080314356908
75.99610617387212
74.89379293755889
60.21474448844328
61.05221623291502
64.40028703276194
69.70732762590374
94.9956901060309
111.02077443438911
108.04452869634338
85.00192377974989
70.89142539265312
74.25003603454502
70.39214536290322
63.450081985294105
59.52581060371516
61.735030048159615
65.11383625730994
66.27658333333333
66.90778888888889
69.28694829059829
73.70538717948718
76.2302094017094
75.49972122719734
69.64672425750038
65.60700870194482
63.07464969696969
63.07464969696969
62.2589379020979
62.2589379020979
64.99303683257918
66.38980360461991
65.8389333015896
63.10483437110834
62.52377939393939
64.58954303030302
67.3236419607843
67.90469693795325
66.97085858178886
68.43284203767122
71.89150261605783
68.17737279040404
61.819444738078445
56.70588074370433
59.023243797317384
59.925477489886866
59.42832543487827
60.24403722975006
64.58687851114796
68.34110763242609
70.87346663740122
69.22479541020388
69.22479541020387
69.95528358471593
71.25482443438912
69.35819724837958
66.09535006889242
64.79580921921922
64.50920777777777
62.93820728395061
59.78217950617283
60.06878094761427
63.15467477477477
65.71361621621621
65.14795547652915
63.63306214319582
64.86135403508771
65.72146831050227
65.44240901225666
63.648456380677715
62.25168960863697
64.04564224021593
67.21677062937061
70.21571105169339
71.59288680926915
70.54503568937454
71.25387615283266
71.25387615283266
69.6962596232596
64.99370825592776
61.28592737014687
61.28592737014687
63.98009742434742
65.08241066066066
65.9906546652286
66.95118485846531
68.50880138803836
69.8463149470041
70.89416606689869
70.24479354189359
67.43337523867285
63.467457708945204
62.272612262935816
62.00080125815113
61.030456283315075
58.53533785194253
58.80714885672721
62.36623560371517
66.05619948109711
64.76425828551555
60.53664898318997
57.531321260757814
58.55145145155468
60.19031898172836
61.18508946327933
60.410428099642964
61.205217240215916
61.7418697368421
61.256919127086
60.72026663045982
60.72026663045982
65.42281799779167
68.08274776367796
68.36180706192357
65.75633941245593
66.09535006889242
68.9874191598015
71.96366489784724
72.67250536130535
72.67250536130535
71.25387615283266
66.55132478550081
61.164137263219175
57.509437015781906
74.26227626190163
74.04467872428194
79.11800818019188
65.37049665650432
66.7576809588299
81.08237589316384
102.86341266937669
103.90988503779774
84.0500029239766
59.263638425331614
58.991827420546926
64.15623651145602
68.49907779285391
70.56484142921754
67.39371304006283
65.14795547652915
64.21411712036476
64.49317641861037
63.390863182297146
62.530748906882586
62.81735034832403
63.08219184016552
63.08219184016552
63.37664537589303
66.1107443063743
69.281872695529
70.88404634581103
69.281872695529
66.67640504606135
65.68802186461977
67.2901955149018
67.00359407346036
64.99303683257918
61.994096410256404
62.877784188034184
64.88834142891537
65.9906546652286
64.55609658442052
62.81038083538083
64.36799736495388
66.76308563899867
68.19764371980676
65.80255544576195
62.147855198324706
60.44845562567513
60.183614133833636
60.183614133833636
58.95513251505081
57.96036203349984
60.351899287091555
65.28816179165526
70.36149124756521
70.06703771183771
65.130775207274
59.59558802778682
58.23513814752681
59.463619766309634
60.410428099642964
60.15874487179486
60.69539736842104
63.865147006102205
66.7055720061022
68.49952463768115
67.23636164383561
67.23636164383561
68.2538273154774
68.2538273154774
64.69474056848944
61.34666976864253
62.948843418924554
68.25588401206636
71.60395481191327
70.30441396224008
64.7692267827529
69.949052020202
77.31311683501683
100.23584490519227
92.24460136452241
81.28413280293756
63.89659191224931
72.42340380308752
99.3744131054131
94.54056543209876
85.21896440068758
60.16495927248247
63.58017773732412
68.69374173169825
72.04181253154516
69.91853526228506
64.55328804006282
62.30753047652915
62.586589774774765
62.83827300262287
60.056553129808876
58.731021463142206
61.988098529411744
68.93016190702086
74.7026385199241
75.41147898338221
71.84822181492342
67.40127686868686
64.79580921921922
62.10163916501867
59.176327900650854
70.81951145920941
99.62263858411703
116.68695429292927
125.40755736310471
96.14257251461987
79.95937465652082
57.26479317269076
59.258073874445145
88.2949121365846
104.47810999468366
103.18616879910212
75.37781215574547
61.525409152742476
63.67746462373859
64.21411712036476
63.11180388405153
61.71503711201079
63.50898974358974
65.2083893162393
66.31070255255256
64.79580921921922
65.42701477477476
66.02410111111111
66.60515608828005
64.81120345670111
63.37664537589303
63.67927817650186
65.15318292075686
65.15318292075686
62.225301729324464
59.704924616648405
59.97673562143309
61.47005873205741
60.98510812230131
59.938635753880256
61.684351502919945
65.3390517503572
67.54827119480166
66.6400271902337
65.37686419638817
64.77977786005182
62.682694142187614
61.0277907262001
62.256082618091995
69.36869156118144
75.74466666666666
76.4130019607843
79.91440636330002
91.27610636330002
103.23188218029348
117.40423333333332
98.69621325301205
81.22103922055263
54.90898741031541
66.33386646499567
75.88632248979226
91.15227707780724
80.20059094295443
71.27158853718058
57.29761012352596
58.86861061735313
59.53713317269076
59.08620815497282
57.042014741318205
59.08620815497282
64.84417376583255
69.78043627039627
70.66412404817405
66.07574520202019
61.858144444444434
61.261058108108095
61.77087797990297
61.525409152742476
59.913276044634365
60.44992854126055
62.30753047652915
61.36072214319582
59.14466301006888
56.3629431372549
58.084412834224594
60.02866096256684
59.81106342494714
57.43662246360963
55.492374335267385
73.14744727395659
99.04864076054663
100.2182275252525
84.20202211673697
61.22613989451476
64.06656489451476
68.78562541666666
74.08775208333333
78.78914518678161
80.89539253847651
80.0402108180464
78.69145050148339
71.36899057262798
63.193077421263204
54.79080018993351
63.557544017094
109.70352555555554
111.66727617283948
102.42733942585153
58.199843816095445
58.69699587110404
62.924417912209634
69.602426308851
73.20863375264467
68.98121171153909
61.400969622328255
56.37349218598058
58.41768559963519
62.32524701463684
67.00359407346036
66.72453477521475
63.03457089783281
60.03563047551004
82.09639932330519
102.17905986849888
102.17905986849888
78.82634982512216
59.42832543487827
58.199843816095445
58.95513251505081
61.64930256925136
62.877784188034184
62.122495489078815
59.19461429764642
58.68479442585154
59.704924616648405
62.33017300747197
65.83893330158962
67.58464905062931
66.72453477521475
63.467457708945204
60.947080596269146
61.5127413359562
65.11894877974989
69.33654953732565
71.23317672333518
67.88510592348825
65.57409180974813
65.57409180974813
68.2340215756344
67.37390730021986
64.11683023395031
62.55921370437726
64.03311844863225
66.30181233346022
67.5301042253521
68.86761778431784
90.64865456053067
96.32950456053067
120.78979040404039
98.1005096232596
88.63242628992627
70.44331251062383
65.01525490756622
65.96206324089954
55.348049895294395
61.37319383468834
65.5907945922641
68.59612231469626
67.71243453691847
64.00465365113759
62.8098082051282
62.2589379020979
62.00080125815113
59.28808528915888
58.51342392552251
58.51342392552251
60.152291455696194
60.4039746835443
59.9068226285357
60.429800764323964
60.17811753647586
60.93340623543123
60.668564743589734
62.57515138742535
67.4305787378527
71.13835962363359
70.27824534821903
62.70377868155236
58.240709096816104
57.96889809203142
60.687937408270734
61.18508946327933
60.16495927248247
60.429800764323964
63.01854253647586
64.3104837320574
62.36623560371517
59.28034177655467
59.008530771769976
93.31640920314253
116.66911924651923
119.06420752056403
86.70057721753372
63.84501922916562
60.67526959148446
61.5127413359562
62.873191216216206
63.38301108801108
62.280697851697845
64.52645541523152
68.98737929343666
73.44830317164178
70.63688486842105
63.65550319707273
58.439290619912235
59.00495135959929
62.34112094761427
62.34112094761427
62.05451950617283
62.34112094761427
62.586589774774765
59.873873805782516
57.09215393296853
58.99874057680414
62.90630199180578
65.12236112493272
62.970305653936606
60.204459714100054
59.4096705735271
62.4955644006876
64.6476198716837
64.3959366438356
61.31004281667511
87.721632687991
104.83023908333983
109.2933086680761
84.83302282456637
69.63100307305315
71.18587892838062
83.59587689310246
94.26831524926683
93.08421748251746
81.78707259615385
73.79642644230769
75.4011053830391
77.05801996637243
77.44038487021857
78.32431818502823
77.06190707391713
84.67018832391713
78.10301709401708
85.99308653846153
103.23852403846152
132.55316666666664
130.60385539215685
119.69246667264464
106.97661056799349
114.58367895632442
117.64652491267873
141.83332813271448
141.83332813271448
125.62988500877562
93.37219130248192
82.98039252199412
85.2308707336523
84.71442982456138
84.71442982456138
83.31913333333333
81.87484943502824
77.9419532811821
75.17218561949055
74.28825230468087
73.91747421610279
73.56834383857864
71.59288680926915
71.59288680926915
73.05487026515151
73.80801325757575
75.78347028688523
77.00578432377048
75.89293124541227
72.86962309620819
70.89416606689869
71.25387615283266
73.44937373737372
74.20251672979796
74.20251672979796
75.03032729446099
76.25264133134624
79.1120316754654
79.99596499027507
79.16815442561204
75.94905399555891
72.04181253154516
68.00209697598962
67.65296659846545
67.65296659846545
68.53665437624323
73.54916908212559
74.23731011608622
76.61646951779562
77.13291042688653
80.81683785869302
83.77027711598745
83.77027711598745
87.53446440469602
111.42057452705421
117.84739472907441
127.4440040805073
111.48061196581195
106.14513859054989
94.81580810621941
87.3742268196697
83.01764069672387
77.66195719504037
75.4114789833822
76.2666607038123
78.2421177331218
77.83488834244079
75.7956088552613
73.11131136249371
71.25482443438912
71.63718933823529
72.34602980169339
73.4256483537296
73.4256483537296
74.17879134615384
74.95565972222221
74.95565972222221
77.06190707391713
76.6674036016949
75.91426060927066
71.35764662025181
68.29348951408741
66.91631375651167
68.98431548998946
72.44297606837605
74.96779829059828
75.35016319444443
73.84280664386401
71.64730905932294
70.18532560344059
67.9395680399069
66.09535006889242
63.912121441441435
63.912121441441435
64.79580921921922
68.0586563987064
70.30441396224008
70.30441396224008
67.92525456053068
67.23711352657004
68.53665437624323
71.69268215402101
73.88817973856209
73.21984444444443
69.18012888888887
64.86135403508771
63.92751567892333
64.50857065609227
65.36868493150683
65.07423139577932
64.77977786005182
65.71361621621621
68.68986195426194
70.93561951779563
70.61557163047169
67.35272445098451
64.54130614776378
63.92751567892333
65.77173364993781
66.93448072596121
67.54827119480166
67.21894655712049
68.5184874067937
70.21571105169339
70.21571105169339
68.31908386568387
65.14795547652915
63.35400284495021
64.26224684951816
67.0736651527389
69.88508345595963
70.20513134328357
68.2538273154774
66.60515608828005
66.93448072596121
67.54827119480166
66.95118485846533
65.39356832889226
65.71361621621621
68.31908386568387
70.56484142921754
70.56484142921754
69.51699030932294
68.8288492753623
69.8463149470041
68.28869841743105
66.16542114817095
63.08219184016552
62.79559039872408
65.25787832442067
67.3236419607843
67.61024340222573
65.71361621621621
65.08241066066066
68.0586563987064
70.30441396224008
71.60395481191327
69.53595307843548
67.58464905062931
66.59626586918772
65.40142042317834
64.82036544600939
63.912121441441435
65.10696688745082
67.63932589242594
68.5475698969939
67.35272445098451
65.70405322378716
66.35342574879226
70.39314130434781
71.69268215402101
70.42951916017547
66.67640504606135
64.49317641861037
64.79580921921922
67.40127686868686
69.58450549613784
69.89566316436944
68.5184874067937
67.5301042253521
68.5184874067937
70.6488061567937
72.34602980169339
71.67769450757575
68.61353740141136
66.60515608828005
67.62262175992184
71.08128233830845
73.08966365143976
72.74053327391562
69.89566316436944
69.18682270091134
70.26644125294754
71.96366489784724
73.04328344988345
72.67250536130535
71.96366489784724
72.34602980169339
73.90090565702086
74.98052420905707
74.22738121663282
71.96366489784724
71.23317672333518
71.23317672333519
73.49689304212076
75.4114789833822
76.55912544802867
75.0042495927012
73.08966365143976
71.23317672333518
71.98631971575944
74.75608737745097
77.44038487021857
78.66269890710382
76.62341941992433
75.01874047919293
72.33444298642533
72.71680789027148
72.71680789027148
72.04847259615384
69.5981059588299
67.21894655712049
66.89889866979655
68.59612231469626
71.75215009247403
75.42483076668321
75.7956088552613
73.93912192715673
70.26644125294754
68.84781204447485
69.55665250793297
73.22933318214214
75.03032729446099
74.32148683100289
70.96885404411763
68.83853529411763
69.18766567164178
72.119717284545
73.86767113069885
73.5185407531747
70.26644125294754
67.58464905062931
67.58464905062931
70.42951916017546
72.38082318798165
72.38082318798165
69.53595307843548
68.19843951946976
66.89889866979655
67.21894655712049
70.06381666666667
72.82534097222222
73.15466560990338
70.62984338768115
67.56568628151676
66.91631375651167
67.58464905062931
71.45053901969692
75.5578202403542
78.2421177331218
76.32753179186037
72.54029845852703
69.85600096575942
70.96885404411763
72.34602980169339
72.0070191452569
70.54503568937454
69.49718456947996
71.29817868179879
73.98247617456639
77.88971763858015
81.44024888858014
83.2701459262563
85.76643908382064
86.28287999291155
87.29764107744106
86.24563181818179
82.1786596590909
76.64970404411763
71.98631971575942
71.98631971575944
73.84280664386401
74.57329481837607
74.1909299145299
73.79642644230769
74.98052420905707
77.46913646459814
80.0402108180464
80.89539253847651
79.18364865900382
75.8594313131313
72.07219797979798
70.56484142921754
72.119717284545
73.86767113069885
74.22738121663282
71.62465424141075
69.55665250793297
67.85942886303326
70.05492644757433
74.1622076682316
77.00707777777777
76.2302094017094
72.12292818105212
69.27805807150595
70.05492644757433
74.1622076682316
78.71882165725046
79.12605104793147
79.57538381629305
82.0716769738574
84.82047536095416
83.51596087216248
78.16027737047898
72.15937948315502
70.60450362782757
73.01456120358515
76.68724187779432
78.2421177331218
76.9797066220107
75.37502768127929
74.1909299145299
74.59815930521091
73.86767113069885
72.78805257866266
69.85600096575942
68.20732973856208
68.20732973856208
71.1393813514653
73.5185407531747
73.17953009673822
69.01918659194311
66.04294085389736
66.38195151033385
70.13506562444798
74.29540912924308
74.29540912924308
70.25569357368752
65.80874862745097
64.82036544600939
67.35272445098451
69.196942421999
70.89416606689869
72.40152261747912
75.0042495927012
77.41430716845878
77.01980369623655
74.08775208333333
68.50656611842105
104.83123198380565
113.92059198380565
116.04386925306575
80.11370685990337
73.15466560990338
74.20251672979796
71.67769450757575
68.31908386568387
66.31070255255256
66.9790378466702
68.20732973856208
68.20732973856208
66.60515608828005
65.9739505327245
66.93448072596121
69.61627292827944
70.57680312151615
68.73258515050166
65.75633941245593
65.42701477477476
68.31908386568387
70.9245515151515
73.44937373737372
75.0042495927012
75.75739258512544
75.75739258512544
73.84280664386401
70.19759456053067
86.80826707515055
104.92629614035087
105.80998391812865
88.4224430274404
70.30441396224008
72.31279527537139
71.58230710085932
71.9420171867933
72.69516017921754
72.0070191452569
69.9986378321256
66.93448072596121
66.60515608828005
68.98431548998946
70.93561951779563
71.26494415547678
69.196942421999
68.84781204447485
70.6488061567937
72.71680789027148
73.79642644230769
71.99543232998884
71.62465424141075
71.62465424141075
71.2953296037296
68.68986195426194
65.14795547652915
66.52513123410492
70.68547473890003
75.0042495927012
74.64453950676723
72.04181253154516
71.64730905932294
74.41707672101448
75.83570592948718
74.03471181716833
70.247478483835
69.16785993179879
71.77058690702086
73.90090565702087
75.36288911290322
74.17879134615384
73.4256483537296
74.22738121663282
75.83206015736423
76.20283824594232
73.27078663303908
69.5981059588299
67.5301042253521
69.27805807150595
73.38533929216322
77.05801996637243
78.2421177331218
76.20283824594232
73.86767113069885
73.06593826779563
73.44830317164178
74.17879134615384
71.72842470882989
70.61557163047169
70.61557163047169
74.28825230468087
77.05801996637243
79.0972994535519
78.67671827956988
77.41430716845878
76.15189605734767
76.57247723132969
76.17797375910746
73.65315153688525
70.30051875
68.1702
70.30051875
72.4308375
74.17879134615384
73.79642644230769
73.41406153846154
75.45334102564102
77.9419532811821
79.12605104793147
76.71599347217389
72.47942737047897
68.61353740141136
68.61353740141136
72.4007707347447
78.03600219435737
80.89539253847651
80.0402108180464
76.35628338623992
71.79966939722107
71.79966939722107
73.7142553384825
