2022-12-01 18:13:45.431596
2022-12-01 18:13:45.439905
2022-12-01 18:13:45.451307
2022-12-01 18:13:45.459565
2022-12-01 18:13:45.467770
2022-12-01 18:13:45.480755
2022-12-01 18:13:45.488702
2022-12-01 18:13:45.496799
2022-12-01 18:13:45.504884
2022-12-01 18:13:45.516522
2022-12-01 18:13:45.524779
2022-12-01 18:13:45.532678
2022-12-01 18:13:45.544988
2022-12-01 18:13:45.553457
2022-12-01 18:13:45.561201
2022-12-01 18:13:45.569572
2022-12-01 18:13:45.581403
2022-12-01 18:13:45.590585
2022-12-01 18:13:45.598033
2022-12-01 18:13:45.610609
2022-12-01 18:13:45.618777
2022-12-01 18:13:45.626800
2022-12-01 18:13:45.636169
2022-12-01 18:13:45.648681
2022-12-01 18:13:45.655958
2022-12-01 18:13:45.664488
2022-12-01 18:13:45.677196
2022-12-01 18:13:45.685109
2022-12-01 18:13:45.693281
2022-12-01 18:13:45.701678
2022-12-01 18:13:45.713732
2022-12-01 18:13:45.721723
2022-12-01 18:13:45.729961
2022-12-01 18:13:45.742998
2022-12-01 18:13:45.750429
2022-12-01 18:13:45.758604
2022-12-01 18:13:45.766840
2022-12-01 18:13:45.779164
2022-12-01 18:13:45.788112
2022-12-01 18:13:45.796143
2022-12-01 18:13:45.808456
2022-12-01 18:13:45.815523
2022-12-01 18:13:45.824034
2022-12-01 18:13:45.832152
2022-12-01 18:13:45.845109
2022-12-01 18:13:45.853036
2022-12-01 18:13:45.861164
2022-12-01 18:13:45.868824
2022-12-01 18:13:45.881619
2022-12-01 18:13:45.889284
2022-12-01 18:13:45.897912
2022-12-01 18:13:45.910970
2022-12-01 18:13:45.919101
2022-12-01 18:13:45.927357
2022-12-01 18:13:45.934727
2022-12-01 18:13:45.947140
2022-12-01 18:13:45.955714
2022-12-01 18:13:45.964208
2022-12-01 18:13:45.975986
2022-12-01 18:13:45.983759
2022-12-01 18:13:45.991485
2022-12-01 18:13:46.000095
2022-12-01 18:13:46.013220
2022-12-01 18:13:46.021396
2022-12-01 18:13:46.029147
2022-12-01 18:13:46.041400
2022-12-01 18:13:46.048748
2022-12-01 18:13:46.057620
2022-12-01 18:13:46.065293
2022-12-01 18:13:46.078907
2022-12-01 18:13:46.086213
2022-12-01 18:13:46.094751
2022-12-01 18:13:46.106966
2022-12-01 18:13:46.115295
2022-12-01 18:13:46.123412
2022-12-01 18:13:46.131589
2022-12-01 18:13:46.142859
2022-12-01 18:13:46.151856
2022-12-01 18:13:46.159159
2022-12-01 18:13:46.172074
2022-12-01 18:13:46.180406
2022-12-01 18:13:46.189190
2022-12-01 18:13:46.197209
2022-12-01 18:13:46.209267
2022-12-01 18:13:46.217553
2022-12-01 18:13:46.225820
2022-12-01 18:13:46.238172
2022-12-01 18:13:46.246819
2022-12-01 18:13:46.253912
2022-12-01 18:13:46.263225
2022-12-01 18:13:46.275503
2022-12-01 18:13:46.282574
2022-12-01 18:13:46.291873
2022-12-01 18:13:46.302894
2022-12-01 18:13:46.311848
2022-12-01 18:13:46.320462
2022-12-01 18:13:46.328946
2022-12-01 18:13:46.341007
2022-12-01 18:13:46.348514
2022-12-01 18:13:46.356892
2022-12-01 18:13:46.369106
2022-12-01 18:13:46.377269
2022-12-01 18:13:46.385451
2022-12-01 18:13:46.393614
2022-12-01 18:13:46.405396
2022-12-01 18:13:46.414722
2022-12-01 18:13:46.422157
2022-12-01 18:13:46.435112
2022-12-01 18:13:46.442235
2022-12-01 18:13:46.451464
2022-12-01 18:13:46.459805
2022-12-01 18:13:46.471582
2022-12-01 18:13:46.479681
2022-12-01 18:13:46.487855
2022-12-01 18:13:46.499936
2022-12-01 18:13:46.508376
2022-12-01 18:13:46.516405
2022-12-01 18:13:46.525213
2022-12-01 18:13:46.536864
2022-12-01 18:13:46.544847
2022-12-01 18:13:46.553512
2022-12-01 18:13:46.565099
2022-12-01 18:13:46.574607
2022-12-01 18:13:46.581649
2022-12-01 18:13:46.589891
2022-12-01 18:13:46.602878
2022-12-01 18:13:46.611367
2022-12-01 18:13:46.618694
2022-12-01 18:13:46.631740
2022-12-01 18:13:46.639938
2022-12-01 18:13:46.648116
2022-12-01 18:13:46.656331
2022-12-01 18:13:46.667233
2022-12-01 18:13:46.676459
2022-12-01 18:13:46.685151
2022-12-01 18:13:46.696862
2022-12-01 18:13:46.704433
2022-12-01 18:13:46.712688
2022-12-01 18:13:46.720312
2022-12-01 18:13:46.733350
2022-12-01 18:13:46.742338
2022-12-01 18:13:46.749829
2022-12-01 18:13:46.758159
2022-12-01 18:13:46.771140
2022-12-01 18:13:46.778596
2022-12-01 18:13:46.786942
2022-12-01 18:13:46.798461
2022-12-01 18:13:46.807856
2022-12-01 18:13:46.815037
2022-12-01 18:13:46.824273
2022-12-01 18:13:46.836377
2022-12-01 18:13:46.844812
2022-12-01 18:13:46.852308
2022-12-01 18:13:46.864862
2022-12-01 18:13:46.872951
2022-12-01 18:13:46.881156
2022-12-01 18:13:46.889344
2022-12-01 18:13:46.901004
2022-12-01 18:13:46.909844
2022-12-01 18:13:46.917551
2022-12-01 18:13:46.929586
2022-12-01 18:13:46.938335
2022-12-01 18:13:46.946386
2022-12-01 18:13:46.954497
2022-12-01 18:13:46.966027
2022-12-01 18:13:46.974977
2022-12-01 18:13:46.983077
2022-12-01 18:13:46.994737
2022-12-01 18:13:47.003692
2022-12-01 18:13:47.012688
2022-12-01 18:13:47.020346
2022-12-01 18:13:47.031567
2022-12-01 18:13:47.040920
2022-12-01 18:13:47.048906
2022-12-01 18:13:47.061360
2022-12-01 18:13:47.069620
2022-12-01 18:13:47.077880
2022-12-01 18:13:47.086542
2022-12-01 18:13:47.097855
2022-12-01 18:13:47.106361
2022-12-01 18:13:47.114456
2022-12-01 18:13:47.126791
2022-12-01 18:13:47.135659
2022-12-01 18:13:47.142562
2022-12-01 18:13:47.151243
2022-12-01 18:13:47.164356
2022-12-01 18:13:47.172650
2022-12-01 18:13:47.179388
2022-12-01 18:13:47.191490
2022-12-01 18:13:47.199512
2022-12-01 18:13:47.208634
2022-12-01 18:13:47.216647
2022-12-01 18:13:47.229394
2022-12-01 18:13:47.237581
2022-12-01 18:13:47.245693
2022-12-01 18:13:47.257668
2022-12-01 18:13:47.265950
2022-12-01 18:13:47.274327
2022-12-01 18:13:47.282348
2022-12-01 18:13:47.295318
2022-12-01 18:13:47.303155
2022-12-01 18:13:47.311187
2022-12-01 18:13:47.324060
2022-12-01 18:13:47.331566
2022-12-01 18:13:47.340192
2022-12-01 18:13:47.348116
2022-12-01 18:13:47.360044
2022-12-01 18:13:47.368966
2022-12-01 18:13:47.376737
2022-12-01 18:13:47.388675
2022-12-01 18:13:47.397180
2022-12-01 18:13:47.405580
2022-12-01 18:13:47.413341
2022-12-01 18:13:47.425779
2022-12-01 18:13:47.434293
2022-12-01 18:13:47.442295
2022-12-01 18:13:47.454531
2022-12-01 18:13:47.463378
2022-12-01 18:13:47.471034
2022-12-01 18:13:47.478992
2022-12-01 18:13:47.492077
2022-12-01 18:13:47.499451
2022-12-01 18:13:47.508058
2022-12-01 18:13:47.520669
2022-12-01 18:13:47.528144
2022-12-01 18:13:47.536968
2022-12-01 18:13:47.544973
2022-12-01 18:13:47.557097
2022-12-01 18:13:47.564798
2022-12-01 18:13:47.573246
2022-12-01 18:13:47.581245
2022-12-01 18:13:47.593637
2022-12-01 18:13:47.602235
2022-12-01 18:13:47.610000
2022-12-01 18:13:47.623158
2022-12-01 18:13:47.631158
2022-12-01 18:13:47.638326
2022-12-01 18:13:47.647562
2022-12-01 18:13:47.659886
2022-12-01 18:13:47.667637
2022-12-01 18:13:47.675653
2022-12-01 18:13:47.688647
2022-12-01 18:13:47.695946
2022-12-01 18:13:47.704558
2022-12-01 18:13:47.712342
2022-12-01 18:13:47.725307
2022-12-01 18:13:47.732791
2022-12-01 18:13:47.741329
2022-12-01 18:13:47.753526
2022-12-01 18:13:47.760846
2022-12-01 18:13:47.769718
2022-12-01 18:13:47.777973
2022-12-01 18:13:47.790368
2022-12-01 18:13:47.797887
2022-12-01 18:13:47.806905
2022-12-01 18:13:47.818819
2022-12-01 18:13:47.826358
2022-12-01 18:13:47.835229
2022-12-01 18:13:47.843640
2022-12-01 18:13:47.856351
2022-12-01 18:13:47.864292
2022-12-01 18:13:47.871770
2022-12-01 18:13:47.884631
2022-12-01 18:13:47.892795
2022-12-01 18:13:47.901082
2022-12-01 18:13:47.908937
2022-12-01 18:13:47.921571
2022-12-01 18:13:47.929492
2022-12-01 18:13:47.937684
2022-12-01 18:13:47.949903
2022-12-01 18:13:47.958170
2022-12-01 18:13:47.966291
2022-12-01 18:13:47.975372
2022-12-01 18:13:47.986811
2022-12-01 18:13:47.995252
2022-12-01 18:13:48.003277
2022-12-01 18:13:48.015281
2022-12-01 18:13:48.022899
2022-12-01 18:13:48.031968
2022-12-01 18:13:48.040352
2022-12-01 18:13:48.052607
2022-12-01 18:13:48.060306
2022-12-01 18:13:48.069239
2022-12-01 18:13:48.081081
2022-12-01 18:13:48.089525
2022-12-01 18:13:48.097658
2022-12-01 18:13:48.105633
2022-12-01 18:13:48.118604
2022-12-01 18:13:48.126031
2022-12-01 18:13:48.134561
2022-12-01 18:13:48.146547
2022-12-01 18:13:48.155562
2022-12-01 18:13:48.163747
2022-12-01 18:13:48.171832
2022-12-01 18:13:48.182975
2022-12-01 18:13:48.191622
2022-12-01 18:13:48.199056
2022-12-01 18:13:48.211937
2022-12-01 18:13:48.219521
2022-12-01 18:13:48.229079
2022-12-01 18:13:48.237220
2022-12-01 18:13:48.248846
2022-12-01 18:13:48.257298
2022-12-01 18:13:48.265520
2022-12-01 18:13:48.277999
2022-12-01 18:13:48.285865
2022-12-01 18:13:48.294761
2022-12-01 18:13:48.302455
2022-12-01 18:13:48.314376
2022-12-01 18:13:48.322105
2022-12-01 18:13:48.331144
2022-12-01 18:13:48.343641
2022-12-01 18:13:48.351083
2022-12-01 18:13:48.359774
2022-12-01 18:13:48.367348
2022-12-01 18:13:48.379541
2022-12-01 18:13:48.388194
2022-12-01 18:13:48.396886
2022-12-01 18:13:48.409061
2022-12-01 18:13:48.417195
2022-12-01 18:13:48.425130
2022-12-01 18:13:48.433463
2022-12-01 18:13:48.445868
2022-12-01 18:13:48.454104
2022-12-01 18:13:48.462429
2022-12-01 18:13:48.470655
2022-12-01 18:13:48.481912
2022-12-01 18:13:48.490138
2022-12-01 18:13:48.498803
2022-12-01 18:13:48.511812
2022-12-01 18:13:48.519116
2022-12-01 18:13:48.528202
2022-12-01 18:13:48.535871
2022-12-01 18:13:48.547746
2022-12-01 18:13:48.556982
2022-12-01 18:13:48.564909
2022-12-01 18:13:48.576966
2022-12-01 18:13:48.585172
2022-12-01 18:13:48.592921
2022-12-01 18:13:48.601325
2022-12-01 18:13:48.613594
2022-12-01 18:13:48.622006
2022-12-01 18:13:48.629124
2022-12-01 18:13:48.642032
2022-12-01 18:13:48.650380
2022-12-01 18:13:48.657791
2022-12-01 18:13:48.665971
2022-12-01 18:13:48.678532
2022-12-01 18:13:48.686443
2022-12-01 18:13:48.695243
2022-12-01 18:13:48.707591
2022-12-01 18:13:48.715813
2022-12-01 18:13:48.723427
2022-12-01 18:13:48.731638
2022-12-01 18:13:48.744836
2022-12-01 18:13:48.753045
2022-12-01 18:13:48.760850
2022-12-01 18:13:48.773495
2022-12-01 18:13:48.781358
2022-12-01 18:13:48.790356
2022-12-01 18:13:48.796931
2022-12-01 18:13:48.809650
2022-12-01 18:13:48.818495
2022-12-01 18:13:48.826683
2022-12-01 18:13:48.839633
2022-12-01 18:13:48.847517
2022-12-01 18:13:48.856117
2022-12-01 18:13:48.864089
2022-12-01 18:13:48.876069
2022-12-01 18:13:48.884665
2022-12-01 18:13:48.892862
2022-12-01 18:13:48.904876
2022-12-01 18:13:48.912847
2022-12-01 18:13:48.920955
2022-12-01 18:13:48.929040
2022-12-01 18:13:48.941462
2022-12-01 18:13:48.949145
2022-12-01 18:13:48.957013
2022-12-01 18:13:48.969500
2022-12-01 18:13:48.977652
2022-12-01 18:13:48.986527
2022-12-01 18:13:48.994109
2022-12-01 18:13:49.007452
2022-12-01 18:13:49.014213
2022-12-01 18:13:49.023900
2022-12-01 18:13:49.035643
2022-12-01 18:13:49.044255
2022-12-01 18:13:49.052483
2022-12-01 18:13:49.060230
2022-12-01 18:13:49.072992
2022-12-01 18:13:49.080870
2022-12-01 18:13:49.088893
2022-12-01 18:13:49.100878
2022-12-01 18:13:49.109397
2022-12-01 18:13:49.117546
2022-12-01 18:13:49.125618
2022-12-01 18:13:49.137720
2022-12-01 18:13:49.145972
2022-12-01 18:13:49.153961
2022-12-01 18:13:49.167263
2022-12-01 18:13:49.174673
2022-12-01 18:13:49.182827
2022-12-01 18:13:49.191791
2022-12-01 18:13:49.203681
2022-12-01 18:13:49.211120
2022-12-01 18:13:49.220358
2022-12-01 18:13:49.231825
2022-12-01 18:13:49.241032
2022-12-01 18:13:49.248341
2022-12-01 18:13:49.256986
2022-12-01 18:13:49.268735
2022-12-01 18:13:49.277040
2022-12-01 18:13:49.285288
2022-12-01 18:13:49.297366
2022-12-01 18:13:49.305858
2022-12-01 18:13:49.313410
2022-12-01 18:13:49.322986
2022-12-01 18:13:49.334956
2022-12-01 18:13:49.343434
2022-12-01 18:13:49.351609
2022-12-01 18:13:49.359712
2022-12-01 18:13:49.371977
2022-12-01 18:13:49.379223
2022-12-01 18:13:49.388468
2022-12-01 18:13:49.400755
2022-12-01 18:13:49.408298
2022-12-01 18:13:49.416987
2022-12-01 18:13:49.424493
2022-12-01 18:13:49.437163
2022-12-01 18:13:49.445235
2022-12-01 18:13:49.453405
2022-12-01 18:13:49.465157
2022-12-01 18:13:49.473587
2022-12-01 18:13:49.481855
2022-12-01 18:13:49.490236
2022-12-01 18:13:49.502093
2022-12-01 18:13:49.511350
2022-12-01 18:13:49.519550
2022-12-01 18:13:49.530624
2022-12-01 18:13:49.540060
2022-12-01 18:13:49.547137
2022-12-01 18:13:49.556308
2022-12-01 18:13:49.568441
2022-12-01 18:13:49.576725
2022-12-01 18:13:49.584995
2022-12-01 18:13:49.597149
2022-12-01 18:13:49.605255
2022-12-01 18:13:49.613168
2022-12-01 18:13:49.621454
2022-12-01 18:13:49.633572
2022-12-01 18:13:49.641572
2022-12-01 18:13:49.649872
2022-12-01 18:13:49.661980
2022-12-01 18:13:49.670118
2022-12-01 18:13:49.679288
2022-12-01 18:13:49.685716
2022-12-01 18:13:49.698909
2022-12-01 18:13:49.707984
2022-12-01 18:13:49.716385
2022-12-01 18:13:49.727252
2022-12-01 18:13:49.736085
2022-12-01 18:13:49.744337
2022-12-01 18:13:49.752997
2022-12-01 18:13:49.763828
2022-12-01 18:13:49.773020
2022-12-01 18:13:49.780145
2022-12-01 18:13:49.792864
2022-12-01 18:13:49.801458
2022-12-01 18:13:49.809119
2022-12-01 18:13:49.817744
2022-12-01 18:13:49.830463
2022-12-01 18:13:49.839128
2022-12-01 18:13:49.847276
2022-12-01 18:13:49.859186
2022-12-01 18:13:49.866641
2022-12-01 18:13:49.875370
2022-12-01 18:13:49.883527
2022-12-01 18:13:49.895898
2022-12-01 18:13:49.904089
2022-12-01 18:13:49.912250
2022-12-01 18:13:49.925055
2022-12-01 18:13:49.932260
2022-12-01 18:13:49.941252
2022-12-01 18:13:49.948605
2022-12-01 18:13:49.961349
2022-12-01 18:13:49.969549
2022-12-01 18:13:49.977668
2022-12-01 18:13:49.990507
2022-12-01 18:13:49.998187
2022-12-01 18:13:50.006879
2022-12-01 18:13:50.014636
2022-12-01 18:13:50.027337
2022-12-01 18:13:50.035557
2022-12-01 18:13:50.043245
2022-12-01 18:13:50.056093
2022-12-01 18:13:50.063536
2022-12-01 18:13:50.072435
2022-12-01 18:13:50.080362
2022-12-01 18:13:50.091966
2022-12-01 18:13:50.100189
2022-12-01 18:13:50.108726
2022-12-01 18:13:50.121158
2022-12-01 18:13:50.128600
2022-12-01 18:13:50.137348
2022-12-01 18:13:50.146087
2022-12-01 18:13:50.158420
2022-12-01 18:13:50.166344
2022-12-01 18:13:50.173994
2022-12-01 18:13:50.182238
2022-12-01 18:13:50.193988
2022-12-01 18:13:50.201945
2022-12-01 18:13:50.211674
2022-12-01 18:13:50.223109
2022-12-01 18:13:50.230946
2022-12-01 18:13:50.239016
2022-12-01 18:13:50.247100
2022-12-01 18:13:50.259940
2022-12-01 18:13:50.267887
2022-12-01 18:13:50.276550
2022-12-01 18:13:50.287903
2022-12-01 18:13:50.296865
2022-12-01 18:13:50.305352
2022-12-01 18:13:50.313381
2022-12-01 18:13:50.324983
2022-12-01 18:13:50.333405
2022-12-01 18:13:50.342802
2022-12-01 18:13:50.354572
2022-12-01 18:13:50.362711
2022-12-01 18:13:50.371420
2022-12-01 18:13:50.379067
2022-12-01 18:13:50.390507
2022-12-01 18:13:50.399322
2022-12-01 18:13:50.407814
2022-12-01 18:13:50.420064
2022-12-01 18:13:50.428768
2022-12-01 18:13:50.436237
2022-12-01 18:13:50.445253
2022-12-01 18:13:50.457072
2022-12-01 18:13:50.464279
2022-12-01 18:13:50.473337
2022-12-01 18:13:50.485657
2022-12-01 18:13:50.494385
2022-12-01 18:13:50.502219
2022-12-01 18:13:50.510131
2022-12-01 18:13:50.522428
2022-12-01 18:13:50.529899
2022-12-01 18:13:50.538842
2022-12-01 18:13:50.551234
2022-12-01 18:13:50.559191
2022-12-01 18:13:50.567502
2022-12-01 18:13:50.574872
2022-12-01 18:13:50.588718
2022-12-01 18:13:50.596686
2022-12-01 18:13:50.604163
2022-12-01 18:13:50.616608
2022-12-01 18:13:50.624909
2022-12-01 18:13:50.632872
2022-12-01 18:13:50.641291
2022-12-01 18:13:50.652701
2022-12-01 18:13:50.660769
2022-12-01 18:13:50.670100
2022-12-01 18:13:50.681781
2022-12-01 18:13:50.690399
2022-12-01 18:13:50.698462
2022-12-01 18:13:50.707035
2022-12-01 18:13:50.718912
2022-12-01 18:13:50.726298
2022-12-01 18:13:50.735729
2022-12-01 18:13:50.746904
2022-12-01 18:13:50.756322
2022-12-01 18:13:50.764042
2022-12-01 18:13:50.772682
2022-12-01 18:13:50.784908
2022-12-01 18:13:50.792915
2022-12-01 18:13:50.800915
2022-12-01 18:13:50.813306
2022-12-01 18:13:50.821338
2022-12-01 18:13:50.829636
2022-12-01 18:13:50.837741
2022-12-01 18:13:50.850089
2022-12-01 18:13:50.858368
2022-12-01 18:13:50.866329
2022-12-01 18:13:50.879343
2022-12-01 18:13:50.887524
2022-12-01 18:13:50.895819
2022-12-01 18:13:50.903336
2022-12-01 18:13:50.915113
2022-12-01 18:13:50.924480
2022-12-01 18:13:50.931750
2022-12-01 18:13:50.943468
2022-12-01 18:13:50.951907
2022-12-01 18:13:50.959802
2022-12-01 18:13:50.968990
2022-12-01 18:13:50.980263
2022-12-01 18:13:50.988812
2022-12-01 18:13:50.996556
2022-12-01 18:13:51.008836
2022-12-01 18:13:51.017827
2022-12-01 18:13:51.026344
2022-12-01 18:13:51.034598
2022-12-01 18:13:51.046643
2022-12-01 18:13:51.054509
2022-12-01 18:13:51.063103
2022-12-01 18:13:51.069951
2022-12-01 18:13:51.084310
2022-12-01 18:13:51.092340
2022-12-01 18:13:51.099896
2022-12-01 18:13:51.112820
2022-12-01 18:13:51.120912
2022-12-01 18:13:51.128907
2022-12-01 18:13:51.136886
2022-12-01 18:13:51.148757
2022-12-01 18:13:51.157496
2022-12-01 18:13:51.165347
2022-12-01 18:13:51.177677
2022-12-01 18:13:51.185828
2022-12-01 18:13:51.193725
2022-12-01 18:13:51.202624
2022-12-01 18:13:51.214289
2022-12-01 18:13:51.222981
2022-12-01 18:13:51.230626
2022-12-01 18:13:51.242665
2022-12-01 18:13:51.251783
2022-12-01 18:13:51.259717
2022-12-01 18:13:51.268178
2022-12-01 18:13:51.279845
2022-12-01 18:13:51.288222
2022-12-01 18:13:51.296416
2022-12-01 18:13:51.309018
2022-12-01 18:13:51.316649
2022-12-01 18:13:51.325138
2022-12-01 18:13:51.333683
2022-12-01 18:13:51.345105
2022-12-01 18:13:51.353830
2022-12-01 18:13:51.361994
2022-12-01 18:13:51.374880
2022-12-01 18:13:51.382459
2022-12-01 18:13:51.390845
2022-12-01 18:13:51.398661
2022-12-01 18:13:51.411823
2022-12-01 18:13:51.419549
2022-12-01 18:13:51.428235
2022-12-01 18:13:51.438876
2022-12-01 18:13:51.447910
2022-12-01 18:13:51.456294
2022-12-01 18:13:51.464451
2022-12-01 18:13:51.477161
2022-12-01 18:13:51.484597
2022-12-01 18:13:51.493349
2022-12-01 18:13:51.505576
2022-12-01 18:13:51.512925
2022-12-01 18:13:51.521835
2022-12-01 18:13:51.529961
2022-12-01 18:13:51.542904
2022-12-01 18:13:51.551097
2022-12-01 18:13:51.559271
2022-12-01 18:13:51.571651
2022-12-01 18:13:51.579221
2022-12-01 18:13:51.588070
2022-12-01 18:13:51.596142
2022-12-01 18:13:51.607570
2022-12-01 18:13:51.616112
2022-12-01 18:13:51.624830
2022-12-01 18:13:51.636021
2022-12-01 18:13:51.644925
2022-12-01 18:13:51.652935
2022-12-01 18:13:51.661193
2022-12-01 18:13:51.673433
2022-12-01 18:13:51.681795
2022-12-01 18:13:51.689836
2022-12-01 18:13:51.702596
2022-12-01 18:13:51.710822
2022-12-01 18:13:51.719196
2022-12-01 18:13:51.727594
2022-12-01 18:13:51.738036
2022-12-01 18:13:51.746904
2022-12-01 18:13:51.754388
2022-12-01 18:13:51.766743
2022-12-01 18:13:51.775093
2022-12-01 18:13:51.783466
2022-12-01 18:13:51.792081
2022-12-01 18:13:51.803743
2022-12-01 18:13:51.812513
2022-12-01 18:13:51.820080
2022-12-01 18:13:51.832179
2022-12-01 18:13:51.841176
2022-12-01 18:13:51.849396
2022-12-01 18:13:51.857516
2022-12-01 18:13:51.869000
2022-12-01 18:13:51.877179
2022-12-01 18:13:51.887089
2022-12-01 18:13:51.898456
2022-12-01 18:13:51.907125
2022-12-01 18:13:51.914827
2022-12-01 18:13:51.923929
2022-12-01 18:13:51.935743
2022-12-01 18:13:51.943325
2022-12-01 18:13:51.952240
2022-12-01 18:13:51.960701
2022-12-01 18:13:51.972592
2022-12-01 18:13:51.980350
2022-12-01 18:13:51.988938
2022-12-01 18:13:52.001298
2022-12-01 18:13:52.009335
2022-12-01 18:13:52.017522
2022-12-01 18:13:52.025861
2022-12-01 18:13:52.038233
2022-12-01 18:13:52.046175
2022-12-01 18:13:52.054475
2022-12-01 18:13:52.066406
2022-12-01 18:13:52.074601
2022-12-01 18:13:52.082909
2022-12-01 18:13:52.091104
2022-12-01 18:13:52.104095
2022-12-01 18:13:52.111459
2022-12-01 18:13:52.120549
2022-12-01 18:13:52.131994
2022-12-01 18:13:52.139552
2022-12-01 18:13:52.149172
2022-12-01 18:13:52.156495
2022-12-01 18:13:52.169184
2022-12-01 18:13:52.177273
2022-12-01 18:13:52.185737
2022-12-01 18:13:52.197271
2022-12-01 18:13:52.206544
2022-12-01 18:13:52.213974
2022-12-01 18:13:52.222936
2022-12-01 18:13:52.234651
2022-12-01 18:13:52.243087
2022-12-01 18:13:52.250211
2022-12-01 18:13:52.261847
2022-12-01 18:13:52.271696
2022-12-01 18:13:52.279485
2022-12-01 18:13:52.288082
2022-12-01 18:13:52.299863
2022-12-01 18:13:52.308221
2022-12-01 18:13:52.316006
2022-12-01 18:13:52.328498
2022-12-01 18:13:52.337057
2022-12-01 18:13:52.345337
2022-12-01 18:13:52.353676
2022-12-01 18:13:52.364800
2022-12-01 18:13:52.373151
2022-12-01 18:13:52.382587
2022-12-01 18:13:52.394364
2022-12-01 18:13:52.402386
2022-12-01 18:13:52.410493
2022-12-01 18:13:52.419057
2022-12-01 18:13:52.430658
2022-12-01 18:13:52.439742
2022-12-01 18:13:52.447471
2022-12-01 18:13:52.460172
2022-12-01 18:13:52.468016
2022-12-01 18:13:52.475717
2022-12-01 18:13:52.483413
2022-12-01 18:13:52.496144
2022-12-01 18:13:52.504978
2022-12-01 18:13:52.512805
2022-12-01 18:13:52.525498
2022-12-01 18:13:52.533630
2022-12-01 18:13:52.542092
2022-12-01 18:13:52.550006
2022-12-01 18:13:52.562186
2022-12-01 18:13:52.570618
2022-12-01 18:13:52.578800
2022-12-01 18:13:52.590994
2022-12-01 18:13:52.599155
2022-12-01 18:13:52.607225
2022-12-01 18:13:52.614793
2022-12-01 18:13:52.627660
2022-12-01 18:13:52.636044
2022-12-01 18:13:52.643317
2022-12-01 18:13:52.656928
2022-12-01 18:13:52.664271
2022-12-01 18:13:52.673072
2022-12-01 18:13:52.680885
2022-12-01 18:13:52.693411
2022-12-01 18:13:52.701401
2022-12-01 18:13:52.709886
2022-12-01 18:13:52.721836
2022-12-01 18:13:52.729266
2022-12-01 18:13:52.737666
2022-12-01 18:13:52.746609
2022-12-01 18:13:52.758972
2022-12-01 18:13:52.766874
2022-12-01 18:13:52.775410
2022-12-01 18:13:52.783371
2022-12-01 18:13:52.795952
2022-12-01 18:13:52.803989
2022-12-01 18:13:52.811809
2022-12-01 18:13:52.824922
2022-12-01 18:13:52.833050
2022-12-01 18:13:52.841195
2022-12-01 18:13:52.849087
2022-12-01 18:13:52.861376
2022-12-01 18:13:52.869595
2022-12-01 18:13:52.877838
2022-12-01 18:13:52.889294
2022-12-01 18:13:52.898113
2022-12-01 18:13:52.906349
2022-12-01 18:13:52.914440
2022-12-01 18:13:52.927367
2022-12-01 18:13:52.934679
2022-12-01 18:13:52.943883
2022-12-01 18:13:52.956157
2022-12-01 18:13:52.964127
2022-12-01 18:13:52.972501
2022-12-01 18:13:52.979100
2022-12-01 18:13:52.992882
2022-12-01 18:13:53.001012
2022-12-01 18:13:53.009193
2022-12-01 18:13:53.020398
2022-12-01 18:13:53.028877
2022-12-01 18:13:53.037329
2022-12-01 18:13:53.045467
2022-12-01 18:13:53.056861
2022-12-01 18:13:53.065822
2022-12-01 18:13:53.074165
2022-12-01 18:13:53.086358
2022-12-01 18:13:53.094546
2022-12-01 18:13:53.101742
2022-12-01 18:13:53.111691
2022-12-01 18:13:53.123890
2022-12-01 18:13:53.131416
2022-12-01 18:13:53.140354
2022-12-01 18:13:53.151341
2022-12-01 18:13:53.160142
2022-12-01 18:13:53.168208
2022-12-01 18:13:53.176748
2022-12-01 18:13:53.189189
2022-12-01 18:13:53.197051
2022-12-01 18:13:53.205417
2022-12-01 18:13:53.217665
2022-12-01 18:13:53.224899
2022-12-01 18:13:53.233815
2022-12-01 18:13:53.242024
2022-12-01 18:13:53.254406
2022-12-01 18:13:53.262299
2022-12-01 18:13:53.270507
2022-12-01 18:13:53.282550
2022-12-01 18:13:53.292016
2022-12-01 18:13:53.300120
2022-12-01 18:13:53.307472
2022-12-01 18:13:53.320701
2022-12-01 18:13:53.328439
2022-12-01 18:13:53.336930
2022-12-01 18:13:53.348017
2022-12-01 18:13:53.357296
2022-12-01 18:13:53.365201
2022-12-01 18:13:53.373197
2022-12-01 18:13:53.385614
2022-12-01 18:13:53.393365
2022-12-01 18:13:53.401813
2022-12-01 18:13:53.413523
2022-12-01 18:13:53.421604
2022-12-01 18:13:53.430092
2022-12-01 18:13:53.438299
2022-12-01 18:13:53.451216
2022-12-01 18:13:53.459471
2022-12-01 18:13:53.467517
2022-12-01 18:13:53.478963
2022-12-01 18:13:53.488112
2022-12-01 18:13:53.495450
2022-12-01 18:13:53.504536
2022-12-01 18:13:53.517289
2022-12-01 18:13:53.524867
2022-12-01 18:13:53.532910
2022-12-01 18:13:53.544953
2022-12-01 18:13:53.553591
2022-12-01 18:13:53.561357
2022-12-01 18:13:53.569750
2022-12-01 18:13:53.582715
2022-12-01 18:13:53.589689
2022-12-01 18:13:53.598257
2022-12-01 18:13:53.611414
2022-12-01 18:13:53.619157
2022-12-01 18:13:53.627894
2022-12-01 18:13:53.635979
2022-12-01 18:13:53.646914
2022-12-01 18:13:53.656358
2022-12-01 18:13:53.663867
2022-12-01 18:13:53.671806
2022-12-01 18:13:53.684488
2022-12-01 18:13:53.693283
2022-12-01 18:13:53.701258
2022-12-01 18:13:53.712332
2022-12-01 18:13:53.721387
2022-12-01 18:13:53.729770
2022-12-01 18:13:53.737831
2022-12-01 18:13:53.750261
2022-12-01 18:13:53.758451
2022-12-01 18:13:53.765487
2022-12-01 18:13:53.778526
2022-12-01 18:13:53.787631
2022-12-01 18:13:53.795153
2022-12-01 18:13:53.803636
2022-12-01 18:13:53.816256
2022-12-01 18:13:53.824369
2022-12-01 18:13:53.832083
2022-12-01 18:13:53.844940
2022-12-01 18:13:53.852278
2022-12-01 18:13:53.861288
2022-12-01 18:13:53.868687
2022-12-01 18:13:53.880881
2022-12-01 18:13:53.889510
2022-12-01 18:13:53.897696
2022-12-01 18:13:53.910108
2022-12-01 18:13:53.918205
2022-12-01 18:13:53.926386
2022-12-01 18:13:53.935103
2022-12-01 18:13:53.945959
2022-12-01 18:13:53.955581
2022-12-01 18:13:53.962914
2022-12-01 18:13:53.974208
2022-12-01 18:13:53.984217
2022-12-01 18:13:53.991590
2022-12-01 18:13:54.000306
2022-12-01 18:13:54.012226
2022-12-01 18:13:54.019556
2022-12-01 18:13:54.028771
2022-12-01 18:13:54.040969
2022-12-01 18:13:54.049574
2022-12-01 18:13:54.057319
2022-12-01 18:13:54.065826
2022-12-01 18:13:54.078309
2022-12-01 18:13:54.086650
2022-12-01 18:13:54.094727
2022-12-01 18:13:54.106626
2022-12-01 18:13:54.114536
2022-12-01 18:13:54.123547
2022-12-01 18:13:54.130902
2022-12-01 18:13:54.142917
2022-12-01 18:13:54.151645
2022-12-01 18:13:54.158488
2022-12-01 18:13:54.171707
2022-12-01 18:13:54.179878
2022-12-01 18:13:54.188457
2022-12-01 18:13:54.196202
2022-12-01 18:13:54.209076
2022-12-01 18:13:54.216970
2022-12-01 18:13:54.225283
2022-12-01 18:13:54.237701
2022-12-01 18:13:54.245326
2022-12-01 18:13:54.254451
2022-12-01 18:13:54.262019
2022-12-01 18:13:54.274655
2022-12-01 18:13:54.282466
2022-12-01 18:13:54.291065
2022-12-01 18:13:54.303713
2022-12-01 18:13:54.310929
2022-12-01 18:13:54.320126
2022-12-01 18:13:54.328211
2022-12-01 18:13:54.339792
2022-12-01 18:13:54.347475
2022-12-01 18:13:54.356290
2022-12-01 18:13:54.368221
2022-12-01 18:13:54.376615
2022-12-01 18:13:54.384659
2022-12-01 18:13:54.393261
2022-12-01 18:13:54.405515
2022-12-01 18:13:54.413434
2022-12-01 18:13:54.421767
2022-12-01 18:13:54.434003
2022-12-01 18:13:54.442689
2022-12-01 18:13:54.450770
2022-12-01 18:13:54.459004
2022-12-01 18:13:54.471014
2022-12-01 18:13:54.478615
2022-12-01 18:13:54.488081
2022-12-01 18:13:54.500355
2022-12-01 18:13:54.507818
2022-12-01 18:13:54.516737
2022-12-01 18:13:54.524336
2022-12-01 18:13:54.537019
2022-12-01 18:13:54.544940
2022-12-01 18:13:54.553083
2022-12-01 18:13:54.561056
2022-12-01 18:13:54.573378
2022-12-01 18:13:54.581767
2022-12-01 18:13:54.590437
2022-12-01 18:13:54.602046
2022-12-01 18:13:54.610386
2022-12-01 18:13:54.618596
2022-12-01 18:13:54.626954
2022-12-01 18:13:54.639501
2022-12-01 18:13:54.646923
2022-12-01 18:13:54.655822
2022-12-01 18:13:54.668160
2022-12-01 18:13:54.675596
2022-12-01 18:13:54.684547
2022-12-01 18:13:54.692836
2022-12-01 18:13:54.704948
2022-12-01 18:13:54.712489
2022-12-01 18:13:54.721008
2022-12-01 18:13:54.733350
2022-12-01 18:13:54.741491
2022-12-01 18:13:54.748587
2022-12-01 18:13:54.757468
2022-12-01 18:13:54.769859
2022-12-01 18:13:54.777473
2022-12-01 18:13:54.786353
2022-12-01 18:13:54.798809
2022-12-01 18:13:54.806776
2022-12-01 18:13:54.815089
2022-12-01 18:13:54.823202
2022-12-01 18:13:54.835098
2022-12-01 18:13:54.843886
2022-12-01 18:13:54.852074
2022-12-01 18:13:54.864257
2022-12-01 18:13:54.872325
2022-12-01 18:13:54.879938
2022-12-01 18:13:54.889255
2022-12-01 18:13:54.899923
2022-12-01 18:13:54.909044
2022-12-01 18:13:54.917299
2022-12-01 18:13:54.928997
2022-12-01 18:13:54.937464
2022-12-01 18:13:54.945322
2022-12-01 18:13:54.953243
2022-12-01 18:13:54.965843
2022-12-01 18:13:54.974504
2022-12-01 18:13:54.982496
2022-12-01 18:13:54.994159
2022-12-01 18:13:55.003730
2022-12-01 18:13:55.011696
2022-12-01 18:13:55.020006
2022-12-01 18:13:55.032317
2022-12-01 18:13:55.040531
2022-12-01 18:13:55.048619
2022-12-01 18:13:55.060179
2022-12-01 18:13:55.068724
2022-12-01 18:13:55.077307
2022-12-01 18:13:55.085559
2022-12-01 18:13:55.097464
2022-12-01 18:13:55.105765
2022-12-01 18:13:55.114009
2022-12-01 18:13:55.125689
2022-12-01 18:13:55.134741
2022-12-01 18:13:55.143206
2022-12-01 18:13:55.151321
2022-12-01 18:13:55.162698
2022-12-01 18:13:55.171056
2022-12-01 18:13:55.179520
2022-12-01 18:13:55.192301
2022-12-01 18:13:55.199976
2022-12-01 18:13:55.208483
2022-12-01 18:13:55.216607
2022-12-01 18:13:55.228289
2022-12-01 18:13:55.237333
2022-12-01 18:13:55.244977
2022-12-01 18:13:55.257519
2022-12-01 18:13:55.265829
2022-12-01 18:13:55.273602
2022-12-01 18:13:55.281391
2022-12-01 18:13:55.294192
2022-12-01 18:13:55.302686
2022-12-01 18:13:55.311202
2022-12-01 18:13:55.323052
2022-12-01 18:13:55.331004
2022-12-01 18:13:55.339083
2022-12-01 18:13:55.347550
2022-12-01 18:13:55.360308
2022-12-01 18:13:55.368167
2022-12-01 18:13:55.376418
2022-12-01 18:13:55.385008
2022-12-01 18:13:55.396655
2022-12-01 18:13:55.405354
2022-12-01 18:13:55.412601
2022-12-01 18:13:55.425436
2022-12-01 18:13:55.433609
2022-12-01 18:13:55.441866
2022-12-01 18:13:55.449709
2022-12-01 18:13:55.462054
2022-12-01 18:13:55.470571
2022-12-01 18:13:55.477770
2022-12-01 18:13:55.491201
2022-12-01 18:13:55.498899
2022-12-01 18:13:55.506328
2022-12-01 18:13:55.515619
2022-12-01 18:13:55.528186
2022-12-01 18:13:55.536314
2022-12-01 18:13:55.544269
2022-12-01 18:13:55.556425
2022-12-01 18:13:55.564626
2022-12-01 18:13:55.572497
2022-12-01 18:13:55.581328
2022-12-01 18:13:55.593342
2022-12-01 18:13:55.600989
2022-12-01 18:13:55.609868
2022-12-01 18:13:55.621305
2022-12-01 18:13:55.629959
2022-12-01 18:13:55.638493
2022-12-01 18:13:55.646634
2022-12-01 18:13:55.658990
2022-12-01 18:13:55.667060
2022-12-01 18:13:55.675265
2022-12-01 18:13:55.687658
2022-12-01 18:13:55.695636
2022-12-01 18:13:55.704042
2022-12-01 18:13:55.711405
2022-12-01 18:13:55.723784
2022-12-01 18:13:55.732656
2022-12-01 18:13:55.740834
2022-12-01 18:13:55.753145
2022-12-01 18:13:55.761236
2022-12-01 18:13:55.769656
2022-12-01 18:13:55.777720
2022-12-01 18:13:55.789333
2022-12-01 18:13:55.797423
2022-12-01 18:13:55.806406
2022-12-01 18:13:55.818385
2022-12-01 18:13:55.826908
2022-12-01 18:13:55.835304
2022-12-01 18:13:55.843255
2022-12-01 18:13:55.855575
2022-12-01 18:13:55.863543
2022-12-01 18:13:55.872320
2022-12-01 18:13:55.884327
2022-12-01 18:13:55.892392
2022-12-01 18:13:55.900649
2022-12-01 18:13:55.909511
2022-12-01 18:13:55.919989
2022-12-01 18:13:55.929018
2022-12-01 18:13:55.937428
2022-12-01 18:13:55.949798
2022-12-01 18:13:55.957549
2022-12-01 18:13:55.966222
2022-12-01 18:13:55.974127
2022-12-01 18:13:55.986232
2022-12-01 18:13:55.994499
2022-12-01 18:13:56.002091
2022-12-01 18:13:56.015153
2022-12-01 18:13:56.023526
2022-12-01 18:13:56.030752
2022-12-01 18:13:56.039957
2022-12-01 18:13:56.052342
2022-12-01 18:13:56.060348
2022-12-01 18:13:56.068455
2022-12-01 18:13:56.080668
2022-12-01 18:13:56.089287
2022-12-01 18:13:56.096788
2022-12-01 18:13:56.105390
2022-12-01 18:13:56.117806
2022-12-01 18:13:56.125609
2022-12-01 18:13:56.134251
2022-12-01 18:13:56.145474
2022-12-01 18:13:56.153655
2022-12-01 18:13:56.162081
2022-12-01 18:13:56.170283
2022-12-01 18:13:56.183262
2022-12-01 18:13:56.191332
2022-12-01 18:13:56.199576
2022-12-01 18:13:56.211183
2022-12-01 18:13:56.219844
2022-12-01 18:13:56.227821
2022-12-01 18:13:56.236397
2022-12-01 18:13:56.248928
2022-12-01 18:13:56.257289
2022-12-01 18:13:56.265340
2022-12-01 18:13:56.273414
2022-12-01 18:13:56.285653
2022-12-01 18:13:56.293922
2022-12-01 18:13:56.301659
2022-12-01 18:13:56.314063
2022-12-01 18:13:56.322309
2022-12-01 18:13:56.330182
2022-12-01 18:13:56.339037
2022-12-01 18:13:56.351337
2022-12-01 18:13:56.359341
2022-12-01 18:13:56.367591
2022-12-01 18:13:56.378886
2022-12-01 18:13:56.388221
2022-12-01 18:13:56.395810
2022-12-01 18:13:56.404189
2022-12-01 18:13:56.416011
2022-12-01 18:13:56.424366
2022-12-01 18:13:56.432539
2022-12-01 18:13:56.444365
2022-12-01 18:13:56.453516
2022-12-01 18:13:56.461250
2022-12-01 18:13:56.470208
2022-12-01 18:13:56.481862
2022-12-01 18:13:56.490345
2022-12-01 18:13:56.498550
2022-12-01 18:13:56.510965
2022-12-01 18:13:56.518577
2022-12-01 18:13:56.527292
2022-12-01 18:13:56.535394
2022-12-01 18:13:56.547512
2022-12-01 18:13:56.556318
2022-12-01 18:13:56.563919
2022-12-01 18:13:56.576244
2022-12-01 18:13:56.584784
2022-12-01 18:13:56.592308
2022-12-01 18:13:56.601293
2022-12-01 18:13:56.612210
2022-12-01 18:13:56.622000
2022-12-01 18:13:56.629599
2022-12-01 18:13:56.641731
2022-12-01 18:13:56.649964
2022-12-01 18:13:56.658216
2022-12-01 18:13:56.666383
2022-12-01 18:13:56.677668
2022-12-01 18:13:56.686801
2022-12-01 18:13:56.694639
2022-12-01 18:13:56.707325
2022-12-01 18:13:56.715688
2022-12-01 18:13:56.723035
2022-12-01 18:13:56.731623
2022-12-01 18:13:56.743249
2022-12-01 18:13:56.751403
2022-12-01 18:13:56.760183
2022-12-01 18:13:56.772380
2022-12-01 18:13:56.781257
2022-12-01 18:13:56.789267
2022-12-01 18:13:56.797517
2022-12-01 18:13:56.809831
2022-12-01 18:13:56.817904
2022-12-01 18:13:56.826175
2022-12-01 18:13:56.838432
2022-12-01 18:13:56.846339
2022-12-01 18:13:56.855559
2022-12-01 18:13:56.862700
2022-12-01 18:13:56.875332
2022-12-01 18:13:56.883101
2022-12-01 18:13:56.891990
2022-12-01 18:13:56.904233
2022-12-01 18:13:56.912153
2022-12-01 18:13:56.920974
2022-12-01 18:13:56.928711
2022-12-01 18:13:56.941311
2022-12-01 18:13:56.949115
2022-12-01 18:13:56.957348
2022-12-01 18:13:56.969728
2022-12-01 18:13:56.976886
2022-12-01 18:13:56.985904
2022-12-01 18:13:56.993925
2022-12-01 18:13:57.005841
2022-12-01 18:13:57.015192
2022-12-01 18:13:57.022296
2022-12-01 18:13:57.035671
2022-12-01 18:13:57.043898
2022-12-01 18:13:57.051509
2022-12-01 18:13:57.058898
2022-12-01 18:13:57.072065
2022-12-01 18:13:57.080132
2022-12-01 18:13:57.088206
2022-12-01 18:13:57.100254
2022-12-01 18:13:57.109252
2022-12-01 18:13:57.117228
2022-12-01 18:13:57.125141
2022-12-01 18:13:57.137554
2022-12-01 18:13:57.145807
2022-12-01 18:13:57.153791
2022-12-01 18:13:57.161500
2022-12-01 18:13:57.173945
2022-12-01 18:13:57.183164
2022-12-01 18:13:57.190488
2022-12-01 18:13:57.203621
2022-12-01 18:13:57.210970
2022-12-01 18:13:57.219912
2022-12-01 18:13:57.227512
2022-12-01 18:13:57.240173
2022-12-01 18:13:57.247900
2022-12-01 18:13:57.256875
2022-12-01 18:13:57.268568
2022-12-01 18:13:57.276848
2022-12-01 18:13:57.285348
2022-12-01 18:13:57.293241
2022-12-01 18:13:57.305488
2022-12-01 18:13:57.313340
2022-12-01 18:13:57.321851
2022-12-01 18:13:57.334787
2022-12-01 18:13:57.343025
2022-12-01 18:13:57.350070
2022-12-01 18:13:57.358940
2022-12-01 18:13:57.371625
2022-12-01 18:13:57.378391
2022-12-01 18:13:57.387929
2022-12-01 18:13:57.399864
2022-12-01 18:13:57.408415
2022-12-01 18:13:57.416626
2022-12-01 18:13:57.424796
2022-12-01 18:13:57.435785
2022-12-01 18:13:57.444189
2022-12-01 18:13:57.452632
2022-12-01 18:13:57.464265
2022-12-01 18:13:57.473185
2022-12-01 18:13:57.481571
2022-12-01 18:13:57.489833
2022-12-01 18:13:57.502195
2022-12-01 18:13:57.510263
2022-12-01 18:13:57.518537
2022-12-01 18:13:57.530610
2022-12-01 18:13:57.539494
2022-12-01 18:13:57.546923
2022-12-01 18:13:57.555893
2022-12-01 18:13:57.568255
2022-12-01 18:13:57.575687
2022-12-01 18:13:57.584545
2022-12-01 18:13:57.595875
2022-12-01 18:13:57.605026
2022-12-01 18:13:57.612434
2022-12-01 18:13:57.621641
2022-12-01 18:13:57.633250
2022-12-01 18:13:57.641302
2022-12-01 18:13:57.649505
2022-12-01 18:13:57.661493
2022-12-01 18:13:57.670036
2022-12-01 18:13:57.678136
2022-12-01 18:13:57.686297
2022-12-01 18:13:57.698475
2022-12-01 18:13:57.706805
2022-12-01 18:13:57.714903
2022-12-01 18:13:57.727307
2022-12-01 18:13:57.735650
2022-12-01 18:13:57.743962
2022-12-01 18:13:57.751314
2022-12-01 18:13:57.764771
2022-12-01 18:13:57.772925
2022-12-01 18:13:57.781165
2022-12-01 18:13:57.791894
2022-12-01 18:13:57.801178
2022-12-01 18:13:57.808968
2022-12-01 18:13:57.816688
2022-12-01 18:13:57.828664
2022-12-01 18:13:57.837786
2022-12-01 18:13:57.845954
2022-12-01 18:13:57.858380
2022-12-01 18:13:57.866562
2022-12-01 18:13:57.874697
2022-12-01 18:13:57.883111
2022-12-01 18:13:57.894914
2022-12-01 18:13:57.902554
2022-12-01 18:13:57.911712
2022-12-01 18:13:57.924588
2022-12-01 18:13:57.931794
2022-12-01 18:13:57.940898
2022-12-01 18:13:57.948213
2022-12-01 18:13:57.960535
2022-12-01 18:13:57.969109
2022-12-01 18:13:57.977349
2022-12-01 18:13:57.985321
2022-12-01 18:13:57.997865
2022-12-01 18:13:58.006466
2022-12-01 18:13:58.013950
2022-12-01 18:13:58.025801
2022-12-01 18:13:58.034093
2022-12-01 18:13:58.041952
2022-12-01 18:13:58.050564
2022-12-01 18:13:58.062276
2022-12-01 18:13:58.071018
2022-12-01 18:13:58.079088
2022-12-01 18:13:58.091213
2022-12-01 18:13:58.099031
2022-12-01 18:13:58.107902
2022-12-01 18:13:58.116365
2022-12-01 18:13:58.128820
2022-12-01 18:13:58.136291
2022-12-01 18:13:58.144596
2022-12-01 18:13:58.157546
2022-12-01 18:13:58.165657
2022-12-01 18:13:58.174297
2022-12-01 18:13:58.182571
2022-12-01 18:13:58.193373
2022-12-01 18:13:58.202068
2022-12-01 18:13:58.210399
2022-12-01 18:13:58.222425
2022-12-01 18:13:58.231162
2022-12-01 18:13:58.239207
2022-12-01 18:13:58.247615
2022-12-01 18:13:58.260410
2022-12-01 18:13:58.268053
2022-12-01 18:13:58.276782
2022-12-01 18:13:58.288593
2022-12-01 18:13:58.297045
2022-12-01 18:13:58.305069
2022-12-01 18:13:58.313187
2022-12-01 18:13:58.325540
2022-12-01 18:13:58.333109
2022-12-01 18:13:58.341860
2022-12-01 18:13:58.353898
2022-12-01 18:13:58.361326
2022-12-01 18:13:58.369774
2022-12-01 18:13:58.378510
2022-12-01 18:13:58.390455
2022-12-01 18:13:58.399106
2022-12-01 18:13:58.407465
2022-12-01 18:13:58.419672
2022-12-01 18:13:58.427025
2022-12-01 18:13:58.435928
2022-12-01 18:13:58.443409
2022-12-01 18:13:58.455555
2022-12-01 18:13:58.463918
2022-12-01 18:13:58.471895
2022-12-01 18:13:58.484451
2022-12-01 18:13:58.492735
2022-12-01 18:13:58.500872
2022-12-01 18:13:58.509774
2022-12-01 18:13:58.521583
2022-12-01 18:13:58.529978
2022-12-01 18:13:58.538397
2022-12-01 18:13:58.551311
2022-12-01 18:13:58.558700
2022-12-01 18:13:58.567608
2022-12-01 18:13:58.575132
2022-12-01 18:13:58.588082
2022-12-01 18:13:58.595630
2022-12-01 18:13:58.604551
2022-12-01 18:13:58.616491
2022-12-01 18:13:58.624618
2022-12-01 18:13:58.632996
2022-12-01 18:13:58.640995
2022-12-01 18:13:58.653249
2022-12-01 18:13:58.661090
2022-12-01 18:13:58.669533
2022-12-01 18:13:58.681590
2022-12-01 18:13:58.689847
2022-12-01 18:13:58.698048
2022-12-01 18:13:58.706364
2022-12-01 18:13:58.719170
2022-12-01 18:13:58.727360
2022-12-01 18:13:58.734783
2022-12-01 18:13:58.747277
2022-12-01 18:13:58.755628
2022-12-01 18:13:58.763668
2022-12-01 18:13:58.771755
2022-12-01 18:13:58.783868
2022-12-01 18:13:58.792310
2022-12-01 18:13:58.801000
2022-12-01 18:13:58.812336
2022-12-01 18:13:58.820987
2022-12-01 18:13:58.829094
2022-12-01 18:13:58.837152
2022-12-01 18:13:58.849692
2022-12-01 18:13:58.857757
2022-12-01 18:13:58.865687
2022-12-01 18:13:58.874121
2022-12-01 18:13:58.887068
2022-12-01 18:13:58.894230
2022-12-01 18:13:58.903469
2022-12-01 18:13:58.914425
2022-12-01 18:13:58.924055
2022-12-01 18:13:58.931576
2022-12-01 18:13:58.940345
2022-12-01 18:13:58.952738
2022-12-01 18:13:58.960309
2022-12-01 18:13:58.968521
2022-12-01 18:13:58.980283
2022-12-01 18:13:58.989349
2022-12-01 18:13:58.997352
2022-12-01 18:13:59.005432
2022-12-01 18:13:59.017665
2022-12-01 18:13:59.025851
2022-12-01 18:13:59.033916
2022-12-01 18:13:59.045405
2022-12-01 18:13:59.054242
2022-12-01 18:13:59.062391
2022-12-01 18:13:59.071016
2022-12-01 18:13:59.083254
2022-12-01 18:13:59.091886
2022-12-01 18:13:59.100229
2022-12-01 18:13:59.111218
2022-12-01 18:13:59.119460
2022-12-01 18:13:59.127969
2022-12-01 18:13:59.136249
2022-12-01 18:13:59.148061
2022-12-01 18:13:59.156803
2022-12-01 18:13:59.164912
2022-12-01 18:13:59.177177
2022-12-01 18:13:59.184879
2022-12-01 18:13:59.192814
2022-12-01 18:13:59.201189
2022-12-01 18:13:59.214036
2022-12-01 18:13:59.221761
2022-12-01 18:13:59.230423
2022-12-01 18:13:59.242664
2022-12-01 18:13:59.250892
2022-12-01 18:13:59.259063
2022-12-01 18:13:59.268430
2022-12-01 18:13:59.279442
2022-12-01 18:13:59.288120
2022-12-01 18:13:59.295941
2022-12-01 18:13:59.308920
2022-12-01 18:13:59.316003
2022-12-01 18:13:59.324380
2022-12-01 18:13:59.332131
2022-12-01 18:13:59.344395
2022-12-01 18:13:59.353271
2022-12-01 18:13:59.360568
2022-12-01 18:13:59.373778
2022-12-01 18:13:59.382742
2022-12-01 18:13:59.390304
2022-12-01 18:13:59.399131
2022-12-01 18:13:59.410371
2022-12-01 18:13:59.419248
2022-12-01 18:13:59.426453
2022-12-01 18:13:59.439318
2022-12-01 18:13:59.448252
2022-12-01 18:13:59.455793
2022-12-01 18:13:59.464652
2022-12-01 18:13:59.476601
2022-12-01 18:13:59.485034
2022-12-01 18:13:59.493260
2022-12-01 18:13:59.505109
2022-12-01 18:13:59.513133
2022-12-01 18:13:59.521468
2022-12-01 18:13:59.529438
2022-12-01 18:13:59.542582
2022-12-01 18:13:59.550663
2022-12-01 18:13:59.558841
2022-12-01 18:13:59.571278
2022-12-01 18:13:59.578625
2022-12-01 18:13:59.587616
2022-12-01 18:13:59.594385
2022-12-01 18:13:59.607518
2022-12-01 18:13:59.616092
2022-12-01 18:13:59.623807
2022-12-01 18:13:59.636669
2022-12-01 18:13:59.644345
2022-12-01 18:13:59.652680
2022-12-01 18:13:59.659974
2022-12-01 18:13:59.672558
2022-12-01 18:13:59.681094
2022-12-01 18:13:59.689403
2022-12-01 18:13:59.701174
2022-12-01 18:13:59.709119
2022-12-01 18:13:59.718078
2022-12-01 18:13:59.726244
2022-12-01 18:13:59.738569
2022-12-01 18:13:59.746227
2022-12-01 18:13:59.755445
2022-12-01 18:13:59.763121
2022-12-01 18:13:59.775830
2022-12-01 18:13:59.784191
2022-12-01 18:13:59.792321
2022-12-01 18:13:59.804739
2022-12-01 18:13:59.811946
2022-12-01 18:13:59.821006
2022-12-01 18:13:59.828542
2022-12-01 18:13:59.840310
2022-12-01 18:13:59.849192
2022-12-01 18:13:59.857247
2022-12-01 18:13:59.869109
2022-12-01 18:13:59.877371
2022-12-01 18:13:59.885704
2022-12-01 18:13:59.894065
2022-12-01 18:13:59.906543
2022-12-01 18:13:59.914622
2022-12-01 18:13:59.922020
2022-12-01 18:13:59.934352
2022-12-01 18:13:59.942594
2022-12-01 18:13:59.951823
2022-12-01 18:13:59.959740
2022-12-01 18:13:59.972619
2022-12-01 18:13:59.979619
2022-12-01 18:13:59.988919
2022-12-01 18:14:00.000303
2022-12-01 18:14:00.008630
2022-12-01 18:14:00.016061
2022-12-01 18:14:00.024806
2022-12-01 18:14:00.036725
2022-12-01 18:14:00.045646
2022-12-01 18:14:00.053810
2022-12-01 18:14:00.066092
2022-12-01 18:14:00.074350
2022-12-01 18:14:00.082536
2022-12-01 18:14:00.090849
2022-12-01 18:14:00.103615
2022-12-01 18:14:00.111022
2022-12-01 18:14:00.119331
2022-12-01 18:14:00.131347
2022-12-01 18:14:00.140106
2022-12-01 18:14:00.148198
2022-12-01 18:14:00.156424
2022-12-01 18:14:00.168675
2022-12-01 18:14:00.176324
2022-12-01 18:14:00.185040
2022-12-01 18:14:00.197357
2022-12-01 18:14:00.205541
2022-12-01 18:14:00.213799
2022-12-01 18:14:00.223131
2022-12-01 18:14:00.233946
2022-12-01 18:14:00.242280
2022-12-01 18:14:00.250575
2022-12-01 18:14:00.263363
2022-12-01 18:14:00.270368
2022-12-01 18:14:00.278821
2022-12-01 18:14:00.287956
2022-12-01 18:14:00.299903
2022-12-01 18:14:00.308408
2022-12-01 18:14:00.316193
2022-12-01 18:14:00.327392
2022-12-01 18:14:00.336622
2022-12-01 18:14:00.344473
2022-12-01 18:14:00.352988
2022-12-01 18:14:00.364134
2022-12-01 18:14:00.373322
2022-12-01 18:14:00.380805
2022-12-01 18:14:00.392822
2022-12-01 18:14:00.401762
2022-12-01 18:14:00.409783
2022-12-01 18:14:00.418225
2022-12-01 18:14:00.430387
2022-12-01 18:14:00.438664
2022-12-01 18:14:00.446958
2022-12-01 18:14:00.459431
2022-12-01 18:14:00.468100
2022-12-01 18:14:00.476106
2022-12-01 18:14:00.484519
2022-12-01 18:14:00.495984
2022-12-01 18:14:00.504927
2022-12-01 18:14:00.512475
2022-12-01 18:14:00.523943
2022-12-01 18:14:00.532035
2022-12-01 18:14:00.540839
2022-12-01 18:14:00.549223
2022-12-01 18:14:00.560681
2022-12-01 18:14:00.569874
2022-12-01 18:14:00.577793
2022-12-01 18:14:00.586265
2022-12-01 18:14:00.599073
2022-12-01 18:14:00.607613
2022-12-01 18:14:00.615634
2022-12-01 18:14:00.626794
2022-12-01 18:14:00.636110
2022-12-01 18:14:00.643555
2022-12-01 18:14:00.652499
2022-12-01 18:14:00.664455
2022-12-01 18:14:00.672971
2022-12-01 18:14:00.680607
2022-12-01 18:14:00.692168
2022-12-01 18:14:00.700276
2022-12-01 18:14:00.709341
2022-12-01 18:14:00.717068
2022-12-01 18:14:00.729704
2022-12-01 18:14:00.737837
2022-12-01 18:14:00.745777
2022-12-01 18:14:00.758986
2022-12-01 18:14:00.767201
2022-12-01 18:14:00.775617
2022-12-01 18:14:00.783580
2022-12-01 18:14:00.795018
2022-12-01 18:14:00.804152
2022-12-01 18:14:00.811497
2022-12-01 18:14:00.823842
2022-12-01 18:14:00.832267
2022-12-01 18:14:00.839684
2022-12-01 18:14:00.847701
2022-12-01 18:14:00.860512
2022-12-01 18:14:00.868908
2022-12-01 18:14:00.877175
2022-12-01 18:14:00.888882
2022-12-01 18:14:00.897714
2022-12-01 18:14:00.905563
2022-12-01 18:14:00.913449
2022-12-01 18:14:00.925991
2022-12-01 18:14:00.935092
2022-12-01 18:14:00.942674
2022-12-01 18:14:00.955581
2022-12-01 18:14:00.963762
2022-12-01 18:14:00.972077
2022-12-01 18:14:00.980203
2022-12-01 18:14:00.991364
2022-12-01 18:14:01.000649
2022-12-01 18:14:01.007694
2022-12-01 18:14:01.021196
2022-12-01 18:14:01.028565
2022-12-01 18:14:01.037147
2022-12-01 18:14:01.044437
2022-12-01 18:14:01.057488
2022-12-01 18:14:01.065615
2022-12-01 18:14:01.073637
2022-12-01 18:14:01.085181
2022-12-01 18:14:01.094017
2022-12-01 18:14:01.102289
2022-12-01 18:14:01.110033
2022-12-01 18:14:01.123539
2022-12-01 18:14:01.131081
2022-12-01 18:14:01.139931
2022-12-01 18:14:01.150878
2022-12-01 18:14:01.159458
2022-12-01 18:14:01.167303
2022-12-01 18:14:01.175976
2022-12-01 18:14:01.187863
2022-12-01 18:14:01.196455
2022-12-01 18:14:01.204081
2022-12-01 18:14:01.216916
2022-12-01 18:14:01.224642
2022-12-01 18:14:01.232686
2022-12-01 18:14:01.241170
2022-12-01 18:14:01.253380
2022-12-01 18:14:01.261537
2022-12-01 18:14:01.270121
2022-12-01 18:14:01.281817
2022-12-01 18:14:01.290437
2022-12-01 18:14:01.298677
2022-12-01 18:14:01.307861
2022-12-01 18:14:01.319794
2022-12-01 18:14:01.327566
2022-12-01 18:14:01.336240
2022-12-01 18:14:01.348313
2022-12-01 18:14:01.356628
2022-12-01 18:14:01.365307
2022-12-01 18:14:01.372933
2022-12-01 18:14:01.384473
2022-12-01 18:14:01.392594
2022-12-01 18:14:01.401534
2022-12-01 18:14:01.414475
2022-12-01 18:14:01.421328
2022-12-01 18:14:01.430837
2022-12-01 18:14:01.438021
2022-12-01 18:14:01.451435
2022-12-01 18:14:01.458895
2022-12-01 18:14:01.467078
2022-12-01 18:14:01.475369
2022-12-01 18:14:01.487877
2022-12-01 18:14:01.495475
2022-12-01 18:14:01.504130
2022-12-01 18:14:01.516756
2022-12-01 18:14:01.525032
2022-12-01 18:14:01.531947
2022-12-01 18:14:01.540943
2022-12-01 18:14:01.552908
2022-12-01 18:14:01.560876
2022-12-01 18:14:01.569473
2022-12-01 18:14:01.581906
2022-12-01 18:14:01.589871
2022-12-01 18:14:01.598732
2022-12-01 18:14:01.606031
2022-12-01 18:14:01.619213
2022-12-01 18:14:01.626795
2022-12-01 18:14:01.635405
2022-12-01 18:14:01.647911
2022-12-01 18:14:01.656018
2022-12-01 18:14:01.664318
2022-12-01 18:14:01.672041
2022-12-01 18:14:01.683991
2022-12-01 18:14:01.692137
2022-12-01 18:14:01.701187
2022-12-01 18:14:01.712280
2022-12-01 18:14:01.721064
2022-12-01 18:14:01.728995
2022-12-01 18:14:01.737446
2022-12-01 18:14:01.749673
2022-12-01 18:14:01.758261
2022-12-01 18:14:01.766592
2022-12-01 18:14:01.778654
2022-12-01 18:14:01.787181
2022-12-01 18:14:01.795343
2022-12-01 18:14:01.803566
2022-12-01 18:14:01.815370
2022-12-01 18:14:01.823349
2022-12-01 18:14:01.831999
2022-12-01 18:14:01.843770
2022-12-01 18:14:01.851251
2022-12-01 18:14:01.859524
2022-12-01 18:14:01.868986
2022-12-01 18:14:01.880427
2022-12-01 18:14:01.888743
2022-12-01 18:14:01.896813
2022-12-01 18:14:01.908972
2022-12-01 18:14:01.917749
2022-12-01 18:14:01.925488
2022-12-01 18:14:01.934030
2022-12-01 18:14:01.946047
2022-12-01 18:14:01.954360
2022-12-01 18:14:01.962570
2022-12-01 18:14:01.974029
2022-12-01 18:14:01.983659
2022-12-01 18:14:01.990609
2022-12-01 18:14:01.999459
2022-12-01 18:14:02.012446
2022-12-01 18:14:02.019957
2022-12-01 18:14:02.028819
2022-12-01 18:14:02.041152
2022-12-01 18:14:02.048269
2022-12-01 18:14:02.057057
2022-12-01 18:14:02.064607
2022-12-01 18:14:02.076660
2022-12-01 18:14:02.085300
2022-12-01 18:14:02.093824
2022-12-01 18:14:02.106000
2022-12-01 18:14:02.114074
2022-12-01 18:14:02.122565
2022-12-01 18:14:02.131300
2022-12-01 18:14:02.142202
2022-12-01 18:14:02.151732
2022-12-01 18:14:02.158860
2022-12-01 18:14:02.170889
2022-12-01 18:14:02.180326
2022-12-01 18:14:02.187391
2022-12-01 18:14:02.196770
2022-12-01 18:14:02.208842
2022-12-01 18:14:02.216945
2022-12-01 18:14:02.225027
2022-12-01 18:14:02.237051
2022-12-01 18:14:02.245489
2022-12-01 18:14:02.253636
2022-12-01 18:14:02.261952
2022-12-01 18:14:02.273916
2022-12-01 18:14:02.281972
2022-12-01 18:14:02.290666
2022-12-01 18:14:02.299173
2022-12-01 18:14:02.310254
2022-12-01 18:14:02.318809
2022-12-01 18:14:02.327076
2022-12-01 18:14:02.339361
2022-12-01 18:14:02.347795
2022-12-01 18:14:02.355817
2022-12-01 18:14:02.364217
2022-12-01 18:14:02.376387
2022-12-01 18:14:02.384882
2022-12-01 18:14:02.391899
2022-12-01 18:14:02.405055
2022-12-01 18:14:02.413252
2022-12-01 18:14:02.421595
2022-12-01 18:14:02.429462
2022-12-01 18:14:02.441793
2022-12-01 18:14:02.449907
2022-12-01 18:14:02.458039
2022-12-01 18:14:02.471237
2022-12-01 18:14:02.478466
2022-12-01 18:14:02.486781
2022-12-01 18:14:02.494746
2022-12-01 18:14:02.508072
2022-12-01 18:14:02.515374
2022-12-01 18:14:02.523637
2022-12-01 18:14:02.535271
2022-12-01 18:14:02.544138
2022-12-01 18:14:02.552224
2022-12-01 18:14:02.560405
2022-12-01 18:14:02.572306
2022-12-01 18:14:02.580423
2022-12-01 18:14:02.588726
2022-12-01 18:14:02.601514
2022-12-01 18:14:02.609183
2022-12-01 18:14:02.616959
2022-12-01 18:14:02.626052
2022-12-01 18:14:02.637810
2022-12-01 18:14:02.646414
2022-12-01 18:14:02.654134
2022-12-01 18:14:02.666540
2022-12-01 18:14:02.674838
2022-12-01 18:14:02.683460
2022-12-01 18:14:02.691698
2022-12-01 18:14:02.704735
2022-12-01 18:14:02.711379
2022-12-01 18:14:02.721099
2022-12-01 18:14:02.733376
2022-12-01 18:14:02.740793
2022-12-01 18:14:02.749295
2022-12-01 18:14:02.757176
2022-12-01 18:14:02.769624
2022-12-01 18:14:02.777830
2022-12-01 18:14:02.785804
2022-12-01 18:14:02.798433
2022-12-01 18:14:02.806999
2022-12-01 18:14:02.814922
2022-12-01 18:14:02.823529
2022-12-01 18:14:02.834723
2022-12-01 18:14:02.842933
2022-12-01 18:14:02.850575
2022-12-01 18:14:02.863844
2022-12-01 18:14:02.872603
2022-12-01 18:14:02.880874
2022-12-01 18:14:02.889001
2022-12-01 18:14:02.900846
2022-12-01 18:14:02.908516
2022-12-01 18:14:02.916550
2022-12-01 18:14:02.928819
2022-12-01 18:14:02.937646
2022-12-01 18:14:02.945753
2022-12-01 18:14:02.953561
2022-12-01 18:14:02.965984
2022-12-01 18:14:02.974794
2022-12-01 18:14:02.983220
2022-12-01 18:14:02.995536
2022-12-01 18:14:03.002640
2022-12-01 18:14:03.011856
2022-12-01 18:14:03.018570
2022-12-01 18:14:03.032288
2022-12-01 18:14:03.039991
2022-12-01 18:14:03.048354
2022-12-01 18:14:03.060182
2022-12-01 18:14:03.069229
2022-12-01 18:14:03.076271
2022-12-01 18:14:03.085292
2022-12-01 18:14:03.097452
2022-12-01 18:14:03.105405
2022-12-01 18:14:03.113468
2022-12-01 18:14:03.125251
2022-12-01 18:14:03.134792
2022-12-01 18:14:03.141574
2022-12-01 18:14:03.150450
2022-12-01 18:14:03.162697
2022-12-01 18:14:03.170893
2022-12-01 18:14:03.179825
2022-12-01 18:14:03.187312
2022-12-01 18:14:03.200422
2022-12-01 18:14:03.207170
2022-12-01 18:14:03.215500
2022-12-01 18:14:03.228965
2022-12-01 18:14:03.236893
2022-12-01 18:14:03.245271
2022-12-01 18:14:03.253392
2022-12-01 18:14:03.265255
2022-12-01 18:14:03.273292
2022-12-01 18:14:03.281724
2022-12-01 18:14:03.293450
2022-12-01 18:14:03.302712
2022-12-01 18:14:03.309315
2022-12-01 18:14:03.318727
2022-12-01 18:14:03.331396
2022-12-01 18:14:03.338989
2022-12-01 18:14:03.347250
2022-12-01 18:14:03.358389
2022-12-01 18:14:03.367865
2022-12-01 18:14:03.375141
2022-12-01 18:14:03.384685
2022-12-01 18:14:03.396754
2022-12-01 18:14:03.404006
2022-12-01 18:14:03.412842
2022-12-01 18:14:03.425018
2022-12-01 18:14:03.432902
2022-12-01 18:14:03.441317
2022-12-01 18:14:03.449433
2022-12-01 18:14:03.461528
2022-12-01 18:14:03.470672
2022-12-01 18:14:03.477877
2022-12-01 18:14:03.490563
2022-12-01 18:14:03.498090
2022-12-01 18:14:03.506667
2022-12-01 18:14:03.514407
2022-12-01 18:14:03.526655
2022-12-01 18:14:03.535891
2022-12-01 18:14:03.543881
2022-12-01 18:14:03.554984
2022-12-01 18:14:03.564609
2022-12-01 18:14:03.572295
2022-12-01 18:14:03.581228
2022-12-01 18:14:03.592733
2022-12-01 18:14:03.600930
2022-12-01 18:14:03.609387
2022-12-01 18:14:03.621649
2022-12-01 18:14:03.629865
2022-12-01 18:14:03.638606
2022-12-01 18:14:03.646694
2022-12-01 18:14:03.657954
2022-12-01 18:14:03.666576
2022-12-01 18:14:03.674584
2022-12-01 18:14:03.687126
2022-12-01 18:14:03.694837
2022-12-01 18:14:03.703855
2022-12-01 18:14:03.711676
2022-12-01 18:14:03.724705
2022-12-01 18:14:03.732708
2022-12-01 18:14:03.740815
2022-12-01 18:14:03.752700
2022-12-01 18:14:03.760871
2022-12-01 18:14:03.769135
2022-12-01 18:14:03.776997
2022-12-01 18:14:03.788801
2022-12-01 18:14:03.797679
2022-12-01 18:14:03.805957
2022-12-01 18:14:03.817790
2022-12-01 18:14:03.825850
2022-12-01 18:14:03.834382
2022-12-01 18:14:03.842537
2022-12-01 18:14:03.854030
2022-12-01 18:14:03.863184
2022-12-01 18:14:03.871927
2022-12-01 18:14:03.883674
2022-12-01 18:14:03.891663
2022-12-01 18:14:03.900765
2022-12-01 18:14:03.908024
2022-12-01 18:14:03.921139
2022-12-01 18:14:03.928043
2022-12-01 18:14:03.937028
2022-12-01 18:14:03.949418
2022-12-01 18:14:03.957276
2022-12-01 18:14:03.965703
2022-12-01 18:14:03.973768
2022-12-01 18:14:03.985810
2022-12-01 18:14:03.993991
2022-12-01 18:14:04.001780
2022-12-01 18:14:04.015413
2022-12-01 18:14:04.023556
2022-12-01 18:14:04.031736
2022-12-01 18:14:04.039750
2022-12-01 18:14:04.052232
2022-12-01 18:14:04.059751
2022-12-01 18:14:04.068439
2022-12-01 18:14:04.075511
2022-12-01 18:14:04.088487
2022-12-01 18:14:04.096141
2022-12-01 18:14:04.105053
2022-12-01 18:14:04.117407
2022-12-01 18:14:04.125373
2022-12-01 18:14:04.133666
2022-12-01 18:14:04.141931
2022-12-01 18:14:04.153971
2022-12-01 18:14:04.162040
2022-12-01 18:14:04.170673
2022-12-01 18:14:04.183276
2022-12-01 18:14:04.191380
2022-12-01 18:14:04.199667
2022-12-01 18:14:04.207837
2022-12-01 18:14:04.219115
2022-12-01 18:14:04.227667
2022-12-01 18:14:04.234840
2022-12-01 18:14:04.248784
2022-12-01 18:14:04.257005
2022-12-01 18:14:04.264742
2022-12-01 18:14:04.273058
2022-12-01 18:14:04.284691
2022-12-01 18:14:04.293095
2022-12-01 18:14:04.301398
2022-12-01 18:14:04.312698
2022-12-01 18:14:04.321556
2022-12-01 18:14:04.329405
2022-12-01 18:14:04.338156
2022-12-01 18:14:04.349932
2022-12-01 18:14:04.358308
2022-12-01 18:14:04.366852
2022-12-01 18:14:04.378865
2022-12-01 18:14:04.387362
2022-12-01 18:14:04.394974
2022-12-01 18:14:04.403466
2022-12-01 18:14:04.415434
2022-12-01 18:14:04.423576
2022-12-01 18:14:04.432727
2022-12-01 18:14:04.445402
2022-12-01 18:14:04.453175
2022-12-01 18:14:04.461303
2022-12-01 18:14:04.469268
2022-12-01 18:14:04.481691
2022-12-01 18:14:04.489796
2022-12-01 18:14:04.497925
2022-12-01 18:14:04.509933
2022-12-01 18:14:04.519251
2022-12-01 18:14:04.526570
2022-12-01 18:14:04.535646
2022-12-01 18:14:04.546149
2022-12-01 18:14:04.556005
2022-12-01 18:14:04.563634
2022-12-01 18:14:04.575845
2022-12-01 18:14:04.584762
2022-12-01 18:14:04.592204
2022-12-01 18:14:04.601051
2022-12-01 18:14:04.613121
2022-12-01 18:14:04.620575
2022-12-01 18:14:04.629067
2022-12-01 18:14:04.640575
2022-12-01 18:14:04.649213
2022-12-01 18:14:04.657658
2022-12-01 18:14:04.665651
2022-12-01 18:14:04.679037
2022-12-01 18:14:04.687188
2022-12-01 18:14:04.694482
2022-12-01 18:14:04.707592
2022-12-01 18:14:04.715882
2022-12-01 18:14:04.723921
2022-12-01 18:14:04.732251
2022-12-01 18:14:04.743727
2022-12-01 18:14:04.752732
2022-12-01 18:14:04.760390
2022-12-01 18:14:04.772301
2022-12-01 18:14:04.780840
2022-12-01 18:14:04.789611
2022-12-01 18:14:04.797407
2022-12-01 18:14:04.808890
2022-12-01 18:14:04.817568
2022-12-01 18:14:04.825594
2022-12-01 18:14:04.838729
2022-12-01 18:14:04.846795
2022-12-01 18:14:04.855125
2022-12-01 18:14:04.863117
2022-12-01 18:14:04.874256
2022-12-01 18:14:04.882517
2022-12-01 18:14:04.890257
2022-12-01 18:14:04.899601
2022-12-01 18:14:04.911803
2022-12-01 18:14:04.920223
2022-12-01 18:14:04.928194
2022-12-01 18:14:04.941049
2022-12-01 18:14:04.949321
2022-12-01 18:14:04.956960
2022-12-01 18:14:04.965328
2022-12-01 18:14:04.977425
2022-12-01 18:14:04.985322
2022-12-01 18:14:04.993675
2022-12-01 18:14:05.006581
2022-12-01 18:14:05.014376
2022-12-01 18:14:05.022956
2022-12-01 18:14:05.030779
2022-12-01 18:14:05.042155
2022-12-01 18:14:05.051622
2022-12-01 18:14:05.059221
2022-12-01 18:14:05.072005
2022-12-01 18:14:05.079753
2022-12-01 18:14:05.088497
2022-12-01 18:14:05.096160
2022-12-01 18:14:05.107615
2022-12-01 18:14:05.117122
2022-12-01 18:14:05.123848
2022-12-01 18:14:05.137150
2022-12-01 18:14:05.145081
2022-12-01 18:14:05.153513
2022-12-01 18:14:05.161661
2022-12-01 18:14:05.173983
2022-12-01 18:14:05.182784
2022-12-01 18:14:05.189458
2022-12-01 18:14:05.202715
2022-12-01 18:14:05.210811
2022-12-01 18:14:05.218829
2022-12-01 18:14:05.227034
2022-12-01 18:14:05.239289
2022-12-01 18:14:05.247126
2022-12-01 18:14:05.255812
2022-12-01 18:14:05.267938
2022-12-01 18:14:05.276258
2022-12-01 18:14:05.284010
2022-12-01 18:14:05.292542
2022-12-01 18:14:05.304580
2022-12-01 18:14:05.313038
2022-12-01 18:14:05.321134
2022-12-01 18:14:05.333558
2022-12-01 18:14:05.341671
2022-12-01 18:14:05.350653
2022-12-01 18:14:05.357555
2022-12-01 18:14:05.371116
2022-12-01 18:14:05.378573
2022-12-01 18:14:05.387639
2022-12-01 18:14:05.399844
2022-12-01 18:14:05.407677
2022-12-01 18:14:05.414829
2022-12-01 18:14:05.423809
2022-12-01 18:14:05.435576
2022-12-01 18:14:05.444182
2022-12-01 18:14:05.452329
2022-12-01 18:14:05.465079
2022-12-01 18:14:05.472423
2022-12-01 18:14:05.481248
2022-12-01 18:14:05.489245
2022-12-01 18:14:05.501552
2022-12-01 18:14:05.509875
2022-12-01 18:14:05.518163
2022-12-01 18:14:05.530277
2022-12-01 18:14:05.539163
2022-12-01 18:14:05.546165
2022-12-01 18:14:05.554965
2022-12-01 18:14:05.567727
2022-12-01 18:14:05.575277
2022-12-01 18:14:05.583880
2022-12-01 18:14:05.595739
2022-12-01 18:14:05.604578
2022-12-01 18:14:05.612893
2022-12-01 18:14:05.620706
2022-12-01 18:14:05.632924
2022-12-01 18:14:05.640800
2022-12-01 18:14:05.649249
2022-12-01 18:14:05.661548
2022-12-01 18:14:05.669640
2022-12-01 18:14:05.677861
2022-12-01 18:14:05.685743
2022-12-01 18:14:05.697785
2022-12-01 18:14:05.706433
2022-12-01 18:14:05.714705
2022-12-01 18:14:05.727243
2022-12-01 18:14:05.735026
2022-12-01 18:14:05.743225
2022-12-01 18:14:05.751813
2022-12-01 18:14:05.763836
2022-12-01 18:14:05.772620
2022-12-01 18:14:05.780355
2022-12-01 18:14:05.788109
2022-12-01 18:14:05.801177
2022-12-01 18:14:05.808508
2022-12-01 18:14:05.817211
2022-12-01 18:14:05.829455
2022-12-01 18:14:05.837581
2022-12-01 18:14:05.845837
2022-12-01 18:14:05.853749
2022-12-01 18:14:05.865803
2022-12-01 18:14:05.873776
2022-12-01 18:14:05.881624
2022-12-01 18:14:05.895418
2022-12-01 18:14:05.903674
2022-12-01 18:14:05.910950
2022-12-01 18:14:05.919883
2022-12-01 18:14:05.931300
2022-12-01 18:14:05.940602
2022-12-01 18:14:05.948651
2022-12-01 18:14:05.961081
2022-12-01 18:14:05.968485
2022-12-01 18:14:05.977165
2022-12-01 18:14:05.985167
2022-12-01 18:14:05.997401
2022-12-01 18:14:06.005551
2022-12-01 18:14:06.013868
2022-12-01 18:14:06.025706
2022-12-01 18:14:06.033408
2022-12-01 18:14:06.042004
2022-12-01 18:14:06.050664
2022-12-01 18:14:06.062829
2022-12-01 18:14:06.070944
2022-12-01 18:14:06.078344
2022-12-01 18:14:06.090601
2022-12-01 18:14:06.100365
2022-12-01 18:14:06.107317
2022-12-01 18:14:06.116719
2022-12-01 18:14:06.128992
2022-12-01 18:14:06.136990
2022-12-01 18:14:06.145202
2022-12-01 18:14:06.156720
2022-12-01 18:14:06.165433
2022-12-01 18:14:06.173459
2022-12-01 18:14:06.181826
2022-12-01 18:14:06.193521
2022-12-01 18:14:06.201848
2022-12-01 18:14:06.210169
2022-12-01 18:14:06.223089
2022-12-01 18:14:06.231454
2022-12-01 18:14:06.238688
2022-12-01 18:14:06.247046
2022-12-01 18:14:06.259198
2022-12-01 18:14:06.267593
2022-12-01 18:14:06.275361
2022-12-01 18:14:06.288250
2022-12-01 18:14:06.296240
2022-12-01 18:14:06.304629
2022-12-01 18:14:06.312875
2022-12-01 18:14:06.324320
2022-12-01 18:14:06.333020
2022-12-01 18:14:06.340625
2022-12-01 18:14:06.353196
2022-12-01 18:14:06.361988
2022-12-01 18:14:06.369915
2022-12-01 18:14:06.378068
2022-12-01 18:14:06.389712
2022-12-01 18:14:06.397997
2022-12-01 18:14:06.407152
2022-12-01 18:14:06.419868
2022-12-01 18:14:06.427217
2022-12-01 18:14:06.436167
2022-12-01 18:14:06.443480
2022-12-01 18:14:06.456462
2022-12-01 18:14:06.464778
2022-12-01 18:14:06.472218
2022-12-01 18:14:06.485362
2022-12-01 18:14:06.492606
2022-12-01 18:14:06.501019
2022-12-01 18:14:06.509068
2022-12-01 18:14:06.521593
2022-12-01 18:14:06.529869
2022-12-01 18:14:06.537639
2022-12-01 18:14:06.550871
2022-12-01 18:14:06.558247
2022-12-01 18:14:06.567173
2022-12-01 18:14:06.574646
2022-12-01 18:14:06.587074
2022-12-01 18:14:06.595616
2022-12-01 18:14:06.603412
2022-12-01 18:14:06.615584
2022-12-01 18:14:06.623733
2022-12-01 18:14:06.632249
2022-12-01 18:14:06.640397
2022-12-01 18:14:06.653276
2022-12-01 18:14:06.660337
2022-12-01 18:14:06.668790
2022-12-01 18:14:06.677190
2022-12-01 18:14:06.688714
2022-12-01 18:14:06.697757
2022-12-01 18:14:06.705956
2022-12-01 18:14:06.718843
2022-12-01 18:14:06.727000
2022-12-01 18:14:06.734398
2022-12-01 18:14:06.742516
2022-12-01 18:14:06.754623
2022-12-01 18:14:06.762281
2022-12-01 18:14:06.770457
2022-12-01 18:14:06.783195
2022-12-01 18:14:06.791739
2022-12-01 18:14:06.800143
2022-12-01 18:14:06.808138
2022-12-01 18:14:06.820986
2022-12-01 18:14:06.828747
2022-12-01 18:14:06.837003
2022-12-01 18:14:06.849008
2022-12-01 18:14:06.857075
2022-12-01 18:14:06.865666
2022-12-01 18:14:06.873541
2022-12-01 18:14:06.885382
2022-12-01 18:14:06.894119
2022-12-01 18:14:06.903125
2022-12-01 18:14:06.915391
2022-12-01 18:14:06.922965
2022-12-01 18:14:06.931696
2022-12-01 18:14:06.939038
2022-12-01 18:14:06.952364
2022-12-01 18:14:06.960454
2022-12-01 18:14:06.967934
2022-12-01 18:14:06.980606
2022-12-01 18:14:06.988296
2022-12-01 18:14:06.997002
2022-12-01 18:14:07.005448
2022-12-01 18:14:07.017206
2022-12-01 18:14:07.025090
2022-12-01 18:14:07.033608
2022-12-01 18:14:07.045841
2022-12-01 18:14:07.054668
2022-12-01 18:14:07.062191
2022-12-01 18:14:07.071130
2022-12-01 18:14:07.083373
2022-12-01 18:14:07.090121
2022-12-01 18:14:07.099074
2022-12-01 18:14:07.110927
2022-12-01 18:14:07.119943
2022-12-01 18:14:07.127995
2022-12-01 18:14:07.135890
2022-12-01 18:14:07.148817
2022-12-01 18:14:07.156855
2022-12-01 18:14:07.165249
2022-12-01 18:14:07.177162
2022-12-01 18:14:07.184513
2022-12-01 18:14:07.193132
2022-12-01 18:14:07.201438
2022-12-01 18:14:07.213739
2022-12-01 18:14:07.222102
2022-12-01 18:14:07.229904
2022-12-01 18:14:07.242505
2022-12-01 18:14:07.250249
2022-12-01 18:14:07.258712
2022-12-01 18:14:07.267563
2022-12-01 18:14:07.278349
2022-12-01 18:14:07.286742
2022-12-01 18:14:07.295244
2022-12-01 18:14:07.307303
2022-12-01 18:14:07.316290
2022-12-01 18:14:07.323934
2022-12-01 18:14:07.332712
2022-12-01 18:14:07.345030
2022-12-01 18:14:07.352542
2022-12-01 18:14:07.361319
2022-12-01 18:14:07.373317
2022-12-01 18:14:07.381772
2022-12-01 18:14:07.390207
2022-12-01 18:14:07.398222
2022-12-01 18:14:07.410364
2022-12-01 18:14:07.419135
2022-12-01 18:14:07.426980
2022-12-01 18:14:07.439602
2022-12-01 18:14:07.446451
2022-12-01 18:14:07.455262
2022-12-01 18:14:07.463496
2022-12-01 18:14:07.475144
2022-12-01 18:14:07.483468
2022-12-01 18:14:07.491515
2022-12-01 18:14:07.503844
2022-12-01 18:14:07.512221
2022-12-01 18:14:07.520770
2022-12-01 18:14:07.528268
2022-12-01 18:14:07.541011
2022-12-01 18:14:07.549757
2022-12-01 18:14:07.557506
2022-12-01 18:14:07.565972
2022-12-01 18:14:07.578198
2022-12-01 18:14:07.586597
2022-12-01 18:14:07.594607
2022-12-01 18:14:07.606685
2022-12-01 18:14:07.615745
2022-12-01 18:14:07.623341
2022-12-01 18:14:07.631878
2022-12-01 18:14:07.644494
2022-12-01 18:14:07.652702
2022-12-01 18:14:07.660900
2022-12-01 18:14:07.672306
2022-12-01 18:14:07.681186
2022-12-01 18:14:07.689189
2022-12-01 18:14:07.696906
2022-12-01 18:14:07.709509
2022-12-01 18:14:07.717680
2022-12-01 18:14:07.725368
2022-12-01 18:14:07.738010
2022-12-01 18:14:07.746169
2022-12-01 18:14:07.754649
2022-12-01 18:14:07.762919
2022-12-01 18:14:07.774383
2022-12-01 18:14:07.782970
2022-12-01 18:14:07.791106
2022-12-01 18:14:07.804299
2022-12-01 18:14:07.812334
2022-12-01 18:14:07.820614
2022-12-01 18:14:07.828591
2022-12-01 18:14:07.840155
2022-12-01 18:14:07.848147
2022-12-01 18:14:07.856274
2022-12-01 18:14:07.869359
2022-12-01 18:14:07.877507
2022-12-01 18:14:07.885313
2022-12-01 18:14:07.893134
2022-12-01 18:14:07.906037
2022-12-01 18:14:07.913805
2022-12-01 18:14:07.922362
2022-12-01 18:14:07.933672
2022-12-01 18:14:07.943528
2022-12-01 18:14:07.951630
2022-12-01 18:14:07.959829
2022-12-01 18:14:07.972192
2022-12-01 18:14:07.979094
2022-12-01 18:14:07.988577
2022-12-01 18:14:08.000793
2022-12-01 18:14:08.007561
2022-12-01 18:14:08.016874
2022-12-01 18:14:08.024670
2022-12-01 18:14:08.036823
2022-12-01 18:14:08.045399
2022-12-01 18:14:08.053294
2022-12-01 18:14:08.065794
2022-12-01 18:14:08.073222
2022-12-01 18:14:08.082176
2022-12-01 18:14:08.089820
2022-12-01 18:14:08.103170
2022-12-01 18:14:08.110123
2022-12-01 18:14:08.119628
2022-12-01 18:14:08.131845
2022-12-01 18:14:08.139805
2022-12-01 18:14:08.148414
2022-12-01 18:14:08.156556
2022-12-01 18:14:08.168863
2022-12-01 18:14:08.176012
2022-12-01 18:14:08.185088
2022-12-01 18:14:08.197498
2022-12-01 18:14:08.205346
2022-12-01 18:14:08.213518
2022-12-01 18:14:08.221897
2022-12-01 18:14:08.233748
2022-12-01 18:14:08.241874
2022-12-01 18:14:08.249977
2022-12-01 18:14:08.262726
2022-12-01 18:14:08.269966
2022-12-01 18:14:08.279293
2022-12-01 18:14:08.288077
2022-12-01 18:14:08.298793
2022-12-01 18:14:08.307043
2022-12-01 18:14:08.315503
2022-12-01 18:14:08.327968
2022-12-01 18:14:08.336169
2022-12-01 18:14:08.344823
2022-12-01 18:14:08.352105
2022-12-01 18:14:08.365327
2022-12-01 18:14:08.373046
2022-12-01 18:14:08.381226
2022-12-01 18:14:08.389439
2022-12-01 18:14:08.401618
2022-12-01 18:14:08.409641
2022-12-01 18:14:08.417637
2022-12-01 18:14:08.430942
2022-12-01 18:14:08.438801
2022-12-01 18:14:08.446117
2022-12-01 18:14:08.454762
2022-12-01 18:14:08.467702
2022-12-01 18:14:08.475697
2022-12-01 18:14:08.484230
2022-12-01 18:14:08.495876
2022-12-01 18:14:08.503833
2022-12-01 18:14:08.512301
2022-12-01 18:14:08.520628
2022-12-01 18:14:08.532393
2022-12-01 18:14:08.540815
2022-12-01 18:14:08.549101
2022-12-01 18:14:08.560951
2022-12-01 18:14:08.569425
2022-12-01 18:14:08.577506
2022-12-01 18:14:08.585856
2022-12-01 18:14:08.598286
2022-12-01 18:14:08.606020
2022-12-01 18:14:08.615332
2022-12-01 18:14:08.626780
2022-12-01 18:14:08.634988
2022-12-01 18:14:08.643294
2022-12-01 18:14:08.651546
2022-12-01 18:14:08.663941
2022-12-01 18:14:08.671609
2022-12-01 18:14:08.680269
2022-12-01 18:14:08.692233
2022-12-01 18:14:08.700617
2022-12-01 18:14:08.708386
2022-12-01 18:14:08.716904
2022-12-01 18:14:08.728619
2022-12-01 18:14:08.736993
2022-12-01 18:14:08.746026
2022-12-01 18:14:08.757850
2022-12-01 18:14:08.766321
2022-12-01 18:14:08.774140
2022-12-01 18:14:08.782602
2022-12-01 18:14:08.794850
2022-12-01 18:14:08.802969
2022-12-01 18:14:08.811054
2022-12-01 18:14:08.822589
2022-12-01 18:14:08.831900
2022-12-01 18:14:08.839245
2022-12-01 18:14:08.848246
2022-12-01 18:14:08.860947
2022-12-01 18:14:08.869150
2022-12-01 18:14:08.877313
2022-12-01 18:14:08.888702
2022-12-01 18:14:08.896233
2022-12-01 18:14:08.905611
2022-12-01 18:14:08.913669
2022-12-01 18:14:08.925910
2022-12-01 18:14:08.934662
2022-12-01 18:14:08.941927
2022-12-01 18:14:08.955236
2022-12-01 18:14:08.962624
2022-12-01 18:14:08.970929
2022-12-01 18:14:08.978999
2022-12-01 18:14:08.990448
2022-12-01 18:14:09.000287
2022-12-01 18:14:09.007861
2022-12-01 18:14:09.020766
2022-12-01 18:14:09.028874
2022-12-01 18:14:09.037057
2022-12-01 18:14:09.045283
2022-12-01 18:14:09.056209
2022-12-01 18:14:09.065402
2022-12-01 18:14:09.072997
2022-12-01 18:14:09.085751
2022-12-01 18:14:09.093427
2022-12-01 18:14:09.102085
2022-12-01 18:14:09.110270
2022-12-01 18:14:09.122607
2022-12-01 18:14:09.131282
2022-12-01 18:14:09.138581
2022-12-01 18:14:09.150766
2022-12-01 18:14:09.159375
2022-12-01 18:14:09.167920
2022-12-01 18:14:09.175445
2022-12-01 18:14:09.188727
2022-12-01 18:14:09.196807
2022-12-01 18:14:09.205016
2022-12-01 18:14:09.217206
2022-12-01 18:14:09.224641
2022-12-01 18:14:09.233195
2022-12-01 18:14:09.241286
2022-12-01 18:14:09.253614
2022-12-01 18:14:09.261914
2022-12-01 18:14:09.269988
2022-12-01 18:14:09.278304
2022-12-01 18:14:09.290187
2022-12-01 18:14:09.298540
2022-12-01 18:14:09.306091
2022-12-01 18:14:09.318825
2022-12-01 18:14:09.326563
2022-12-01 18:14:09.335083
2022-12-01 18:14:09.344299
2022-12-01 18:14:09.355891
2022-12-01 18:14:09.364484
2022-12-01 18:14:09.372535
2022-12-01 18:14:09.385044
2022-12-01 18:14:09.392526
2022-12-01 18:14:09.401234
2022-12-01 18:14:09.408908
2022-12-01 18:14:09.421637
2022-12-01 18:14:09.429873
2022-12-01 18:14:09.438574
2022-12-01 18:14:09.449166
2022-12-01 18:14:09.458240
2022-12-01 18:14:09.467242
2022-12-01 18:14:09.474677
2022-12-01 18:14:09.486890
2022-12-01 18:14:09.495031
2022-12-01 18:14:09.502802
2022-12-01 18:14:09.516285
2022-12-01 18:14:09.523383
2022-12-01 18:14:09.532672
2022-12-01 18:14:09.540152
2022-12-01 18:14:09.553111
2022-12-01 18:14:09.561110
2022-12-01 18:14:09.569119
2022-12-01 18:14:09.581150
2022-12-01 18:14:09.589233
2022-12-01 18:14:09.597090
2022-12-01 18:14:09.605501
2022-12-01 18:14:09.618037
2022-12-01 18:14:09.625627
2022-12-01 18:14:09.634897
2022-12-01 18:14:09.647467
2022-12-01 18:14:09.655560
2022-12-01 18:14:09.663856
2022-12-01 18:14:09.671971
2022-12-01 18:14:09.684399
2022-12-01 18:14:09.691696
2022-12-01 18:14:09.700633
2022-12-01 18:14:09.712442
2022-12-01 18:14:09.720271
2022-12-01 18:14:09.728812
2022-12-01 18:14:09.735990
2022-12-01 18:14:09.749383
2022-12-01 18:14:09.756552
2022-12-01 18:14:09.765982
2022-12-01 18:14:09.778011
2022-12-01 18:14:09.785877
2022-12-01 18:14:09.793999
2022-12-01 18:14:09.801684
2022-12-01 18:14:09.814291
2022-12-01 18:14:09.822441
2022-12-01 18:14:09.831126
2022-12-01 18:14:09.842696
2022-12-01 18:14:09.851719
2022-12-01 18:14:09.859639
2022-12-01 18:14:09.867934
2022-12-01 18:14:09.880690
2022-12-01 18:14:09.889029
2022-12-01 18:14:09.896727
2022-12-01 18:14:09.908326
2022-12-01 18:14:09.916784
2022-12-01 18:14:09.924877
2022-12-01 18:14:09.933642
2022-12-01 18:14:09.945851
2022-12-01 18:14:09.953820
2022-12-01 18:14:09.962118
2022-12-01 18:14:09.974295
2022-12-01 18:14:09.982770
2022-12-01 18:14:09.990786
2022-12-01 18:14:09.999348
2022-12-01 18:14:10.011434
2022-12-01 18:14:10.019473
2022-12-01 18:14:10.027747
2022-12-01 18:14:10.039144
2022-12-01 18:14:10.047938
2022-12-01 18:14:10.055806
2022-12-01 18:14:10.065119
2022-12-01 18:14:10.077026
2022-12-01 18:14:10.085371
2022-12-01 18:14:10.093283
2022-12-01 18:14:10.105538
2022-12-01 18:14:10.113800
2022-12-01 18:14:10.121814
2022-12-01 18:14:10.130021
2022-12-01 18:14:10.142983
2022-12-01 18:14:10.151212
2022-12-01 18:14:10.159374
2022-12-01 18:14:10.167589
2022-12-01 18:14:10.179853
2022-12-01 18:14:10.187257
2022-12-01 18:14:10.195611
2022-12-01 18:14:10.207231
2022-12-01 18:14:10.215983
2022-12-01 18:14:10.224143
2022-12-01 18:14:10.232172
2022-12-01 18:14:10.244346
2022-12-01 18:14:10.253381
2022-12-01 18:14:10.261255
2022-12-01 18:14:10.273196
2022-12-01 18:14:10.281541
2022-12-01 18:14:10.289683
2022-12-01 18:14:10.297988
2022-12-01 18:14:10.310218
2022-12-01 18:14:10.319126
2022-12-01 18:14:10.326645
2022-12-01 18:14:10.338917
2022-12-01 18:14:10.347797
2022-12-01 18:14:10.354746
2022-12-01 18:14:10.364202
2022-12-01 18:14:10.376470
2022-12-01 18:14:10.384685
2022-12-01 18:14:10.392849
2022-12-01 18:14:10.403847
2022-12-01 18:14:10.413339
2022-12-01 18:14:10.420873
2022-12-01 18:14:10.429364
2022-12-01 18:14:10.441138
2022-12-01 18:14:10.450023
2022-12-01 18:14:10.457918
2022-12-01 18:14:10.469778
2022-12-01 18:14:10.477517
2022-12-01 18:14:10.486190
2022-12-01 18:14:10.494760
2022-12-01 18:14:10.506487
2022-12-01 18:14:10.514780
2022-12-01 18:14:10.522793
2022-12-01 18:14:10.536157
2022-12-01 18:14:10.543571
2022-12-01 18:14:10.551647
2022-12-01 18:14:10.559529
2022-12-01 18:14:10.571438
2022-12-01 18:14:10.580619
2022-12-01 18:14:10.588583
2022-12-01 18:14:10.601024
2022-12-01 18:14:10.608647
2022-12-01 18:14:10.616699
2022-12-01 18:14:10.625159
2022-12-01 18:14:10.637344
2022-12-01 18:14:10.646145
2022-12-01 18:14:10.654354
2022-12-01 18:14:10.666338
2022-12-01 18:14:10.674045
2022-12-01 18:14:10.682826
2022-12-01 18:14:10.691195
2022-12-01 18:14:10.704170
2022-12-01 18:14:10.711866
2022-12-01 18:14:10.720213
2022-12-01 18:14:10.732822
2022-12-01 18:14:10.741030
2022-12-01 18:14:10.749303
2022-12-01 18:14:10.756213
2022-12-01 18:14:10.768779
2022-12-01 18:14:10.776758
2022-12-01 18:14:10.784467
2022-12-01 18:14:10.797157
2022-12-01 18:14:10.805792
2022-12-01 18:14:10.814840
2022-12-01 18:14:10.821773
2022-12-01 18:14:10.834578
2022-12-01 18:14:10.843491
2022-12-01 18:14:10.850946
2022-12-01 18:14:10.863913
2022-12-01 18:14:10.872031
2022-12-01 18:14:10.880239
2022-12-01 18:14:10.888478
2022-12-01 18:14:10.900754
2022-12-01 18:14:10.907952
2022-12-01 18:14:10.916483
2022-12-01 18:14:10.929214
2022-12-01 18:14:10.937251
2022-12-01 18:14:10.944301
2022-12-01 18:14:10.953432
2022-12-01 18:14:10.965783
2022-12-01 18:14:10.973590
2022-12-01 18:14:10.982779
2022-12-01 18:14:10.990098
2022-12-01 18:14:11.002841
2022-12-01 18:14:11.011480
2022-12-01 18:14:11.018846
2022-12-01 18:14:11.031972
2022-12-01 18:14:11.038777
2022-12-01 18:14:11.047907
2022-12-01 18:14:11.055477
2022-12-01 18:14:11.068197
2022-12-01 18:14:11.075713
2022-12-01 18:14:11.084647
2022-12-01 18:14:11.096131
2022-12-01 18:14:11.104993
2022-12-01 18:14:11.113240
2022-12-01 18:14:11.121342
2022-12-01 18:14:11.133775
2022-12-01 18:14:11.141721
2022-12-01 18:14:11.150191
2022-12-01 18:14:11.162316
2022-12-01 18:14:11.170374
2022-12-01 18:14:11.178746
2022-12-01 18:14:11.187126
2022-12-01 18:14:11.199389
2022-12-01 18:14:11.207169
2022-12-01 18:14:11.215819
2022-12-01 18:14:11.228217
2022-12-01 18:14:11.236645
2022-12-01 18:14:11.244854
2022-12-01 18:14:11.251907
2022-12-01 18:14:11.264400
2022-12-01 18:14:11.272973
2022-12-01 18:14:11.281319
2022-12-01 18:14:11.293716
2022-12-01 18:14:11.301539
2022-12-01 18:14:11.309644
2022-12-01 18:14:11.318643
2022-12-01 18:14:11.330221
2022-12-01 18:14:11.338273
2022-12-01 18:14:11.346136
2022-12-01 18:14:11.357970
2022-12-01 18:14:11.367011
2022-12-01 18:14:11.374485
2022-12-01 18:14:11.382918
2022-12-01 18:14:11.394803
2022-12-01 18:14:11.403218
2022-12-01 18:14:11.411734
2022-12-01 18:14:11.424008
2022-12-01 18:14:11.432667
2022-12-01 18:14:11.440767
2022-12-01 18:14:11.448956
2022-12-01 18:14:11.461461
2022-12-01 18:14:11.469511
2022-12-01 18:14:11.478077
2022-12-01 18:14:11.489039
2022-12-01 18:14:11.497491
2022-12-01 18:14:11.506083
2022-12-01 18:14:11.514304
2022-12-01 18:14:11.526096
2022-12-01 18:14:11.535796
2022-12-01 18:14:11.543842
2022-12-01 18:14:11.555148
2022-12-01 18:14:11.564313
2022-12-01 18:14:11.571566
2022-12-01 18:14:11.580712
2022-12-01 18:14:11.593062
2022-12-01 18:14:11.600748
2022-12-01 18:14:11.609211
2022-12-01 18:14:11.621383
2022-12-01 18:14:11.629387
2022-12-01 18:14:11.637673
2022-12-01 18:14:11.645821
2022-12-01 18:14:11.657832
2022-12-01 18:14:11.666048
2022-12-01 18:14:11.674711
2022-12-01 18:14:11.686466
2022-12-01 18:14:11.694842
2022-12-01 18:14:11.702991
2022-12-01 18:14:11.711265
2022-12-01 18:14:11.722544
2022-12-01 18:14:11.731871
2022-12-01 18:14:11.739831
2022-12-01 18:14:11.752201
2022-12-01 18:14:11.760419
2022-12-01 18:14:11.768587
2022-12-01 18:14:11.776886
2022-12-01 18:14:11.788326
2022-12-01 18:14:11.797215
2022-12-01 18:14:11.805101
2022-12-01 18:14:11.816845
2022-12-01 18:14:11.826076
2022-12-01 18:14:11.833821
2022-12-01 18:14:11.842212
2022-12-01 18:14:11.854980
2022-12-01 18:14:11.862643
2022-12-01 18:14:11.871527
2022-12-01 18:14:11.878625
2022-12-01 18:14:11.892037
2022-12-01 18:14:11.900299
2022-12-01 18:14:11.907681
2022-12-01 18:14:11.920367
2022-12-01 18:14:11.927433
2022-12-01 18:14:11.936044
2022-12-01 18:14:11.945131
2022-12-01 18:14:11.956984
2022-12-01 18:14:11.965482
2022-12-01 18:14:11.973188
2022-12-01 18:14:11.985697
2022-12-01 18:14:11.994059
2022-12-01 18:14:12.002149
2022-12-01 18:14:12.010169
2022-12-01 18:14:12.022501
2022-12-01 18:14:12.031460
2022-12-01 18:14:12.038353
2022-12-01 18:14:12.051739
2022-12-01 18:14:12.058805
2022-12-01 18:14:12.068231
2022-12-01 18:14:12.075722
2022-12-01 18:14:12.088342
2022-12-01 18:14:12.095957
2022-12-01 18:14:12.105000
2022-12-01 18:14:12.117425
2022-12-01 18:14:12.124727
2022-12-01 18:14:12.133487
2022-12-01 18:14:12.141036
2022-12-01 18:14:12.153703
2022-12-01 18:14:12.161829
2022-12-01 18:14:12.169834
2022-12-01 18:14:12.182833
2022-12-01 18:14:12.190337
2022-12-01 18:14:12.198899
2022-12-01 18:14:12.206590
2022-12-01 18:14:12.218657
2022-12-01 18:14:12.227446
2022-12-01 18:14:12.236195
2022-12-01 18:14:12.247889
2022-12-01 18:14:12.255541
2022-12-01 18:14:12.264303
2022-12-01 18:14:12.272442
2022-12-01 18:14:12.285347
2022-12-01 18:14:12.292675
2022-12-01 18:14:12.301386
2022-12-01 18:14:12.313523
2022-12-01 18:14:12.321342
2022-12-01 18:14:12.329802
2022-12-01 18:14:12.337830
2022-12-01 18:14:12.350884
2022-12-01 18:14:12.357770
2022-12-01 18:14:12.367140
2022-12-01 18:14:12.379550
2022-12-01 18:14:12.386963
2022-12-01 18:14:12.395936
2022-12-01 18:14:12.403427
2022-12-01 18:14:12.415841
2022-12-01 18:14:12.423732
2022-12-01 18:14:12.432197
2022-12-01 18:14:12.444572
2022-12-01 18:14:12.452216
2022-12-01 18:14:12.460613
2022-12-01 18:14:12.469085
2022-12-01 18:14:12.480424
2022-12-01 18:14:12.489032
2022-12-01 18:14:12.497625
2022-12-01 18:14:12.509742
2022-12-01 18:14:12.518180
2022-12-01 18:14:12.526066
2022-12-01 18:14:12.534652
2022-12-01 18:14:12.546434
2022-12-01 18:14:12.554497
2022-12-01 18:14:12.563082
2022-12-01 18:14:12.576057
2022-12-01 18:14:12.584235
2022-12-01 18:14:12.591205
2022-12-01 18:14:12.600163
2022-12-01 18:14:12.611322
2022-12-01 18:14:12.620303
2022-12-01 18:14:12.627958
2022-12-01 18:14:12.640697
2022-12-01 18:14:12.648884
2022-12-01 18:14:12.656906
2022-12-01 18:14:12.665114
2022-12-01 18:14:12.677103
2022-12-01 18:14:12.686225
2022-12-01 18:14:12.694213
2022-12-01 18:14:12.706244
2022-12-01 18:14:12.714129
2022-12-01 18:14:12.722233
2022-12-01 18:14:12.731719
2022-12-01 18:14:12.743245
2022-12-01 18:14:12.752098
2022-12-01 18:14:12.759091
2022-12-01 18:14:12.768595
2022-12-01 18:14:12.780419
2022-12-01 18:14:12.788143
2022-12-01 18:14:12.797317
2022-12-01 18:14:12.808754
2022-12-01 18:14:12.816252
2022-12-01 18:14:12.825007
2022-12-01 18:14:12.832875
2022-12-01 18:14:12.845248
2022-12-01 18:14:12.853907
2022-12-01 18:14:12.862782
2022-12-01 18:14:12.874862
2022-12-01 18:14:12.883003
2022-12-01 18:14:12.890695
2022-12-01 18:14:12.899713
2022-12-01 18:14:12.910899
2022-12-01 18:14:12.919831
2022-12-01 18:14:12.927683
2022-12-01 18:14:12.939451
2022-12-01 18:14:12.947657
2022-12-01 18:14:12.956375
2022-12-01 18:14:12.965291
2022-12-01 18:14:12.977153
2022-12-01 18:14:12.985268
2022-12-01 18:14:12.992747
2022-12-01 18:14:13.004187
2022-12-01 18:14:13.013937
2022-12-01 18:14:13.021291
2022-12-01 18:14:13.030788
2022-12-01 18:14:13.042478
2022-12-01 18:14:13.050393
2022-12-01 18:14:13.059475
2022-12-01 18:14:13.070909
2022-12-01 18:14:13.079339
2022-12-01 18:14:13.087511
2022-12-01 18:14:13.095794
2022-12-01 18:14:13.108092
2022-12-01 18:14:13.116279
2022-12-01 18:14:13.124152
2022-12-01 18:14:13.137148
2022-12-01 18:14:13.145162
2022-12-01 18:14:13.153253
2022-12-01 18:14:13.161285
2022-12-01 18:14:13.172488
2022-12-01 18:14:13.181795
2022-12-01 18:14:13.189734
2022-12-01 18:14:13.201593
2022-12-01 18:14:13.210274
2022-12-01 18:14:13.218583
2022-12-01 18:14:13.226664
2022-12-01 18:14:13.238781
2022-12-01 18:14:13.247232
2022-12-01 18:14:13.255441
2022-12-01 18:14:13.268460
2022-12-01 18:14:13.275335
2022-12-01 18:14:13.284674
2022-12-01 18:14:13.292085
2022-12-01 18:14:13.304105
2022-12-01 18:14:13.313155
2022-12-01 18:14:13.321063
2022-12-01 18:14:13.333412
2022-12-01 18:14:13.341320
2022-12-01 18:14:13.349841
2022-12-01 18:14:13.357736
2022-12-01 18:14:13.369913
2022-12-01 18:14:13.377803
2022-12-01 18:14:13.386203
2022-12-01 18:14:13.397866
2022-12-01 18:14:13.406859
2022-12-01 18:14:13.415423
2022-12-01 18:14:13.423197
2022-12-01 18:14:13.436116
2022-12-01 18:14:13.443871
2022-12-01 18:14:13.451920
2022-12-01 18:14:13.463958
2022-12-01 18:14:13.472003
2022-12-01 18:14:13.479876
2022-12-01 18:14:13.487889
2022-12-01 18:14:13.501408
2022-12-01 18:14:13.509052
2022-12-01 18:14:13.517498
2022-12-01 18:14:13.529900
2022-12-01 18:14:13.537544
2022-12-01 18:14:13.546104
2022-12-01 18:14:13.553851
2022-12-01 18:14:13.566825
2022-12-01 18:14:13.575545
2022-12-01 18:14:13.583754
2022-12-01 18:14:13.590473
2022-12-01 18:14:13.602642
2022-12-01 18:14:13.611458
2022-12-01 18:14:13.619276
2022-12-01 18:14:13.631669
2022-12-01 18:14:13.641105
2022-12-01 18:14:13.648067
2022-12-01 18:14:13.657239
2022-12-01 18:14:13.669504
2022-12-01 18:14:13.676718
2022-12-01 18:14:13.685709
2022-12-01 18:14:13.697497
2022-12-01 18:14:13.705571
2022-12-01 18:14:13.713769
2022-12-01 18:14:13.722001
2022-12-01 18:14:13.733950
2022-12-01 18:14:13.741954
2022-12-01 18:14:13.750589
2022-12-01 18:14:13.762653
2022-12-01 18:14:13.770635
2022-12-01 18:14:13.779018
2022-12-01 18:14:13.787736
2022-12-01 18:14:13.799733
2022-12-01 18:14:13.807392
2022-12-01 18:14:13.815987
2022-12-01 18:14:13.828880
2022-12-01 18:14:13.837145
2022-12-01 18:14:13.845417
2022-12-01 18:14:13.853555
2022-12-01 18:14:13.865771
2022-12-01 18:14:13.873973
2022-12-01 18:14:13.881885
2022-12-01 18:14:13.895061
2022-12-01 18:14:13.903152
2022-12-01 18:14:13.911455
2022-12-01 18:14:13.919548
2022-12-01 18:14:13.930967
2022-12-01 18:14:13.938895
2022-12-01 18:14:13.948318
2022-12-01 18:14:13.960124
2022-12-01 18:14:13.968511
2022-12-01 18:14:13.976908
2022-12-01 18:14:13.984616
2022-12-01 18:14:13.997381
2022-12-01 18:14:14.004779
2022-12-01 18:14:14.013511
2022-12-01 18:14:14.025549
2022-12-01 18:14:14.032846
2022-12-01 18:14:14.041839
2022-12-01 18:14:14.049167
2022-12-01 18:14:14.062881
2022-12-01 18:14:14.070756
2022-12-01 18:14:14.079472
2022-12-01 18:14:14.090750
2022-12-01 18:14:14.099168
2022-12-01 18:14:14.107203
2022-12-01 18:14:14.115685
2022-12-01 18:14:14.128572
2022-12-01 18:14:14.136742
2022-12-01 18:14:14.144952
2022-12-01 18:14:14.156290
2022-12-01 18:14:14.165335
2022-12-01 18:14:14.172662
2022-12-01 18:14:14.181417
2022-12-01 18:14:14.193574
2022-12-01 18:14:14.201602
2022-12-01 18:14:14.209854
2022-12-01 18:14:14.221822
2022-12-01 18:14:14.230191
2022-12-01 18:14:14.238476
2022-12-01 18:14:14.246462
2022-12-01 18:14:14.258810
2022-12-01 18:14:14.267708
2022-12-01 18:14:14.274808
2022-12-01 18:14:14.287348
2022-12-01 18:14:14.296495
2022-12-01 18:14:14.304017
2022-12-01 18:14:14.312441
2022-12-01 18:14:14.324474
2022-12-01 18:14:14.333243
2022-12-01 18:14:14.340506
2022-12-01 18:14:14.353353
2022-12-01 18:14:14.361424
2022-12-01 18:14:14.369522
2022-12-01 18:14:14.377866
2022-12-01 18:14:14.390029
2022-12-01 18:14:14.398778
2022-12-01 18:14:14.406249
2022-12-01 18:14:14.418279
2022-12-01 18:14:14.426821
2022-12-01 18:14:14.435435
2022-12-01 18:14:14.443495
2022-12-01 18:14:14.454935
2022-12-01 18:14:14.463775
2022-12-01 18:14:14.471738
2022-12-01 18:14:14.480129
2022-12-01 18:14:14.493114
2022-12-01 18:14:14.501206
2022-12-01 18:14:14.508734
2022-12-01 18:14:14.520694
2022-12-01 18:14:14.529334
2022-12-01 18:14:14.537196
2022-12-01 18:14:14.545725
2022-12-01 18:14:14.557757
2022-12-01 18:14:14.566723
2022-12-01 18:14:14.573972
2022-12-01 18:14:14.586080
2022-12-01 18:14:14.594163
2022-12-01 18:14:14.602092
2022-12-01 18:14:14.611874
2022-12-01 18:14:14.623539
2022-12-01 18:14:14.631791
2022-12-01 18:14:14.639889
2022-12-01 18:14:14.652193
2022-12-01 18:14:14.660507
2022-12-01 18:14:14.668688
2022-12-01 18:14:14.676848
2022-12-01 18:14:14.688291
2022-12-01 18:14:14.697295
2022-12-01 18:14:14.704589
2022-12-01 18:14:14.717866
2022-12-01 18:14:14.725311
2022-12-01 18:14:14.734032
2022-12-01 18:14:14.742179
2022-12-01 18:14:14.753838
2022-12-01 18:14:14.762592
2022-12-01 18:14:14.770856
2022-12-01 18:14:14.783843
2022-12-01 18:14:14.791303
2022-12-01 18:14:14.800199
2022-12-01 18:14:14.807732
2022-12-01 18:14:14.820468
2022-12-01 18:14:14.828671
2022-12-01 18:14:14.836608
2022-12-01 18:14:14.848594
2022-12-01 18:14:14.856040
2022-12-01 18:14:14.865139
2022-12-01 18:14:14.873370
2022-12-01 18:14:14.885551
2022-12-01 18:14:14.893769
2022-12-01 18:14:14.901185
2022-12-01 18:14:14.914518
2022-12-01 18:14:14.922416
2022-12-01 18:14:14.930379
2022-12-01 18:14:14.938910
2022-12-01 18:14:14.951320
2022-12-01 18:14:14.959524
2022-12-01 18:14:14.967681
2022-12-01 18:14:14.980424
2022-12-01 18:14:14.987202
2022-12-01 18:14:14.996789
2022-12-01 18:14:15.003764
2022-12-01 18:14:15.016877
2022-12-01 18:14:15.024708
2022-12-01 18:14:15.033087
2022-12-01 18:14:15.045571
2022-12-01 18:14:15.053630
2022-12-01 18:14:15.061873
2022-12-01 18:14:15.070364
2022-12-01 18:14:15.082198
2022-12-01 18:14:15.090087
2022-12-01 18:14:15.099214
2022-12-01 18:14:15.110487
2022-12-01 18:14:15.119800
2022-12-01 18:14:15.127237
2022-12-01 18:14:15.136090
2022-12-01 18:14:15.148356
2022-12-01 18:14:15.155471
2022-12-01 18:14:15.163507
2022-12-01 18:14:15.176561
2022-12-01 18:14:15.185170
2022-12-01 18:14:15.193171
2022-12-01 18:14:15.201176
2022-12-01 18:14:15.213121
2022-12-01 18:14:15.221303
2022-12-01 18:14:15.229934
2022-12-01 18:14:15.241554
2022-12-01 18:14:15.250031
2022-12-01 18:14:15.258296
2022-12-01 18:14:15.266484
2022-12-01 18:14:15.278908
2022-12-01 18:14:15.286766
2022-12-01 18:14:15.295411
2022-12-01 18:14:15.307585
2022-12-01 18:14:15.316447
2022-12-01 18:14:15.323664
2022-12-01 18:14:15.332594
2022-12-01 18:14:15.344954
2022-12-01 18:14:15.353178
2022-12-01 18:14:15.361266
2022-12-01 18:14:15.369174
2022-12-01 18:14:15.381434
2022-12-01 18:14:15.388993
2022-12-01 18:14:15.397843
2022-12-01 18:14:15.409341
2022-12-01 18:14:15.417737
2022-12-01 18:14:15.425647
2022-12-01 18:14:15.433797
2022-12-01 18:14:15.447366
2022-12-01 18:14:15.454586
2022-12-01 18:14:15.463843
2022-12-01 18:14:15.476145
2022-12-01 18:14:15.484225
2022-12-01 18:14:15.492544
2022-12-01 18:14:15.499165
2022-12-01 18:14:15.512199
2022-12-01 18:14:15.520182
2022-12-01 18:14:15.529176
2022-12-01 18:14:15.540843
2022-12-01 18:14:15.549431
2022-12-01 18:14:15.557017
2022-12-01 18:14:15.565748
2022-12-01 18:14:15.577922
2022-12-01 18:14:15.585907
2022-12-01 18:14:15.593741
2022-12-01 18:14:15.605744
2022-12-01 18:14:15.614962
2022-12-01 18:14:15.622930
2022-12-01 18:14:15.631235
2022-12-01 18:14:15.643456
2022-12-01 18:14:15.651420
2022-12-01 18:14:15.659945
2022-12-01 18:14:15.671078
2022-12-01 18:14:15.680641
2022-12-01 18:14:15.688105
2022-12-01 18:14:15.696912
2022-12-01 18:14:15.708781
2022-12-01 18:14:15.717434
2022-12-01 18:14:15.725411
2022-12-01 18:14:15.736873
2022-12-01 18:14:15.745648
2022-12-01 18:14:15.753904
2022-12-01 18:14:15.761863
2022-12-01 18:14:15.774000
2022-12-01 18:14:15.783337
2022-12-01 18:14:15.790684
2022-12-01 18:14:15.803397
2022-12-01 18:14:15.811930
2022-12-01 18:14:15.820050
2022-12-01 18:14:15.827822
2022-12-01 18:14:15.839824
2022-12-01 18:14:15.848799
2022-12-01 18:14:15.856148
2022-12-01 18:14:15.868502
2022-12-01 18:14:15.875981
2022-12-01 18:14:15.884747
2022-12-01 18:14:15.892866
2022-12-01 18:14:15.905544
2022-12-01 18:14:15.913459
2022-12-01 18:14:15.921793
2022-12-01 18:14:15.934787
2022-12-01 18:14:15.942994
2022-12-01 18:14:15.949639
2022-12-01 18:14:15.959626
2022-12-01 18:14:15.970077
2022-12-01 18:14:15.979218
2022-12-01 18:14:15.987589
2022-12-01 18:14:16.000026
2022-12-01 18:14:16.007997
2022-12-01 18:14:16.016569
2022-12-01 18:14:16.024174
2022-12-01 18:14:16.036655
2022-12-01 18:14:16.044918
2022-12-01 18:14:16.053551
2022-12-01 18:14:16.065421
2022-12-01 18:14:16.073512
2022-12-01 18:14:16.081734
2022-12-01 18:14:16.089857
2022-12-01 18:14:16.101697
2022-12-01 18:14:16.111029
2022-12-01 18:14:16.119096
2022-12-01 18:14:16.131294
2022-12-01 18:14:16.138719
2022-12-01 18:14:16.147065
2022-12-01 18:14:16.155430
2022-12-01 18:14:16.168042
2022-12-01 18:14:16.175759
2022-12-01 18:14:16.184756
2022-12-01 18:14:16.193078
2022-12-01 18:14:16.204131
2022-12-01 18:14:16.212937
2022-12-01 18:14:16.220656
2022-12-01 18:14:16.233334
2022-12-01 18:14:16.240509
2022-12-01 18:14:16.249631
2022-12-01 18:14:16.257827
2022-12-01 18:14:16.269913
2022-12-01 18:14:16.277669
2022-12-01 18:14:16.285558
2022-12-01 18:14:16.299350
2022-12-01 18:14:16.306593
2022-12-01 18:14:16.315135
2022-12-01 18:14:16.323163
2022-12-01 18:14:16.335903
2022-12-01 18:14:16.344409
2022-12-01 18:14:16.352386
2022-12-01 18:14:16.364448
2022-12-01 18:14:16.372506
2022-12-01 18:14:16.380841
2022-12-01 18:14:16.388310
2022-12-01 18:14:16.401366
2022-12-01 18:14:16.408942
2022-12-01 18:14:16.417622
2022-12-01 18:14:16.429879
2022-12-01 18:14:16.437999
2022-12-01 18:14:16.446882
2022-12-01 18:14:16.454724
2022-12-01 18:14:16.467262
2022-12-01 18:14:16.474618
2022-12-01 18:14:16.483999
2022-12-01 18:14:16.496061
2022-12-01 18:14:16.503127
2022-12-01 18:14:16.512365
2022-12-01 18:14:16.519644
2022-12-01 18:14:16.532817
2022-12-01 18:14:16.540020
2022-12-01 18:14:16.548984
2022-12-01 18:14:16.560471
2022-12-01 18:14:16.569218
2022-12-01 18:14:16.576654
2022-12-01 18:14:16.585565
2022-12-01 18:14:16.597545
2022-12-01 18:14:16.605614
2022-12-01 18:14:16.614019
2022-12-01 18:14:16.625614
2022-12-01 18:14:16.634559
2022-12-01 18:14:16.642617
2022-12-01 18:14:16.650957
2022-12-01 18:14:16.663975
2022-12-01 18:14:16.671451
2022-12-01 18:14:16.680284
2022-12-01 18:14:16.692583
2022-12-01 18:14:16.699678
2022-12-01 18:14:16.708972
2022-12-01 18:14:16.717144
2022-12-01 18:14:16.729148
2022-12-01 18:14:16.736995
2022-12-01 18:14:16.744958
2022-12-01 18:14:16.757622
2022-12-01 18:14:16.765551
2022-12-01 18:14:16.773761
2022-12-01 18:14:16.781863
2022-12-01 18:14:16.793817
2022-12-01 18:14:16.802230
2022-12-01 18:14:16.810307
2022-12-01 18:14:16.822827
2022-12-01 18:14:16.830547
2022-12-01 18:14:16.838506
2022-12-01 18:14:16.846817
2022-12-01 18:14:16.859746
2022-12-01 18:14:16.868095
2022-12-01 18:14:16.876126
2022-12-01 18:14:16.887886
2022-12-01 18:14:16.895825
2022-12-01 18:14:16.904769
2022-12-01 18:14:16.912391
2022-12-01 18:14:16.925131
2022-12-01 18:14:16.933303
2022-12-01 18:14:16.941308
2022-12-01 18:14:16.954044
2022-12-01 18:14:16.962270
2022-12-01 18:14:16.970348
2022-12-01 18:14:16.978639
2022-12-01 18:14:16.990680
2022-12-01 18:14:16.999337
2022-12-01 18:14:17.007521
2022-12-01 18:14:17.019584
2022-12-01 18:14:17.028548
2022-12-01 18:14:17.036253
2022-12-01 18:14:17.044235
2022-12-01 18:14:17.057232
2022-12-01 18:14:17.064804
2022-12-01 18:14:17.073299
2022-12-01 18:14:17.081265
2022-12-01 18:14:17.093579
2022-12-01 18:14:17.101694
2022-12-01 18:14:17.110029
2022-12-01 18:14:17.121946
2022-12-01 18:14:17.129135
2022-12-01 18:14:17.139125
2022-12-01 18:14:17.147016
2022-12-01 18:14:17.159076
2022-12-01 18:14:17.166935
2022-12-01 18:14:17.175156
2022-12-01 18:14:17.187126
2022-12-01 18:14:17.196375
2022-12-01 18:14:17.203530
2022-12-01 18:14:17.212055
2022-12-01 18:14:17.225060
2022-12-01 18:14:17.233291
2022-12-01 18:14:17.241290
2022-12-01 18:14:17.252613
2022-12-01 18:14:17.261554
2022-12-01 18:14:17.268743
2022-12-01 18:14:17.277995
2022-12-01 18:14:17.290074
2022-12-01 18:14:17.297792
2022-12-01 18:14:17.306368
2022-12-01 18:14:17.319269
2022-12-01 18:14:17.327540
2022-12-01 18:14:17.335619
2022-12-01 18:14:17.343805
2022-12-01 18:14:17.355300
2022-12-01 18:14:17.364167
2022-12-01 18:14:17.372605
2022-12-01 18:14:17.384915
2022-12-01 18:14:17.392218
2022-12-01 18:14:17.401263
2022-12-01 18:14:17.409067
2022-12-01 18:14:17.420925
2022-12-01 18:14:17.429553
2022-12-01 18:14:17.437324
2022-12-01 18:14:17.449561
2022-12-01 18:14:17.457353
2022-12-01 18:14:17.465960
2022-12-01 18:14:17.473464
2022-12-01 18:14:17.486199
2022-12-01 18:14:17.494355
2022-12-01 18:14:17.502470
2022-12-01 18:14:17.514531
2022-12-01 18:14:17.523204
2022-12-01 18:14:17.531285
2022-12-01 18:14:17.539748
2022-12-01 18:14:17.552799
2022-12-01 18:14:17.559943
2022-12-01 18:14:17.567631
2022-12-01 18:14:17.580276
2022-12-01 18:14:17.588097
2022-12-01 18:14:17.596986
2022-12-01 18:14:17.605491
2022-12-01 18:14:17.617847
2022-12-01 18:14:17.625551
2022-12-01 18:14:17.633962
2022-12-01 18:14:17.647034
2022-12-01 18:14:17.654383
2022-12-01 18:14:17.662753
2022-12-01 18:14:17.670058
2022-12-01 18:14:17.682643
2022-12-01 18:14:17.691559
2022-12-01 18:14:17.699425
2022-12-01 18:14:17.711890
2022-12-01 18:14:17.719238
2022-12-01 18:14:17.728420
2022-12-01 18:14:17.735880
2022-12-01 18:14:17.749367
2022-12-01 18:14:17.757164
2022-12-01 18:14:17.764959
2022-12-01 18:14:17.776937
2022-12-01 18:14:17.785675
2022-12-01 18:14:17.793967
2022-12-01 18:14:17.802077
2022-12-01 18:14:17.815035
2022-12-01 18:14:17.822511
2022-12-01 18:14:17.830813
2022-12-01 18:14:17.843689
2022-12-01 18:14:17.851759
2022-12-01 18:14:17.860084
2022-12-01 18:14:17.868216
2022-12-01 18:14:17.879198
2022-12-01 18:14:17.887936
2022-12-01 18:14:17.896904
2022-12-01 18:14:17.904344
2022-12-01 18:14:17.917283
2022-12-01 18:14:17.924368
2022-12-01 18:14:17.933530
2022-12-01 18:14:17.945124
2022-12-01 18:14:17.953742
2022-12-01 18:14:17.961652
2022-12-01 18:14:17.969465
2022-12-01 18:14:17.982830
2022-12-01 18:14:17.991150
2022-12-01 18:14:17.999418
2022-12-01 18:14:18.010778
2022-12-01 18:14:18.019193
2022-12-01 18:14:18.027997
2022-12-01 18:14:18.035839
2022-12-01 18:14:18.047666
2022-12-01 18:14:18.056627
2022-12-01 18:14:18.064030
2022-12-01 18:14:18.076049
2022-12-01 18:14:18.085323
2022-12-01 18:14:18.092933
2022-12-01 18:14:18.101260
2022-12-01 18:14:18.113372
2022-12-01 18:14:18.121516
2022-12-01 18:14:18.129723
2022-12-01 18:14:18.142488
2022-12-01 18:14:18.150882
2022-12-01 18:14:18.158769
2022-12-01 18:14:18.166459
2022-12-01 18:14:18.179422
2022-12-01 18:14:18.186936
2022-12-01 18:14:18.195611
2022-12-01 18:14:18.208016
2022-12-01 18:14:18.215517
2022-12-01 18:14:18.223720
2022-12-01 18:14:18.232788
2022-12-01 18:14:18.245199
2022-12-01 18:14:18.252438
2022-12-01 18:14:18.260727
2022-12-01 18:14:18.273297
2022-12-01 18:14:18.281435
2022-12-01 18:14:18.289472
2022-12-01 18:14:18.297672
2022-12-01 18:14:18.310016
2022-12-01 18:14:18.318853
2022-12-01 18:14:18.326963
2022-12-01 18:14:18.338768
2022-12-01 18:14:18.347077
2022-12-01 18:14:18.355655
2022-12-01 18:14:18.363516
2022-12-01 18:14:18.375622
2022-12-01 18:14:18.384309
2022-12-01 18:14:18.392014
2022-12-01 18:14:18.403979
2022-12-01 18:14:18.411709
2022-12-01 18:14:18.420434
2022-12-01 18:14:18.429388
2022-12-01 18:14:18.441208
2022-12-01 18:14:18.449093
2022-12-01 18:14:18.457492
2022-12-01 18:14:18.469108
2022-12-01 18:14:18.477895
2022-12-01 18:14:18.485511
2022-12-01 18:14:18.494930
2022-12-01 18:14:18.506596
2022-12-01 18:14:18.515411
2022-12-01 18:14:18.523265
2022-12-01 18:14:18.534801
2022-12-01 18:14:18.543989
2022-12-01 18:14:18.551477
2022-12-01 18:14:18.560500
2022-12-01 18:14:18.572721
2022-12-01 18:14:18.580338
2022-12-01 18:14:18.589125
2022-12-01 18:14:18.601378
2022-12-01 18:14:18.609312
2022-12-01 18:14:18.617358
2022-12-01 18:14:18.625718
2022-12-01 18:14:18.637398
2022-12-01 18:14:18.644846
2022-12-01 18:14:18.653753
2022-12-01 18:14:18.666031
2022-12-01 18:14:18.674486
2022-12-01 18:14:18.683041
2022-12-01 18:14:18.690881
2022-12-01 18:14:18.702454
2022-12-01 18:14:18.711908
2022-12-01 18:14:18.719036
2022-12-01 18:14:18.732492
2022-12-01 18:14:18.739356
2022-12-01 18:14:18.748380
2022-12-01 18:14:18.757087
2022-12-01 18:14:18.768888
2022-12-01 18:14:18.777360
2022-12-01 18:14:18.785038
2022-12-01 18:14:18.792370
2022-12-01 18:14:18.805659
2022-12-01 18:14:18.813613
2022-12-01 18:14:18.822063
2022-12-01 18:14:18.834104
2022-12-01 18:14:18.842232
2022-12-01 18:14:18.850743
2022-12-01 18:14:18.858747
2022-12-01 18:14:18.870811
2022-12-01 18:14:18.879967
2022-12-01 18:14:18.887402
2022-12-01 18:14:18.900471
2022-12-01 18:14:18.908369
2022-12-01 18:14:18.916740
2022-12-01 18:14:18.924920
2022-12-01 18:14:18.936495
2022-12-01 18:14:18.945313
2022-12-01 18:14:18.952856
2022-12-01 18:14:18.964776
2022-12-01 18:14:18.973360
2022-12-01 18:14:18.981361
2022-12-01 18:14:18.989517
2022-12-01 18:14:19.001915
2022-12-01 18:14:19.009904
2022-12-01 18:14:19.018543
2022-12-01 18:14:19.031401
2022-12-01 18:14:19.038835
2022-12-01 18:14:19.047889
2022-12-01 18:14:19.055211
2022-12-01 18:14:19.068327
2022-12-01 18:14:19.076465
2022-12-01 18:14:19.084654
2022-12-01 18:14:19.096951
2022-12-01 18:14:19.104702
2022-12-01 18:14:19.113494
2022-12-01 18:14:19.121013
2022-12-01 18:14:19.133473
2022-12-01 18:14:19.141472
2022-12-01 18:14:19.149697
2022-12-01 18:14:19.161939
2022-12-01 18:14:19.169463
2022-12-01 18:14:19.178232
2022-12-01 18:14:19.186416
2022-12-01 18:14:19.198381
2022-12-01 18:14:19.207523
2022-12-01 18:14:19.215733
2022-12-01 18:14:19.227274
2022-12-01 18:14:19.235364
2022-12-01 18:14:19.243291
2022-12-01 18:14:19.251803
2022-12-01 18:14:19.264965
2022-12-01 18:14:19.272905
2022-12-01 18:14:19.281229
2022-12-01 18:14:19.292164
2022-12-01 18:14:19.300806
2022-12-01 18:14:19.309480
2022-12-01 18:14:19.317659
2022-12-01 18:14:19.329666
2022-12-01 18:14:19.338018
2022-12-01 18:14:19.346044
2022-12-01 18:14:19.358619
2022-12-01 18:14:19.366407
2022-12-01 18:14:19.375048
2022-12-01 18:14:19.382629
2022-12-01 18:14:19.396242
2022-12-01 18:14:19.403259
2022-12-01 18:14:19.411875
2022-12-01 18:14:19.424210
2022-12-01 18:14:19.432921
2022-12-01 18:14:19.440576
2022-12-01 18:14:19.448767
2022-12-01 18:14:19.460035
2022-12-01 18:14:19.468738
2022-12-01 18:14:19.476675
2022-12-01 18:14:19.488962
2022-12-01 18:14:19.497291
2022-12-01 18:14:19.505863
2022-12-01 18:14:19.514006
2022-12-01 18:14:19.526956
2022-12-01 18:14:19.534588
2022-12-01 18:14:19.542220
2022-12-01 18:14:19.555564
2022-12-01 18:14:19.563930
2022-12-01 18:14:19.572094
2022-12-01 18:14:19.580314
2022-12-01 18:14:19.592663
2022-12-01 18:14:19.600738
2022-12-01 18:14:19.608971
2022-12-01 18:14:19.620471
2022-12-01 18:14:19.628686
2022-12-01 18:14:19.636948
2022-12-01 18:14:19.644551
2022-12-01 18:14:19.656970
2022-12-01 18:14:19.665348
2022-12-01 18:14:19.674050
2022-12-01 18:14:19.682109
2022-12-01 18:14:19.695051
2022-12-01 18:14:19.702389
2022-12-01 18:14:19.710894
2022-12-01 18:14:19.723187
2022-12-01 18:14:19.731359
2022-12-01 18:14:19.739522
2022-12-01 18:14:19.747758
2022-12-01 18:14:19.760066
2022-12-01 18:14:19.767928
2022-12-01 18:14:19.776733
2022-12-01 18:14:19.789182
2022-12-01 18:14:19.796789
2022-12-01 18:14:19.805480
2022-12-01 18:14:19.813177
2022-12-01 18:14:19.825671
2022-12-01 18:14:19.833691
2022-12-01 18:14:19.841911
2022-12-01 18:14:19.853955
2022-12-01 18:14:19.862004
2022-12-01 18:14:19.870335
2022-12-01 18:14:19.879271
2022-12-01 18:14:19.890722
2022-12-01 18:14:19.899756
2022-12-01 18:14:19.906634
2022-12-01 18:14:19.919554
2022-12-01 18:14:19.927988
2022-12-01 18:14:19.935925
2022-12-01 18:14:19.943455
2022-12-01 18:14:19.955651
2022-12-01 18:14:19.963907
2022-12-01 18:14:19.972271
2022-12-01 18:14:19.984528
2022-12-01 18:14:19.992734
2022-12-01 18:14:20.000798
2022-12-01 18:14:20.008976
2022-12-01 18:14:20.021374
2022-12-01 18:14:20.029904
2022-12-01 18:14:20.038384
2022-12-01 18:14:20.050434
2022-12-01 18:14:20.059484
2022-12-01 18:14:20.067799
2022-12-01 18:14:20.076216
2022-12-01 18:14:20.088251
2022-12-01 18:14:20.095922
2022-12-01 18:14:20.104630
2022-12-01 18:14:20.116097
2022-12-01 18:14:20.124560
2022-12-01 18:14:20.132893
2022-12-01 18:14:20.141245
2022-12-01 18:14:20.153055
2022-12-01 18:14:20.161576
2022-12-01 18:14:20.168848
2022-12-01 18:14:20.181914
2022-12-01 18:14:20.190176
2022-12-01 18:14:20.198682
2022-12-01 18:14:20.206962
2022-12-01 18:14:20.217982
2022-12-01 18:14:20.227451
2022-12-01 18:14:20.234948
2022-12-01 18:14:20.247310
2022-12-01 18:14:20.255640
2022-12-01 18:14:20.263888
2022-12-01 18:14:20.271974
2022-12-01 18:14:20.284305
2022-12-01 18:14:20.292244
2022-12-01 18:14:20.300792
2022-12-01 18:14:20.313038
2022-12-01 18:14:20.321286
2022-12-01 18:14:20.329454
2022-12-01 18:14:20.337585
2022-12-01 18:14:20.349835
2022-12-01 18:14:20.358178
2022-12-01 18:14:20.366717
2022-12-01 18:14:20.378255
2022-12-01 18:14:20.386146
2022-12-01 18:14:20.395192
2022-12-01 18:14:20.402302
2022-12-01 18:14:20.415284
2022-12-01 18:14:20.423638
2022-12-01 18:14:20.431056
2022-12-01 18:14:20.444529
2022-12-01 18:14:20.451537
2022-12-01 18:14:20.460998
2022-12-01 18:14:20.468275
2022-12-01 18:14:20.480378
2022-12-01 18:14:20.488422
2022-12-01 18:14:20.497413
2022-12-01 18:14:20.505007
2022-12-01 18:14:20.516569
2022-12-01 18:14:20.525020
2022-12-01 18:14:20.533034
2022-12-01 18:14:20.546267
2022-12-01 18:14:20.553830
2022-12-01 18:14:20.563098
2022-12-01 18:14:20.570576
2022-12-01 18:14:20.584017
2022-12-01 18:14:20.591272
2022-12-01 18:14:20.599556
2022-12-01 18:14:20.612477
2022-12-01 18:14:20.619774
2022-12-01 18:14:20.628473
2022-12-01 18:14:20.636449
2022-12-01 18:14:20.648247
2022-12-01 18:14:20.657094
2022-12-01 18:14:20.665164
2022-12-01 18:14:20.676587
2022-12-01 18:14:20.685343
2022-12-01 18:14:20.693113
2022-12-01 18:14:20.701357
2022-12-01 18:14:20.713922
2022-12-01 18:14:20.722915
2022-12-01 18:14:20.730208
2022-12-01 18:14:20.743543
2022-12-01 18:14:20.751423
2022-12-01 18:14:20.759911
2022-12-01 18:14:20.768580
2022-12-01 18:14:20.780426
2022-12-01 18:14:20.788040
2022-12-01 18:14:20.796785
2022-12-01 18:14:20.807595
2022-12-01 18:14:20.816008
2022-12-01 18:14:20.825244
2022-12-01 18:14:20.833240
2022-12-01 18:14:20.845074
2022-12-01 18:14:20.853027
2022-12-01 18:14:20.861130
2022-12-01 18:14:20.874134
2022-12-01 18:14:20.882130
2022-12-01 18:14:20.889925
2022-12-01 18:14:20.898771
2022-12-01 18:14:20.911492
2022-12-01 18:14:20.918564
2022-12-01 18:14:20.927875
2022-12-01 18:14:20.939047
2022-12-01 18:14:20.947714
2022-12-01 18:14:20.955955
2022-12-01 18:14:20.964710
2022-12-01 18:14:20.975819
2022-12-01 18:14:20.984475
2022-12-01 18:14:20.992600
2022-12-01 18:14:21.004230
2022-12-01 18:14:21.012689
2022-12-01 18:14:21.020603
2022-12-01 18:14:21.029448
2022-12-01 18:14:21.041182
2022-12-01 18:14:21.050176
2022-12-01 18:14:21.058292
2022-12-01 18:14:21.070780
2022-12-01 18:14:21.079413
2022-12-01 18:14:21.086991
2022-12-01 18:14:21.095281
2022-12-01 18:14:21.106979
2022-12-01 18:14:21.115831
2022-12-01 18:14:21.124151
2022-12-01 18:14:21.135850
2022-12-01 18:14:21.144580
2022-12-01 18:14:21.152512
2022-12-01 18:14:21.161329
2022-12-01 18:14:21.173200
2022-12-01 18:14:21.181494
2022-12-01 18:14:21.189285
2022-12-01 18:14:21.201408
2022-12-01 18:14:21.209981
2022-12-01 18:14:21.217714
2022-12-01 18:14:21.226177
2022-12-01 18:14:21.239147
2022-12-01 18:14:21.247421
2022-12-01 18:14:21.254640
2022-12-01 18:14:21.266209
2022-12-01 18:14:21.275277
2022-12-01 18:14:21.283507
2022-12-01 18:14:21.291857
2022-12-01 18:14:21.303996
2022-12-01 18:14:21.312606
2022-12-01 18:14:21.320525
2022-12-01 18:14:21.332926
2022-12-01 18:14:21.341203
2022-12-01 18:14:21.348329
2022-12-01 18:14:21.356614
2022-12-01 18:14:21.368876
2022-12-01 18:14:21.377840
2022-12-01 18:14:21.385958
2022-12-01 18:14:21.393946
2022-12-01 18:14:21.407217
2022-12-01 18:14:21.414058
2022-12-01 18:14:21.423589
2022-12-01 18:14:21.435173
2022-12-01 18:14:21.443225
2022-12-01 18:14:21.451143
2022-12-01 18:14:21.460330
2022-12-01 18:14:21.471973
2022-12-01 18:14:21.480842
2022-12-01 18:14:21.487925
2022-12-01 18:14:21.501117
2022-12-01 18:14:21.508198
2022-12-01 18:14:21.516818
2022-12-01 18:14:21.525063
2022-12-01 18:14:21.537726
2022-12-01 18:14:21.545692
2022-12-01 18:14:21.553721
2022-12-01 18:14:21.565830
2022-12-01 18:14:21.575176
2022-12-01 18:14:21.583026
2022-12-01 18:14:21.590926
2022-12-01 18:14:21.602213
2022-12-01 18:14:21.611595
2022-12-01 18:14:21.619050
2022-12-01 18:14:21.631939
2022-12-01 18:14:21.640571
2022-12-01 18:14:21.648319
2022-12-01 18:14:21.657128
2022-12-01 18:14:21.668578
2022-12-01 18:14:21.676977
2022-12-01 18:14:21.685001
2022-12-01 18:14:21.697474
2022-12-01 18:14:21.705510
2022-12-01 18:14:21.713656
2022-12-01 18:14:21.721930
2022-12-01 18:14:21.734347
2022-12-01 18:14:21.742973
2022-12-01 18:14:21.751010
2022-12-01 18:14:21.763566
2022-12-01 18:14:21.771671
2022-12-01 18:14:21.779865
2022-12-01 18:14:21.788034
2022-12-01 18:14:21.800311
2022-12-01 18:14:21.808495
2022-12-01 18:14:21.816719
2022-12-01 18:14:21.827987
2022-12-01 18:14:21.836367
2022-12-01 18:14:21.843683
2022-12-01 18:14:21.852790
2022-12-01 18:14:21.865378
2022-12-01 18:14:21.873599
2022-12-01 18:14:21.881669
2022-12-01 18:14:21.893703
2022-12-01 18:14:21.901897
2022-12-01 18:14:21.910516
2022-12-01 18:14:21.918412
2022-12-01 18:14:21.930988
2022-12-01 18:14:21.938760
2022-12-01 18:14:21.947220
2022-12-01 18:14:21.960071
2022-12-01 18:14:21.967402
2022-12-01 18:14:21.975757
2022-12-01 18:14:21.984040
2022-12-01 18:14:21.996500
2022-12-01 18:14:22.004433
2022-12-01 18:14:22.012700
2022-12-01 18:14:22.025156
2022-12-01 18:14:22.033250
2022-12-01 18:14:22.041495
2022-12-01 18:14:22.049329
2022-12-01 18:14:22.061387
2022-12-01 18:14:22.069852
2022-12-01 18:14:22.077881
2022-12-01 18:14:22.089949
2022-12-01 18:14:22.098816
2022-12-01 18:14:22.106138
2022-12-01 18:14:22.115368
2022-12-01 18:14:22.127921
2022-12-01 18:14:22.134955
2022-12-01 18:14:22.144432
2022-12-01 18:14:22.156687
2022-12-01 18:14:22.164868
2022-12-01 18:14:22.173046
2022-12-01 18:14:22.181217
2022-12-01 18:14:22.193237
2022-12-01 18:14:22.200840
2022-12-01 18:14:22.209530
2022-12-01 18:14:22.221746
2022-12-01 18:14:22.229283
2022-12-01 18:14:22.238595
2022-12-01 18:14:22.246905
2022-12-01 18:14:22.258013
2022-12-01 18:14:22.267298
2022-12-01 18:14:22.273905
2022-12-01 18:14:22.283028
2022-12-01 18:14:22.295938
2022-12-01 18:14:22.303356
2022-12-01 18:14:22.311167
2022-12-01 18:14:22.324599
2022-12-01 18:14:22.332805
2022-12-01 18:14:22.340527
2022-12-01 18:14:22.349210
2022-12-01 18:14:22.361252
2022-12-01 18:14:22.369197
2022-12-01 18:14:22.377364
2022-12-01 18:14:22.389637
2022-12-01 18:14:22.397833
2022-12-01 18:14:22.406003
2022-12-01 18:14:22.413978
2022-12-01 18:14:22.426012
2022-12-01 18:14:22.434136
2022-12-01 18:14:22.442982
2022-12-01 18:14:22.455700
2022-12-01 18:14:22.463856
2022-12-01 18:14:22.471097
2022-12-01 18:14:22.479989
2022-12-01 18:14:22.492555
2022-12-01 18:14:22.500722
2022-12-01 18:14:22.508957
2022-12-01 18:14:22.520520
2022-12-01 18:14:22.529249
2022-12-01 18:14:22.536177
2022-12-01 18:14:22.545446
2022-12-01 18:14:22.557548
2022-12-01 18:14:22.565765
2022-12-01 18:14:22.574086
2022-12-01 18:14:22.585745
2022-12-01 18:14:22.593415
2022-12-01 18:14:22.601692
2022-12-01 18:14:22.610699
2022-12-01 18:14:22.622188
2022-12-01 18:14:22.630856
2022-12-01 18:14:22.640094
2022-12-01 18:14:22.651435
2022-12-01 18:14:22.659458
2022-12-01 18:14:22.667799
2022-12-01 18:14:22.676999
2022-12-01 18:14:22.688261
2022-12-01 18:14:22.697342
2022-12-01 18:14:22.704733
2022-12-01 18:14:22.717303
2022-12-01 18:14:22.725637
2022-12-01 18:14:22.733984
2022-12-01 18:14:22.741939
2022-12-01 18:14:22.753609
2022-12-01 18:14:22.762141
2022-12-01 18:14:22.770200
2022-12-01 18:14:22.781779
2022-12-01 18:14:22.790892
2022-12-01 18:14:22.799028
2022-12-01 18:14:22.807540
2022-12-01 18:14:22.819480
2022-12-01 18:14:22.827862
2022-12-01 18:14:22.835791
2022-12-01 18:14:22.848570
2022-12-01 18:14:22.856790
2022-12-01 18:14:22.865259
2022-12-01 18:14:22.873262
2022-12-01 18:14:22.885026
2022-12-01 18:14:22.893515
2022-12-01 18:14:22.901303
2022-12-01 18:14:22.913909
2022-12-01 18:14:22.921714
2022-12-01 18:14:22.930172
2022-12-01 18:14:22.938289
2022-12-01 18:14:22.950534
2022-12-01 18:14:22.959510
2022-12-01 18:14:22.967582
2022-12-01 18:14:22.979246
2022-12-01 18:14:22.987469
2022-12-01 18:14:22.995612
2022-12-01 18:14:23.004662
2022-12-01 18:14:23.015884
2022-12-01 18:14:23.024059
2022-12-01 18:14:23.032551
2022-12-01 18:14:23.044136
2022-12-01 18:14:23.053600
2022-12-01 18:14:23.061422
2022-12-01 18:14:23.068635
2022-12-01 18:14:23.081474
2022-12-01 18:14:23.089138
2022-12-01 18:14:23.097902
2022-12-01 18:14:23.109576
2022-12-01 18:14:23.118075
2022-12-01 18:14:23.126812
2022-12-01 18:14:23.134841
2022-12-01 18:14:23.147097
2022-12-01 18:14:23.154561
2022-12-01 18:14:23.162817
2022-12-01 18:14:23.171407
2022-12-01 18:14:23.183745
2022-12-01 18:14:23.191467
2022-12-01 18:14:23.200211
2022-12-01 18:14:23.212722
2022-12-01 18:14:23.220515
2022-12-01 18:14:23.229091
2022-12-01 18:14:23.237292
2022-12-01 18:14:23.249571
2022-12-01 18:14:23.257754
2022-12-01 18:14:23.265936
2022-12-01 18:14:23.278130
2022-12-01 18:14:23.286436
2022-12-01 18:14:23.294691
2022-12-01 18:14:23.302886
2022-12-01 18:14:23.315736
2022-12-01 18:14:23.323282
2022-12-01 18:14:23.331575
2022-12-01 18:14:23.344133
2022-12-01 18:14:23.352174
2022-12-01 18:14:23.360525
2022-12-01 18:14:23.368205
2022-12-01 18:14:23.380891
2022-12-01 18:14:23.389175
2022-12-01 18:14:23.397274
2022-12-01 18:14:23.409640
2022-12-01 18:14:23.416931
2022-12-01 18:14:23.425862
2022-12-01 18:14:23.433413
2022-12-01 18:14:23.445928
2022-12-01 18:14:23.454576
2022-12-01 18:14:23.461415
2022-12-01 18:14:23.475044
2022-12-01 18:14:23.483277
2022-12-01 18:14:23.491182
2022-12-01 18:14:23.499731
2022-12-01 18:14:23.511892
2022-12-01 18:14:23.519529
2022-12-01 18:14:23.528461
2022-12-01 18:14:23.540119
2022-12-01 18:14:23.547814
2022-12-01 18:14:23.556695
2022-12-01 18:14:23.564303
2022-12-01 18:14:23.576784
2022-12-01 18:14:23.585108
2022-12-01 18:14:23.593357
2022-12-01 18:14:23.605817
2022-12-01 18:14:23.613866
2022-12-01 18:14:23.622164
2022-12-01 18:14:23.630179
2022-12-01 18:14:23.642752
2022-12-01 18:14:23.650684
2022-12-01 18:14:23.658771
2022-12-01 18:14:23.670716
2022-12-01 18:14:23.679825
2022-12-01 18:14:23.687859
2022-12-01 18:14:23.696175
2022-12-01 18:14:23.708368
2022-12-01 18:14:23.716505
2022-12-01 18:14:23.724455
2022-12-01 18:14:23.737015
2022-12-01 18:14:23.745499
2022-12-01 18:14:23.753403
2022-12-01 18:14:23.761708
2022-12-01 18:14:23.774668
2022-12-01 18:14:23.781977
2022-12-01 18:14:23.790938
2022-12-01 18:14:23.801509
2022-12-01 18:14:23.811037
2022-12-01 18:14:23.818044
2022-12-01 18:14:23.827319
2022-12-01 18:14:23.839731
2022-12-01 18:14:23.847841
2022-12-01 18:14:23.856119
2022-12-01 18:14:23.867685
2022-12-01 18:14:23.876439
2022-12-01 18:14:23.884624
2022-12-01 18:14:23.893453
2022-12-01 18:14:23.905285
2022-12-01 18:14:23.913537
2022-12-01 18:14:23.921489
2022-12-01 18:14:23.933475
2022-12-01 18:14:23.942053
2022-12-01 18:14:23.949992
2022-12-01 18:14:23.959052
2022-12-01 18:14:23.970479
2022-12-01 18:14:23.979127
2022-12-01 18:14:23.987607
2022-12-01 18:14:23.995875
2022-12-01 18:14:24.007262
2022-12-01 18:14:24.016335
2022-12-01 18:14:24.024364
2022-12-01 18:14:24.036870
2022-12-01 18:14:24.043536
2022-12-01 18:14:24.053224
2022-12-01 18:14:24.060101
2022-12-01 18:14:24.073154
2022-12-01 18:14:24.081282
2022-12-01 18:14:24.089877
2022-12-01 18:14:24.101241
2022-12-01 18:14:24.110110
2022-12-01 18:14:24.117579
2022-12-01 18:14:24.126987
2022-12-01 18:14:24.139252
2022-12-01 18:14:24.147153
2022-12-01 18:14:24.155348
2022-12-01 18:14:24.166943
2022-12-01 18:14:24.175373
2022-12-01 18:14:24.183307
2022-12-01 18:14:24.192072
2022-12-01 18:14:24.204137
2022-12-01 18:14:24.211911
2022-12-01 18:14:24.221180
2022-12-01 18:14:24.233265
2022-12-01 18:14:24.241367
2022-12-01 18:14:24.249269
2022-12-01 18:14:24.257481
2022-12-01 18:14:24.269646
2022-12-01 18:14:24.277935
2022-12-01 18:14:24.285849
2022-12-01 18:14:24.298247
2022-12-01 18:14:24.306118
2022-12-01 18:14:24.314774
2022-12-01 18:14:24.322238
2022-12-01 18:14:24.334437
2022-12-01 18:14:24.344079
2022-12-01 18:14:24.351845
2022-12-01 18:14:24.364455
2022-12-01 18:14:24.372625
2022-12-01 18:14:24.379930
2022-12-01 18:14:24.388575
2022-12-01 18:14:24.399657
2022-12-01 18:14:24.409361
2022-12-01 18:14:24.416731
2022-12-01 18:14:24.428877
2022-12-01 18:14:24.437609
2022-12-01 18:14:24.445327
2022-12-01 18:14:24.453952
2022-12-01 18:14:24.466166
2022-12-01 18:14:24.474514
2022-12-01 18:14:24.483007
2022-12-01 18:14:24.494997
2022-12-01 18:14:24.502658
2022-12-01 18:14:24.511388
2022-12-01 18:14:24.519342
2022-12-01 18:14:24.531918
2022-12-01 18:14:24.540153
2022-12-01 18:14:24.548762
2022-12-01 18:14:24.561049
2022-12-01 18:14:24.568331
2022-12-01 18:14:24.577274
2022-12-01 18:14:24.585214
2022-12-01 18:14:24.597532
2022-12-01 18:14:24.605597
2022-12-01 18:14:24.613974
2022-12-01 18:14:24.626105
2022-12-01 18:14:24.633320
2022-12-01 18:14:24.642354
2022-12-01 18:14:24.649941
2022-12-01 18:14:24.663463
2022-12-01 18:14:24.670865
2022-12-01 18:14:24.678799
2022-12-01 18:14:24.691405
2022-12-01 18:14:24.699842
2022-12-01 18:14:24.708499
2022-12-01 18:14:24.716500
2022-12-01 18:14:24.728410
2022-12-01 18:14:24.736338
2022-12-01 18:14:24.744338
2022-12-01 18:14:24.757627
2022-12-01 18:14:24.765680
2022-12-01 18:14:24.773569
2022-12-01 18:14:24.781665
2022-12-01 18:14:24.794006
2022-12-01 18:14:24.801551
2022-12-01 18:14:24.810031
2022-12-01 18:14:24.822704
2022-12-01 18:14:24.830900
2022-12-01 18:14:24.839198
2022-12-01 18:14:24.847633
2022-12-01 18:14:24.858824
2022-12-01 18:14:24.867176
2022-12-01 18:14:24.875332
2022-12-01 18:14:24.884039
2022-12-01 18:14:24.896638
2022-12-01 18:14:24.904538
2022-12-01 18:14:24.912320
2022-12-01 18:14:24.924917
2022-12-01 18:14:24.932868
2022-12-01 18:14:24.941419
2022-12-01 18:14:24.949463
2022-12-01 18:14:24.961883
2022-12-01 18:14:24.969960
2022-12-01 18:14:24.978227
2022-12-01 18:14:24.990790
2022-12-01 18:14:24.998723
2022-12-01 18:14:25.006715
2022-12-01 18:14:25.014438
2022-12-01 18:14:25.027374
2022-12-01 18:14:25.035432
2022-12-01 18:14:25.043632
2022-12-01 18:14:25.056806
2022-12-01 18:14:25.064633
2022-12-01 18:14:25.072547
2022-12-01 18:14:25.080760
2022-12-01 18:14:25.093130
2022-12-01 18:14:25.100344
2022-12-01 18:14:25.109641
2022-12-01 18:14:25.120878
2022-12-01 18:14:25.129729
2022-12-01 18:14:25.137417
2022-12-01 18:14:25.145974
2022-12-01 18:14:25.158271
2022-12-01 18:14:25.166018
2022-12-01 18:14:25.174357
2022-12-01 18:14:25.186870
2022-12-01 18:14:25.195165
2022-12-01 18:14:25.202944
2022-12-01 18:14:25.211504
2022-12-01 18:14:25.223324
2022-12-01 18:14:25.231478
2022-12-01 18:14:25.239910
2022-12-01 18:14:25.251651
2022-12-01 18:14:25.259772
2022-12-01 18:14:25.268729
2022-12-01 18:14:25.276702
2022-12-01 18:14:25.288905
2022-12-01 18:14:25.296975
2022-12-01 18:14:25.305436
2022-12-01 18:14:25.317544
2022-12-01 18:14:25.325791
2022-12-01 18:14:25.334283
2022-12-01 18:14:25.342250
2022-12-01 18:14:25.354400
2022-12-01 18:14:25.362647
2022-12-01 18:14:25.371128
2022-12-01 18:14:25.383414
2022-12-01 18:14:25.391778
2022-12-01 18:14:25.399815
2022-12-01 18:14:25.407887
2022-12-01 18:14:25.440704
2022-12-01 18:14:25.442194
2022-12-01 18:14:25.443189
2022-12-01 18:14:25.448238
2022-12-01 18:14:25.457393
2022-12-01 18:14:25.465336
2022-12-01 18:14:25.473608
2022-12-01 18:14:25.485596
2022-12-01 18:14:25.494084
2022-12-01 18:14:25.502408
2022-12-01 18:14:25.514191
