HR_time,RR-interval,heart_rate
1.0184485431808012,704.0,76.44600617283949
2.0368970863616025,1018.0,68.43455104463436
3.0176253131283,980.0,60.687937408270734
3.9857801010902962,968.0,61.979878603852285
4.941361450247591,955.0,60.52325039872408
5.997530309842496,1056.0,59.263638425331614
7.028552291827999,1031.0,58.72698592870543
8.009280518594696,980.0,58.72698592870543
9.065449378189602,1056.0,57.82475223613595
10.146765115393908,1081.0,55.927748062015496
11.228080852598216,1081.0,56.62908756818833
12.246529395779017,1018.0,57.77080304335342
13.264977938959818,1018.0,57.98840058097312
14.333720237359424,1068.0,57.28706107480028
15.38988909695433,1056.0,56.58572156862745
16.446057956549232,1056.0,57.755308333333325
17.451933060925334,1005.0,58.702116666666655
18.457808165301433,1005.0,59.90060822784809
19.451109830872834,993.0,58.73102146314221
20.51985212927244,1068.0,58.731021463142206
21.52572723364854,1005.0,59.52581060371516
22.481308582805834,955.0,63.865147006102205
23.34887586033022,867.0,63.619678178941705
24.36732440351102,1018.0,61.40361904581478
25.436066701910626,1068.0,57.51520766114566
26.47966212270083,1043.0,57.275725878550055
27.510684104686334,1031.0,58.69699587110404
28.50398577025773,993.0,58.930707008335894
29.535007752243235,1031.0,58.69699587110404
30.57860317303344,1043.0,57.72665089626799
31.622198593823644,1043.0,58.72142137781896
32.60292682059034,980.0,59.44008312480691
33.60880192496644,1005.0,59.44008312480691
34.65239734575664,1043.0,58.44531264325594
35.68341932774214,1031.0,58.69699587110404
36.676720993313545,993.0,59.1701887909315
37.69516953649435,1018.0,59.1701887909315
38.72619151847985,1031.0,58.199843816095445
39.76978693927005,1043.0,58.69699587110404
40.76308860484145,993.0,59.18194648086014
41.76896370921755,1005.0,59.655139400687595
42.787412252398354,1018.0,59.157987345679
43.80586079557915,1018.0,59.157987345679
44.81173589995525,1005.0,61.0155892809476
45.74217037150314,930.0,64.43080774578925
46.60973764902753,867.0,64.94062761758414
47.59046587579423,980.0,62.843543899719926
48.621487857779734,1031.0,61.58038090587438
49.53934889052292,917.0,62.682694142187614
50.469783362070814,930.0,63.16764475194371
51.475658466446916,1005.0,60.54239636112015
52.51925388723712,1043.0,58.44531264325594
53.550275869222624,1031.0,58.95513251505081
54.53100409598932,980.0,59.188843652282664
55.56202607797482,1031.0,58.95513251505081
56.605621498765025,1043.0,59.21997400689231
57.57377628672702,968.0,61.030456283315075
58.516784197079616,943.0,63.07464969696969
59.45979210743221,943.0,61.81503772357723
60.49081408941771,1031.0,62.10163916501867
61.4212485609656,930.0,60.530638671191504
62.439697104146404,1018.0,59.846002516241725
63.50843940254601,1068.0,57.988400580973114
64.52688794572681,1018.0,59.008530771769976
65.4950427336888,968.0,61.224589904896916
66.4506240828461,955.0,61.721741959905515
67.4439257484175,993.0,60.2284188492812
68.48752116920771,1043.0,59.433629708708246
69.4808228347791,993.0,61.39116592530459
70.3861104287176,905.0,63.156300040713596
71.34169177787489,955.0,63.414436684660366
72.32242000464159,980.0,61.45690046806402
73.31572167021298,993.0,62.93080521231902
74.20843582534677,892.0,63.74651700719082
75.15144373569937,943.0,62.776172032354765
76.19503915648957,1043.0,59.53713317269076
77.23863457727977,1043.0,59.8237346141322
78.16906904882767,930.0,61.317057724756516
79.13722383678966,968.0,61.79025064458397
80.15567237997047,1018.0,60.17811753647586
81.16154748434657,1005.0,61.92383328551555
82.05426163948036,892.0,65.3390517503572
82.92182891700475,867.0,67.24563839419282
83.83968994974794,917.0,67.24563839419281
84.73240410488172,892.0,67.93377942815346
85.57482450479671,842.0,68.5475698969939
86.4675386599305,892.0,65.54224217456175
87.498560641916,1031.0,60.0845719052188
88.592449817925,1093.0,57.81587802039085
89.5857514834964,993.0,58.81064850194182
90.5664797102631,980.0,60.410428099642964
91.5723548146392,1005.0,60.668564743589734
92.5530830414059,980.0,62.67912198447092
93.44579719653969,892.0,66.18788227858856
94.30079103525937,855.0,66.72453477521475
95.25637238441666,955.0,64.71397753433357
96.23710061118337,980.0,61.205217240215916
97.24297571555947,1005.0,60.668564743589734
98.22370394232615,980.0,62.36796431623931
99.12899153626465,905.0,63.98009742434742
100.05942600781255,930.0,63.22480872539205
101.07787455099334,1018.0,60.530638671191504
102.10889653297885,1031.0,60.530638671191504
103.03933100452674,930.0,62.682694142187614
103.95719203726993,917.0,63.94230611558008
104.92534682523193,968.0,63.10483437110834
105.89350161319392,968.0,62.24472009569378
106.84908296235122,955.0,63.99043584473347
107.741797117485,892.0,64.54130614776378
108.6848050278376,943.0,63.009883169586615
109.7158270098231,1031.0,60.48950605691056
110.7217021141992,1005.0,59.41565761809199
111.7150037797706,993.0,61.807194871683706
112.63286481251379,917.0,64.97694450936487
113.50043209003817,867.0,65.77173364993781
114.45601343919547,955.0,63.3801963963461
115.48703542118098,1031.0,61.53597842533161
116.43004333153357,943.0,60.48950605691056
117.43591843590967,1005.0,60.48950605691056
118.46694041789517,1031.0,59.16397439024389
119.47281552227128,1005.0,59.67379426203876
120.45354374903796,980.0,59.67379426203876
121.48456573102347,1031.0,58.72698592870543
122.54073459061837,1056.0,57.73221544715446
123.57175657260387,1031.0,58.46884928475866
124.56505823817528,993.0,58.930707008335894
125.59608022016079,1031.0,59.41565761809199
126.60195532453687,1005.0,59.67379426203876
127.58268355130357,980.0,59.67379426203876
128.61370553328908,1031.0,74.3699062185605
129.19208371830533,578.0,74.3699062185605
130.17281194507203,980.0,73.90804849498326
131.22898080466695,1056.0,58.72698592870543
132.26000278665245,1031.0,58.991827420546926
133.22815757461444,968.0,59.938635753880256
134.23403267899053,1005.0,60.17811753647586
135.25248122217133,1018.0,59.40345617283949
136.25835632654744,1005.0,59.913276044634365
137.23908455331414,980.0,59.67379426203876
138.27010653529965,1031.0,59.188843652282664
139.30112851728515,1031.0,58.433554953327295
140.31957706046595,1018.0,59.42832543487827
141.30030528723265,980.0,59.913276044634365
142.30618039160873,1005.0,60.93340623543123
143.27433517957073,968.0,61.74911803030302
144.21734308992333,943.0,64.58954303030302
145.09748380625243,880.0,68.03248242424242
145.9273307673627,829.0,68.9161702020202
146.8326183613012,905.0,66.32742842986829
147.82592002687258,993.0,62.10982767229254
148.8317951312487,1005.0,60.67526959148446
149.7999499192107,968.0,59.938635753880256
150.8309719011962,1031.0,58.991827420546926
151.88714076079108,1056.0,57.73221544715446
152.9181627427766,1031.0,58.72698592870543
153.8988909695433,980.0,59.42832543487827
154.91733951272408,1018.0,58.966467711301036
155.973508372319,1056.0,58.45664783950616
156.9793834766951,1005.0,59.21193653846153
157.9601117034618,980.0,59.913276044634365
158.9785602466426,1018.0,59.66780721747387
159.9970087898234,1018.0,58.43932559869105
161.0406042106136,1043.0,58.68479442585154
162.0464793149897,1005.0,58.930263253012036
163.0523544193658,1005.0,59.16397439024389
164.0833764013513,1031.0,58.67902378048779
165.1143983833368,1031.0,58.433554953327295
166.1328469265176,1018.0,59.42832543487827
167.1135751532843,980.0,59.66780721747387
168.1320236964651,1018.0,59.66780721747387
169.15047223964592,1018.0,58.9125185185185
170.16892078282672,1018.0,59.66780721747387
171.14964900959342,980.0,59.913276044634365
172.1555241139695,1005.0,60.15874487179486
173.1613992183456,1005.0,59.40345617283949
174.17984776152642,1018.0,60.17811753647586
175.1480025494884,968.0,62.38733698092031
176.0532901434269,905.0,63.14262567987568
177.0340183701936,980.0,60.98078001391373
178.1153341073979,1081.0,58.526091742308786
179.1337826505787,1018.0,59.06274423893497
180.089363999736,955.0,60.70161176910865
181.0826656653074,993.0,60.947080596269146
182.0885407696835,1005.0,60.410428099642964
183.06926899645018,980.0,61.48427653846153
184.01227690680278,943.0,62.530748906882586
184.96785825596007,955.0,61.77546020792722
185.9863067991409,1018.0,59.96497793150445
187.0173287811264,1031.0,59.42832543487827
187.99805700789307,980.0,60.99932592870543
188.94106491824567,943.0,61.735959766309634
189.93436658381708,993.0,61.477823122362864
190.92766824938846,993.0,60.66211132749107
191.90839647615516,980.0,61.45690046806402
192.86397782531247,955.0,61.205217240215916
193.86985292968856,1005.0,60.69539736842104
194.87572803406465,1005.0,59.90060822784809
195.86902969963606,993.0,60.67526959148446
196.83718448759805,968.0,60.67526959148446
197.84305959197417,1005.0,60.17811753647586
198.86150813515496,1018.0,59.40345617283949
199.86738323953105,1005.0,60.17811753647586
200.83553802749304,968.0,61.19824772727272
201.80369281545507,968.0,61.44993095512083
202.79699448102645,993.0,60.429800764323964
203.81544302420724,1018.0,59.655139400687595
204.82131812858336,1005.0,60.72898783950616
205.76432603893593,943.0,61.74911803030302
206.73248082689796,968.0,63.07464969696969
207.67548873725053,943.0,62.00080125815113
208.66879040282194,993.0,62.55167156118143
209.61179831317452,943.0,63.43535933895921
210.51708590711303,905.0,64.50920777777777
211.4600938174656,943.0,63.183676111111104
212.46596892184172,1005.0,60.48950605691056
213.49699090382722,1031.0,59.41565761809199
214.4902925693986,993.0,59.41565761809199
215.49616767377472,1005.0,59.41565761809199
216.52718965576022,1031.0,58.44531264325594
217.5707850765504,1043.0,58.44531264325594
218.57666018092652,1005.0,58.930263253012036
219.5825352853026,1005.0,59.16397439024389
220.61355726728812,1031.0,58.67902378048779
221.64457924927362,1031.0,58.433554953327295
222.66302779245441,1018.0,59.1701887909315
223.65632945802582,993.0,59.655139400687595
224.6622045624019,1005.0,59.655139400687595
225.68065310558273,1018.0,58.91850556308339
226.71167508756824,1031.0,59.42832543487827
227.6924033143349,980.0,59.188843652282664
228.7234252963204,1031.0,58.72698592870543
229.77959415591533,1056.0,57.49850430992261
230.82318957670554,1043.0,57.49850430992261
231.85421155869105,1031.0,58.69699587110404
232.84751322426243,993.0,59.1701887909315
233.86596176744322,1018.0,59.4096705735271
234.88441031062405,1018.0,58.6730367359229
235.91543229260955,1031.0,59.42832543487827
236.89616051937625,980.0,59.67379426203876
237.90203562375234,1005.0,60.15874487179486
238.90791072812843,1005.0,59.40345617283949
239.92635927130925,1018.0,59.40345617283949
240.93223437568534,1005.0,60.72898783950616
241.87524228603795,943.0,60.974456666666654
242.88111739041403,1005.0,60.72898783950616
243.89956593359483,1018.0,59.40345617283949
244.90544103797095,1005.0,59.157987345679
245.92388958115174,1018.0,60.17811753647586
246.89204436911373,968.0,59.932648709315366
247.91049291229453,1018.0,59.932648709315366
248.92894145547533,1018.0,59.157987345679
249.93481655985144,1005.0,60.72898783950616
250.87782447020402,943.0,60.974456666666654
251.88369957458013,1005.0,60.974456666666654
252.88957467895622,1005.0,59.648924999999984
253.89544978333234,1005.0,60.69539736842104
254.85103113248962,955.0,60.69539736842104
255.8569062368657,1005.0,60.44992854126055
256.8753547800465,1018.0,59.655139400687595
257.86865644561794,993.0,60.429800764323964
258.8368112335799,968.0,61.18508946327933
259.8175394603466,980.0,62.54553934353934
260.74797393189453,930.0,64.29125509257904
261.6406880870283,892.0,67.63932589242594
262.4831084869433,842.0,68.5475698969939
263.3758226420771,892.0,67.0736651527389
264.33140399123437,955.0,66.05619948109711
265.21154470756346,880.0,68.1242012145749
266.02881822986905,817.0,69.5981059588299
266.9215323850028,892.0,66.5122121316694
267.9399809281836,1018.0,61.2051715385276
268.9835763489738,1043.0,59.19461429764642
269.9643045757405,980.0,59.691766352655016
270.9576062413119,993.0,59.925477489886866
271.98862822329744,1031.0,59.41565761809199
272.9945033276735,1005.0,59.41565761809199
273.98780499324494,993.0,60.947080596269146
274.9433863424022,955.0,61.19876382411725
275.9366880079736,993.0,60.70161176910865
276.9551365511544,1018.0,59.655139400687595
277.9610116555305,1005.0,59.913276044634365
278.9417398822972,980.0,60.410428099642964
279.9350415478686,993.0,60.16495927248247
280.9534900910494,1018.0,58.93647765369965
281.9970855118396,1043.0,58.199843816095445
283.02810749382513,1031.0,58.95513251505081
284.00883572059183,980.0,59.67379426203876
285.0147108249679,1005.0,59.44008312480691
286.0583062457581,1043.0,58.68479442585154
287.0767547889389,1018.0,58.93647765369965
288.07005645451034,993.0,59.655139400687595
289.07593155888645,1005.0,59.41565761809199
290.1069535408719,1031.0,59.16397439024389
291.11282864524804,1005.0,59.67379426203876
292.09355687201474,980.0,60.15874487179486
293.0994319763908,1005.0,60.410428099642964
294.09273364196224,993.0,60.152291455696194
295.0860353075336,993.0,61.764424563804305
296.0164697790815,930.0,62.022561207751075
296.9971980058482,980.0,61.525409152742476
298.015646549029,1018.0,59.42832543487827
299.0466685310145,1031.0,57.97169722975006
300.1028373906094,1056.0,58.21716605691056
301.1087124949855,1005.0,58.21716605691056
302.139734476971,1031.0,57.77679008791831
303.2210502141753,1081.0,56.60720332321243
304.28979251257493,1068.0,56.14534559963519
305.3459613721698,1056.0,57.04757929220468
306.37698335415536,1031.0,57.047579292204674
307.4457256525549,1068.0,56.82480086083213
308.51446795095455,1068.0,56.362943137254895
309.57063681054944,1056.0,57.53252990196078
310.57651191492556,1005.0,58.21716605691056
311.60753389691104,1031.0,58.44531264325594
312.65112931770125,1043.0,57.96036203349984
313.6821512996868,1031.0,57.96036203349984
314.71317328167225,1031.0,58.67902378048779
315.71904838604837,1005.0,59.41565761809199
316.71235005161975,993.0,59.41565761809199
317.7433720336053,1031.0,59.1701887909315
318.7618205767861,1018.0,58.433554953327295
319.79284255877155,1031.0,58.6730367359229
320.81129110195235,1018.0,58.199843816095445
321.85488652274256,1043.0,57.29761012352596
322.93620225994687,1081.0,56.59627061735313
323.9923711195418,1056.0,56.368124031007746
325.0485399791367,1056.0,57.50983950617283
326.0669885223175,1018.0,57.50983950617283
327.1231573819124,1056.0,57.50983950617283
328.1793262415073,1056.0,57.03664658634538
329.2229216622975,1043.0,57.73798609251821
330.2413702054783,1018.0,58.68479442585154
331.2472453098544,1005.0,58.68479442585154
332.2908407306446,1043.0,58.44531264325594
333.3218627126301,1031.0,57.96036203349984
334.3528846946156,1031.0,59.725496148908846
335.3084660437729,955.0,59.96497793150445
336.3269145869537,1018.0,60.44992854126055
337.3327896913298,1005.0,59.655139400687595
338.3260913569012,993.0,61.22613989451476
339.2690992672538,943.0,63.74651700719082
340.1618134223876,892.0,67.35272445098451
341.0042338223026,842.0,70.61557163047169
341.82150734460816,817.0,72.31279527537139
342.6513543057184,829.0,72.31279527537139
343.4937747056334,842.0,65.1309849074784
344.6505310756659,1156.0,59.96657581656932
345.7066999352609,1056.0,57.155157513348584
346.66228128441816,955.0,59.263638425331614
347.69330326640363,1031.0,59.04085999395906
348.76204556480326,1068.0,57.275725878550055
349.80564098559347,1043.0,57.275725878550055
350.83666296757895,1031.0,58.69699587110404
351.8299646331504,993.0,58.930707008335894
352.86098661513586,1031.0,58.930707008335894
353.8920085971214,1031.0,58.19407317073169
354.92303057910686,1031.0,59.188843652282664
355.90375880587357,980.0,59.42832543487827
356.92220734905436,1018.0,59.66780721747387
357.94065589223516,1018.0,58.9125185185185
358.95910443541595,1018.0,58.6730367359229
359.9901264174015,1031.0,59.42832543487827
360.9708546441682,980.0,59.188843652282664
362.00187662615366,1031.0,58.72698592870543
363.05804548574855,1056.0,57.73221544715446
364.0890674677341,1031.0,58.21716605691056
365.0949425721102,1005.0,58.67902378048779
366.1259645540957,1031.0,58.67902378048779
367.1569865360812,1031.0,57.73221544715446
368.2131553956761,1056.0,57.49850430992261
369.2567508164663,1043.0,57.73798609251821
370.2751993596471,1018.0,58.93647765369965
371.2685010252185,993.0,59.1701887909315
372.299523007204,1031.0,58.69699587110404
373.34311842799417,1043.0,57.49850430992261
374.3992872875891,1056.0,58.49327479147358
375.3800155143558,980.0,58.72698592870543
376.4110374963413,1031.0,58.95513251505081
377.4546329171315,1043.0,57.72665089626799
378.4982283379217,1043.0,58.98626286966046
379.4663831258837,968.0,59.21997400689231
380.4974051078692,1031.0,59.45368514412416
381.5284270898547,1031.0,58.433554953327295
382.5468756330355,1018.0,59.1701887909315
383.5401772986069,993.0,60.70161176910865
384.4957586477642,955.0,61.9935529646902
385.4513399969215,955.0,60.79506140350877
386.5075088565164,1056.0,59.50312020792722
387.52595739969723,1018.0,59.50312020792722
388.4815387488545,955.0,59.96497793150445
389.51256073084,1031.0,59.96497793150445
390.5310092740208,1018.0,59.42832543487827
391.5117375007875,980.0,59.42832543487827
392.542759482773,1031.0,58.72698592870543
393.5989283423679,1056.0,57.49850430992261
394.6425237631581,1043.0,58.49327479147358
395.6232519899248,980.0,58.95513251505081
396.6542739719103,1031.0,58.95513251505081
397.6978693927005,1043.0,57.96036203349984
398.72889137468604,1031.0,58.95513251505081
399.70961960145274,980.0,60.72026663045982
400.66520095061003,955.0,61.45690046806402
401.6585026161814,993.0,61.19876382411725
402.6518042817528,993.0,60.66211132749107
403.6325325085195,980.0,61.18508946327933
404.6006872964815,968.0,62.54553934353934
405.5311217680294,930.0,62.035719471744464
406.5369968724055,1005.0,61.0155892809476
407.5554454155863,1018.0,60.17811753647586
408.5236002035483,968.0,59.23130920314253
409.5797690631432,1056.0,57.87699843260188
410.6736582391522,1093.0,55.71515276663993
411.7549739763565,1081.0,56.41649227281277
412.7734225195373,1018.0,56.62908756818833
413.8547382567416,1081.0,56.41649227281277
414.94862743275064,1093.0,55.27477679764768
416.02994316995495,1081.0,56.177010490217164
417.0609651519404,1031.0,57.05812834093036
418.10456057273063,1043.0,57.49850430992261
419.1607294323255,1056.0,56.81386815497282
420.22947173072515,1068.0,56.58572156862745
421.28564059032004,1056.0,56.81386815497283
422.32923601111025,1043.0,57.98345491967871
423.33511111548637,1005.0,57.98345491967871
424.39127997508126,1056.0,57.98345491967871
425.4348753958715,1043.0,57.49850430992261
426.46589737785695,1031.0,57.72665089626799
427.50949279864716,1043.0,57.49850430992261
428.5656616582421,1056.0,56.81386815497282
429.6344039566417,1068.0,57.04757929220468
430.6654259386272,1031.0,57.74891879837751
431.683874481808,1018.0,57.97169722975006
432.7400433414029,1056.0,57.50983950617283
433.7962122009978,1056.0,56.368124031007746
434.8775279382021,1081.0,57.06946353718058
435.8959764813829,1018.0,57.531321260757814
436.9269984633684,1031.0,57.97169722975006
437.9831673229633,1056.0,56.82998175458498
439.0644830601676,1081.0,57.314932364341075
440.07035816454373,1005.0,57.314932364341075
441.1265270241386,1056.0,57.53252990196077
442.19526932253825,1068.0,56.3629431372549
443.2640116209378,1068.0,56.14016470588234
444.33275391933745,1068.0,57.56143469843633
445.32605558490883,993.0,57.784213129808876
446.3822244445038,1056.0,57.784213129808876
447.45096674290335,1068.0,56.3629431372549
448.519709041303,1068.0,57.06428264342773
449.53815758448377,1018.0,57.988400580973114
450.55660612766457,1018.0,58.6730367359229
451.5876281096501,1031.0,58.433554953327295
452.6186500916356,1031.0,58.930707008335894
453.61195175720695,993.0,61.0277907262001
454.5423862287549,930.0,66.10112018211005
455.35965975106046,817.0,70.06703771183771
456.1895067121707,829.0,67.28531783902372
457.25824901057035,1068.0,61.097159395168724
458.35213818657934,1093.0,56.634089810432464
459.37058672976013,1018.0,57.80367657513835
460.37646183413625,1005.0,58.68479442585154
461.42005725492646,1043.0,58.21160150602409
462.4636526757167,1043.0,57.72665089626799
463.49467465770215,1031.0,57.05812834093036
464.57599039490646,1081.0,56.38960578559273
465.65730613211076,1081.0,56.62908756818833
466.67575467529156,1018.0,56.846685105808035
467.7444969736912,1068.0,57.06428264342773
468.8132392720908,1068.0,56.14016470588234
469.8819815704904,1068.0,56.14016470588234
470.95072386889,1068.0,57.309751470588225
471.95659897326607,1005.0,57.53252990196077
473.012767832861,1056.0,57.98345491967871
474.0563632536512,1043.0,57.49850430992261
475.0873852356367,1031.0,57.96036203349984
476.11840721762223,1031.0,58.433554953327295
477.13685576080303,1018.0,58.199843816095445
478.18045118159324,1043.0,57.966132678863595
479.2240466023834,1043.0,57.72665089626799
480.2550685843689,1031.0,58.69699587110404
481.2483702499403,993.0,58.930707008335894
482.27939223192584,1031.0,58.930707008335894
483.3104142139113,1031.0,57.96036203349984
484.3540096347015,1043.0,57.72665089626799
485.39760505549174,1043.0,58.21160150602409
486.40348015986785,1005.0,58.930263253012036
487.4093552642439,1005.0,59.16397439024389
488.44037724622945,1031.0,58.67902378048779
489.4713992282149,1031.0,58.67902378048779
490.47727433259104,1005.0,59.41565761809199
491.4705759981624,993.0,59.41565761809199
492.50159798014795,1031.0,58.246070853386115
493.5703402785475,1068.0,57.509437015781906
494.60136226053305,1031.0,58.24607085338611
495.59466392610443,993.0,59.1701887909315
496.6131124692852,1018.0,59.1701887909315
497.64413445127076,1031.0,58.433554953327295
498.67515643325623,1031.0,58.930707008335894
499.66845809882767,993.0,58.69699587110404
500.7120535196178,1043.0,58.012359716154265
501.78079581801745,1068.0,57.042014741318205
502.82439123880766,1043.0,57.76067648830615
503.8302663431838,1005.0,57.98345491967871
504.88643520277867,1056.0,57.53252990196077
505.9551775011783,1068.0,56.58572156862745
507.0113463607732,1056.0,57.53252990196078
508.0172214651493,1005.0,57.755308333333325
509.0733903247442,1056.0,57.98345491967871
510.1169857455344,1043.0,58.49327479147358
511.0977139723011,980.0,58.95513251505081
512.1287359542866,1031.0,59.188843652282664
513.1597579362721,1031.0,58.67902378048779
514.1656330406482,1005.0,60.21044675866494
515.1212143898055,955.0,61.205217240215916
516.1019426165722,980.0,60.258408906882586
517.158111476167,1056.0,59.21193653846153
518.1639865805432,1005.0,58.95379989451476
519.1572882461146,993.0,58.73102146314221
520.2260305445142,1068.0,57.56143469843633
521.2947728429137,1068.0,57.06428264342773
522.3132213860946,1018.0,57.06428264342773
523.3819636844942,1068.0,56.634089810432464
524.4758528605032,1093.0,56.39460802783686
525.5068748424887,1031.0,57.079244182786645
526.5378968244743,1031.0,57.50943701578191
527.6066391228738,1068.0,56.39460802783686
528.7005282988829,1093.0,56.39460802783686
529.7315502808683,1031.0,57.56419479254274
530.7374253852445,1005.0,58.21716605691056
531.7935942448394,1056.0,57.98345491967871
532.8371896656296,1043.0,57.73798609251821
533.8556382088103,1018.0,58.68479442585154
534.8615133131865,1005.0,58.68479442585154
535.9051087339767,1043.0,57.98345491967871
536.9612775935716,1056.0,57.73798609251821
537.9797261367523,1018.0,58.45664783950616
538.9856012411285,1005.0,58.68479442585154
540.0291966619186,1043.0,57.98345491967871
541.0853655215136,1056.0,57.73798609251821
542.1038140646943,1018.0,58.708331067354266
543.0971157302657,993.0,58.93647765369965
544.1407111510559,1043.0,58.46328473387219
545.1843065718462,1043.0,57.49293975903614
546.2279019926364,1043.0,58.21160150602409
547.2337770970124,1005.0,58.44531264325594
548.264799078998,1031.0,58.91850556308339
549.2832476221788,1018.0,59.1701887909315
550.2765492877502,993.0,59.4096705735271
551.2949978309309,1018.0,58.708331067354266
552.3511666905259,1056.0,57.50983950617283
553.4073355501208,1056.0,57.755308333333325
554.4132106544969,1005.0,59.74858903508771
555.3687920036542,955.0,62.60198401225666
556.2866530363974,917.0,62.11703340250056
557.3176750183828,1031.0,60.585610424323406
558.3486970003684,1031.0,59.725496148908846
559.3042783495257,955.0,60.72026663045982
560.2850065762924,980.0,60.95974841305542
561.3034551194731,1018.0,59.42832543487827
562.3344771014587,1031.0,59.1701887909315
563.32777876703,993.0,60.46212998651305
564.2833601161874,955.0,60.947080596269146
565.2892352205635,1005.0,60.44992854126055
566.3076837637443,1018.0,60.72898783950616
567.2506916740969,943.0,60.72898783950616
568.2565667784729,1005.0,60.027648333333325
569.3127356380679,1056.0,57.314932364341075
570.3940513752722,1081.0,56.82998175458498
571.4250733572577,1031.0,55.969246906100125
572.5315359720714,1106.0,54.76299968668658
573.6882923421039,1156.0,65.95416760413498
574.3421111599483,653.0,83.22624689706427
574.9079159061599,565.0,84.21989882110225
576.001805082169,1093.0,71.70613833159177
577.1082676969827,1106.0,54.641822622779515
578.2021568729916,1093.0,54.641822622779515
579.2960460490007,1093.0,55.9644151948416
580.3270680309862,1031.0,56.39460802783687
581.3958103293858,1068.0,56.39460802783686
582.4896995053948,1093.0,55.93275030425963
583.5458683649897,1056.0,56.61738645920941
584.5768903469752,1031.0,57.27035772357723
585.6330592065701,1056.0,56.82998175458498
586.7143749437744,1081.0,56.368124031007746
587.7705438033693,1056.0,57.314932364341075
588.7764189077454,1005.0,58.45664783950616
589.7948674509262,1018.0,58.68479442585154
590.8384628717164,1043.0,57.966132678863595
591.8820582925066,1043.0,58.46328473387219
592.875359958078,993.0,58.46328473387219
593.9189553788682,1043.0,58.46328473387219
594.9625507996584,1043.0,58.46328473387219
595.9558524652298,993.0,58.69699587110404
596.9868744472153,1031.0,58.46884928475866
598.0430433068102,1056.0,57.73221544715446
599.0740652887957,1031.0,58.46884928475866
600.0673669543671,993.0,59.41565761809199
601.0732420587432,1005.0,59.41565761809199
602.1042640407287,1031.0,58.91850556308339
603.1227125839096,1018.0,59.42832543487827
604.1034408106763,980.0,60.42309591642924
605.084169037443,980.0,60.92024797143784
606.0774707030143,993.0,60.410428099642964
607.0833458073904,1005.0,60.67526959148446
608.0515005953524,968.0,60.42358636363635
609.0573756997285,1005.0,59.476778030303024
610.1135445593234,1056.0,58.95379989451476
611.1068462248949,993.0,58.23513814752681
612.1504416456851,1043.0,58.23513814752681
613.20661050528,1056.0,56.81386815497282
614.2753528036795,1068.0,57.04757929220468
615.3063747856651,1031.0,57.994387625538
616.3122498900411,1005.0,58.67902378048779
617.3432718720267,1031.0,57.99438762553801
618.4120141704262,1068.0,57.275725878550055
619.4556095912164,1043.0,57.51520766114566
620.4740581343973,1018.0,57.73798609251821
621.5302269939922,1056.0,58.45664783950616
622.5361020983682,1005.0,58.702116666666655
623.5419772027443,1005.0,59.16397439024389
624.5729991847298,1031.0,58.91850556308339
625.5914477279107,1018.0,60.24403722975006
626.5344556382632,943.0,60.72898783950616
627.5403307426394,1005.0,61.48427653846153
628.521058969406,980.0,60.410428099642964
629.5143606349775,993.0,59.925477489886866
630.5453826169629,1031.0,59.41565761809199
631.5512577213391,1005.0,59.938635753880256
632.5194125093011,968.0,59.704924616648405
633.5630079300912,1043.0,58.53533785194253
634.6317502284909,1068.0,57.275725878550055
635.6627722104764,1031.0,58.50420749733288
636.643500437243,980.0,58.95513251505081
637.6870958580332,1043.0,58.72142137781896
638.7306912788234,1043.0,58.72142137781896
639.7114195055901,980.0,61.64930256925136
640.6167070995286,905.0,64.57718376068377
641.5219946934671,905.0,63.58241327913279
642.5530166754527,1031.0,62.147855198324706
643.5211714634146,968.0,59.45368514412416
644.5521934454001,1031.0,58.76904898917438
645.6209357437998,1068.0,57.047579292204674
646.6771046033947,1056.0,57.78421312980888
647.6704062689661,993.0,57.56661559218918
648.7517220061703,1081.0,56.913644327821366
649.8456111821794,1093.0,55.06218150227212
650.9395003581884,1093.0,55.9644151948416
651.9705223401738,1031.0,56.177010490217164
653.0518380773782,1081.0,56.177010490217164
654.1457272533872,1093.0,55.06218150227212
655.2396164293962,1093.0,55.73070405760975
656.2832118501864,1043.0,55.94329935298531
657.3645275873907,1081.0,56.37349218598058
658.4332698857903,1068.0,55.70496963064294
659.5145856229947,1081.0,56.84668510580803
660.5330341661754,1018.0,57.29761012352596
661.5766295869656,1043.0,57.966132678863595
662.6202250077558,1043.0,57.72665089626799
663.6512469897414,1031.0,58.69699587110404
664.6445486553127,993.0,58.930707008335894
665.6755706372983,1031.0,58.69699587110404
666.7191660580885,1043.0,57.72665089626799
667.7627614788787,1043.0,57.72665089626799
668.7937834608641,1031.0,58.95513251505081
669.7745116876308,980.0,59.42832543487827
670.7929602308117,1018.0,59.19461429764642
671.8365556516019,1043.0,58.68479442585154
672.842430755978,1005.0,59.18194648086014
673.8357324215493,993.0,60.410428099642964
674.816460648316,980.0,60.66211132749107
675.8097623138874,993.0,60.410428099642964
676.8156374182636,1005.0,60.67526959148446
677.7837922062256,968.0,61.19824772727272
678.7519469941875,968.0,60.713297117516625
679.782968976173,1031.0,59.21997400689231
680.8265643969632,1043.0,57.72665089626799
681.8701598177535,1043.0,58.46328473387219
682.8634614833248,993.0,58.69699587110404
683.8944834653104,1031.0,58.46884928475866
684.9506523249053,1056.0,58.46884928475866
685.9439539904766,993.0,58.46884928475866
686.9749759724622,1031.0,58.930707008335894
688.0059979544477,1031.0,58.19407317073169
689.0370199364331,1031.0,58.930707008335894
690.0303216020046,993.0,60.74118928475866
690.9733295123572,943.0,63.74651700719082
691.866043667491,892.0,63.49483377934271
692.8719187718671,1005.0,62.94396347631241
693.8400735598291,968.0,62.035719471744464
694.770508031377,930.0,62.035719471744464
695.776383135753,1005.0,60.54239636112015
696.8199785565432,1043.0,58.68479442585154
697.8384270997241,1018.0,59.19461429764642
698.8191553264908,980.0,59.42832543487827
699.8501773084762,1031.0,58.95513251505081
700.8937727292664,1043.0,58.44531264325594
701.8996478336426,1005.0,59.704924616648405
702.8678026216046,968.0,60.17811753647586
703.8862511647853,1018.0,59.69316692671976
704.9172731467709,1031.0,58.6730367359229
705.9357216899516,1018.0,59.69316692671976
706.9038764779136,968.0,59.932648709315366
707.9223250210945,1018.0,59.45945578948791
708.9659204418847,1043.0,58.43932559869105
709.9843689850654,1018.0,59.7312667942726
710.9399503342228,955.0,61.224589904896916
711.9081051221848,968.0,61.224589904896916
712.9265536653655,1018.0,60.687937408270734
713.9072818921322,980.0,60.16495927248247
714.9005835577036,993.0,59.24084133493709
715.9693258561033,1068.0,57.56143469843633
717.0380681545029,1068.0,56.362943137254895
718.0942370140978,1056.0,57.04757929220468
719.1252589960833,1031.0,56.61738645920941
720.2191481720922,1093.0,55.9644151948416
721.3130373481013,1093.0,55.06218150227212
722.3943530853056,1081.0,55.94329935298531
723.4379485060958,1043.0,56.37349218598058
724.5066908044954,1068.0,55.95313330648797
725.6131534193091,1106.0,55.284610751150346
726.6944691565134,1081.0,55.28461075115034
727.7632114549131,1068.0,56.373492185980574
728.8068068757033,1043.0,56.59108972360028
729.8755491741028,1068.0,56.373492185980574
730.9568649113071,1081.0,55.70496963064294
732.0381806485115,1081.0,56.15589464836088
733.0817760693017,1043.0,57.54307895068646
734.0876511736777,1005.0,58.21160150602409
735.1312465944679,1043.0,58.21160150602409
736.1748420152582,1043.0,57.72665089626799
737.2058639972437,1031.0,58.69699587110404
738.1991656628151,993.0,59.41565761809199
739.2050407671911,1005.0,59.41565761809199
740.2360627491767,1031.0,58.91850556308339
741.2545112923575,1018.0,59.42832543487827
742.2352395191242,980.0,59.913276044634365
743.2411146235003,1005.0,59.913276044634365
744.259563166681,1018.0,58.91850556308339
745.2905851486665,1031.0,58.433554953327295
746.3216071306521,1031.0,58.67902378048779
747.3274822350281,1005.0,59.938635753880256
748.2956370229901,968.0,60.67526959148446
749.2889386885615,993.0,60.67526959148446
750.2948137929377,1005.0,59.90060822784809
751.3006888973138,1005.0,60.974456666666654
752.2436968076663,943.0,60.974456666666654
753.2495719120425,1005.0,60.255794919678706
754.2931673328327,1043.0,57.76067648830616
755.3619096312323,1068.0,56.59108972360028
756.4306519296318,1068.0,57.309751470588225
757.436527034008,1005.0,57.76067648830615
758.4801224547982,1043.0,57.98345491967871
759.5362913143931,1056.0,57.98345491967871
760.5421664187692,1005.0,59.74858903508771
761.4977477679265,955.0,61.205217240215916
762.4784759946932,980.0,60.72026663045982
763.5094979766786,1031.0,59.42832543487827
764.5279465198595,1018.0,58.91850556308339
765.5338216242355,1005.0,58.233869408133614
766.6025639226352,1068.0,57.309751470588225
767.6713062210348,1068.0,57.06428264342773
768.6897547642155,1018.0,57.06428264342773
769.7584970626152,1068.0,56.84668510580803
770.8398127998195,1081.0,55.49237433526738
771.9337019758285,1093.0,55.94329935298531
772.9772973966187,1043.0,57.0850148281504
773.9957459397995,1018.0,57.29761012352596
775.0770616770038,1081.0,57.06946353718058
776.1332305365987,1056.0,56.14534559963519
777.2019728349983,1068.0,57.78421312980888
778.1952745005698,993.0,58.24607085338611
779.2262964825552,1031.0,58.930707008335894
780.2573184645407,1031.0,58.19407317073169
781.2883404465263,1031.0,58.433554953327295
782.306788989707,1018.0,59.69316692671976
783.274943777669,968.0,59.69316692671976
784.3059657596546,1031.0,58.76904898917438
785.3747080580541,1068.0,57.047579292204674
786.430876917649,1056.0,56.81386815497283
787.4744723384392,1043.0,57.98345491967871
788.4803474428154,1005.0,57.76067648830616
789.549089741215,1068.0,57.09215393296852
790.6304054784192,1081.0,55.922567168262646
791.6991477768189,1068.0,56.607203323212424
792.7301697588043,1031.0,57.047579292204674
793.7863386183993,1056.0,56.82998175458498
794.8676543556036,1081.0,55.50738918252289
795.9741169704173,1106.0,55.28461075115034
797.0428592688169,1068.0,54.86425187165774
798.1493218836306,1106.0,53.53237794821277
799.3437985700772,1194.0,60.89502249980389
800.110778337164,1282.0,81.61563946210987
800.6262893281568,1169.0,81.97571597597519
801.795619136994,1056.0,74.8358498557566
802.8517879965889,905.0,58.13199551971326
803.7570755905274,905.0,63.120555555555555
804.6623631844659,917.0,65.9739505327245
805.5802242172091,892.0,66.2851082009561
806.4729383723428,829.0,68.29348951408741
807.3027853334531,943.0,67.71243453691847
808.2457932438057,1031.0,64.70710681448631
809.2768152257912,993.0,60.74118928475866
810.2701168913626,955.0,60.46212998651305
811.2256982405199,1081.0,59.55989629394357
812.3070139777242,1119.0,57.29757514474715
813.4260500313426,1018.0,56.0056339491656
814.4444985745234,968.0,58.16747961512755
815.4126533624855,1018.0,59.932648709315366
816.4311019056662,993.0,60.429800764323964
817.4244035712376,993.0,59.9068226285357
818.4177052368091,955.0,61.19876382411725
819.3732865859663,980.0,61.45690046806402
820.354014812733,993.0,61.45690046806402
821.3473164783044,980.0,60.92024797143784
822.3280447050711,943.0,61.735959766309634
823.2710526154237,968.0,62.2589379020979
824.2392074033856,993.0,62.00080125815113
825.2325090689571,968.0,61.44993095512083
826.200663856919,930.0,62.28740269959257
827.131098328467,980.0,62.54553934353934
828.1118265552337,980.0,62.280697851697845
829.0925547820004,943.0,61.994096410256404
830.035562692353,917.0,63.390863182297146
830.9534237250962,955.0,63.92751567892333
831.9090050742535,968.0,63.37664537589303
832.8771598622154,955.0,62.51653110047847
833.8327412113728,930.0,63.08219184016552
834.7631756829206,955.0,63.35400284495021
835.718757032078,980.0,62.81735034832403
836.6994852588447,968.0,61.979878603852285
837.6676400468066,980.0,61.4432261072261
838.6483682735733,943.0,62.2589379020979
839.591376183926,968.0,62.2589379020979
840.559530971888,980.0,62.2589379020979
841.5402591986547,980.0,61.4432261072261
842.5209874254214,955.0,61.71503711201079
843.4765687745786,930.0,62.81735034832403
844.4070032461265,980.0,62.81735034832403
845.3877314728932,993.0,62.022561207751075
846.3810331384645,993.0,60.66211132749107
847.374334804036,968.0,60.92695281933256
848.342489591998,930.0,62.28740269959257
849.2729240635459,980.0,62.54553934353934
850.2536522903126,980.0,62.280697851697845
851.2343805170793,955.0,61.71503711201079
852.1899618662366,892.0,63.725594352891974
853.0826760213704,829.0,67.43337523867285
853.9125229824806,905.0,68.59612231469626
854.8178105764191,1043.0,65.35708345503224
855.8614059972093,1005.0,61.13948269745649
856.8672811015855,968.0,59.704924616648405
857.8354358895474,1018.0,60.17811753647586
858.8538844327283,1043.0,59.45945578948791
859.8974798535185,1018.0,58.43932559869105
860.9159283966992,993.0,58.93647765369965
861.9092300622707,1031.0,59.1701887909315
862.9402520442561,1043.0,58.69699587110404
863.9838474650463,1031.0,57.96036203349984
865.0148694470319,980.0,58.95513251505081
865.9955976737986,993.0,59.925477489886866
866.9888993393699,980.0,60.92024797143784
867.9696275661366,993.0,60.66211132749107
868.962929231708,955.0,61.45690046806402
869.9185105808654,842.0,64.80497126791094
870.7609309807804,867.0,67.72303767774399
871.6284982583047,880.0,69.51699030932295
872.5086389746338,930.0,67.27123274578926
873.4390734461817,917.0,66.00806975194371
874.3569344789249,867.0,66.33739438962488
875.2245017564493,1144.0,62.321824743055224
876.368684687677,1081.0,59.028053796894035
877.4500004248814,1005.0,55.85830415921287
878.4558755292575,955.0,59.30821306609546
879.4114568784148,1018.0,60.44992854126055
880.4299054215955,1031.0,59.96497793150445
881.4609274035811,980.0,59.42832543487827
882.4416556303478,842.0,63.53168493368055
883.2840760302628,892.0,66.53701265611272
884.1767901853966,678.0,75.6004770435771
884.8557558808504,779.0,77.51506298483854
885.6353090867419,792.0,80.3599330943847
886.4274357314381,666.0,80.9157115709745
887.0938279880872,779.0,80.9157115709745
887.8733811939787,754.0,82.17812268208561
888.6277875222607,792.0,77.41430716845878
889.419914166957,829.0,75.8594313131313
890.2497611280672,829.0,73.44937373737372
891.0796080891776,766.0,74.27718430203674
891.8465878562644,842.0,73.91747421610279
892.6890082561792,892.0,72.22025057120308
893.5817224113131,855.0,69.53595307843548
894.4367162500328,829.0,69.89566316436945
895.2665632111431,880.0,70.21571105169339
896.1467039274721,917.0,68.61353740141136
897.0645649602153,880.0,67.23636164383561
897.9447056765445,855.0,67.90469693795325
898.7996995152641,917.0,67.90469693795325
899.7175605480073,917.0,66.97085858178886
900.6354215807505,917.0,65.36868493150683
901.5532826134937,867.0,66.63184792535237
902.4208498910181,930.0,66.33739438962488
903.3512843625659,968.0,65.20546910942562
904.319439150528,993.0,62.28740269959257
905.3127408160993,955.0,61.721741959905515
906.2683221652567,855.0,64.4558408903868
907.1233160039764,804.0,69.17490141253869
907.9280160874772,880.0,70.96885404411763
908.8081568038064,955.0,68.50656611842105
909.7637381529636,968.0,64.3104837320574
910.7318929409256,930.0,63.08219184016552
911.6623274124735,943.0,63.361251138411134
912.6053353228261,968.0,63.361251138411134
913.573490110788,980.0,62.2589379020979
914.5542183375547,993.0,61.18508946327933
915.5475200031261,955.0,61.45690046806402
916.5031013522835,993.0,61.19876382411725
917.4964030178548,1018.0,60.70161176910865
918.5148515610357,1031.0,59.1701887909315
919.5458735430211,1018.0,58.6730367359229
920.564322086202,980.0,59.42832543487827
921.5450503129687,1005.0,59.913276044634365
922.5509254173447,1018.0,59.913276044634365
923.5693739605256,1005.0,59.40345617283949
924.5752490649016,1018.0,59.157987345679
925.5936976080825,968.0,60.17811753647586
926.5618523960445,993.0,60.429800764323964
927.5551540616159,1018.0,60.429800764323964
928.5736026047966,993.0,59.9068226285357
929.566904270368,993.0,59.9068226285357
930.5602059359395,968.0,60.92695281933256
931.5283607239014,980.0,61.18508946327933
932.5090889506681,1005.0,60.93340623543123
933.5149640550443,968.0,60.93340623543123
934.4831188430063,943.0,61.74911803030302
935.4261267533589,968.0,62.52377939393939
936.3942815413209,980.0,62.2589379020979
937.3750097680876,980.0,61.4432261072261
938.3557379948543,955.0,61.71503711201079
939.3113193440115,943.0,62.530748906882586
940.2543272543642,993.0,62.272612262935816
941.2476289199356,1005.0,61.22613989451476
942.2535040243116,968.0,60.67526959148446
943.2216588122736,943.0,61.74911803030302
944.1646667226262,1018.0,61.50364920314253
945.183115265807,1031.0,60.24403722975006
946.2141372477926,1018.0,58.6730367359229
947.2325857909733,980.0,59.42832543487827
948.21331401774,1005.0,59.913276044634365
949.2191891221161,1031.0,59.67379426203876
950.2502111041016,1018.0,58.91850556308339
951.2686596472824,993.0,59.1701887909315
952.2619613128538,980.0,60.16495927248247
953.2426895396205,1005.0,60.410428099642964
954.2485646439966,1018.0,59.913276044634365
955.2670131871774,1018.0,59.157987345679
956.2854617303582,980.0,59.66780721747387
957.2661899571249,980.0,60.42309591642924
958.2469181838916,1005.0,60.668564743589734
959.2527932882678,1018.0,59.913276044634365
960.2712418314485,1005.0,59.40345617283949
961.2771169358247,980.0,59.913276044634365
962.2578451625914,1005.0,60.15874487179486
963.2637202669674,1018.0,59.913276044634365
964.2821688101482,1018.0,59.157987345679
965.300617353329,955.0,60.204459714100054
966.2561987024864,1018.0,60.204459714100054
967.2746472456671,1031.0,59.96497793150445
968.3056692276526,1031.0,58.433554953327295
969.3366912096382,1031.0,58.19407317073169
970.3677131916236,993.0,58.930707008335894
971.3610148571951,1056.0,58.46884928475866
972.41718371679,1056.0,58.00699156118143
973.4733525763849,1043.0,57.03664658634538
974.5169479971751,993.0,58.23513814752681
975.5102496627464,1031.0,58.69699587110404
976.541271644732,1018.0,59.1701887909315
977.5597201879127,1018.0,58.6730367359229
978.5781687310936,980.0,59.66780721747387
979.5588969578603,917.0,61.81986268846998
980.4767579906035,1018.0,61.81986268846998
981.4952065337842,1031.0,60.82509220691901
982.5262285157697,1005.0,58.91850556308339
983.5321036201458,980.0,59.67379426203876
984.5128318469125,1031.0,59.67379426203876
985.543853828898,1043.0,58.95513251505081
986.5874492496882,1043.0,57.72665089626799
987.6310446704784,1005.0,58.21160150602409
988.6369197748545,1031.0,58.44531264325594
989.66794175684,1043.0,58.44531264325594
990.7115371776302,1043.0,57.72665089626799
991.7551325984205,1005.0,58.21160150602409
992.7610077027965,1018.0,58.68479442585154
993.7794562459774,1031.0,58.91850556308339
994.8104782279629,1018.0,58.6730367359229
995.8289267711436,1031.0,58.433554953327295
996.8599487531292,980.0,59.42832543487827
997.8406769798959,1005.0,59.67379426203876
998.8465520842719,1031.0,59.67379426203876
999.8775740662575,1031.0,58.67902378048779
1000.908596048243,980.0,59.188843652282664
1001.8893242750097,1031.0,59.188843652282664
1002.9203462569951,1043.0,58.95513251505081
1003.9639416777853,1031.0,57.96036203349984
1004.9949636597709,1005.0,58.44531264325594
1006.0008387641469,980.0,59.67379426203876
1006.9815669909136,1031.0,59.67379426203876
1008.0125889728992,1056.0,58.72698592870543
1009.068757832494,1005.0,58.21716605691056
1010.0746329368702,1031.0,58.21716605691056
1011.1056549188556,1068.0,57.99438762553801
1012.1743972172553,1056.0,57.047579292204674
1013.2305660768502,993.0,57.78421312980888
1014.2238677424216,1056.0,58.00699156118143
1015.2800366020165,1056.0,58.00699156118143
1016.3362054616114,1005.0,57.755308333333325
1017.3420805659875,1043.0,57.98345491967871
1018.3856759867776,1031.0,58.44531264325594
1019.4166979687632,993.0,58.69699587110404
1020.4099996343346,993.0,59.667340845940096
1021.403301299906,1031.0,59.667340845940096
1022.4343232818915,1005.0,59.41565761809199
1023.4401983862676,993.0,59.41565761809199
1024.433500051839,980.0,60.410428099642964
1025.4142282786056,993.0,60.66211132749107
1026.407529944177,1005.0,60.410428099642964
1027.4134050485532,968.0,60.67526959148446
1028.3815598365152,980.0,60.93340623543123
1029.362288063282,1031.0,60.44845562567513
1030.3933100452673,1068.0,58.504207497332885
1031.462052343667,1093.0,56.39460802783686
1032.555941519676,1018.0,56.634089810432464
1033.5743900628568,1081.0,56.41649227281277
1034.655705800061,1106.0,56.20872868869573
1035.7621684148748,1106.0,54.64665433403804
1036.8686310296885,1081.0,54.64665433403804
1037.949946766893,1018.0,56.20872868869573
1038.9683953100737,1068.0,56.846685105808035
1040.0371376084731,1056.0,57.28706107480028
1041.0933064680682,1081.0,56.1453455996352
1042.1746222052725,1043.0,56.59627061735313
1043.2182176260626,1018.0,57.29761012352596
1044.2366661692436,1056.0,57.73798609251821
1045.2928350288385,1081.0,57.06946353718058
1046.3741507660427,1068.0,56.14534559963519
1047.4428930644424,1043.0,56.373492185980574
1048.4864884852325,1068.0,56.59108972360028
1049.5552307836322,1081.0,56.373492185980574
1050.6365465208364,1119.0,55.08151601162021
1051.7555825744548,1068.0,55.08151601162021
1052.8243248728545,653.0,67.1749176216381
1053.478143690699,540.0,86.29416193833525
1054.018801559301,704.0,95.98502370304112
1054.7229141323644,540.0,102.38741279069765
1055.2635720009664,1156.0,82.68537487360969
1056.420328370999,1005.0,74.1640998736097
1057.4262034753751,980.0,57.56531335005573
1058.4069317021417,1081.0,58.77156056946928
1059.488247439346,1169.0,55.99221997807143
1060.6575772481833,1031.0,54.99744949652046
1061.6885992301688,1068.0,55.215047034140156
1062.7573415285683,1093.0,56.39460802783686
1063.8512307045773,1106.0,55.072015455774775
1064.9576933193912,1056.0,55.29479388714733
1066.013862178986,1043.0,56.175911737860524
1067.0574575997762,1106.0,56.175911737860524
1068.16392021459,1081.0,55.735535768868274
1069.2452359517943,1018.0,56.20872868869573
1070.263684494975,1068.0,56.846685105808035
1071.3324267933747,1068.0,57.06428264342773
1072.4011690917744,1005.0,57.309751470588225
1073.4070441961503,1056.0,57.53252990196077
1074.4632130557452,1056.0,57.755308333333325
1075.51938191534,1005.0,57.755308333333325
1076.5252570197163,1005.0,58.702116666666655
1077.5311321240924,1043.0,58.930263253012036
1078.5747275448825,1031.0,58.44531264325594
1079.605749526868,1031.0,57.96036203349984
1080.6367715088536,1056.0,57.73221544715446
1081.6929403684485,1068.0,57.047579292204674
1082.7616826668482,1005.0,57.53252990196078
1083.7675577712241,1056.0,57.53252990196077
1084.823726630819,1081.0,57.314932364341075
1085.9050423680235,1081.0,55.927748062015496
1086.9863581052277,1018.0,56.62908756818833
1088.0048066484085,1068.0,56.846685105808035
1089.0735489468082,1068.0,57.06428264342773
1090.1422912452076,1056.0,56.362943137254895
1091.1984601048027,1031.0,57.04757929220468
1092.229482086788,1018.0,57.97169722975006
1093.247930629969,1056.0,57.97169722975006
1094.304099489564,1018.0,58.21117901234567
1095.3225480327446,1031.0,57.97169722975006
1096.3535700147302,1056.0,57.97169722975006
1097.409738874325,1056.0,57.27035772357723
1098.46590773392,1005.0,57.755308333333325
1099.4717828382961,943.0,60.027648333333325
1100.4147907486486,880.0,63.81488166666666
1101.2949314649777,829.0,68.03248242424242
1102.124778426088,817.0,71.2953296037296
1102.9420519483936,1031.0,67.96995399397349
1103.973073930379,1131.0,61.543133791953295
1105.1046834228023,1031.0,56.469804336043346
1106.1357054047878,1018.0,56.70928611863895
1107.1541539479686,1043.0,58.199843816095445
1108.1977493687587,1081.0,57.29761012352596
1109.2790651059631,1043.0,56.82441720369851
1110.3226605267532,1005.0,57.54307895068646
1111.3285356311294,1056.0,57.98345491967871
1112.3847044907243,1043.0,57.98345491967871
1113.4282999115144,1031.0,57.49850430992261
1114.4593218935,968.0,59.21997400689231
1115.427476681462,892.0,62.459012866556314
1116.3201908365957,880.0,65.78438847631242
1117.2003315529248,930.0,66.62186022078416
1118.1307660244727,943.0,65.42701477477476
1119.0737739348253,905.0,64.79580921921922
1119.9790615287639,842.0,67.0415667827529
1120.8214819286788,892.0,68.23641222876228
1121.7141960838126,968.0,66.8018541479542
1122.6823508717746,993.0,63.19564670416052
1123.675652537346,930.0,62.28740269959257
1124.6060870088938,943.0,62.83827300262287
1125.5490949192465,1005.0,62.586589774774765
1126.5549700236224,1043.0,60.255794919678706
1127.5985654444128,1018.0,58.68479442585154
1128.6170139875935,943.0,60.01032609251821
1129.5600218979462,943.0,62.05451950617283
1130.5030298082988,1005.0,62.299988333333324
1131.5089049126748,1018.0,60.72898783950616
1132.5273534558557,980.0,59.913276044634365
1133.5080816826223,968.0,60.687937408270734
1134.4762364705844,1018.0,60.687937408270734
1135.494685013765,1031.0,59.69316692671976
1136.5257069957506,1005.0,58.91850556308339
1137.5315821001268,980.0,59.67379426203876
1138.5123103268934,1018.0,59.913276044634365
1139.5307588700741,1031.0,59.42832543487827
1140.5617808520597,1031.0,58.433554953327295
1141.5928028340452,1043.0,57.96036203349984
1142.6363982548355,993.0,58.69699587110404
1143.629699920407,1056.0,58.23513814752681
1144.6858687800018,1081.0,57.56661559218918
1145.767184517206,1068.0,56.14534559963519
1146.8359268156057,1005.0,57.09215393296852
1147.8418019199817,1068.0,57.309751470588225
1148.9105442183813,1056.0,57.53252990196077
1149.9667130779762,1043.0,56.81386815497283
1151.0103084987666,1005.0,57.98345491967871
1152.0161836031425,993.0,59.18194648086014
1153.009485268714,1031.0,59.41565761809199
1154.0405072506994,1068.0,58.246070853386115
1155.109249549099,1056.0,57.047579292204674
1156.165418408694,1018.0,57.287061074800285
1157.1838669518747,1068.0,57.28706107480028
1158.2526092502744,1106.0,56.426326226315425
1159.359071865088,1081.0,55.284610751150346
1160.4403876022925,1119.0,54.44355959450791
1161.559423655911,1081.0,54.86391847400051
1162.6407393931152,1093.0,54.65132317862495
1163.7346285691242,1106.0,54.85441791815508
1164.8410911839378,1068.0,55.072015455774775
1165.9098334823375,1119.0,54.66115713212761
1167.028869535956,1056.0,55.521891980612466
1168.0850383955508,1093.0,55.0916991476172
1169.1789275715598,1081.0,55.71515276663993
1170.260243308764,1056.0,55.71515276663993
1171.316412168359,1005.0,57.314932364341075
1172.3222872727351,1031.0,58.21716605691056
1173.3533092547207,955.0,60.21044675866494
1174.308890603878,955.0,61.256919127086
1175.2644719530351,993.0,61.9935529646902
1176.2577736186065,1106.0,59.13953741445096
1177.3642362334203,1056.0,57.14625671269658
1178.4204050930152,1018.0,56.64910465768798
1179.438853636196,993.0,58.708331067354266
1180.4321553017674,1068.0,58.48555263598172
1181.500897600167,1056.0,57.784213129808876
1182.557066459762,1031.0,57.04757929220468
1183.5880884417475,993.0,58.46884928475866
1184.5813901073188,1031.0,58.930707008335894
1185.6124120893044,993.0,59.667340845940096
1186.6057137548758,980.0,59.925477489886866
1187.5864419816423,955.0,61.45690046806402
1188.5420233307998,880.0,64.04564224021593
1189.4221640471287,930.0,65.14795547652915
1190.3525985186766,1043.0,63.38282136112015
1191.396193939467,1093.0,58.942616763419004
1192.490083115476,1018.0,57.0850148281504
1193.5085316586567,968.0,58.578337938774716
1194.4766864466187,N/A,60.95277890011223
