2022-12-15 13:26:06.411840, 1.95992
2022-12-15 13:26:06.412845, 1.95014
2022-12-15 13:26:06.412845, 1.91593
2022-12-15 13:26:06.446274, 1.92082
2022-12-15 13:26:06.446274, 1.86705
2022-12-15 13:26:06.447275, 1.84750
2022-12-15 13:26:06.479782, 1.82306
2022-12-15 13:26:06.480184, 1.83284
2022-12-15 13:26:06.513203, 1.82306
2022-12-15 13:26:06.513738, 1.81818
2022-12-15 13:26:06.513738, 1.76441
2022-12-15 13:26:06.546562, 1.74486
2022-12-15 13:26:06.547051, 1.73020
2022-12-15 13:26:06.547051, 1.72531
2022-12-15 13:26:06.580254, 1.71065
2022-12-15 13:26:06.580254, 1.69110
2022-12-15 13:26:06.613916, 1.69110
2022-12-15 13:26:06.613916, 1.70087
2022-12-15 13:26:06.614922, 1.69599
2022-12-15 13:26:06.647097, 1.69599
2022-12-15 13:26:06.647097, 1.70087
2022-12-15 13:26:06.648106, 1.73998
2022-12-15 13:26:06.679760, 1.71065
2022-12-15 13:26:06.680772, 1.70576
2022-12-15 13:26:06.714261, 1.70087
2022-12-15 13:26:06.714538, 1.70087
2022-12-15 13:26:06.715192, 1.69110
2022-12-15 13:26:06.748045, 1.67155
2022-12-15 13:26:06.748336, 1.66666
2022-12-15 13:26:06.748336, 1.65689
2022-12-15 13:26:06.781118, 1.64711
2022-12-15 13:26:06.781530, 1.63245
2022-12-15 13:26:06.814623, 1.62267
2022-12-15 13:26:06.814623, 1.62756
2022-12-15 13:26:06.815621, 1.61290
2022-12-15 13:26:06.847780, 1.60312
2022-12-15 13:26:06.847780, 1.59824
2022-12-15 13:26:06.848785, 1.60312
2022-12-15 13:26:06.881688, 1.59824
2022-12-15 13:26:06.881688, 1.58846
2022-12-15 13:26:06.915408, 1.58357
2022-12-15 13:26:06.915625, 1.58357
2022-12-15 13:26:06.915625, 1.57869
2022-12-15 13:26:06.948904, 1.56891
2022-12-15 13:26:06.948904, 1.59824
2022-12-15 13:26:06.949855, 1.56402
2022-12-15 13:26:06.982280, 1.58357
2022-12-15 13:26:06.982596, 1.55425
2022-12-15 13:26:07.016298, 1.55425
2022-12-15 13:26:07.016537, 1.55425
2022-12-15 13:26:07.016537, 1.55913
2022-12-15 13:26:07.049784, 1.54936
2022-12-15 13:26:07.050078, 1.54936
2022-12-15 13:26:07.050660, 1.54936
2022-12-15 13:26:07.083277, 1.56402
2022-12-15 13:26:07.083623, 1.54447
2022-12-15 13:26:07.116829, 1.54447
2022-12-15 13:26:07.116829, 1.55913
2022-12-15 13:26:07.117580, 1.54936
2022-12-15 13:26:07.150366, 1.53958
2022-12-15 13:26:07.150661, 1.52981
2022-12-15 13:26:07.150661, 1.52981
2022-12-15 13:26:07.183892, 1.53470
2022-12-15 13:26:07.183892, 1.55425
2022-12-15 13:26:07.216688, 1.52981
2022-12-15 13:26:07.217158, 1.54447
2022-12-15 13:26:07.217607, 1.52981
2022-12-15 13:26:07.250939, 1.52492
2022-12-15 13:26:07.251233, 1.51515
2022-12-15 13:26:07.251233, 1.52003
2022-12-15 13:26:07.284154, 1.52981
2022-12-15 13:26:07.284154, 1.53470
2022-12-15 13:26:07.317434, 1.55913
2022-12-15 13:26:07.317434, 1.60312
2022-12-15 13:26:07.318085, 1.67644
2022-12-15 13:26:07.351577, 1.73998
2022-12-15 13:26:07.351874, 1.80351
2022-12-15 13:26:07.352330, 1.87194
2022-12-15 13:26:07.385091, 1.93059
2022-12-15 13:26:07.386093, 1.96480
2022-12-15 13:26:07.417866, 1.97458
2022-12-15 13:26:07.417866, 1.98435
2022-12-15 13:26:07.418867, 1.98435
2022-12-15 13:26:07.451282, 1.99902
2022-12-15 13:26:07.452288, 1.93059
2022-12-15 13:26:07.452393, 1.90127
2022-12-15 13:26:07.484986, 1.88172
2022-12-15 13:26:07.485981, 1.85239
2022-12-15 13:26:07.519231, 1.84750
2022-12-15 13:26:07.519471, 1.80840
2022-12-15 13:26:07.520473, 1.79863
2022-12-15 13:26:07.552858, 1.78396
2022-12-15 13:26:07.552858, 1.76441
2022-12-15 13:26:07.553858, 1.74486
2022-12-15 13:26:07.585572, 1.74975
2022-12-15 13:26:07.586199, 1.71554
2022-12-15 13:26:07.619633, 1.70576
2022-12-15 13:26:07.619633, 1.69110
2022-12-15 13:26:07.620634, 1.69110
2022-12-15 13:26:07.653221, 1.69110
2022-12-15 13:26:07.654226, 1.68621
2022-12-15 13:26:07.655219, 1.69110
2022-12-15 13:26:07.686335, 1.70576
2022-12-15 13:26:07.687330, 1.71065
2022-12-15 13:26:07.720024, 1.71065
2022-12-15 13:26:07.720024, 1.71065
2022-12-15 13:26:07.721063, 1.70576
2022-12-15 13:26:07.753420, 1.71065
2022-12-15 13:26:07.754421, 1.68132
2022-12-15 13:26:07.754421, 1.68132
2022-12-15 13:26:07.786939, 1.66177
2022-12-15 13:26:07.786939, 1.66177
2022-12-15 13:26:07.820133, 1.63734
2022-12-15 13:26:07.821168, 1.62756
2022-12-15 13:26:07.821168, 1.61779
2022-12-15 13:26:07.853490, 1.62267
2022-12-15 13:26:07.854495, 1.59824
2022-12-15 13:26:07.854855, 1.62756
2022-12-15 13:26:07.887952, 1.59335
2022-12-15 13:26:07.888300, 1.62756
2022-12-15 13:26:07.921372, 1.57869
2022-12-15 13:26:07.921372, 1.57869
2022-12-15 13:26:07.922375, 1.57380
2022-12-15 13:26:07.953816, 1.57380
2022-12-15 13:26:07.954816, 1.56891
2022-12-15 13:26:07.954816, 1.55913
2022-12-15 13:26:07.988327, 1.58846
2022-12-15 13:26:07.988758, 1.56402
2022-12-15 13:26:08.021847, 1.56402
2022-12-15 13:26:08.022169, 1.54936
2022-12-15 13:26:08.022636, 1.55425
2022-12-15 13:26:08.055172, 1.54936
2022-12-15 13:26:08.055546, 1.54447
2022-12-15 13:26:08.055995, 1.53470
2022-12-15 13:26:08.089162, 1.53958
2022-12-15 13:26:08.089509, 1.54447
2022-12-15 13:26:08.122755, 1.54447
2022-12-15 13:26:08.122995, 1.52981
2022-12-15 13:26:08.123584, 1.53470
2022-12-15 13:26:08.156272, 1.53470
2022-12-15 13:26:08.156272, 1.55425
2022-12-15 13:26:08.157273, 1.52492
2022-12-15 13:26:08.189388, 1.53958
2022-12-15 13:26:08.189708, 1.52492
2022-12-15 13:26:08.223015, 1.52981
2022-12-15 13:26:08.223015, 1.51515
2022-12-15 13:26:08.224015, 1.51515
2022-12-15 13:26:08.256403, 1.52492
2022-12-15 13:26:08.257407, 1.52003
2022-12-15 13:26:08.257536, 1.51026
2022-12-15 13:26:08.290380, 1.50537
2022-12-15 13:26:08.290758, 1.51515
2022-12-15 13:26:08.323770, 1.52003
2022-12-15 13:26:08.323770, 1.52492
2022-12-15 13:26:08.324783, 1.55425
2022-12-15 13:26:08.357522, 1.61290
2022-12-15 13:26:08.357822, 1.67644
2022-12-15 13:26:08.357822, 1.76930
2022-12-15 13:26:08.391129, 1.81818
2022-12-15 13:26:08.391129, 1.88660
2022-12-15 13:26:08.424302, 1.96969
2022-12-15 13:26:08.425140, 1.96480
2022-12-15 13:26:08.425140, 1.98435
2022-12-15 13:26:08.457693, 1.98435
2022-12-15 13:26:08.458070, 1.97947
2022-12-15 13:26:08.458526, 1.94525
2022-12-15 13:26:08.491585, 1.91593
2022-12-15 13:26:08.491585, 1.92570
2022-12-15 13:26:08.524458, 1.87194
2022-12-15 13:26:08.524931, 1.83284
2022-12-15 13:26:08.525498, 1.80840
2022-12-15 13:26:08.558666, 1.79863
2022-12-15 13:26:08.558959, 1.79374
2022-12-15 13:26:08.559422, 1.76930
2022-12-15 13:26:08.592294, 1.74486
2022-12-15 13:26:08.592638, 1.73020
2022-12-15 13:26:08.625687, 1.73509
2022-12-15 13:26:08.626695, 1.70087
2022-12-15 13:26:08.626695, 1.71554
2022-12-15 13:26:08.658334, 1.69110
2022-12-15 13:26:08.659329, 1.69599
2022-12-15 13:26:08.660094, 1.69599
2022-12-15 13:26:08.692937, 1.69110
2022-12-15 13:26:08.693282, 1.71065
2022-12-15 13:26:08.726364, 1.71554
2022-12-15 13:26:08.726605, 1.73509
2022-12-15 13:26:08.727149, 1.71065
2022-12-15 13:26:08.759986, 1.71065
2022-12-15 13:26:08.760279, 1.71065
2022-12-15 13:26:08.760279, 1.70087
2022-12-15 13:26:08.793381, 1.68132
2022-12-15 13:26:08.793732, 1.66666
2022-12-15 13:26:08.827066, 1.65689
2022-12-15 13:26:08.827305, 1.64711
2022-12-15 13:26:08.827305, 1.62756
2022-12-15 13:26:08.860485, 1.61779
2022-12-15 13:26:08.860778, 1.61779
2022-12-15 13:26:08.860778, 1.61290
2022-12-15 13:26:08.894204, 1.59824
2022-12-15 13:26:08.894204, 1.59335
2022-12-15 13:26:08.927004, 1.59335
2022-12-15 13:26:08.927004, 1.59335
2022-12-15 13:26:08.927004, 1.60801
2022-12-15 13:26:08.961048, 1.57380
2022-12-15 13:26:08.961343, 1.57869
2022-12-15 13:26:08.961969, 1.57869
2022-12-15 13:26:08.994593, 1.57869
2022-12-15 13:26:08.994936, 1.56402
2022-12-15 13:26:09.028177, 1.58357
2022-12-15 13:26:09.028417, 1.56402
2022-12-15 13:26:09.028417, 1.55425
2022-12-15 13:26:09.061639, 1.54936
2022-12-15 13:26:09.061639, 1.55913
2022-12-15 13:26:09.062440, 1.55425
2022-12-15 13:26:09.094914, 1.54936
2022-12-15 13:26:09.094914, 1.53958
2022-12-15 13:26:09.128822, 1.54936
2022-12-15 13:26:09.129089, 1.54936
2022-12-15 13:26:09.129593, 1.54936
2022-12-15 13:26:09.162410, 1.53470
2022-12-15 13:26:09.162410, 1.53958
2022-12-15 13:26:09.163410, 1.53958
2022-12-15 13:26:09.195298, 1.53958
2022-12-15 13:26:09.195298, 1.53470
2022-12-15 13:26:09.228601, 1.56402
2022-12-15 13:26:09.228601, 1.54447
2022-12-15 13:26:09.229599, 1.56891
2022-12-15 13:26:09.262787, 1.52492
2022-12-15 13:26:09.263109, 1.52492
2022-12-15 13:26:09.263109, 1.52981
2022-12-15 13:26:09.295724, 1.53470
2022-12-15 13:26:09.295724, 1.53470
2022-12-15 13:26:09.329965, 1.56402
2022-12-15 13:26:09.330203, 1.62267
2022-12-15 13:26:09.330203, 1.68132
2022-12-15 13:26:09.363431, 1.74975
2022-12-15 13:26:09.363431, 1.81818
2022-12-15 13:26:09.364215, 1.88660
2022-12-15 13:26:09.397083, 1.96480
2022-12-15 13:26:09.397861, 1.97458
2022-12-15 13:26:09.430495, 1.97947
2022-12-15 13:26:09.430495, 1.97947
2022-12-15 13:26:09.431330, 1.95992
2022-12-15 13:26:09.464135, 1.92570
2022-12-15 13:26:09.464947, 1.90127
2022-12-15 13:26:09.464947, 1.91104
2022-12-15 13:26:09.497140, 1.84750
2022-12-15 13:26:09.498170, 1.80351
2022-12-15 13:26:09.529921, 1.78396
2022-12-15 13:26:09.530920, 1.76930
2022-12-15 13:26:09.530920, 1.75464
2022-12-15 13:26:09.564362, 1.72531
2022-12-15 13:26:09.564362, 1.70576
2022-12-15 13:26:09.565414, 1.70087
2022-12-15 13:26:09.598040, 1.68621
2022-12-15 13:26:09.599049, 1.66666
2022-12-15 13:26:09.631667, 1.67155
2022-12-15 13:26:09.631667, 1.67644
2022-12-15 13:26:09.632685, 1.70576
2022-12-15 13:26:09.664858, 1.68621
2022-12-15 13:26:09.664858, 1.69599
2022-12-15 13:26:09.665865, 1.71065
2022-12-15 13:26:09.698020, 1.72043
2022-12-15 13:26:09.698970, 1.71554
2022-12-15 13:26:09.731849, 1.71065
2022-12-15 13:26:09.732121, 1.70576
2022-12-15 13:26:09.732121, 1.69599
2022-12-15 13:26:09.765717, 1.68132
2022-12-15 13:26:09.766710, 1.66666
2022-12-15 13:26:09.766710, 1.65200
2022-12-15 13:26:09.798580, 1.67644
2022-12-15 13:26:09.798580, 1.62756
2022-12-15 13:26:09.831524, 1.61290
2022-12-15 13:26:09.832521, 1.61290
2022-12-15 13:26:09.832521, 1.60801
2022-12-15 13:26:09.866399, 1.59824
2022-12-15 13:26:09.866694, 1.58846
2022-12-15 13:26:09.866694, 1.58846
2022-12-15 13:26:09.899895, 1.58846
2022-12-15 13:26:09.900243, 1.57869
2022-12-15 13:26:09.933444, 1.57380
2022-12-15 13:26:09.933712, 1.56891
2022-12-15 13:26:09.934309, 1.57380
2022-12-15 13:26:09.967021, 1.56402
2022-12-15 13:26:09.967312, 1.54936
2022-12-15 13:26:09.967894, 1.55425
2022-12-15 13:26:10.000458, 1.55425
2022-12-15 13:26:10.000801, 1.54936
2022-12-15 13:26:10.033966, 1.53958
2022-12-15 13:26:10.034205, 1.54447
2022-12-15 13:26:10.034795, 1.54936
2022-12-15 13:26:10.067407, 1.53958
2022-12-15 13:26:10.067407, 1.53470
2022-12-15 13:26:10.068378, 1.52981
2022-12-15 13:26:10.101009, 1.53470
2022-12-15 13:26:10.101355, 1.53470
2022-12-15 13:26:10.134538, 1.53470
2022-12-15 13:26:10.134780, 1.52492
2022-12-15 13:26:10.135324, 1.53470
2022-12-15 13:26:10.168269, 1.52981
2022-12-15 13:26:10.168567, 1.52492
2022-12-15 13:26:10.169112, 1.52003
2022-12-15 13:26:10.201646, 1.52003
2022-12-15 13:26:10.201993, 1.52003
2022-12-15 13:26:10.235294, 1.50537
2022-12-15 13:26:10.235535, 1.50048
2022-12-15 13:26:10.235535, 1.50537
2022-12-15 13:26:10.268878, 1.51026
2022-12-15 13:26:10.269169, 1.52003
2022-12-15 13:26:10.269628, 1.54936
2022-12-15 13:26:10.302279, 1.61290
2022-12-15 13:26:10.302683, 1.67644
2022-12-15 13:26:10.335882, 1.74486
2022-12-15 13:26:10.336150, 1.81329
2022-12-15 13:26:10.336150, 1.87683
2022-12-15 13:26:10.369250, 1.93059
2022-12-15 13:26:10.369887, 1.96480
2022-12-15 13:26:10.370900, 1.96480
2022-12-15 13:26:10.402351, 1.95992
2022-12-15 13:26:10.402351, 1.94525
2022-12-15 13:26:10.436435, 1.91104
2022-12-15 13:26:10.436674, 1.87683
2022-12-15 13:26:10.437241, 1.85239
2022-12-15 13:26:10.470076, 1.86217
2022-12-15 13:26:10.470426, 1.79863
2022-12-15 13:26:10.471458, 1.77419
2022-12-15 13:26:10.503486, 1.76441
2022-12-15 13:26:10.503486, 1.75464
2022-12-15 13:26:10.537038, 1.73020
2022-12-15 13:26:10.537038, 1.70576
2022-12-15 13:26:10.538040, 1.69110
2022-12-15 13:26:10.570526, 1.67644
2022-12-15 13:26:10.570526, 1.65200
2022-12-15 13:26:10.571527, 1.63734
2022-12-15 13:26:10.603895, 1.64711
2022-12-15 13:26:10.603895, 1.63734
2022-12-15 13:26:10.637225, 1.63734
2022-12-15 13:26:10.637225, 1.63245
2022-12-15 13:26:10.638227, 1.64711
2022-12-15 13:26:10.670475, 1.64711
2022-12-15 13:26:10.670475, 1.64711
2022-12-15 13:26:10.671515, 1.63734
2022-12-15 13:26:10.703831, 1.64222
2022-12-15 13:26:10.704861, 1.63734
2022-12-15 13:26:10.737760, 1.62267
2022-12-15 13:26:10.737760, 1.59824
2022-12-15 13:26:10.738795, 1.58846
2022-12-15 13:26:10.771183, 1.57869
2022-12-15 13:26:10.772185, 1.56891
2022-12-15 13:26:10.772185, 1.54447
2022-12-15 13:26:10.804535, 1.53958
2022-12-15 13:26:10.805537, 1.53470
2022-12-15 13:26:10.837885, 1.53470
2022-12-15 13:26:10.838888, 1.51026
2022-12-15 13:26:10.838888, 1.51515
2022-12-15 13:26:10.872218, 1.50537
2022-12-15 13:26:10.872511, 1.50537
2022-12-15 13:26:10.872971, 1.49071
2022-12-15 13:26:10.905770, 1.48582
2022-12-15 13:26:10.906176, 1.49071
2022-12-15 13:26:10.939453, 1.48582
2022-12-15 13:26:10.939720, 1.47605
2022-12-15 13:26:10.940228, 1.47605
2022-12-15 13:26:10.972819, 1.47116
2022-12-15 13:26:10.972819, 1.47605
2022-12-15 13:26:10.973862, 1.46138
2022-12-15 13:26:11.005583, 1.46627
2022-12-15 13:26:11.006563, 1.46138
2022-12-15 13:26:11.040035, 1.46627
2022-12-15 13:26:11.040276, 1.47116
2022-12-15 13:26:11.040860, 1.45161
2022-12-15 13:26:11.073294, 1.46627
2022-12-15 13:26:11.073294, 1.45650
2022-12-15 13:26:11.074282, 1.46138
2022-12-15 13:26:11.107120, 1.44183
2022-12-15 13:26:11.107467, 1.45161
2022-12-15 13:26:11.140484, 1.44672
2022-12-15 13:26:11.140722, 1.44183
2022-12-15 13:26:11.141181, 1.43695
2022-12-15 13:26:11.174020, 1.44672
2022-12-15 13:26:11.174316, 1.43206
2022-12-15 13:26:11.174903, 1.45650
2022-12-15 13:26:11.207523, 1.42717
2022-12-15 13:26:11.207523, 1.46627
2022-12-15 13:26:11.240214, 1.45161
2022-12-15 13:26:11.241224, 1.47605
2022-12-15 13:26:11.241224, 1.51515
2022-12-15 13:26:11.274236, 1.57869
2022-12-15 13:26:11.274236, 1.64222
2022-12-15 13:26:11.274236, 1.69110
2022-12-15 13:26:11.308296, 1.73020
2022-12-15 13:26:11.308640, 1.76441
2022-12-15 13:26:11.341830, 1.78885
2022-12-15 13:26:11.342069, 1.78885
2022-12-15 13:26:11.342619, 1.77908
2022-12-15 13:26:11.375337, 1.76441
2022-12-15 13:26:11.375628, 1.75464
2022-12-15 13:26:11.376208, 1.73020
2022-12-15 13:26:11.408712, 1.70087
2022-12-15 13:26:11.408712, 1.69599
2022-12-15 13:26:11.442355, 1.70087
2022-12-15 13:26:11.442647, 1.66666
2022-12-15 13:26:11.443255, 1.64711
2022-12-15 13:26:11.475903, 1.65689
2022-12-15 13:26:11.476376, 1.67155
2022-12-15 13:26:11.477379, 1.62267
2022-12-15 13:26:11.508202, 1.59824
2022-12-15 13:26:11.509237, 1.58846
2022-12-15 13:26:11.542869, 1.58357
2022-12-15 13:26:11.543105, 1.57380
2022-12-15 13:26:11.543706, 1.58357
2022-12-15 13:26:11.576639, 1.56402
2022-12-15 13:26:11.576977, 1.56891
2022-12-15 13:26:11.577558, 1.57380
2022-12-15 13:26:11.610168, 1.56891
2022-12-15 13:26:11.610513, 1.58357
2022-12-15 13:26:11.643635, 1.57869
2022-12-15 13:26:11.643873, 1.58846
2022-12-15 13:26:11.644429, 1.56891
2022-12-15 13:26:11.677128, 1.55913
2022-12-15 13:26:11.677458, 1.57380
2022-12-15 13:26:11.677956, 1.54936
2022-12-15 13:26:11.710667, 1.52492
2022-12-15 13:26:11.710667, 1.51515
2022-12-15 13:26:11.744216, 1.51026
2022-12-15 13:26:11.744216, 1.51515
2022-12-15 13:26:11.745241, 1.49560
2022-12-15 13:26:11.777051, 1.49071
2022-12-15 13:26:11.777051, 1.48582
2022-12-15 13:26:11.778053, 1.49071
2022-12-15 13:26:11.811211, 1.48093
2022-12-15 13:26:11.811560, 1.47116
2022-12-15 13:26:11.844907, 1.48093
2022-12-15 13:26:11.845193, 1.47605
2022-12-15 13:26:11.845780, 1.49071
2022-12-15 13:26:11.878469, 1.46138
2022-12-15 13:26:11.878761, 1.45650
2022-12-15 13:26:11.878761, 1.46627
2022-12-15 13:26:11.911934, 1.45161
2022-12-15 13:26:11.912308, 1.45650
2022-12-15 13:26:11.945393, 1.44672
2022-12-15 13:26:11.945661, 1.45161
2022-12-15 13:26:11.946313, 1.45161
2022-12-15 13:26:11.978981, 1.44183
2022-12-15 13:26:11.979646, 1.44183
2022-12-15 13:26:11.979646, 1.45161
2022-12-15 13:26:12.012041, 1.44183
2022-12-15 13:26:12.012041, 1.43695
2022-12-15 13:26:12.045589, 1.43695
2022-12-15 13:26:12.045820, 1.44183
2022-12-15 13:26:12.046368, 1.43695
2022-12-15 13:26:12.079508, 1.43206
2022-12-15 13:26:12.079804, 1.43206
2022-12-15 13:26:12.080386, 1.43695
2022-12-15 13:26:12.113135, 1.43695
2022-12-15 13:26:12.113483, 1.42717
2022-12-15 13:26:12.146732, 1.44672
2022-12-15 13:26:12.147017, 1.42717
2022-12-15 13:26:12.147477, 1.43206
2022-12-15 13:26:12.180201, 1.42717
2022-12-15 13:26:12.180495, 1.42717
2022-12-15 13:26:12.180495, 1.43206
2022-12-15 13:26:12.213682, 1.43206
2022-12-15 13:26:12.214059, 1.42717
2022-12-15 13:26:12.247078, 1.42228
2022-12-15 13:26:12.247420, 1.42228
2022-12-15 13:26:12.248424, 1.42717
2022-12-15 13:26:12.279794, 1.42228
2022-12-15 13:26:12.280795, 1.42717
2022-12-15 13:26:12.280795, 1.45161
2022-12-15 13:26:12.313724, 1.48582
2022-12-15 13:26:12.314129, 1.51515
2022-12-15 13:26:12.347644, 1.59335
2022-12-15 13:26:12.347915, 1.66666
2022-12-15 13:26:12.347915, 1.68621
2022-12-15 13:26:12.381146, 1.71065
2022-12-15 13:26:12.381645, 1.73998
2022-12-15 13:26:12.382647, 1.75464
2022-12-15 13:26:12.415060, 1.75953
2022-12-15 13:26:12.415322, 1.73998
2022-12-15 13:26:12.448327, 1.72531
2022-12-15 13:26:12.448677, 1.71065
2022-12-15 13:26:12.449195, 1.70087
2022-12-15 13:26:12.481925, 1.67155
2022-12-15 13:26:12.482325, 1.65689
2022-12-15 13:26:12.482325, 1.64711
2022-12-15 13:26:12.515342, 1.65200
2022-12-15 13:26:12.515342, 1.64711
2022-12-15 13:26:12.548912, 1.64222
2022-12-15 13:26:12.548912, 1.62267
2022-12-15 13:26:12.549921, 1.61290
2022-12-15 13:26:12.581452, 1.60312
2022-12-15 13:26:12.582461, 1.59335
2022-12-15 13:26:12.582461, 1.58357
2022-12-15 13:26:12.614693, 1.58846
2022-12-15 13:26:12.615691, 1.58357
2022-12-15 13:26:12.649296, 1.59824
2022-12-15 13:26:12.649296, 1.57869
2022-12-15 13:26:12.650302, 1.58846
2022-12-15 13:26:12.682559, 1.58357
2022-12-15 13:26:12.682856, 1.57869
2022-12-15 13:26:12.682856, 1.58846
2022-12-15 13:26:12.716431, 1.59824
2022-12-15 13:26:12.716776, 1.58357
2022-12-15 13:26:12.749579, 1.57380
2022-12-15 13:26:12.749861, 1.56891
2022-12-15 13:26:12.749861, 1.56402
2022-12-15 13:26:12.783142, 1.55425
2022-12-15 13:26:12.783437, 1.54936
2022-12-15 13:26:12.784025, 1.53470
2022-12-15 13:26:12.816939, 1.53470
2022-12-15 13:26:12.816939, 1.52981
2022-12-15 13:26:12.850451, 1.52492
2022-12-15 13:26:12.851449, 1.55425
2022-12-15 13:26:12.851703, 1.52492
2022-12-15 13:26:12.883588, 1.52492
2022-12-15 13:26:12.883588, 1.51515
2022-12-15 13:26:12.884620, 1.51515
2022-12-15 13:26:12.917296, 1.52492
2022-12-15 13:26:12.917723, 1.52003
2022-12-15 13:26:12.951279, 1.51026
2022-12-15 13:26:12.951522, 1.51026
2022-12-15 13:26:12.951522, 1.51515
2022-12-15 13:26:12.983923, 1.51515
2022-12-15 13:26:12.984883, 1.50537
2022-12-15 13:26:12.984883, 1.50537
2022-12-15 13:26:13.018350, 1.51026
2022-12-15 13:26:13.018715, 1.51026
2022-12-15 13:26:13.051930, 1.50537
2022-12-15 13:26:13.052170, 1.50048
2022-12-15 13:26:13.052627, 1.50537
2022-12-15 13:26:13.085440, 1.51026
2022-12-15 13:26:13.085733, 1.50537
2022-12-15 13:26:13.085733, 1.52981
2022-12-15 13:26:13.119124, 1.51026
2022-12-15 13:26:13.119124, 1.51026
2022-12-15 13:26:13.152043, 1.51026
2022-12-15 13:26:13.152261, 1.53470
2022-12-15 13:26:13.152721, 1.50537
2022-12-15 13:26:13.186069, 1.51026
2022-12-15 13:26:13.186365, 1.50537
2022-12-15 13:26:13.186911, 1.51026
2022-12-15 13:26:13.219574, 1.51026
2022-12-15 13:26:13.219921, 1.52003
2022-12-15 13:26:13.253152, 1.51026
2022-12-15 13:26:13.253395, 1.51026
2022-12-15 13:26:13.253983, 1.51026
2022-12-15 13:26:13.286590, 1.51515
2022-12-15 13:26:13.286937, 1.51515
2022-12-15 13:26:13.287397, 1.50537
2022-12-15 13:26:13.320265, 1.51026
2022-12-15 13:26:13.320655, 1.52981
2022-12-15 13:26:13.353688, 1.54936
2022-12-15 13:26:13.353953, 1.58846
2022-12-15 13:26:13.353953, 1.66666
2022-12-15 13:26:13.387423, 1.71554
2022-12-15 13:26:13.387423, 1.75953
2022-12-15 13:26:13.388404, 1.76930
2022-12-15 13:26:13.420107, 1.79374
2022-12-15 13:26:13.421114, 1.80351
2022-12-15 13:26:13.454284, 1.79863
2022-12-15 13:26:13.454524, 1.77908
2022-12-15 13:26:13.455073, 1.76441
2022-12-15 13:26:13.487893, 1.74975
2022-12-15 13:26:13.488188, 1.73020
2022-12-15 13:26:13.489189, 1.70576
2022-12-15 13:26:13.521402, 1.72043
2022-12-15 13:26:13.521750, 1.69110
2022-12-15 13:26:13.554968, 1.68132
2022-12-15 13:26:13.555299, 1.66666
2022-12-15 13:26:13.555751, 1.65689
2022-12-15 13:26:13.588488, 1.65200
2022-12-15 13:26:13.588488, 1.64711
2022-12-15 13:26:13.589579, 1.62756
2022-12-15 13:26:13.621935, 1.62267
2022-12-15 13:26:13.621935, 1.62756
2022-12-15 13:26:13.654946, 1.62756
2022-12-15 13:26:13.655954, 1.64222
2022-12-15 13:26:13.655954, 1.62756
2022-12-15 13:26:13.688532, 1.63734
2022-12-15 13:26:13.688532, 1.65200
2022-12-15 13:26:13.689533, 1.64222
2022-12-15 13:26:13.722311, 1.65200
2022-12-15 13:26:13.723313, 1.67644
2022-12-15 13:26:13.755614, 1.65689
2022-12-15 13:26:13.755614, 1.64222
2022-12-15 13:26:13.756616, 1.63245
2022-12-15 13:26:13.789093, 1.62756
2022-12-15 13:26:13.790097, 1.62267
2022-12-15 13:26:13.790097, 1.60312
2022-12-15 13:26:13.822434, 1.59824
2022-12-15 13:26:13.822878, 1.59335
2022-12-15 13:26:13.856220, 1.60312
2022-12-15 13:26:13.856500, 1.60312
2022-12-15 13:26:13.856500, 1.58357
2022-12-15 13:26:13.890076, 1.58357
2022-12-15 13:26:13.890409, 1.59824
2022-12-15 13:26:13.890872, 1.58357
2022-12-15 13:26:13.923478, 1.57869
2022-12-15 13:26:13.924470, 1.61290
2022-12-15 13:26:13.957086, 1.58846
2022-12-15 13:26:13.957324, 1.58357
2022-12-15 13:26:13.957914, 1.57380
2022-12-15 13:26:13.990319, 1.57380
2022-12-15 13:26:13.990677, 1.58846
2022-12-15 13:26:13.991123, 1.57869
2022-12-15 13:26:14.023815, 1.57380
2022-12-15 13:26:14.024212, 1.60312
2022-12-15 13:26:14.057569, 1.57869
2022-12-15 13:26:14.057862, 1.57869
2022-12-15 13:26:14.058310, 1.56891
2022-12-15 13:26:14.091238, 1.57869
2022-12-15 13:26:14.091534, 1.57869
2022-12-15 13:26:14.091991, 1.57869
2022-12-15 13:26:14.124245, 1.57380
2022-12-15 13:26:14.124245, 1.56891
2022-12-15 13:26:14.158170, 1.57380
2022-12-15 13:26:14.158170, 1.56891
2022-12-15 13:26:14.158960, 1.57380
2022-12-15 13:26:14.191270, 1.56891
2022-12-15 13:26:14.191270, 1.57380
2022-12-15 13:26:14.192263, 1.57380
2022-12-15 13:26:14.225375, 1.56402
2022-12-15 13:26:14.225723, 1.56402
2022-12-15 13:26:14.258973, 1.57380
2022-12-15 13:26:14.259212, 1.59824
2022-12-15 13:26:14.259802, 1.55425
2022-12-15 13:26:14.292428, 1.56402
2022-12-15 13:26:14.292722, 1.57869
2022-12-15 13:26:14.293304, 1.60312
2022-12-15 13:26:14.326073, 1.63734
2022-12-15 13:26:14.326422, 1.69599
2022-12-15 13:26:14.359320, 1.74975
2022-12-15 13:26:14.359320, 1.77419
2022-12-15 13:26:14.360327, 1.79863
2022-12-15 13:26:14.393098, 1.82306
2022-12-15 13:26:14.393437, 1.84261
2022-12-15 13:26:14.394066, 1.84750
2022-12-15 13:26:14.426634, 1.83284
2022-12-15 13:26:14.427016, 1.83773
2022-12-15 13:26:14.460061, 1.81329
2022-12-15 13:26:14.460061, 1.79863
2022-12-15 13:26:14.461033, 1.76930
2022-12-15 13:26:14.492521, 1.75464
2022-12-15 13:26:14.493533, 1.74486
2022-12-15 13:26:14.493533, 1.74975
2022-12-15 13:26:14.527068, 1.73020
2022-12-15 13:26:14.527743, 1.72531
2022-12-15 13:26:14.560738, 1.71554
2022-12-15 13:26:14.560978, 1.71065
2022-12-15 13:26:14.561578, 1.68621
2022-12-15 13:26:14.594426, 1.70576
2022-12-15 13:26:14.594721, 1.67155
2022-12-15 13:26:14.595303, 1.66666
2022-12-15 13:26:14.627908, 1.65689
2022-12-15 13:26:14.627908, 1.65200
2022-12-15 13:26:14.661375, 1.66666
2022-12-15 13:26:14.661613, 1.67155
2022-12-15 13:26:14.662072, 1.67155
2022-12-15 13:26:14.694933, 1.66666
2022-12-15 13:26:14.695280, 1.67644
2022-12-15 13:26:14.695280, 1.68132
2022-12-15 13:26:14.728558, 1.67644
2022-12-15 13:26:14.728904, 1.68132
2022-12-15 13:26:14.761845, 1.65689
2022-12-15 13:26:14.762186, 1.65200
2022-12-15 13:26:14.763188, 1.64222
2022-12-15 13:26:14.795082, 1.63734
2022-12-15 13:26:14.795082, 1.61779
2022-12-15 13:26:14.796079, 1.61779
2022-12-15 13:26:14.829012, 1.61290
2022-12-15 13:26:14.829360, 1.59335
2022-12-15 13:26:14.862637, 1.60312
2022-12-15 13:26:14.862904, 1.60312
2022-12-15 13:26:14.863557, 1.59335
2022-12-15 13:26:14.896266, 1.58357
2022-12-15 13:26:14.896603, 1.58357
2022-12-15 13:26:14.896603, 1.58846
2022-12-15 13:26:14.929633, 1.58846
2022-12-15 13:26:14.929984, 1.58357
2022-12-15 13:26:14.963199, 1.57380
2022-12-15 13:26:14.963481, 1.60312
2022-12-15 13:26:14.963481, 1.57869
2022-12-15 13:26:14.996590, 1.59824
2022-12-15 13:26:14.996590, 1.56402
2022-12-15 13:26:14.997593, 1.56402
2022-12-15 13:26:15.029473, 1.57380
2022-12-15 13:26:15.029473, 1.55913
2022-12-15 13:26:15.063193, 1.58846
2022-12-15 13:26:15.063193, 1.56402
2022-12-15 13:26:15.064188, 1.56402
2022-12-15 13:26:15.097271, 1.55425
2022-12-15 13:26:15.097564, 1.55425
2022-12-15 13:26:15.097564, 1.57869
2022-12-15 13:26:15.130705, 1.56402
2022-12-15 13:26:15.131287, 1.55425
2022-12-15 13:26:15.164526, 1.55425
2022-12-15 13:26:15.164810, 1.55425
2022-12-15 13:26:15.164810, 1.56402
2022-12-15 13:26:15.198092, 1.55425
2022-12-15 13:26:15.198427, 1.58357
2022-12-15 13:26:15.198427, 1.55425
2022-12-15 13:26:15.231334, 1.55913
2022-12-15 13:26:15.231334, 1.55913
2022-12-15 13:26:15.265014, 1.54936
2022-12-15 13:26:15.265281, 1.58846
2022-12-15 13:26:15.265281, 1.56402
2022-12-15 13:26:15.298184, 1.54936
2022-12-15 13:26:15.299108, 1.54936
2022-12-15 13:26:15.299108, 1.54447
2022-12-15 13:26:15.331054, 1.55913
2022-12-15 13:26:15.332061, 1.54447
2022-12-15 13:26:15.364959, 1.54936
2022-12-15 13:26:15.365187, 1.56891
2022-12-15 13:26:15.365187, 1.61290
2022-12-15 13:26:15.399100, 1.65200
2022-12-15 13:26:15.399449, 1.70087
2022-12-15 13:26:15.399449, 1.75464
2022-12-15 13:26:15.432384, 1.81329
2022-12-15 13:26:15.432384, 1.84261
2022-12-15 13:26:15.465316, 1.85239
2022-12-15 13:26:15.465316, 1.86705
2022-12-15 13:26:15.466312, 1.87683
2022-12-15 13:26:15.498495, 1.86705
2022-12-15 13:26:15.499493, 1.84261
2022-12-15 13:26:15.499493, 1.85239
2022-12-15 13:26:15.532727, 1.82306
2022-12-15 13:26:15.532727, 1.79863
2022-12-15 13:26:15.566001, 1.77419
2022-12-15 13:26:15.566001, 1.76930
2022-12-15 13:26:15.567010, 1.76441
2022-12-15 13:26:15.599496, 1.76930
2022-12-15 13:26:15.599496, 1.74486
2022-12-15 13:26:15.600547, 1.73998
2022-12-15 13:26:15.633166, 1.73020
2022-12-15 13:26:15.633617, 1.72531
2022-12-15 13:26:15.667311, 1.70087
2022-12-15 13:26:15.667592, 1.69110
2022-12-15 13:26:15.667592, 1.69110
2022-12-15 13:26:15.700733, 1.69110
2022-12-15 13:26:15.700733, 1.68132
2022-12-15 13:26:15.701654, 1.69110
2022-12-15 13:26:15.734388, 1.69599
2022-12-15 13:26:15.734735, 1.70576
2022-12-15 13:26:15.766516, 1.70087
2022-12-15 13:26:15.767514, 1.73020
2022-12-15 13:26:15.767514, 1.70087
2022-12-15 13:26:15.801224, 1.70576
2022-12-15 13:26:15.801224, 1.68621
2022-12-15 13:26:15.802197, 1.68132
2022-12-15 13:26:15.834595, 1.68132
2022-12-15 13:26:15.835222, 1.67155
2022-12-15 13:26:15.868159, 1.65200
2022-12-15 13:26:15.868492, 1.63734
2022-12-15 13:26:15.868903, 1.63734
2022-12-15 13:26:15.901987, 1.63734
2022-12-15 13:26:15.902281, 1.62267
2022-12-15 13:26:15.902828, 1.61290
2022-12-15 13:26:15.935129, 1.61779
2022-12-15 13:26:15.935477, 1.64711
2022-12-15 13:26:15.968928, 1.61290
2022-12-15 13:26:15.969169, 1.60312
2022-12-15 13:26:15.969760, 1.60801
2022-12-15 13:26:16.002531, 1.60801
2022-12-15 13:26:16.002853, 1.61779
2022-12-15 13:26:16.003856, 1.59335
2022-12-15 13:26:16.036004, 1.59335
2022-12-15 13:26:16.036351, 1.60312
2022-12-15 13:26:16.069625, 1.58846
2022-12-15 13:26:16.069923, 1.58846
2022-12-15 13:26:16.069923, 1.58357
2022-12-15 13:26:16.103237, 1.58846
2022-12-15 13:26:16.103237, 1.58357
2022-12-15 13:26:16.104242, 1.57869
2022-12-15 13:26:16.136241, 1.58357
2022-12-15 13:26:16.137237, 1.58357
2022-12-15 13:26:16.170324, 1.60312
2022-12-15 13:26:16.170563, 1.57380
2022-12-15 13:26:16.171155, 1.57380
2022-12-15 13:26:16.203856, 1.57380
2022-12-15 13:26:16.204154, 1.57869
2022-12-15 13:26:16.204705, 1.56891
2022-12-15 13:26:16.237309, 1.56402
2022-12-15 13:26:16.237662, 1.57869
2022-12-15 13:26:16.270958, 1.57380
2022-12-15 13:26:16.271196, 1.58846
2022-12-15 13:26:16.271196, 1.56402
2022-12-15 13:26:16.304500, 1.56402
2022-12-15 13:26:16.304794, 1.56402
2022-12-15 13:26:16.305253, 1.55425
2022-12-15 13:26:16.337954, 1.55913
2022-12-15 13:26:16.338306, 1.55913
2022-12-15 13:26:16.371490, 1.58846
2022-12-15 13:26:16.372021, 1.54936
2022-12-15 13:26:16.372021, 1.54936
2022-12-15 13:26:16.404584, 1.55425
2022-12-15 13:26:16.404584, 1.55913
2022-12-15 13:26:16.405592, 1.58357
2022-12-15 13:26:16.438521, 1.56402
2022-12-15 13:26:16.438872, 1.58357
2022-12-15 13:26:16.472135, 1.62756
2022-12-15 13:26:16.472375, 1.66666
2022-12-15 13:26:16.472984, 1.72531
2022-12-15 13:26:16.505539, 1.78885
2022-12-15 13:26:16.505833, 1.85239
2022-12-15 13:26:16.505833, 1.87683
2022-12-15 13:26:16.539168, 1.90127
2022-12-15 13:26:16.539515, 1.91104
2022-12-15 13:26:16.572623, 1.92082
2022-12-15 13:26:16.572863, 1.90127
2022-12-15 13:26:16.573364, 1.92082
2022-12-15 13:26:16.606177, 1.88172
2022-12-15 13:26:16.606584, 1.86217
2022-12-15 13:26:16.607186, 1.83284
2022-12-15 13:26:16.639613, 1.81329
2022-12-15 13:26:16.639613, 1.80351
2022-12-15 13:26:16.673119, 1.82795
2022-12-15 13:26:16.673119, 1.78396
2022-12-15 13:26:16.674149, 1.77908
2022-12-15 13:26:16.706166, 1.76930
2022-12-15 13:26:16.706166, 1.76441
2022-12-15 13:26:16.707167, 1.74975
2022-12-15 13:26:16.740144, 1.73509
2022-12-15 13:26:16.741147, 1.73509
2022-12-15 13:26:16.773538, 1.72043
2022-12-15 13:26:16.774573, 1.71554
2022-12-15 13:26:16.774573, 1.71065
2022-12-15 13:26:16.806901, 1.71554
2022-12-15 13:26:16.807936, 1.73509
2022-12-15 13:26:16.807936, 1.73020
2022-12-15 13:26:16.840184, 1.72531
2022-12-15 13:26:16.841186, 1.72531
2022-12-15 13:26:16.874355, 1.73509
2022-12-15 13:26:16.874594, 1.73509
2022-12-15 13:26:16.875050, 1.72043
2022-12-15 13:26:16.907991, 1.73998
2022-12-15 13:26:16.908316, 1.70087
2022-12-15 13:26:16.908316, 1.69599
2022-12-15 13:26:16.941439, 1.67644
2022-12-15 13:26:16.941790, 1.69110
2022-12-15 13:26:16.974863, 1.65689
2022-12-15 13:26:16.975650, 1.65200
2022-12-15 13:26:16.975650, 1.65689
2022-12-15 13:26:17.008206, 1.63245
2022-12-15 13:26:17.008406, 1.63245
2022-12-15 13:26:17.008406, 1.63245
2022-12-15 13:26:17.041738, 1.61290
2022-12-15 13:26:17.042136, 1.61290
2022-12-15 13:26:17.075241, 1.60801
2022-12-15 13:26:17.075565, 1.61779
2022-12-15 13:26:17.076015, 1.59824
2022-12-15 13:26:17.108774, 1.59335
2022-12-15 13:26:17.109145, 1.59335
2022-12-15 13:26:17.109596, 1.59335
2022-12-15 13:26:17.142189, 1.58357
2022-12-15 13:26:17.142509, 1.57869
2022-12-15 13:26:17.176103, 1.58357
2022-12-15 13:26:17.176344, 1.57869
2022-12-15 13:26:17.176801, 1.59335
2022-12-15 13:26:17.209642, 1.56402
2022-12-15 13:26:17.209937, 1.59824
2022-12-15 13:26:17.209937, 1.56891
2022-12-15 13:26:17.243224, 1.57869
2022-12-15 13:26:17.243224, 1.55913
2022-12-15 13:26:17.275853, 1.58846
2022-12-15 13:26:17.275853, 1.56402
2022-12-15 13:26:17.276885, 1.55425
2022-12-15 13:26:17.309948, 1.54936
2022-12-15 13:26:17.310224, 1.54936
2022-12-15 13:26:17.310224, 1.55425
2022-12-15 13:26:17.343946, 1.54936
2022-12-15 13:26:17.344324, 1.54447
2022-12-15 13:26:17.377335, 1.54447
2022-12-15 13:26:17.377576, 1.56402
2022-12-15 13:26:17.378167, 1.54447
2022-12-15 13:26:17.410934, 1.57380
2022-12-15 13:26:17.411227, 1.53958
2022-12-15 13:26:17.411808, 1.55913
2022-12-15 13:26:17.444416, 1.54447
2022-12-15 13:26:17.444762, 1.53470
2022-12-15 13:26:17.477977, 1.53958
2022-12-15 13:26:17.478260, 1.54447
2022-12-15 13:26:17.478813, 1.55425
2022-12-15 13:26:17.511605, 1.53958
2022-12-15 13:26:17.511605, 1.59824
2022-12-15 13:26:17.512607, 1.60312
2022-12-15 13:26:17.544925, 1.65689
2022-12-15 13:26:17.545463, 1.71065
2022-12-15 13:26:17.577340, 1.78885
2022-12-15 13:26:17.578290, 1.83773
2022-12-15 13:26:17.578752, 1.88660
2022-12-15 13:26:17.612026, 1.91593
2022-12-15 13:26:17.612350, 1.93548
2022-12-15 13:26:17.612953, 1.94525
2022-12-15 13:26:17.645611, 1.94525
2022-12-15 13:26:17.645964, 1.95014
2022-12-15 13:26:17.679088, 1.91104
2022-12-15 13:26:17.679327, 1.88660
2022-12-15 13:26:17.679917, 1.86217
2022-12-15 13:26:17.712690, 1.82795
2022-12-15 13:26:17.713011, 1.81329
2022-12-15 13:26:17.713011, 1.80351
2022-12-15 13:26:17.746318, 1.79863
2022-12-15 13:26:17.746665, 1.77419
2022-12-15 13:26:17.779771, 1.76441
2022-12-15 13:26:17.780012, 1.75953
2022-12-15 13:26:17.780473, 1.74975
2022-12-15 13:26:17.813335, 1.73020
2022-12-15 13:26:17.813629, 1.72043
2022-12-15 13:26:17.814179, 1.74486
2022-12-15 13:26:17.847000, 1.71554
2022-12-15 13:26:17.847380, 1.72531
2022-12-15 13:26:17.880401, 1.72043
2022-12-15 13:26:17.880401, 1.72531
2022-12-15 13:26:17.881402, 1.73998
2022-12-15 13:26:17.913951, 1.73998
2022-12-15 13:26:17.913951, 1.73998
2022-12-15 13:26:17.914979, 1.73998
2022-12-15 13:26:17.947216, 1.74975
2022-12-15 13:26:17.947216, 1.73998
2022-12-15 13:26:17.980873, 1.71554
2022-12-15 13:26:17.981112, 1.70576
2022-12-15 13:26:17.981704, 1.70087
2022-12-15 13:26:18.014491, 1.68132
2022-12-15 13:26:18.014788, 1.66666
2022-12-15 13:26:18.015334, 1.66177
2022-12-15 13:26:18.048034, 1.65689
2022-12-15 13:26:18.048384, 1.67644
2022-12-15 13:26:18.081572, 1.63245
2022-12-15 13:26:18.081814, 1.63245
2022-12-15 13:26:18.082331, 1.63734
2022-12-15 13:26:18.115239, 1.62756
2022-12-15 13:26:18.115535, 1.62267
2022-12-15 13:26:18.116123, 1.61779
2022-12-15 13:26:18.148588, 1.63734
2022-12-15 13:26:18.148976, 1.61290
2022-12-15 13:26:18.182095, 1.62756
2022-12-15 13:26:18.182095, 1.60312
2022-12-15 13:26:18.183097, 1.60312
2022-12-15 13:26:18.215625, 1.60312
2022-12-15 13:26:18.215625, 1.59335
2022-12-15 13:26:18.216651, 1.59335
2022-12-15 13:26:18.248360, 1.59335
2022-12-15 13:26:18.249360, 1.59824
2022-12-15 13:26:18.282547, 1.58357
2022-12-15 13:26:18.283133, 1.59335
2022-12-15 13:26:18.283133, 1.57869
2022-12-15 13:26:18.316125, 1.60801
2022-12-15 13:26:18.316962, 1.57380
2022-12-15 13:26:18.316962, 1.59335
2022-12-15 13:26:18.349742, 1.57380
2022-12-15 13:26:18.350440, 1.57380
2022-12-15 13:26:18.383283, 1.56402
2022-12-15 13:26:18.383897, 1.56402
2022-12-15 13:26:18.383897, 1.57380
2022-12-15 13:26:18.416985, 1.57380
2022-12-15 13:26:18.417298, 1.56402
2022-12-15 13:26:18.417298, 1.55913
2022-12-15 13:26:18.450436, 1.57869
2022-12-15 13:26:18.450436, 1.56891
2022-12-15 13:26:18.483894, 1.56402
2022-12-15 13:26:18.484901, 1.54936
2022-12-15 13:26:18.484901, 1.58357
2022-12-15 13:26:18.516795, 1.55913
2022-12-15 13:26:18.516795, 1.55425
2022-12-15 13:26:18.517793, 1.56402
2022-12-15 13:26:18.550305, 1.59824
2022-12-15 13:26:18.550735, 1.65689
2022-12-15 13:26:18.584291, 1.71065
2022-12-15 13:26:18.584291, 1.77908
2022-12-15 13:26:18.585299, 1.84750
2022-12-15 13:26:18.617508, 1.90127
2022-12-15 13:26:18.617806, 1.95992
2022-12-15 13:26:18.618372, 1.94525
2022-12-15 13:26:18.651491, 1.95992
2022-12-15 13:26:18.651840, 1.95503
2022-12-15 13:26:18.684511, 1.93059
2022-12-15 13:26:18.684511, 1.90127
2022-12-15 13:26:18.685527, 1.88172
2022-12-15 13:26:18.718535, 1.89149
2022-12-15 13:26:18.718535, 1.83773
2022-12-15 13:26:18.719537, 1.80840
2022-12-15 13:26:18.751887, 1.79374
2022-12-15 13:26:18.752695, 1.78396
2022-12-15 13:26:18.785388, 1.76441
2022-12-15 13:26:18.785724, 1.73998
2022-12-15 13:26:18.786235, 1.72531
2022-12-15 13:26:18.819243, 1.72043
2022-12-15 13:26:18.819538, 1.71065
2022-12-15 13:26:18.820125, 1.69110
2022-12-15 13:26:18.852631, 1.71554
2022-12-15 13:26:18.852982, 1.70576
2022-12-15 13:26:18.886143, 1.71554
2022-12-15 13:26:18.886411, 1.71554
2022-12-15 13:26:18.887067, 1.72531
2022-12-15 13:26:18.919752, 1.74975
2022-12-15 13:26:18.920077, 1.74975
2022-12-15 13:26:18.920578, 1.73998
2022-12-15 13:26:18.953249, 1.73998
2022-12-15 13:26:18.953249, 1.73509
2022-12-15 13:26:18.986780, 1.73020
2022-12-15 13:26:18.986780, 1.71065
2022-12-15 13:26:18.987781, 1.73020
2022-12-15 13:26:19.020195, 1.68621
2022-12-15 13:26:19.020664, 1.68132
2022-12-15 13:26:19.020664, 1.65689
2022-12-15 13:26:19.053081, 1.64711
2022-12-15 13:26:19.054082, 1.64711
2022-12-15 13:26:19.087482, 1.63734
2022-12-15 13:26:19.087760, 1.62756
2022-12-15 13:26:19.088762, 1.61779
2022-12-15 13:26:19.120995, 1.65200
2022-12-15 13:26:19.121295, 1.62267
2022-12-15 13:26:19.121875, 1.61779
2022-12-15 13:26:19.154575, 1.60801
2022-12-15 13:26:19.154923, 1.63245
2022-12-15 13:26:19.188152, 1.60801
2022-12-15 13:26:19.188391, 1.62756
2022-12-15 13:26:19.188853, 1.58846
2022-12-15 13:26:19.221506, 1.59335
2022-12-15 13:26:19.221798, 1.59335
2022-12-15 13:26:19.222378, 1.57869
2022-12-15 13:26:19.255026, 1.57380
2022-12-15 13:26:19.255384, 1.57869
2022-12-15 13:26:19.288490, 1.58357
2022-12-15 13:26:19.288490, 1.57380
2022-12-15 13:26:19.289390, 1.57380
2022-12-15 13:26:19.321319, 1.56891
2022-12-15 13:26:19.322327, 1.59335
2022-12-15 13:26:19.322327, 1.56891
2022-12-15 13:26:19.355579, 1.56402
2022-12-15 13:26:19.355928, 1.56402
2022-12-15 13:26:19.389331, 1.59824
2022-12-15 13:26:19.389571, 1.56402
2022-12-15 13:26:19.390157, 1.55913
2022-12-15 13:26:19.422894, 1.55913
2022-12-15 13:26:19.423188, 1.56402
2022-12-15 13:26:19.423835, 1.56402
2022-12-15 13:26:19.456401, 1.55425
2022-12-15 13:26:19.456748, 1.56891
2022-12-15 13:26:19.489642, 1.56402
2022-12-15 13:26:19.489964, 1.55425
2022-12-15 13:26:19.489964, 1.54936
2022-12-15 13:26:19.523401, 1.54447
2022-12-15 13:26:19.523693, 1.56402
2022-12-15 13:26:19.523693, 1.54936
2022-12-15 13:26:19.556905, 1.58357
2022-12-15 13:26:19.557284, 1.58357
2022-12-15 13:26:19.590414, 1.64222
2022-12-15 13:26:19.590716, 1.71065
2022-12-15 13:26:19.591269, 1.77908
2022-12-15 13:26:19.623928, 1.85728
2022-12-15 13:26:19.624971, 1.93059
2022-12-15 13:26:19.624971, 1.97458
2022-12-15 13:26:19.656490, 1.99413
2022-12-15 13:26:19.657496, 2.00879
2022-12-15 13:26:19.689886, 2.01857
2022-12-15 13:26:19.690883, 2.03323
2022-12-15 13:26:19.690883, 1.98435
2022-12-15 13:26:19.724497, 1.95503
2022-12-15 13:26:19.725499, 1.93059
2022-12-15 13:26:19.725499, 1.90615
2022-12-15 13:26:19.758061, 1.87194
2022-12-15 13:26:19.759066, 1.85728
2022-12-15 13:26:19.791396, 1.83773
2022-12-15 13:26:19.791396, 1.83284
2022-12-15 13:26:19.792399, 1.80840
2022-12-15 13:26:19.824183, 1.79863
2022-12-15 13:26:19.825181, 1.78396
2022-12-15 13:26:19.825181, 1.77908
2022-12-15 13:26:19.858109, 1.76930
2022-12-15 13:26:19.858647, 1.73998
2022-12-15 13:26:19.891457, 1.76930
2022-12-15 13:26:19.891457, 1.73509
2022-12-15 13:26:19.892485, 1.73020
2022-12-15 13:26:19.925605, 1.72531
2022-12-15 13:26:19.925903, 1.73509
2022-12-15 13:26:19.926444, 1.74486
2022-12-15 13:26:19.959000, 1.73998
2022-12-15 13:26:19.959000, 1.74486
2022-12-15 13:26:19.992413, 1.73998
2022-12-15 13:26:19.992413, 1.77419
2022-12-15 13:26:19.992413, 1.73020
2022-12-15 13:26:20.025805, 1.73509
2022-12-15 13:26:20.026068, 1.71065
2022-12-15 13:26:20.026068, 1.70087
2022-12-15 13:26:20.059381, 1.68621
2022-12-15 13:26:20.059776, 1.66666
2022-12-15 13:26:20.093226, 1.68621
2022-12-15 13:26:20.093468, 1.65200
2022-12-15 13:26:20.093922, 1.66666
2022-12-15 13:26:20.126994, 1.62756
2022-12-15 13:26:20.127315, 1.63245
2022-12-15 13:26:20.128318, 1.62267
2022-12-15 13:26:20.160404, 1.62756
2022-12-15 13:26:20.161242, 1.60312
2022-12-15 13:26:20.193435, 1.60312
2022-12-15 13:26:20.193435, 1.60312
2022-12-15 13:26:20.194437, 1.59335
2022-12-15 13:26:20.227421, 1.58357
2022-12-15 13:26:20.227741, 1.58357
2022-12-15 13:26:20.228400, 1.58357
2022-12-15 13:26:20.261078, 1.58357
2022-12-15 13:26:20.261475, 1.56891
2022-12-15 13:26:20.294379, 1.56891
2022-12-15 13:26:20.294379, 1.56891
2022-12-15 13:26:20.295401, 1.56891
2022-12-15 13:26:20.328000, 1.57869
2022-12-15 13:26:20.328000, 1.55425
2022-12-15 13:26:20.329001, 1.58357
2022-12-15 13:26:20.361398, 1.55913
2022-12-15 13:26:20.361398, 1.57869
2022-12-15 13:26:20.394779, 1.53958
2022-12-15 13:26:20.394779, 1.57380
2022-12-15 13:26:20.395738, 1.54936
2022-12-15 13:26:20.428155, 1.53958
2022-12-15 13:26:20.428155, 1.53958
2022-12-15 13:26:20.429173, 1.54447
2022-12-15 13:26:20.461301, 1.54447
2022-12-15 13:26:20.462352, 1.53958
2022-12-15 13:26:20.495603, 1.52981
2022-12-15 13:26:20.495846, 1.53470
2022-12-15 13:26:20.496401, 1.53470
2022-12-15 13:26:20.529120, 1.52492
2022-12-15 13:26:20.529415, 1.53470
2022-12-15 13:26:20.529415, 1.52492
2022-12-15 13:26:20.562804, 1.52981
2022-12-15 13:26:20.563153, 1.52003
2022-12-15 13:26:20.596344, 1.51515
2022-12-15 13:26:20.596583, 1.51515
2022-12-15 13:26:20.597173, 1.53470
2022-12-15 13:26:20.629888, 1.54936
2022-12-15 13:26:20.630185, 1.58846
2022-12-15 13:26:20.630739, 1.66177
2022-12-15 13:26:20.663426, 1.74486
2022-12-15 13:26:20.663803, 1.82306
2022-12-15 13:26:20.696851, 1.88172
2022-12-15 13:26:20.697093, 1.94525
2022-12-15 13:26:20.697680, 1.99413
2022-12-15 13:26:20.730596, 2.01368
2022-12-15 13:26:20.730934, 2.01368
2022-12-15 13:26:20.731393, 2.01368
2022-12-15 13:26:20.763814, 1.99902
2022-12-15 13:26:20.763814, 1.96969
2022-12-15 13:26:20.796899, 1.93059
2022-12-15 13:26:20.796899, 1.90615
2022-12-15 13:26:20.797899, 1.88660
2022-12-15 13:26:20.831049, 1.85728
2022-12-15 13:26:20.831343, 1.86217
2022-12-15 13:26:20.831929, 1.84261
2022-12-15 13:26:20.864647, 1.80840
2022-12-15 13:26:20.865037, 1.79374
2022-12-15 13:26:20.898280, 1.76930
2022-12-15 13:26:20.898567, 1.75464
2022-12-15 13:26:20.899117, 1.75464
2022-12-15 13:26:20.931646, 1.73020
2022-12-15 13:26:20.931940, 1.71065
2022-12-15 13:26:20.932401, 1.71554
2022-12-15 13:26:20.965208, 1.71554
2022-12-15 13:26:20.965600, 1.72531
2022-12-15 13:26:20.998901, 1.71554
2022-12-15 13:26:20.999165, 1.73020
2022-12-15 13:26:20.999662, 1.73509
2022-12-15 13:26:21.032082, 1.76441
2022-12-15 13:26:21.032082, 1.73020
2022-12-15 13:26:21.033097, 1.72531
2022-12-15 13:26:21.065214, 1.72531
2022-12-15 13:26:21.065214, 1.72531
2022-12-15 13:26:21.098894, 1.71065
2022-12-15 13:26:21.099190, 1.68621
2022-12-15 13:26:21.099643, 1.67644
2022-12-15 13:26:21.132879, 1.66666
2022-12-15 13:26:21.133174, 1.64711
2022-12-15 13:26:21.133174, 1.63734
2022-12-15 13:26:21.166538, 1.65689
2022-12-15 13:26:21.166538, 1.63245
2022-12-15 13:26:21.199911, 1.64711
2022-12-15 13:26:21.200482, 1.59824
2022-12-15 13:26:21.200863, 1.60312
2022-12-15 13:26:21.233348, 1.60312
2022-12-15 13:26:21.234052, 1.62267
2022-12-15 13:26:21.234270, 1.58846
2022-12-15 13:26:21.266916, 1.59335
2022-12-15 13:26:21.267458, 1.58846
2022-12-15 13:26:21.300515, 1.57869
2022-12-15 13:26:21.300515, 1.57380
2022-12-15 13:26:21.301517, 1.57380
2022-12-15 13:26:21.333615, 1.57380
2022-12-15 13:26:21.333615, 1.56891
2022-12-15 13:26:21.333615, 1.55913
2022-12-15 13:26:21.367371, 1.56402
2022-12-15 13:26:21.367839, 1.56402
2022-12-15 13:26:21.400975, 1.58846
2022-12-15 13:26:21.401321, 1.54936
2022-12-15 13:26:21.401888, 1.55913
2022-12-15 13:26:21.434297, 1.55425
2022-12-15 13:26:21.434297, 1.57380
2022-12-15 13:26:21.435304, 1.53958
2022-12-15 13:26:21.468125, 1.55425
2022-12-15 13:26:21.468531, 1.54447
2022-12-15 13:26:21.501312, 1.55425
2022-12-15 13:26:21.501312, 1.53958
2022-12-15 13:26:21.502226, 1.55913
2022-12-15 13:26:21.534869, 1.53958
2022-12-15 13:26:21.535191, 1.54936
2022-12-15 13:26:21.535693, 1.52981
2022-12-15 13:26:21.568175, 1.55913
2022-12-15 13:26:21.568175, 1.53470
2022-12-15 13:26:21.601178, 1.54447
2022-12-15 13:26:21.602185, 1.52003
2022-12-15 13:26:21.602185, 1.54447
2022-12-15 13:26:21.635350, 1.52003
2022-12-15 13:26:21.635612, 1.53470
2022-12-15 13:26:21.636107, 1.51026
2022-12-15 13:26:21.668865, 1.54447
2022-12-15 13:26:21.669506, 1.53958
2022-12-15 13:26:21.702695, 1.58357
2022-12-15 13:26:21.702934, 1.62756
2022-12-15 13:26:21.703523, 1.70576
2022-12-15 13:26:21.735190, 1.79374
2022-12-15 13:26:21.736156, 1.87194
2022-12-15 13:26:21.736156, 1.92082
2022-12-15 13:26:21.769068, 1.97458
2022-12-15 13:26:21.770068, 2.01368
2022-12-15 13:26:21.803338, 2.02834
2022-12-15 13:26:21.803628, 2.00879
2022-12-15 13:26:21.804143, 1.99413
2022-12-15 13:26:21.836877, 1.97458
2022-12-15 13:26:21.837219, 1.95503
2022-12-15 13:26:21.837861, 1.90615
2022-12-15 13:26:21.870420, 1.87194
2022-12-15 13:26:21.871482, 1.84261
2022-12-15 13:26:21.903013, 1.82795
2022-12-15 13:26:21.903992, 1.79863
2022-12-15 13:26:21.903992, 1.78396
2022-12-15 13:26:21.937478, 1.77419
2022-12-15 13:26:21.937807, 1.78396
2022-12-15 13:26:21.937807, 1.73998
2022-12-15 13:26:21.971158, 1.73020
2022-12-15 13:26:21.971504, 1.71065
2022-12-15 13:26:22.004597, 1.70576
2022-12-15 13:26:22.004834, 1.69599
2022-12-15 13:26:22.004834, 1.69110
2022-12-15 13:26:22.038261, 1.69599
2022-12-15 13:26:22.038556, 1.70576
2022-12-15 13:26:22.039104, 1.71065
2022-12-15 13:26:22.071755, 1.71065
2022-12-15 13:26:22.072146, 1.73020
2022-12-15 13:26:22.105372, 1.72531
2022-12-15 13:26:22.105658, 1.73509
2022-12-15 13:26:22.106246, 1.71065
2022-12-15 13:26:22.138778, 1.70087
2022-12-15 13:26:22.138778, 1.70087
2022-12-15 13:26:22.139780, 1.68132
2022-12-15 13:26:22.171564, 1.66666
2022-12-15 13:26:22.172571, 1.64711
2022-12-15 13:26:22.205871, 1.67155
2022-12-15 13:26:22.206111, 1.62756
2022-12-15 13:26:22.206701, 1.60801
2022-12-15 13:26:22.239477, 1.60312
2022-12-15 13:26:22.239769, 1.60312
2022-12-15 13:26:22.240320, 1.59335
2022-12-15 13:26:22.273029, 1.58357
2022-12-15 13:26:22.273380, 1.58357
2022-12-15 13:26:22.306468, 1.57869
2022-12-15 13:26:22.306709, 1.57869
2022-12-15 13:26:22.307295, 1.56402
2022-12-15 13:26:22.340096, 1.56402
2022-12-15 13:26:22.340393, 1.57869
2022-12-15 13:26:22.340393, 1.56402
2022-12-15 13:26:22.373488, 1.55913
2022-12-15 13:26:22.373879, 1.54447
2022-12-15 13:26:22.407016, 1.55425
2022-12-15 13:26:22.407300, 1.54936
2022-12-15 13:26:22.407300, 1.53470
2022-12-15 13:26:22.440462, 1.53958
2022-12-15 13:26:22.441262, 1.53958
2022-12-15 13:26:22.441262, 1.56402
2022-12-15 13:26:22.473918, 1.52981
2022-12-15 13:26:22.473918, 1.55913
2022-12-15 13:26:22.506980, 1.52981
2022-12-15 13:26:22.507277, 1.55913
2022-12-15 13:26:22.507732, 1.52492
2022-12-15 13:26:22.541259, 1.52981
2022-12-15 13:26:22.541557, 1.52492
2022-12-15 13:26:22.542558, 1.53958
2022-12-15 13:26:22.574691, 1.52003
2022-12-15 13:26:22.575038, 1.52003
2022-12-15 13:26:22.608390, 1.52003
2022-12-15 13:26:22.608629, 1.52981
2022-12-15 13:26:22.609630, 1.51515
2022-12-15 13:26:22.641795, 1.51515
2022-12-15 13:26:22.641795, 1.51515
2022-12-15 13:26:22.642828, 1.52492
2022-12-15 13:26:22.675320, 1.51515
2022-12-15 13:26:22.675819, 1.51026
2022-12-15 13:26:22.708894, 1.50537
2022-12-15 13:26:22.709137, 1.51515
2022-12-15 13:26:22.709137, 1.51026
2022-12-15 13:26:22.742408, 1.52492
2022-12-15 13:26:22.743411, 1.56402
2022-12-15 13:26:22.743411, 1.65200
2022-12-15 13:26:22.775005, 1.70576
2022-12-15 13:26:22.776006, 1.77908
2022-12-15 13:26:22.809159, 1.85728
2022-12-15 13:26:22.809159, 1.93059
2022-12-15 13:26:22.810161, 1.97458
2022-12-15 13:26:22.842531, 1.99413
2022-12-15 13:26:22.842531, 2.00879
2022-12-15 13:26:22.843536, 2.01368
2022-12-15 13:26:22.875927, 2.01857
2022-12-15 13:26:22.876930, 1.96480
2022-12-15 13:26:22.909545, 1.92570
2022-12-15 13:26:22.909788, 1.90127
2022-12-15 13:26:22.910245, 1.86705
2022-12-15 13:26:22.943443, 1.86217
2022-12-15 13:26:22.943742, 1.80840
2022-12-15 13:26:22.944325, 1.79374
2022-12-15 13:26:22.977104, 1.77419
2022-12-15 13:26:22.977483, 1.74975
2022-12-15 13:26:23.010372, 1.73998
2022-12-15 13:26:23.010372, 1.75953
2022-12-15 13:26:23.011352, 1.71554
2022-12-15 13:26:23.043817, 1.69110
2022-12-15 13:26:23.043817, 1.68132
2022-12-15 13:26:23.044814, 1.68621
2022-12-15 13:26:23.077325, 1.70087
2022-12-15 13:26:23.077325, 1.69110
2022-12-15 13:26:23.110772, 1.70087
2022-12-15 13:26:23.111097, 1.71065
2022-12-15 13:26:23.111553, 1.73020
2022-12-15 13:26:23.144251, 1.72531
2022-12-15 13:26:23.144624, 1.72531
2022-12-15 13:26:23.145088, 1.73020
2022-12-15 13:26:23.177687, 1.73020
2022-12-15 13:26:23.178111, 1.73020
2022-12-15 13:26:23.211138, 1.69599
2022-12-15 13:26:23.211466, 1.68621
2022-12-15 13:26:23.211919, 1.68132
2022-12-15 13:26:23.245222, 1.65689
2022-12-15 13:26:23.245516, 1.64711
2022-12-15 13:26:23.245977, 1.63245
2022-12-15 13:26:23.278758, 1.66666
2022-12-15 13:26:23.279107, 1.61290
2022-12-15 13:26:23.312198, 1.60801
2022-12-15 13:26:23.312198, 1.60312
2022-12-15 13:26:23.313200, 1.62267
2022-12-15 13:26:23.344846, 1.59824
2022-12-15 13:26:23.345928, 1.61290
2022-12-15 13:26:23.346416, 1.59335
2022-12-15 13:26:23.379351, 1.62267
2022-12-15 13:26:23.379703, 1.58846
2022-12-15 13:26:23.412935, 1.57869
2022-12-15 13:26:23.413176, 1.57380
2022-12-15 13:26:23.413766, 1.58357
2022-12-15 13:26:23.446425, 1.57380
2022-12-15 13:26:23.446728, 1.56402
2022-12-15 13:26:23.447310, 1.56402
2022-12-15 13:26:23.480089, 1.56891
2022-12-15 13:26:23.480437, 1.56402
2022-12-15 13:26:23.513494, 1.55913
2022-12-15 13:26:23.513733, 1.55425
2022-12-15 13:26:23.514324, 1.56402
2022-12-15 13:26:23.547073, 1.56402
2022-12-15 13:26:23.547369, 1.55425
2022-12-15 13:26:23.547825, 1.55425
2022-12-15 13:26:23.580567, 1.56402
2022-12-15 13:26:23.580914, 1.56402
2022-12-15 13:26:23.614331, 1.55425
2022-12-15 13:26:23.614599, 1.55425
2022-12-15 13:26:23.615151, 1.55913
2022-12-15 13:26:23.647560, 1.56402
2022-12-15 13:26:23.647871, 1.54936
2022-12-15 13:26:23.648875, 1.54936
2022-12-15 13:26:23.680931, 1.57869
2022-12-15 13:26:23.681306, 1.54936
2022-12-15 13:26:23.714660, 1.55913
2022-12-15 13:26:23.714900, 1.53958
2022-12-15 13:26:23.715452, 1.54936
2022-12-15 13:26:23.748244, 1.55913
2022-12-15 13:26:23.748538, 1.57869
2022-12-15 13:26:23.748538, 1.62756
2022-12-15 13:26:23.781933, 1.70576
2022-12-15 13:26:23.782281, 1.78396
2022-12-15 13:26:23.815341, 1.84750
2022-12-15 13:26:23.815584, 1.91593
2022-12-15 13:26:23.816043, 1.97458
2022-12-15 13:26:23.848923, 2.02346
2022-12-15 13:26:23.849217, 2.02346
2022-12-15 13:26:23.849803, 2.01857
2022-12-15 13:26:23.881734, 2.03812
2022-12-15 13:26:23.881734, 1.99902
2022-12-15 13:26:23.915911, 1.95503
2022-12-15 13:26:23.916665, 1.91593
2022-12-15 13:26:23.916665, 1.88172
2022-12-15 13:26:23.948391, 1.88172
2022-12-15 13:26:23.949392, 1.82306
2022-12-15 13:26:23.949685, 1.79374
2022-12-15 13:26:23.983055, 1.77419
2022-12-15 13:26:23.983445, 1.76441
2022-12-15 13:26:24.016563, 1.73998
2022-12-15 13:26:24.016803, 1.71554
2022-12-15 13:26:24.017352, 1.71065
2022-12-15 13:26:24.050258, 1.69599
2022-12-15 13:26:24.050258, 1.69110
2022-12-15 13:26:24.051259, 1.69110
2022-12-15 13:26:24.083632, 1.69599
2022-12-15 13:26:24.083984, 1.71065
2022-12-15 13:26:24.117226, 1.71554
2022-12-15 13:26:24.117996, 1.72043
2022-12-15 13:26:24.117996, 1.73509
2022-12-15 13:26:24.150618, 1.74486
2022-12-15 13:26:24.151571, 1.74486
2022-12-15 13:26:24.151571, 1.75953
2022-12-15 13:26:24.184408, 1.73020
2022-12-15 13:26:24.185455, 1.73020
2022-12-15 13:26:24.216812, 1.71554
2022-12-15 13:26:24.216812, 1.68621
2022-12-15 13:26:24.217814, 1.69110
2022-12-15 13:26:24.251291, 1.66666
2022-12-15 13:26:24.251501, 1.67155
2022-12-15 13:26:24.252041, 1.63245
2022-12-15 13:26:24.284822, 1.62756
2022-12-15 13:26:24.285325, 1.62756
2022-12-15 13:26:24.318307, 1.61779
2022-12-15 13:26:24.318745, 1.60312
2022-12-15 13:26:24.318745, 1.60312
2022-12-15 13:26:24.351821, 1.60312
2022-12-15 13:26:24.351821, 1.61779
2022-12-15 13:26:24.352826, 1.58846
2022-12-15 13:26:24.385605, 1.61779
2022-12-15 13:26:24.386016, 1.58846
2022-12-15 13:26:24.418770, 1.60312
2022-12-15 13:26:24.418770, 1.57380
2022-12-15 13:26:24.419791, 1.58846
2022-12-15 13:26:24.451894, 1.56891
2022-12-15 13:26:24.451894, 1.59824
2022-12-15 13:26:24.452909, 1.55425
2022-12-15 13:26:24.485923, 1.55425
2022-12-15 13:26:24.486967, 1.55425
2022-12-15 13:26:24.519126, 1.56891
2022-12-15 13:26:24.519126, 1.54936
2022-12-15 13:26:24.520134, 1.54936
2022-12-15 13:26:24.551784, 1.54936
2022-12-15 13:26:24.552783, 1.55425
2022-12-15 13:26:24.553335, 1.54447
2022-12-15 13:26:24.586490, 1.54447
2022-12-15 13:26:24.586839, 1.54447
2022-12-15 13:26:24.619993, 1.54936
2022-12-15 13:26:24.620232, 1.53958
2022-12-15 13:26:24.620232, 1.53958
2022-12-15 13:26:24.653451, 1.53958
2022-12-15 13:26:24.653746, 1.54447
2022-12-15 13:26:24.654333, 1.53470
2022-12-15 13:26:24.687018, 1.53470
2022-12-15 13:26:24.687367, 1.52981
2022-12-15 13:26:24.720569, 1.53958
2022-12-15 13:26:24.720809, 1.52492
2022-12-15 13:26:24.721272, 1.54936
2022-12-15 13:26:24.754047, 1.55913
2022-12-15 13:26:24.754386, 1.60801
2022-12-15 13:26:24.755030, 1.66666
2022-12-15 13:26:24.787584, 1.74975
2022-12-15 13:26:24.787584, 1.83773
2022-12-15 13:26:24.821192, 1.93548
2022-12-15 13:26:24.821192, 1.98924
2022-12-15 13:26:24.822112, 2.02834
2022-12-15 13:26:24.854209, 2.06256
2022-12-15 13:26:24.854209, 2.08699
2022-12-15 13:26:24.855210, 2.07722
2022-12-15 13:26:24.887919, 2.04301
2022-12-15 13:26:24.888272, 2.01368
2022-12-15 13:26:24.921865, 1.99902
2022-12-15 13:26:24.922105, 1.95503
2022-12-15 13:26:24.922105, 1.91104
2022-12-15 13:26:24.955313, 1.88660
2022-12-15 13:26:24.955606, 1.87194
2022-12-15 13:26:24.956155, 1.85239
2022-12-15 13:26:24.988898, 1.82795
2022-12-15 13:26:24.989277, 1.81818
2022-12-15 13:26:25.022550, 1.80351
2022-12-15 13:26:25.022820, 1.78885
2022-12-15 13:26:25.022820, 1.77419
2022-12-15 13:26:25.055928, 1.74486
2022-12-15 13:26:25.056234, 1.73509
2022-12-15 13:26:25.057236, 1.73020
2022-12-15 13:26:25.089365, 1.71554
2022-12-15 13:26:25.089365, 1.72043
2022-12-15 13:26:25.122434, 1.73509
2022-12-15 13:26:25.122434, 1.74486
2022-12-15 13:26:25.122434, 1.73998
2022-12-15 13:26:25.156228, 1.74975
2022-12-15 13:26:25.156228, 1.75464
2022-12-15 13:26:25.156228, 1.75953
2022-12-15 13:26:25.189981, 1.73998
2022-12-15 13:26:25.190396, 1.73509
2022-12-15 13:26:25.223568, 1.72043
2022-12-15 13:26:25.223568, 1.71554
2022-12-15 13:26:25.224468, 1.69110
2022-12-15 13:26:25.256117, 1.67644
2022-12-15 13:26:25.257120, 1.66177
2022-12-15 13:26:25.257120, 1.66177
2022-12-15 13:26:25.290284, 1.63734
2022-12-15 13:26:25.290284, 1.63245
2022-12-15 13:26:25.323746, 1.61779
2022-12-15 13:26:25.324032, 1.62756
2022-12-15 13:26:25.324032, 1.60801
2022-12-15 13:26:25.357890, 1.60312
2022-12-15 13:26:25.357890, 1.59824
2022-12-15 13:26:25.358890, 1.59824
2022-12-15 13:26:25.390944, 1.58357
2022-12-15 13:26:25.391168, 1.57869
2022-12-15 13:26:25.424878, 1.57869
2022-12-15 13:26:25.425118, 1.57869
2022-12-15 13:26:25.425707, 1.57380
2022-12-15 13:26:25.458258, 1.56402
2022-12-15 13:26:25.458554, 1.55913
2022-12-15 13:26:25.459106, 1.56891
2022-12-15 13:26:25.491910, 1.55913
2022-12-15 13:26:25.492258, 1.54936
2022-12-15 13:26:25.525286, 1.56402
2022-12-15 13:26:25.525527, 1.55425
2022-12-15 13:26:25.526074, 1.55913
2022-12-15 13:26:25.559007, 1.54447
2022-12-15 13:26:25.559301, 1.55425
2022-12-15 13:26:25.559759, 1.54936
2022-12-15 13:26:25.592512, 1.54936
2022-12-15 13:26:25.592860, 1.53958
2022-12-15 13:26:25.625397, 1.53470
2022-12-15 13:26:25.625397, 1.54447
2022-12-15 13:26:25.625397, 1.54447
2022-12-15 13:26:25.659564, 1.52981
2022-12-15 13:26:25.659949, 1.52981
2022-12-15 13:26:25.659949, 1.54447
2022-12-15 13:26:25.693095, 1.53470
2022-12-15 13:26:25.694042, 1.54936
2022-12-15 13:26:25.726444, 1.52003
2022-12-15 13:26:25.727475, 1.53470
2022-12-15 13:26:25.727475, 1.54936
2022-12-15 13:26:25.760025, 1.57380
2022-12-15 13:26:25.761028, 1.62756
2022-12-15 13:26:25.761028, 1.70576
2022-12-15 13:26:25.793526, 1.80840
2022-12-15 13:26:25.794529, 1.87194
2022-12-15 13:26:25.826982, 1.95992
2022-12-15 13:26:25.826982, 2.01857
2022-12-15 13:26:25.827988, 2.06256
2022-12-15 13:26:25.860333, 2.07233
2022-12-15 13:26:25.861337, 2.09188
2022-12-15 13:26:25.861337, 2.06256
2022-12-15 13:26:25.893679, 2.04301
2022-12-15 13:26:25.894119, 1.99413
2022-12-15 13:26:25.927405, 1.95992
2022-12-15 13:26:25.927647, 1.94037
2022-12-15 13:26:25.927647, 1.90127
2022-12-15 13:26:25.961381, 1.86705
2022-12-15 13:26:25.961381, 1.84261
2022-12-15 13:26:25.962491, 1.82795
2022-12-15 13:26:25.994791, 1.81818
2022-12-15 13:26:25.995142, 1.78885
2022-12-15 13:26:26.027967, 1.76930
2022-12-15 13:26:26.027967, 1.75464
2022-12-15 13:26:26.027967, 1.74975
2022-12-15 13:26:26.061405, 1.72043
2022-12-15 13:26:26.061405, 1.71554
2022-12-15 13:26:26.062401, 1.71065
2022-12-15 13:26:26.094949, 1.73509
2022-12-15 13:26:26.095350, 1.71554
2022-12-15 13:26:26.128659, 1.73020
2022-12-15 13:26:26.128954, 1.73020
2022-12-15 13:26:26.129403, 1.74486
2022-12-15 13:26:26.162401, 1.73998
2022-12-15 13:26:26.162696, 1.76930
2022-12-15 13:26:26.163155, 1.72531
2022-12-15 13:26:26.196090, 1.73020
2022-12-15 13:26:26.196438, 1.71554
2022-12-15 13:26:26.229134, 1.69110
2022-12-15 13:26:26.229134, 1.68132
2022-12-15 13:26:26.230169, 1.67155
2022-12-15 13:26:26.263083, 1.65689
2022-12-15 13:26:26.263380, 1.66666
2022-12-15 13:26:26.263978, 1.62267
2022-12-15 13:26:26.296486, 1.65689
2022-12-15 13:26:26.296834, 1.61779
2022-12-15 13:26:26.330179, 1.59824
2022-12-15 13:26:26.330423, 1.59335
2022-12-15 13:26:26.331014, 1.59335
2022-12-15 13:26:26.363715, 1.58846
2022-12-15 13:26:26.364011, 1.57380
2022-12-15 13:26:26.364559, 1.56891
2022-12-15 13:26:26.397179, 1.60801
2022-12-15 13:26:26.397525, 1.57380
2022-12-15 13:26:26.430750, 1.55913
2022-12-15 13:26:26.430990, 1.55425
2022-12-15 13:26:26.431580, 1.57380
2022-12-15 13:26:26.464425, 1.55425
2022-12-15 13:26:26.464425, 1.54936
2022-12-15 13:26:26.465426, 1.54447
2022-12-15 13:26:26.497947, 1.54447
2022-12-15 13:26:26.498949, 1.54936
2022-12-15 13:26:26.530739, 1.53470
2022-12-15 13:26:26.530739, 1.53470
2022-12-15 13:26:26.531740, 1.52981
2022-12-15 13:26:26.564976, 1.56891
2022-12-15 13:26:26.565322, 1.52981
2022-12-15 13:26:26.565322, 1.52981
2022-12-15 13:26:26.598545, 1.52981
2022-12-15 13:26:26.598938, 1.52981
2022-12-15 13:26:26.632105, 1.52492
2022-12-15 13:26:26.632347, 1.51515
2022-12-15 13:26:26.632936, 1.52003
2022-12-15 13:26:26.665597, 1.52492
2022-12-15 13:26:26.665892, 1.52003
2022-12-15 13:26:26.666469, 1.51026
2022-12-15 13:26:26.698998, 1.51515
2022-12-15 13:26:26.699344, 1.52492
2022-12-15 13:26:26.732539, 1.51515
2022-12-15 13:26:26.732777, 1.51026
2022-12-15 13:26:26.733369, 1.51515
2022-12-15 13:26:26.766215, 1.51515
2022-12-15 13:26:26.766508, 1.52981
2022-12-15 13:26:26.766508, 1.50537
2022-12-15 13:26:26.799489, 1.52003
2022-12-15 13:26:26.799489, 1.55913
2022-12-15 13:26:26.832694, 1.60801
2022-12-15 13:26:26.832694, 1.68132
2022-12-15 13:26:26.833692, 1.76930
2022-12-15 13:26:26.866519, 1.86705
2022-12-15 13:26:26.866815, 1.94525
2022-12-15 13:26:26.866815, 2.00391
2022-12-15 13:26:26.900335, 2.05767
2022-12-15 13:26:26.900714, 2.09188
2022-12-15 13:26:26.933836, 2.12609
2022-12-15 13:26:26.934074, 2.06744
2022-12-15 13:26:26.934074, 2.04301
2022-12-15 13:26:26.967389, 2.01368
2022-12-15 13:26:26.967686, 1.97458
2022-12-15 13:26:26.967686, 1.92570
2022-12-15 13:26:27.000810, 1.89149
2022-12-15 13:26:27.001201, 1.87194
2022-12-15 13:26:27.034437, 1.84750
2022-12-15 13:26:27.034724, 1.81818
2022-12-15 13:26:27.034724, 1.80351
2022-12-15 13:26:27.067905, 1.78885
2022-12-15 13:26:27.067905, 1.79374
2022-12-15 13:26:27.068908, 1.74486
2022-12-15 13:26:27.101168, 1.72531
2022-12-15 13:26:27.102036, 1.72043
2022-12-15 13:26:27.134770, 1.71554
2022-12-15 13:26:27.135501, 1.70087
2022-12-15 13:26:27.135817, 1.70576
2022-12-15 13:26:27.168369, 1.71065
2022-12-15 13:26:27.169037, 1.72531
2022-12-15 13:26:27.169037, 1.72043
2022-12-15 13:26:27.201938, 1.73020
2022-12-15 13:26:27.202584, 1.73998
2022-12-15 13:26:27.235334, 1.74486
2022-12-15 13:26:27.235334, 1.73509
2022-12-15 13:26:27.236145, 1.72043
2022-12-15 13:26:27.269012, 1.73509
2022-12-15 13:26:27.269530, 1.70576
2022-12-15 13:26:27.269530, 1.67644
2022-12-15 13:26:27.302396, 1.66177
2022-12-15 13:26:27.303064, 1.64711
2022-12-15 13:26:27.336081, 1.64222
2022-12-15 13:26:27.337088, 1.62267
2022-12-15 13:26:27.337412, 1.61290
2022-12-15 13:26:27.368508, 1.60312
2022-12-15 13:26:27.369515, 1.60312
2022-12-15 13:26:27.369515, 1.58846
2022-12-15 13:26:27.402645, 1.57869
2022-12-15 13:26:27.402645, 1.57869
2022-12-15 13:26:27.436558, 1.58357
2022-12-15 13:26:27.436558, 1.56891
2022-12-15 13:26:27.437580, 1.56402
2022-12-15 13:26:27.469602, 1.59335
2022-12-15 13:26:27.469602, 1.56402
2022-12-15 13:26:27.470629, 1.56402
2022-12-15 13:26:27.503685, 1.54936
2022-12-15 13:26:27.504031, 1.55425
2022-12-15 13:26:27.537263, 1.55913
2022-12-15 13:26:27.537503, 1.54447
2022-12-15 13:26:27.538095, 1.57380
2022-12-15 13:26:27.570018, 1.53958
2022-12-15 13:26:27.571026, 1.55425
2022-12-15 13:26:27.571026, 1.53958
2022-12-15 13:26:27.603131, 1.53470
2022-12-15 13:26:27.604139, 1.52981
2022-12-15 13:26:27.637431, 1.53470
2022-12-15 13:26:27.637756, 1.53470
2022-12-15 13:26:27.638206, 1.52492
2022-12-15 13:26:27.671150, 1.55425
2022-12-15 13:26:27.671532, 1.52492
2022-12-15 13:26:27.671532, 1.55913
2022-12-15 13:26:27.704778, 1.51515
2022-12-15 13:26:27.705123, 1.52492
2022-12-15 13:26:27.738372, 1.52492
2022-12-15 13:26:27.738640, 1.52492
2022-12-15 13:26:27.739280, 1.51026
2022-12-15 13:26:27.771380, 1.52003
2022-12-15 13:26:27.771822, 1.51026
2022-12-15 13:26:27.771822, 1.51515
2022-12-15 13:26:27.805474, 1.52492
2022-12-15 13:26:27.805869, 1.54447
2022-12-15 13:26:27.838866, 1.59824
2022-12-15 13:26:27.838866, 1.68132
2022-12-15 13:26:27.839777, 1.75464
2022-12-15 13:26:27.871983, 1.84750
2022-12-15 13:26:27.871983, 1.93059
2022-12-15 13:26:27.872984, 2.00391
2022-12-15 13:26:27.906218, 2.03812
2022-12-15 13:26:27.906609, 2.06744
2022-12-15 13:26:27.939214, 2.09188
2022-12-15 13:26:27.939214, 2.06744
2022-12-15 13:26:27.940243, 2.02834
2022-12-15 13:26:27.973123, 1.98924
2022-12-15 13:26:27.973418, 1.95503
2022-12-15 13:26:27.974008, 1.93059
2022-12-15 13:26:28.005895, 1.88172
2022-12-15 13:26:28.006903, 1.84750
2022-12-15 13:26:28.038982, 1.82795
2022-12-15 13:26:28.040001, 1.81329
2022-12-15 13:26:28.040001, 1.78396
2022-12-15 13:26:28.073680, 1.76441
2022-12-15 13:26:28.074002, 1.75464
2022-12-15 13:26:28.074002, 1.73509
2022-12-15 13:26:28.107255, 1.72531
2022-12-15 13:26:28.107255, 1.69110
2022-12-15 13:26:28.141065, 1.71554
2022-12-15 13:26:28.141065, 1.69599
2022-12-15 13:26:28.142103, 1.70576
2022-12-15 13:26:28.173620, 1.69599
2022-12-15 13:26:28.173620, 1.73509
2022-12-15 13:26:28.174621, 1.72531
2022-12-15 13:26:28.207785, 1.76441
2022-12-15 13:26:28.208133, 1.72531
2022-12-15 13:26:28.241597, 1.75464
2022-12-15 13:26:28.241894, 1.72531
2022-12-15 13:26:28.242443, 1.72043
2022-12-15 13:26:28.274480, 1.69110
2022-12-15 13:26:28.274774, 1.70576
2022-12-15 13:26:28.274774, 1.66666
2022-12-15 13:26:28.308588, 1.66666
2022-12-15 13:26:28.308979, 1.62756
2022-12-15 13:26:28.342083, 1.63734
2022-12-15 13:26:28.342353, 1.61290
2022-12-15 13:26:28.342867, 1.60801
2022-12-15 13:26:28.375514, 1.58846
2022-12-15 13:26:28.375839, 1.58357
2022-12-15 13:26:28.375839, 1.58357
2022-12-15 13:26:28.408944, 1.57869
2022-12-15 13:26:28.409955, 1.59824
2022-12-15 13:26:28.441235, 1.56402
2022-12-15 13:26:28.442242, 1.57380
2022-12-15 13:26:28.442242, 1.56402
2022-12-15 13:26:28.476217, 1.56402
2022-12-15 13:26:28.476517, 1.55425
2022-12-15 13:26:28.477100, 1.56402
2022-12-15 13:26:28.509879, 1.55913
2022-12-15 13:26:28.510183, 1.55913
2022-12-15 13:26:28.543257, 1.54447
2022-12-15 13:26:28.543496, 1.54936
2022-12-15 13:26:28.544051, 1.54936
2022-12-15 13:26:28.576787, 1.55913
2022-12-15 13:26:28.576787, 1.53470
2022-12-15 13:26:28.577787, 1.53958
2022-12-15 13:26:28.610446, 1.54447
2022-12-15 13:26:28.610793, 1.53470
2022-12-15 13:26:28.644040, 1.53470
2022-12-15 13:26:28.644476, 1.53958
2022-12-15 13:26:28.644476, 1.54447
2022-12-15 13:26:28.677432, 1.52981
2022-12-15 13:26:28.677432, 1.52981
2022-12-15 13:26:28.678434, 1.53470
2022-12-15 13:26:28.710914, 1.53470
2022-12-15 13:26:28.711922, 1.52492
2022-12-15 13:26:28.743860, 1.51515
2022-12-15 13:26:28.744157, 1.51515
2022-12-15 13:26:28.744157, 1.53470
2022-12-15 13:26:28.777926, 1.54447
2022-12-15 13:26:28.778966, 1.58357
2022-12-15 13:26:28.778966, 1.64711
2022-12-15 13:26:28.811375, 1.73998
2022-12-15 13:26:28.812377, 1.81818
2022-12-15 13:26:28.844877, 1.92570
2022-12-15 13:26:28.844877, 1.96480
2022-12-15 13:26:28.845879, 2.04789
2022-12-15 13:26:28.878152, 2.04789
2022-12-15 13:26:28.878539, 2.04789
2022-12-15 13:26:28.879001, 2.03812
2022-12-15 13:26:28.911719, 2.02346
2022-12-15 13:26:28.912079, 1.98435
2022-12-15 13:26:28.945182, 1.93548
2022-12-15 13:26:28.945451, 1.90127
2022-12-15 13:26:28.945451, 1.87683
2022-12-15 13:26:28.979182, 1.84750
2022-12-15 13:26:28.979182, 1.80840
2022-12-15 13:26:28.980180, 1.80351
2022-12-15 13:26:29.011980, 1.77908
2022-12-15 13:26:29.011980, 1.74486
2022-12-15 13:26:29.045841, 1.71554
2022-12-15 13:26:29.046195, 1.69599
2022-12-15 13:26:29.046675, 1.71554
2022-12-15 13:26:29.079195, 1.68132
2022-12-15 13:26:29.079444, 1.67155
2022-12-15 13:26:29.079444, 1.68132
2022-12-15 13:26:29.112776, 1.69599
2022-12-15 13:26:29.113172, 1.71065
2022-12-15 13:26:29.146416, 1.71065
2022-12-15 13:26:29.146711, 1.72531
2022-12-15 13:26:29.147162, 1.73509
2022-12-15 13:26:29.179932, 1.73998
2022-12-15 13:26:29.179932, 1.72043
2022-12-15 13:26:29.180965, 1.71065
2022-12-15 13:26:29.213828, 1.70087
2022-12-15 13:26:29.214214, 1.70087
2022-12-15 13:26:29.247419, 1.65689
2022-12-15 13:26:29.247419, 1.67155
2022-12-15 13:26:29.248421, 1.62756
2022-12-15 13:26:29.281324, 1.61779
2022-12-15 13:26:29.281324, 1.60312
2022-12-15 13:26:29.282327, 1.58846
2022-12-15 13:26:29.314019, 1.58357
2022-12-15 13:26:29.314451, 1.57869
2022-12-15 13:26:29.348048, 1.56402
2022-12-15 13:26:29.348343, 1.55913
2022-12-15 13:26:29.348898, 1.55425
2022-12-15 13:26:29.380432, 1.55913
2022-12-15 13:26:29.381431, 1.53958
2022-12-15 13:26:29.381431, 1.56402
2022-12-15 13:26:29.415042, 1.52981
2022-12-15 13:26:29.415396, 1.53470
2022-12-15 13:26:29.448523, 1.52492
2022-12-15 13:26:29.448765, 1.51515
2022-12-15 13:26:29.449223, 1.50537
2022-12-15 13:26:29.482137, 1.51515
2022-12-15 13:26:29.482475, 1.50537
2022-12-15 13:26:29.483030, 1.49560
2022-12-15 13:26:29.515650, 1.49560
2022-12-15 13:26:29.515650, 1.50048
2022-12-15 13:26:29.549144, 1.49071
2022-12-15 13:26:29.549144, 1.49560
2022-12-15 13:26:29.550163, 1.48093
2022-12-15 13:26:29.581633, 1.48582
2022-12-15 13:26:29.582663, 1.47605
2022-12-15 13:26:29.582663, 1.46627
2022-12-15 13:26:29.615838, 1.46138
2022-12-15 13:26:29.615838, 1.47116
2022-12-15 13:26:29.649872, 1.49071
2022-12-15 13:26:29.650139, 1.52492
2022-12-15 13:26:29.650768, 1.57869
2022-12-15 13:26:29.683477, 1.66177
2022-12-15 13:26:29.683810, 1.73998
2022-12-15 13:26:29.684360, 1.80351
2022-12-15 13:26:29.716916, 1.86705
2022-12-15 13:26:29.717262, 1.91593
2022-12-15 13:26:29.750372, 1.95503
2022-12-15 13:26:29.750612, 1.94037
2022-12-15 13:26:29.751070, 1.93059
2022-12-15 13:26:29.783979, 1.91593
2022-12-15 13:26:29.784319, 1.88660
2022-12-15 13:26:29.784908, 1.84261
2022-12-15 13:26:29.817565, 1.81329
2022-12-15 13:26:29.817910, 1.79863
2022-12-15 13:26:29.850806, 1.77419
2022-12-15 13:26:29.851814, 1.74486
2022-12-15 13:26:29.851814, 1.73020
2022-12-15 13:26:29.884026, 1.71554
2022-12-15 13:26:29.884295, 1.70576
2022-12-15 13:26:29.884681, 1.67155
2022-12-15 13:26:29.917932, 1.65200
2022-12-15 13:26:29.918276, 1.66177
2022-12-15 13:26:29.951516, 1.62267
2022-12-15 13:26:29.951754, 1.59824
2022-12-15 13:26:29.951754, 1.59824
2022-12-15 13:26:29.985113, 1.59335
2022-12-15 13:26:29.985468, 1.60312
2022-12-15 13:26:29.985468, 1.59335
2022-12-15 13:26:30.018494, 1.60801
2022-12-15 13:26:30.018494, 1.59824
2022-12-15 13:26:30.052045, 1.62756
2022-12-15 13:26:30.052045, 1.59824
2022-12-15 13:26:30.053046, 1.59824
2022-12-15 13:26:30.085639, 1.57869
2022-12-15 13:26:30.085639, 1.57869
2022-12-15 13:26:30.086641, 1.54936
2022-12-15 13:26:30.119100, 1.53958
2022-12-15 13:26:30.120128, 1.52003
2022-12-15 13:26:30.152524, 1.52003
2022-12-15 13:26:30.152524, 1.50048
2022-12-15 13:26:30.153454, 1.49071
2022-12-15 13:26:30.185858, 1.48093
2022-12-15 13:26:30.185858, 1.48582
2022-12-15 13:26:30.186860, 1.47605
2022-12-15 13:26:30.219766, 1.46627
2022-12-15 13:26:30.220105, 1.46138
2022-12-15 13:26:30.253249, 1.46138
2022-12-15 13:26:30.253249, 1.45650
2022-12-15 13:26:30.254100, 1.44672
2022-12-15 13:26:30.286835, 1.43695
2022-12-15 13:26:30.286835, 1.44183
2022-12-15 13:26:30.287610, 1.45161
2022-12-15 13:26:30.320175, 1.42228
2022-12-15 13:26:30.320175, 1.43206
2022-12-15 13:26:30.353459, 1.42228
2022-12-15 13:26:30.353700, 1.45650
2022-12-15 13:26:30.354160, 1.41251
2022-12-15 13:26:30.386975, 1.43695
2022-12-15 13:26:30.386975, 1.41251
2022-12-15 13:26:30.388035, 1.41251
2022-12-15 13:26:30.420967, 1.40762
2022-12-15 13:26:30.421947, 1.39784
2022-12-15 13:26:30.453926, 1.40762
2022-12-15 13:26:30.453926, 1.40273
2022-12-15 13:26:30.454958, 1.40762
2022-12-15 13:26:30.487518, 1.39296
2022-12-15 13:26:30.487518, 1.41739
2022-12-15 13:26:30.488517, 1.39296
2022-12-15 13:26:30.521496, 1.39784
2022-12-15 13:26:30.521842, 1.38318
2022-12-15 13:26:30.555097, 1.41251
2022-12-15 13:26:30.555340, 1.38807
2022-12-15 13:26:30.555929, 1.38318
2022-12-15 13:26:30.588530, 1.37829
2022-12-15 13:26:30.588854, 1.38318
2022-12-15 13:26:30.589314, 1.38318
2022-12-15 13:26:30.622193, 1.37341
2022-12-15 13:26:30.622540, 1.39784
2022-12-15 13:26:30.655530, 1.37341
2022-12-15 13:26:30.655812, 1.38807
2022-12-15 13:26:30.656316, 1.40762
2022-12-15 13:26:30.689120, 1.43695
2022-12-15 13:26:30.689120, 1.50537
2022-12-15 13:26:30.690122, 1.56891
2022-12-15 13:26:30.723117, 1.62267
2022-12-15 13:26:30.723117, 1.67155
2022-12-15 13:26:30.755434, 1.71554
2022-12-15 13:26:30.756060, 1.75464
2022-12-15 13:26:30.756060, 1.75464
2022-12-15 13:26:30.789807, 1.73998
2022-12-15 13:26:30.790102, 1.73509
2022-12-15 13:26:30.790688, 1.72043
2022-12-15 13:26:30.823267, 1.69599
2022-12-15 13:26:30.823612, 1.66666
2022-12-15 13:26:30.856819, 1.65200
2022-12-15 13:26:30.857058, 1.65200
2022-12-15 13:26:30.857652, 1.62267
2022-12-15 13:26:30.890382, 1.60801
2022-12-15 13:26:30.890675, 1.60312
2022-12-15 13:26:30.891136, 1.59824
2022-12-15 13:26:30.923947, 1.58357
2022-12-15 13:26:30.924342, 1.56402
2022-12-15 13:26:30.957441, 1.54936
2022-12-15 13:26:30.957712, 1.54447
2022-12-15 13:26:30.958218, 1.52981
2022-12-15 13:26:30.991001, 1.52492
2022-12-15 13:26:30.991001, 1.52003
2022-12-15 13:26:30.992034, 1.53958
2022-12-15 13:26:31.024349, 1.52492
2022-12-15 13:26:31.024349, 1.52003
2022-12-15 13:26:31.057348, 1.55913
2022-12-15 13:26:31.057348, 1.52981
2022-12-15 13:26:31.058349, 1.53470
2022-12-15 13:26:31.091316, 1.53470
2022-12-15 13:26:31.092318, 1.52492
2022-12-15 13:26:31.092425, 1.52492
2022-12-15 13:26:31.125212, 1.52492
2022-12-15 13:26:31.125602, 1.49071
2022-12-15 13:26:31.158766, 1.48582
2022-12-15 13:26:31.159064, 1.48582
2022-12-15 13:26:31.159655, 1.48093
2022-12-15 13:26:31.191532, 1.46627
2022-12-15 13:26:31.191532, 1.45650
2022-12-15 13:26:31.192581, 1.48093
2022-12-15 13:26:31.225723, 1.46138
2022-12-15 13:26:31.226068, 1.45161
2022-12-15 13:26:31.259279, 1.45650
2022-12-15 13:26:31.259519, 1.45161
2022-12-15 13:26:31.260106, 1.45650
2022-12-15 13:26:31.292940, 1.44672
2022-12-15 13:26:31.293233, 1.44183
2022-12-15 13:26:31.293690, 1.47116
2022-12-15 13:26:31.326402, 1.44183
2022-12-15 13:26:31.326402, 1.44183
2022-12-15 13:26:31.359851, 1.43695
2022-12-15 13:26:31.360360, 1.43206
2022-12-15 13:26:31.360360, 1.44183
2022-12-15 13:26:31.392921, 1.46138
2022-12-15 13:26:31.393193, 1.43206
2022-12-15 13:26:31.393587, 1.43206
2022-12-15 13:26:31.426962, 1.46138
2022-12-15 13:26:31.427311, 1.42717
2022-12-15 13:26:31.460450, 1.42717
2022-12-15 13:26:31.460688, 1.43206
2022-12-15 13:26:31.460688, 1.44672
2022-12-15 13:26:31.494039, 1.46627
2022-12-15 13:26:31.494334, 1.42717
2022-12-15 13:26:31.494913, 1.42717
2022-12-15 13:26:31.527584, 1.43695
2022-12-15 13:26:31.527931, 1.43695
2022-12-15 13:26:31.561203, 1.44183
2022-12-15 13:26:31.561445, 1.42717
2022-12-15 13:26:31.561900, 1.43206
2022-12-15 13:26:31.594654, 1.43206
2022-12-15 13:26:31.594971, 1.42717
2022-12-15 13:26:31.595673, 1.42228
2022-12-15 13:26:31.628123, 1.43695
2022-12-15 13:26:31.628515, 1.43695
2022-12-15 13:26:31.661535, 1.43206
2022-12-15 13:26:31.661535, 1.44183
2022-12-15 13:26:31.662544, 1.43695
2022-12-15 13:26:31.694544, 1.43695
2022-12-15 13:26:31.694544, 1.42717
2022-12-15 13:26:31.695545, 1.42717
2022-12-15 13:26:31.728603, 1.43695
2022-12-15 13:26:31.728603, 1.44672
2022-12-15 13:26:31.762221, 1.46138
2022-12-15 13:26:31.762221, 1.49560
2022-12-15 13:26:31.763257, 1.54447
2022-12-15 13:26:31.795778, 1.59335
2022-12-15 13:26:31.796813, 1.62267
2022-12-15 13:26:31.796813, 1.65689
2022-12-15 13:26:31.829357, 1.68621
2022-12-15 13:26:31.830359, 1.70576
2022-12-15 13:26:31.862711, 1.68621
2022-12-15 13:26:31.863044, 1.68621
2022-12-15 13:26:31.863503, 1.67644
2022-12-15 13:26:31.896212, 1.66177
2022-12-15 13:26:31.896552, 1.63245
2022-12-15 13:26:31.897195, 1.61779
2022-12-15 13:26:31.929594, 1.60801
2022-12-15 13:26:31.929594, 1.60801
2022-12-15 13:26:31.962755, 1.58846
2022-12-15 13:26:31.962755, 1.61779
2022-12-15 13:26:31.963757, 1.58357
2022-12-15 13:26:31.995818, 1.58357
2022-12-15 13:26:31.996847, 1.59335
2022-12-15 13:26:31.996847, 1.59335
2022-12-15 13:26:32.030052, 1.55425
2022-12-15 13:26:32.030507, 1.55425
2022-12-15 13:26:32.062945, 1.54447
2022-12-15 13:26:32.063822, 1.54447
2022-12-15 13:26:32.064349, 1.54936
2022-12-15 13:26:32.097148, 1.55913
2022-12-15 13:26:32.097460, 1.55425
2022-12-15 13:26:32.097460, 1.55425
2022-12-15 13:26:32.130547, 1.55913
2022-12-15 13:26:32.130969, 1.56891
2022-12-15 13:26:32.164212, 1.56402
2022-12-15 13:26:32.164506, 1.55913
2022-12-15 13:26:32.164970, 1.56402
2022-12-15 13:26:32.197765, 1.56402
2022-12-15 13:26:32.198144, 1.55913
2022-12-15 13:26:32.198603, 1.54936
2022-12-15 13:26:32.231578, 1.55425
2022-12-15 13:26:32.231926, 1.52981
2022-12-15 13:26:32.265090, 1.52492
2022-12-15 13:26:32.265330, 1.51515
2022-12-15 13:26:32.265915, 1.52003
2022-12-15 13:26:32.298488, 1.52492
2022-12-15 13:26:32.299258, 1.52492
2022-12-15 13:26:32.299258, 1.51515
2022-12-15 13:26:32.331880, 1.52003
2022-12-15 13:26:32.332029, 1.52981
2022-12-15 13:26:32.365717, 1.52981
2022-12-15 13:26:32.365958, 1.52003
2022-12-15 13:26:32.366540, 1.55425
2022-12-15 13:26:32.399364, 1.52492
2022-12-15 13:26:32.399659, 1.52492
2022-12-15 13:26:32.400241, 1.51515
2022-12-15 13:26:32.432931, 1.51515
2022-12-15 13:26:32.433315, 1.52003
2022-12-15 13:26:32.466324, 1.52492
2022-12-15 13:26:32.466563, 1.51515
2022-12-15 13:26:32.466563, 1.52003
2022-12-15 13:26:32.499943, 1.54447
2022-12-15 13:26:32.500236, 1.52492
2022-12-15 13:26:32.500825, 1.51026
2022-12-15 13:26:32.533392, 1.51026
2022-12-15 13:26:32.533738, 1.52003
2022-12-15 13:26:32.567015, 1.52003
2022-12-15 13:26:32.567255, 1.51026
2022-12-15 13:26:32.567804, 1.51515
2022-12-15 13:26:32.600559, 1.52003
2022-12-15 13:26:32.600857, 1.52492
2022-12-15 13:26:32.601442, 1.52003
2022-12-15 13:26:32.634010, 1.53958
2022-12-15 13:26:32.634358, 1.51515
2022-12-15 13:26:32.667533, 1.52003
2022-12-15 13:26:32.667772, 1.51026
2022-12-15 13:26:32.668361, 1.51026
2022-12-15 13:26:32.701277, 1.51515
2022-12-15 13:26:32.701596, 1.52003
2022-12-15 13:26:32.701596, 1.51515
2022-12-15 13:26:32.734473, 1.51026
2022-12-15 13:26:32.735244, 1.51026
2022-12-15 13:26:32.767740, 1.51515
2022-12-15 13:26:32.767979, 1.51515
2022-12-15 13:26:32.768461, 1.52492
2022-12-15 13:26:32.801632, 1.54447
2022-12-15 13:26:32.801925, 1.57869
2022-12-15 13:26:32.802479, 1.61779
2022-12-15 13:26:32.835211, 1.65200
2022-12-15 13:26:32.835599, 1.69110
2022-12-15 13:26:32.868699, 1.72531
2022-12-15 13:26:32.868699, 1.76441
2022-12-15 13:26:32.869700, 1.75464
2022-12-15 13:26:32.902403, 1.74975
2022-12-15 13:26:32.902403, 1.74486
2022-12-15 13:26:32.903403, 1.73020
2022-12-15 13:26:32.935947, 1.70576
2022-12-15 13:26:32.935947, 1.69110
2022-12-15 13:26:32.969332, 1.68132
2022-12-15 13:26:32.969572, 1.67155
2022-12-15 13:26:32.969572, 1.65689
2022-12-15 13:26:33.002927, 1.65200
2022-12-15 13:26:33.003255, 1.65200
2022-12-15 13:26:33.003255, 1.65689
2022-12-15 13:26:33.036482, 1.63245
2022-12-15 13:26:33.037072, 1.62756
2022-12-15 13:26:33.069893, 1.62267
2022-12-15 13:26:33.070548, 1.61290
2022-12-15 13:26:33.070548, 1.60312
2022-12-15 13:26:33.103507, 1.60312
2022-12-15 13:26:33.104021, 1.60312
2022-12-15 13:26:33.104021, 1.60312
2022-12-15 13:26:33.136390, 1.60312
2022-12-15 13:26:33.137398, 1.61779
2022-12-15 13:26:33.169806, 1.61290
2022-12-15 13:26:33.169806, 1.62267
2022-12-15 13:26:33.170813, 1.61290
2022-12-15 13:26:33.204323, 1.61779
2022-12-15 13:26:33.204502, 1.61779
2022-12-15 13:26:33.204502, 1.62267
2022-12-15 13:26:33.237810, 1.61290
2022-12-15 13:26:33.238142, 1.61290
2022-12-15 13:26:33.270801, 1.62756
2022-12-15 13:26:33.270801, 1.59824
2022-12-15 13:26:33.271810, 1.58357
2022-12-15 13:26:33.304477, 1.57869
2022-12-15 13:26:33.304814, 1.57869
2022-12-15 13:26:33.304814, 1.58846
2022-12-15 13:26:33.337743, 1.58357
2022-12-15 13:26:33.338122, 1.57869
2022-12-15 13:26:33.371544, 1.57869
2022-12-15 13:26:33.371544, 1.57869
2022-12-15 13:26:33.372552, 1.57380
2022-12-15 13:26:33.404165, 1.57380
2022-12-15 13:26:33.405200, 1.57869
2022-12-15 13:26:33.405200, 1.58357
2022-12-15 13:26:33.438488, 1.58357
2022-12-15 13:26:33.438488, 1.56891
2022-12-15 13:26:33.472209, 1.56891
2022-12-15 13:26:33.472451, 1.57869
2022-12-15 13:26:33.473042, 1.56891
2022-12-15 13:26:33.505679, 1.56891
2022-12-15 13:26:33.505971, 1.58846
2022-12-15 13:26:33.506515, 1.60312
2022-12-15 13:26:33.539248, 1.56891
2022-12-15 13:26:33.539594, 1.55913
2022-12-15 13:26:33.572800, 1.56402
2022-12-15 13:26:33.573041, 1.57380
2022-12-15 13:26:33.573620, 1.57380
2022-12-15 13:26:33.606395, 1.57380
2022-12-15 13:26:33.606688, 1.59335
2022-12-15 13:26:33.607280, 1.57380
2022-12-15 13:26:33.639855, 1.56891
2022-12-15 13:26:33.639855, 1.56402
2022-12-15 13:26:33.673444, 1.56402
2022-12-15 13:26:33.674453, 1.56891
2022-12-15 13:26:33.674610, 1.57380
2022-12-15 13:26:33.706344, 1.56402
2022-12-15 13:26:33.706344, 1.58357
2022-12-15 13:26:33.707344, 1.56891
2022-12-15 13:26:33.740565, 1.56891
2022-12-15 13:26:33.740959, 1.55913
2022-12-15 13:26:33.774142, 1.55425
2022-12-15 13:26:33.774382, 1.55913
2022-12-15 13:26:33.774966, 1.56402
2022-12-15 13:26:33.807644, 1.55913
2022-12-15 13:26:33.807976, 1.56891
2022-12-15 13:26:33.808526, 1.59824
2022-12-15 13:26:33.841242, 1.63734
2022-12-15 13:26:33.841628, 1.67155
2022-12-15 13:26:33.874673, 1.71554
2022-12-15 13:26:33.874961, 1.74975
2022-12-15 13:26:33.874961, 1.77908
2022-12-15 13:26:33.908134, 1.78396
2022-12-15 13:26:33.908134, 1.78396
2022-12-15 13:26:33.909135, 1.77908
2022-12-15 13:26:33.941061, 1.77908
2022-12-15 13:26:33.941061, 1.74975
2022-12-15 13:26:33.975300, 1.73509
2022-12-15 13:26:33.975540, 1.74486
2022-12-15 13:26:33.975540, 1.72043
2022-12-15 13:26:34.008906, 1.69110
2022-12-15 13:26:34.009203, 1.68132
2022-12-15 13:26:34.009797, 1.67644
2022-12-15 13:26:34.042264, 1.68621
2022-12-15 13:26:34.042612, 1.67155
2022-12-15 13:26:34.074613, 1.68621
2022-12-15 13:26:34.075610, 1.67155
2022-12-15 13:26:34.075610, 1.65689
2022-12-15 13:26:34.108433, 1.65200
2022-12-15 13:26:34.109431, 1.63245
2022-12-15 13:26:34.109431, 1.63734
2022-12-15 13:26:34.142930, 1.64711
2022-12-15 13:26:34.143323, 1.64711
2022-12-15 13:26:34.176476, 1.65689
2022-12-15 13:26:34.176476, 1.68132
2022-12-15 13:26:34.177479, 1.67644
2022-12-15 13:26:34.209959, 1.67644
2022-12-15 13:26:34.210993, 1.67155
2022-12-15 13:26:34.210993, 1.67155
2022-12-15 13:26:34.243213, 1.67155
2022-12-15 13:26:34.243213, 1.66177
2022-12-15 13:26:34.276996, 1.64711
2022-12-15 13:26:34.277236, 1.63734
2022-12-15 13:26:34.277236, 1.64711
2022-12-15 13:26:34.310577, 1.64222
2022-12-15 13:26:34.310872, 1.62756
2022-12-15 13:26:34.311458, 1.62756
2022-12-15 13:26:34.344225, 1.63245
2022-12-15 13:26:34.344573, 1.63245
2022-12-15 13:26:34.377737, 1.62267
2022-12-15 13:26:34.378009, 1.62267
2022-12-15 13:26:34.378009, 1.62756
2022-12-15 13:26:34.411341, 1.62756
2022-12-15 13:26:34.411634, 1.61779
2022-12-15 13:26:34.412091, 1.61290
2022-12-15 13:26:34.444714, 1.62756
2022-12-15 13:26:34.445063, 1.64711
2022-12-15 13:26:34.478288, 1.61290
2022-12-15 13:26:34.478898, 1.60801
2022-12-15 13:26:34.478898, 1.61290
2022-12-15 13:26:34.511241, 1.61779
2022-12-15 13:26:34.511241, 1.60801
2022-12-15 13:26:34.512243, 1.60312
2022-12-15 13:26:34.545313, 1.61290
2022-12-15 13:26:34.545661, 1.62756
2022-12-15 13:26:34.578896, 1.60312
2022-12-15 13:26:34.579138, 1.59824
2022-12-15 13:26:34.579685, 1.60312
2022-12-15 13:26:34.612374, 1.60801
2022-12-15 13:26:34.612669, 1.59824
2022-12-15 13:26:34.613260, 1.59335
2022-12-15 13:26:34.646077, 1.60312
2022-12-15 13:26:34.646426, 1.60801
2022-12-15 13:26:34.679501, 1.59335
2022-12-15 13:26:34.679741, 1.59335
2022-12-15 13:26:34.680264, 1.59335
2022-12-15 13:26:34.713013, 1.60312
2022-12-15 13:26:34.713355, 1.59335
2022-12-15 13:26:34.713939, 1.59335
2022-12-15 13:26:34.746574, 1.62267
2022-12-15 13:26:34.747018, 1.59335
2022-12-15 13:26:34.780146, 1.58846
2022-12-15 13:26:34.780146, 1.58357
2022-12-15 13:26:34.781155, 1.59824
2022-12-15 13:26:34.813505, 1.62267
2022-12-15 13:26:34.813505, 1.65689
2022-12-15 13:26:34.814546, 1.70087
2022-12-15 13:26:34.846114, 1.74486
2022-12-15 13:26:34.847122, 1.79374
2022-12-15 13:26:34.880135, 1.81818
2022-12-15 13:26:34.880135, 1.83773
2022-12-15 13:26:34.881137, 1.85239
2022-12-15 13:26:34.913785, 1.86217
2022-12-15 13:26:34.913785, 1.85728
2022-12-15 13:26:34.914787, 1.83773
2022-12-15 13:26:34.947116, 1.82795
2022-12-15 13:26:34.947704, 1.82306
2022-12-15 13:26:34.980692, 1.80351
2022-12-15 13:26:34.980692, 1.79863
2022-12-15 13:26:34.981693, 1.77908
2022-12-15 13:26:35.014241, 1.77419
2022-12-15 13:26:35.014544, 1.76930
2022-12-15 13:26:35.015071, 1.78396
2022-12-15 13:26:35.048266, 1.74975
2022-12-15 13:26:35.048640, 1.74975
2022-12-15 13:26:35.081841, 1.73998
2022-12-15 13:26:35.082110, 1.74486
2022-12-15 13:26:35.082742, 1.74486
2022-12-15 13:26:35.115180, 1.71065
2022-12-15 13:26:35.115933, 1.71065
2022-12-15 13:26:35.115933, 1.69599
2022-12-15 13:26:35.147647, 1.70087
2022-12-15 13:26:35.148650, 1.71065
2022-12-15 13:26:35.181799, 1.72043
2022-12-15 13:26:35.181799, 1.71554
2022-12-15 13:26:35.182662, 1.72043
2022-12-15 13:26:35.215445, 1.75464
2022-12-15 13:26:35.215821, 1.74975
2022-12-15 13:26:35.216268, 1.71065
2022-12-15 13:26:35.248877, 1.70576
2022-12-15 13:26:35.249301, 1.70087
2022-12-15 13:26:35.282512, 1.69599
2022-12-15 13:26:35.282734, 1.67644
2022-12-15 13:26:35.282734, 1.66666
2022-12-15 13:26:35.316192, 1.66666
2022-12-15 13:26:35.316485, 1.66666
2022-12-15 13:26:35.317074, 1.68132
2022-12-15 13:26:35.349968, 1.64222
2022-12-15 13:26:35.350318, 1.64222
2022-12-15 13:26:35.383506, 1.64222
2022-12-15 13:26:35.383748, 1.63734
2022-12-15 13:26:35.383748, 1.62756
2022-12-15 13:26:35.416988, 1.63245
2022-12-15 13:26:35.416988, 1.63734
2022-12-15 13:26:35.417997, 1.62756
2022-12-15 13:26:35.449845, 1.63734
2022-12-15 13:26:35.450851, 1.61779
2022-12-15 13:26:35.484095, 1.62267
2022-12-15 13:26:35.484335, 1.62267
2022-12-15 13:26:35.484925, 1.60801
2022-12-15 13:26:35.517623, 1.61290
2022-12-15 13:26:35.517917, 1.62267
2022-12-15 13:26:35.518468, 1.61290
2022-12-15 13:26:35.551297, 1.63245
2022-12-15 13:26:35.551645, 1.60312
2022-12-15 13:26:35.584831, 1.61290
2022-12-15 13:26:35.585074, 1.61779
2022-12-15 13:26:35.585074, 1.60312
2022-12-15 13:26:35.618284, 1.60312
2022-12-15 13:26:35.618578, 1.61290
2022-12-15 13:26:35.619040, 1.60801
2022-12-15 13:26:35.651890, 1.62756
2022-12-15 13:26:35.652284, 1.59824
2022-12-15 13:26:35.685515, 1.59824
2022-12-15 13:26:35.685781, 1.63245
2022-12-15 13:26:35.685781, 1.59335
2022-12-15 13:26:35.718771, 1.59335
2022-12-15 13:26:35.719175, 1.60312
2022-12-15 13:26:35.720177, 1.60312
2022-12-15 13:26:35.751831, 1.59335
2022-12-15 13:26:35.752191, 1.59335
2022-12-15 13:26:35.785913, 1.60312
2022-12-15 13:26:35.786154, 1.59824
2022-12-15 13:26:35.786743, 1.58846
2022-12-15 13:26:35.819145, 1.59335
2022-12-15 13:26:35.819145, 1.60312
2022-12-15 13:26:35.819914, 1.62267
2022-12-15 13:26:35.853121, 1.64711
2022-12-15 13:26:35.853465, 1.70087
2022-12-15 13:26:35.886559, 1.78396
2022-12-15 13:26:35.886798, 1.81329
2022-12-15 13:26:35.886798, 1.88172
2022-12-15 13:26:35.920102, 1.90615
2022-12-15 13:26:35.920394, 1.92082
2022-12-15 13:26:35.920394, 1.93548
2022-12-15 13:26:35.953549, 1.92570
2022-12-15 13:26:35.954292, 1.91593
2022-12-15 13:26:35.987261, 1.90615
2022-12-15 13:26:35.987261, 1.91593
2022-12-15 13:26:35.988266, 1.87194
2022-12-15 13:26:36.019384, 1.85239
2022-12-15 13:26:36.020385, 1.83773
2022-12-15 13:26:36.020385, 1.83284
2022-12-15 13:26:36.053469, 1.82306
2022-12-15 13:26:36.054466, 1.81329
2022-12-15 13:26:36.087755, 1.80351
2022-12-15 13:26:36.088051, 1.80351
2022-12-15 13:26:36.088051, 1.78396
2022-12-15 13:26:36.121341, 1.76930
2022-12-15 13:26:36.121341, 1.75953
2022-12-15 13:26:36.122359, 1.75953
2022-12-15 13:26:36.154866, 1.74486
2022-12-15 13:26:36.155192, 1.73998
2022-12-15 13:26:36.188440, 1.73998
2022-12-15 13:26:36.188668, 1.74975
2022-12-15 13:26:36.189258, 1.74486
2022-12-15 13:26:36.221484, 1.74975
2022-12-15 13:26:36.221484, 1.74486
2022-12-15 13:26:36.222492, 1.75464
2022-12-15 13:26:36.255379, 1.75464
2022-12-15 13:26:36.255379, 1.74486
2022-12-15 13:26:36.288331, 1.73998
2022-12-15 13:26:36.288331, 1.74486
2022-12-15 13:26:36.289335, 1.72531
2022-12-15 13:26:36.322064, 1.70576
2022-12-15 13:26:36.322714, 1.69599
2022-12-15 13:26:36.322714, 1.69599
2022-12-15 13:26:36.355991, 1.68621
2022-12-15 13:26:36.356341, 1.67644
2022-12-15 13:26:36.388941, 1.66666
2022-12-15 13:26:36.388941, 1.66666
2022-12-15 13:26:36.389965, 1.66177
2022-12-15 13:26:36.423090, 1.64711
2022-12-15 13:26:36.423386, 1.64222
2022-12-15 13:26:36.423848, 1.65200
2022-12-15 13:26:36.456472, 1.64222
2022-12-15 13:26:36.456816, 1.63245
2022-12-15 13:26:36.490079, 1.62756
2022-12-15 13:26:36.490363, 1.64222
2022-12-15 13:26:36.490363, 1.62756
2022-12-15 13:26:36.523380, 1.61290
2022-12-15 13:26:36.523380, 1.61290
2022-12-15 13:26:36.524420, 1.61290
2022-12-15 13:26:36.556426, 1.62267
2022-12-15 13:26:36.556426, 1.60312
2022-12-15 13:26:36.590254, 1.60312
2022-12-15 13:26:36.590503, 1.59824
2022-12-15 13:26:36.590938, 1.62267
2022-12-15 13:26:36.624250, 1.59335
2022-12-15 13:26:36.624544, 1.62756
2022-12-15 13:26:36.625140, 1.59335
2022-12-15 13:26:36.657895, 1.59824
2022-12-15 13:26:36.658284, 1.59335
2022-12-15 13:26:36.691339, 1.58846
2022-12-15 13:26:36.691579, 1.59335
2022-12-15 13:26:36.691579, 1.59335
2022-12-15 13:26:36.724943, 1.58846
2022-12-15 13:26:36.725279, 1.57869
2022-12-15 13:26:36.725739, 1.58846
2022-12-15 13:26:36.758425, 1.58357
2022-12-15 13:26:36.758772, 1.57869
2022-12-15 13:26:36.791823, 1.57869
2022-12-15 13:26:36.792119, 1.57869
2022-12-15 13:26:36.792119, 1.60312
2022-12-15 13:26:36.825505, 1.57380
2022-12-15 13:26:36.825505, 1.56402
2022-12-15 13:26:36.826507, 1.56891
2022-12-15 13:26:36.858636, 1.57869
2022-12-15 13:26:36.858636, 1.58357
2022-12-15 13:26:36.892501, 1.60312
2022-12-15 13:26:36.892743, 1.65200
2022-12-15 13:26:36.893331, 1.70576
2022-12-15 13:26:36.926075, 1.79374
2022-12-15 13:26:36.926396, 1.81818
2022-12-15 13:26:36.927041, 1.87194
2022-12-15 13:26:36.959511, 1.92570
2022-12-15 13:26:36.959858, 1.95503
2022-12-15 13:26:36.993078, 1.95992
2022-12-15 13:26:36.993346, 1.96480
2022-12-15 13:26:36.993346, 1.96969
2022-12-15 13:26:37.026610, 1.94525
2022-12-15 13:26:37.026931, 1.91593
2022-12-15 13:26:37.026931, 1.88660
2022-12-15 13:26:37.060150, 1.87683
2022-12-15 13:26:37.060150, 1.85728
2022-12-15 13:26:37.093564, 1.83284
2022-12-15 13:26:37.093885, 1.82795
2022-12-15 13:26:37.094889, 1.84750
2022-12-15 13:26:37.126337, 1.81329
2022-12-15 13:26:37.127338, 1.79374
2022-12-15 13:26:37.127338, 1.78396
2022-12-15 13:26:37.160345, 1.76930
2022-12-15 13:26:37.160710, 1.76441
2022-12-15 13:26:37.194358, 1.73509
2022-12-15 13:26:37.194601, 1.73020
2022-12-15 13:26:37.194601, 1.73020
2022-12-15 13:26:37.227892, 1.73509
2022-12-15 13:26:37.228215, 1.72531
2022-12-15 13:26:37.228867, 1.72531
2022-12-15 13:26:37.261288, 1.73998
2022-12-15 13:26:37.261639, 1.74486
2022-12-15 13:26:37.294902, 1.76441
2022-12-15 13:26:37.295170, 1.73020
2022-12-15 13:26:37.295822, 1.73509
2022-12-15 13:26:37.328336, 1.73509
2022-12-15 13:26:37.328900, 1.71554
2022-12-15 13:26:37.329905, 1.69599
2022-12-15 13:26:37.361517, 1.69110
2022-12-15 13:26:37.361517, 1.68132
2022-12-15 13:26:37.394632, 1.66177
2022-12-15 13:26:37.394632, 1.65200
2022-12-15 13:26:37.395633, 1.64222
2022-12-15 13:26:37.429024, 1.64222
2022-12-15 13:26:37.429322, 1.62267
2022-12-15 13:26:37.429903, 1.61779
2022-12-15 13:26:37.462637, 1.61290
2022-12-15 13:26:37.462987, 1.61779
2022-12-15 13:26:37.496223, 1.60801
2022-12-15 13:26:37.496463, 1.60312
2022-12-15 13:26:37.496463, 1.59824
2022-12-15 13:26:37.529582, 1.60312
2022-12-15 13:26:37.529923, 1.62267
2022-12-15 13:26:37.530561, 1.58846
2022-12-15 13:26:37.563118, 1.60801
2022-12-15 13:26:37.563511, 1.58846
2022-12-15 13:26:37.596559, 1.59824
2022-12-15 13:26:37.597155, 1.57869
2022-12-15 13:26:37.598160, 1.60312
2022-12-15 13:26:37.629577, 1.57869
2022-12-15 13:26:37.629577, 1.60312
2022-12-15 13:26:37.630579, 1.56891
2022-12-15 13:26:37.662743, 1.56891
2022-12-15 13:26:37.663709, 1.57869
2022-12-15 13:26:37.697324, 1.57380
2022-12-15 13:26:37.697561, 1.58846
2022-12-15 13:26:37.698563, 1.56402
2022-12-15 13:26:37.730611, 1.58846
2022-12-15 13:26:37.730905, 1.56402
2022-12-15 13:26:37.731907, 1.56402
2022-12-15 13:26:37.764346, 1.55425
2022-12-15 13:26:37.764796, 1.56402
2022-12-15 13:26:37.797941, 1.55913
2022-12-15 13:26:37.798210, 1.55425
2022-12-15 13:26:37.799212, 1.54936
2022-12-15 13:26:37.831432, 1.56402
2022-12-15 13:26:37.831776, 1.55913
2022-12-15 13:26:37.832278, 1.56891
2022-12-15 13:26:37.864861, 1.53958
2022-12-15 13:26:37.865444, 1.56891
2022-12-15 13:26:37.897967, 1.54936
2022-12-15 13:26:37.897967, 1.54447
2022-12-15 13:26:37.897967, 1.56402
2022-12-15 13:26:37.931564, 1.60312
2022-12-15 13:26:37.932599, 1.67155
2022-12-15 13:26:37.932599, 1.71554
2022-12-15 13:26:37.964957, 1.78885
2022-12-15 13:26:37.965961, 1.85239
2022-12-15 13:26:37.998340, 1.91593
2022-12-15 13:26:37.998340, 1.94037
2022-12-15 13:26:37.999375, 1.95992
2022-12-15 13:26:38.031745, 1.96969
2022-12-15 13:26:38.032748, 1.96969
2022-12-15 13:26:38.032748, 1.94037
2022-12-15 13:26:38.065957, 1.91593
2022-12-15 13:26:38.066365, 1.92082
2022-12-15 13:26:38.098954, 1.87683
2022-12-15 13:26:38.098954, 1.83773
2022-12-15 13:26:38.099918, 1.81329
2022-12-15 13:26:38.132901, 1.80351
2022-12-15 13:26:38.133796, 1.79374
2022-12-15 13:26:38.133796, 1.80840
2022-12-15 13:26:38.166575, 1.75953
2022-12-15 13:26:38.166921, 1.74486
2022-12-15 13:26:38.199640, 1.73509
2022-12-15 13:26:38.199960, 1.71065
2022-12-15 13:26:38.200413, 1.69599
2022-12-15 13:26:38.233376, 1.73020
2022-12-15 13:26:38.233376, 1.70087
2022-12-15 13:26:38.234376, 1.70087
2022-12-15 13:26:38.266941, 1.70576
2022-12-15 13:26:38.267423, 1.71065
2022-12-15 13:26:38.300326, 1.74975
2022-12-15 13:26:38.300547, 1.73020
2022-12-15 13:26:38.300547, 1.73020
2022-12-15 13:26:38.334205, 1.73020
2022-12-15 13:26:38.334496, 1.73509
2022-12-15 13:26:38.334961, 1.72531
2022-12-15 13:26:38.367803, 1.70087
2022-12-15 13:26:38.368190, 1.68621
2022-12-15 13:26:38.401182, 1.68132
2022-12-15 13:26:38.401570, 1.66666
2022-12-15 13:26:38.402573, 1.65689
2022-12-15 13:26:38.434818, 1.64222
2022-12-15 13:26:38.435111, 1.63245
2022-12-15 13:26:38.435111, 1.63245
2022-12-15 13:26:38.468344, 1.61290
2022-12-15 13:26:38.468693, 1.61290
2022-12-15 13:26:38.501951, 1.61290
2022-12-15 13:26:38.502191, 1.61779
2022-12-15 13:26:38.502741, 1.59824
2022-12-15 13:26:38.535599, 1.59335
2022-12-15 13:26:38.535892, 1.59824
2022-12-15 13:26:38.536473, 1.59824
2022-12-15 13:26:38.569090, 1.58846
2022-12-15 13:26:38.569438, 1.57869
2022-12-15 13:26:38.602562, 1.58846
2022-12-15 13:26:38.602804, 1.57869
2022-12-15 13:26:38.602804, 1.56402
2022-12-15 13:26:38.636054, 1.56891
2022-12-15 13:26:38.636348, 1.56891
2022-12-15 13:26:38.636810, 1.56891
2022-12-15 13:26:38.669601, 1.55913
2022-12-15 13:26:38.669949, 1.57869
2022-12-15 13:26:38.703207, 1.56402
2022-12-15 13:26:38.703717, 1.57869
2022-12-15 13:26:38.704722, 1.55425
2022-12-15 13:26:38.736529, 1.58357
2022-12-15 13:26:38.736529, 1.55913
2022-12-15 13:26:38.736529, 1.56891
2022-12-15 13:26:38.770186, 1.54936
2022-12-15 13:26:38.770533, 1.55425
2022-12-15 13:26:38.803712, 1.55425
2022-12-15 13:26:38.803953, 1.55913
2022-12-15 13:26:38.803953, 1.54936
2022-12-15 13:26:38.837414, 1.54447
2022-12-15 13:26:38.837707, 1.54447
2022-12-15 13:26:38.837707, 1.54936
2022-12-15 13:26:38.870922, 1.54936
2022-12-15 13:26:38.871267, 1.54447
2022-12-15 13:26:38.904283, 1.57380
2022-12-15 13:26:38.904283, 1.61290
2022-12-15 13:26:38.905120, 1.69599
2022-12-15 13:26:38.937803, 1.72531
2022-12-15 13:26:38.938685, 1.79863
2022-12-15 13:26:38.938685, 1.87194
2022-12-15 13:26:38.971502, 1.92570
2022-12-15 13:26:38.972204, 1.95014
2022-12-15 13:26:39.004829, 1.96969
2022-12-15 13:26:39.004829, 1.97947
2022-12-15 13:26:39.005743, 1.96969
2022-12-15 13:26:39.037598, 1.96480
2022-12-15 13:26:39.038601, 1.93059
2022-12-15 13:26:39.039174, 1.90127
2022-12-15 13:26:39.071866, 1.87194
2022-12-15 13:26:39.072600, 1.83284
2022-12-15 13:26:39.105425, 1.81329
2022-12-15 13:26:39.105425, 1.80351
2022-12-15 13:26:39.106431, 1.78396
2022-12-15 13:26:39.138978, 1.76441
2022-12-15 13:26:39.139346, 1.75464
2022-12-15 13:26:39.139346, 1.76930
2022-12-15 13:26:39.172502, 1.72531
2022-12-15 13:26:39.172502, 1.70576
2022-12-15 13:26:39.205589, 1.69599
2022-12-15 13:26:39.205589, 1.70576
2022-12-15 13:26:39.206622, 1.70087
2022-12-15 13:26:39.239508, 1.71554
2022-12-15 13:26:39.239508, 1.70576
2022-12-15 13:26:39.240515, 1.74486
2022-12-15 13:26:39.272411, 1.72531
2022-12-15 13:26:39.273419, 1.71554
2022-12-15 13:26:39.305794, 1.73020
2022-12-15 13:26:39.306794, 1.72043
2022-12-15 13:26:39.306794, 1.74975
2022-12-15 13:26:39.340015, 1.70087
2022-12-15 13:26:39.340717, 1.68621
2022-12-15 13:26:39.340717, 1.69110
2022-12-15 13:26:39.373782, 1.66666
2022-12-15 13:26:39.374126, 1.64222
2022-12-15 13:26:39.407208, 1.62756
2022-12-15 13:26:39.407882, 1.61779
2022-12-15 13:26:39.407882, 1.62756
2022-12-15 13:26:39.440828, 1.59824
2022-12-15 13:26:39.441169, 1.59335
2022-12-15 13:26:39.441632, 1.58846
2022-12-15 13:26:39.474357, 1.59824
2022-12-15 13:26:39.474708, 1.58357
2022-12-15 13:26:39.507682, 1.58357
2022-12-15 13:26:39.507682, 1.59335
2022-12-15 13:26:39.508712, 1.58357
2022-12-15 13:26:39.541246, 1.57869
2022-12-15 13:26:39.541246, 1.56402
2022-12-15 13:26:39.542255, 1.57380
2022-12-15 13:26:39.574372, 1.56891
2022-12-15 13:26:39.574372, 1.56402
2022-12-15 13:26:39.607999, 1.54936
2022-12-15 13:26:39.608530, 1.55425
2022-12-15 13:26:39.608530, 1.55425
2022-12-15 13:26:39.641963, 1.54936
2022-12-15 13:26:39.642259, 1.53958
2022-12-15 13:26:39.642884, 1.54936
2022-12-15 13:26:39.675586, 1.53958
2022-12-15 13:26:39.675932, 1.56891
2022-12-15 13:26:39.708772, 1.52981
2022-12-15 13:26:39.708772, 1.52981
2022-12-15 13:26:39.709780, 1.53958
2022-12-15 13:26:39.742648, 1.53958
2022-12-15 13:26:39.742648, 1.52492
2022-12-15 13:26:39.743633, 1.52492
2022-12-15 13:26:39.776132, 1.52981
2022-12-15 13:26:39.776577, 1.52492
2022-12-15 13:26:39.809249, 1.51515
2022-12-15 13:26:39.809490, 1.51515
2022-12-15 13:26:39.809490, 1.52492
2022-12-15 13:26:39.841976, 1.52003
2022-12-15 13:26:39.842985, 1.51515
2022-12-15 13:26:39.842985, 1.51026
2022-12-15 13:26:39.876396, 1.54936
2022-12-15 13:26:39.876830, 1.52492
2022-12-15 13:26:39.910364, 1.52492
2022-12-15 13:26:39.910605, 1.55425
2022-12-15 13:26:39.911193, 1.60801
2022-12-15 13:26:39.943168, 1.68132
2022-12-15 13:26:39.943168, 1.74975
2022-12-15 13:26:39.944120, 1.82795
2022-12-15 13:26:39.977279, 1.90615
2022-12-15 13:26:39.977629, 1.95992
2022-12-15 13:26:40.010745, 1.97947
2022-12-15 13:26:40.010987, 1.99413
2022-12-15 13:26:40.011446, 1.99902
2022-12-15 13:26:40.044369, 1.99902
2022-12-15 13:26:40.044694, 1.96480
2022-12-15 13:26:40.044694, 1.93548
2022-12-15 13:26:40.077717, 1.90615
2022-12-15 13:26:40.077717, 1.88660
2022-12-15 13:26:40.110716, 1.85728
2022-12-15 13:26:40.110716, 1.82795
2022-12-15 13:26:40.111713, 1.84750
2022-12-15 13:26:40.144720, 1.83773
2022-12-15 13:26:40.145060, 1.79374
2022-12-15 13:26:40.145654, 1.77419
2022-12-15 13:26:40.178525, 1.76930
2022-12-15 13:26:40.178916, 1.75464
2022-12-15 13:26:40.211967, 1.73509
2022-12-15 13:26:40.212207, 1.71554
2022-12-15 13:26:40.212798, 1.71554
2022-12-15 13:26:40.245502, 1.71554
2022-12-15 13:26:40.245794, 1.70576
2022-12-15 13:26:40.246253, 1.70087
2022-12-15 13:26:40.279160, 1.70576
2022-12-15 13:26:40.279536, 1.73020
2022-12-15 13:26:40.312514, 1.72043
2022-12-15 13:26:40.312514, 1.71554
2022-12-15 13:26:40.313516, 1.71065
2022-12-15 13:26:40.344993, 1.71554
2022-12-15 13:26:40.345990, 1.71065
2022-12-15 13:26:40.345990, 1.69110
2022-12-15 13:26:40.379366, 1.70576
2022-12-15 13:26:40.379366, 1.67155
2022-12-15 13:26:40.413269, 1.65200
2022-12-15 13:26:40.413512, 1.63734
2022-12-15 13:26:40.414068, 1.62267
2022-12-15 13:26:40.446883, 1.62756
2022-12-15 13:26:40.447175, 1.61290
2022-12-15 13:26:40.447751, 1.60312
2022-12-15 13:26:40.480387, 1.59335
2022-12-15 13:26:40.480730, 1.60801
2022-12-15 13:26:40.513923, 1.58357
2022-12-15 13:26:40.514162, 1.58846
2022-12-15 13:26:40.514751, 1.56891
2022-12-15 13:26:40.547549, 1.57380
2022-12-15 13:26:40.547881, 1.57380
2022-12-15 13:26:40.548335, 1.55913
2022-12-15 13:26:40.580895, 1.56402
2022-12-15 13:26:40.580895, 1.55425
2022-12-15 13:26:40.614165, 1.55425
2022-12-15 13:26:40.614165, 1.53958
2022-12-15 13:26:40.615173, 1.53470
2022-12-15 13:26:40.647965, 1.55913
2022-12-15 13:26:40.648255, 1.53958
2022-12-15 13:26:40.648255, 1.53470
2022-12-15 13:26:40.681607, 1.52003
2022-12-15 13:26:40.681952, 1.54936
2022-12-15 13:26:40.715098, 1.52981
2022-12-15 13:26:40.715340, 1.53958
2022-12-15 13:26:40.716372, 1.52003
2022-12-15 13:26:40.748558, 1.53958
2022-12-15 13:26:40.748848, 1.52003
2022-12-15 13:26:40.749881, 1.54447
2022-12-15 13:26:40.782236, 1.50537
2022-12-15 13:26:40.782636, 1.53958
2022-12-15 13:26:40.815597, 1.51026
2022-12-15 13:26:40.815923, 1.52003
2022-12-15 13:26:40.816529, 1.50048
2022-12-15 13:26:40.849241, 1.50537
2022-12-15 13:26:40.849241, 1.50537
2022-12-15 13:26:40.850242, 1.49560
2022-12-15 13:26:40.882127, 1.48582
2022-12-15 13:26:40.883135, 1.49071
2022-12-15 13:26:40.915837, 1.49560
2022-12-15 13:26:40.915837, 1.48582
2022-12-15 13:26:40.916841, 1.49560
2022-12-15 13:26:40.949348, 1.50537
2022-12-15 13:26:40.950350, 1.55425
2022-12-15 13:26:40.950350, 1.59824
2022-12-15 13:26:40.982707, 1.66177
2022-12-15 13:26:40.983712, 1.74486
2022-12-15 13:26:41.016128, 1.82795
2022-12-15 13:26:41.016128, 1.88172
2022-12-15 13:26:41.017163, 1.93059
2022-12-15 13:26:41.049536, 1.96480
2022-12-15 13:26:41.050539, 1.97947
2022-12-15 13:26:41.050829, 1.95992
2022-12-15 13:26:41.083681, 1.93548
2022-12-15 13:26:41.084721, 1.91104
2022-12-15 13:26:41.117002, 1.88660
2022-12-15 13:26:41.117002, 1.85728
2022-12-15 13:26:41.118004, 1.83284
2022-12-15 13:26:41.150516, 1.80351
2022-12-15 13:26:41.150516, 1.78396
2022-12-15 13:26:41.151550, 1.76930
2022-12-15 13:26:41.183881, 1.74975
2022-12-15 13:26:41.184259, 1.73998
2022-12-15 13:26:41.217654, 1.74486
2022-12-15 13:26:41.217949, 1.73020
2022-12-15 13:26:41.217949, 1.69599
2022-12-15 13:26:41.251166, 1.68621
2022-12-15 13:26:41.251538, 1.67644
2022-12-15 13:26:41.251538, 1.67155
2022-12-15 13:26:41.284949, 1.66177
2022-12-15 13:26:41.285294, 1.65689
2022-12-15 13:26:41.318556, 1.67644
2022-12-15 13:26:41.318795, 1.67155
2022-12-15 13:26:41.319381, 1.66666
2022-12-15 13:26:41.352154, 1.66666
2022-12-15 13:26:41.352154, 1.68621
2022-12-15 13:26:41.353156, 1.67644
2022-12-15 13:26:41.385494, 1.66177
2022-12-15 13:26:41.386026, 1.65689
2022-12-15 13:26:41.418527, 1.64711
2022-12-15 13:26:41.418527, 1.65200
2022-12-15 13:26:41.419528, 1.61779
2022-12-15 13:26:41.452416, 1.60801
2022-12-15 13:26:41.452688, 1.59335
2022-12-15 13:26:41.453139, 1.59335
2022-12-15 13:26:41.486282, 1.57380
2022-12-15 13:26:41.486626, 1.56891
2022-12-15 13:26:41.519782, 1.56402
2022-12-15 13:26:41.520019, 1.56402
2022-12-15 13:26:41.520606, 1.54936
2022-12-15 13:26:41.553325, 1.54447
2022-12-15 13:26:41.553623, 1.53958
2022-12-15 13:26:41.554207, 1.55425
2022-12-15 13:26:41.586774, 1.53470
2022-12-15 13:26:41.587118, 1.53958
2022-12-15 13:26:41.620380, 1.52981
2022-12-15 13:26:41.620668, 1.55425
2022-12-15 13:26:41.621275, 1.52003
2022-12-15 13:26:41.653878, 1.54447
2022-12-15 13:26:41.653878, 1.51515
2022-12-15 13:26:41.654831, 1.52492
2022-12-15 13:26:41.687438, 1.51026
2022-12-15 13:26:41.687438, 1.50537
2022-12-15 13:26:41.720913, 1.50048
2022-12-15 13:26:41.721179, 1.50537
2022-12-15 13:26:41.721787, 1.50048
2022-12-15 13:26:41.754492, 1.49071
2022-12-15 13:26:41.754782, 1.49560
2022-12-15 13:26:41.754782, 1.49560
2022-12-15 13:26:41.788106, 1.50048
2022-12-15 13:26:41.788449, 1.49071
2022-12-15 13:26:41.821588, 1.50048
2022-12-15 13:26:41.821868, 1.49071
2022-12-15 13:26:41.821868, 1.52492
2022-12-15 13:26:41.854984, 1.48093
2022-12-15 13:26:41.855803, 1.48093
2022-12-15 13:26:41.855803, 1.48582
2022-12-15 13:26:41.888571, 1.48582
2022-12-15 13:26:41.889326, 1.48093
2022-12-15 13:26:41.922052, 1.48093
2022-12-15 13:26:41.922052, 1.48582
2022-12-15 13:26:41.922929, 1.48093
2022-12-15 13:26:41.955936, 1.47605
2022-12-15 13:26:41.955936, 1.47116
2022-12-15 13:26:41.956940, 1.49560
2022-12-15 13:26:41.988638, 1.51515
2022-12-15 13:26:41.988638, 1.56891
2022-12-15 13:26:42.022351, 1.61779
2022-12-15 13:26:42.022351, 1.70087
2022-12-15 13:26:42.023348, 1.77908
2022-12-15 13:26:42.056244, 1.83284
2022-12-15 13:26:42.056244, 1.88172
2022-12-15 13:26:42.057261, 1.93059
2022-12-15 13:26:42.089850, 1.96480
2022-12-15 13:26:42.089850, 1.93059
2022-12-15 13:26:42.123415, 1.91593
2022-12-15 13:26:42.123415, 1.89638
2022-12-15 13:26:42.124442, 1.87683
2022-12-15 13:26:42.156794, 1.82795
2022-12-15 13:26:42.156794, 1.80351
2022-12-15 13:26:42.157801, 1.77908
2022-12-15 13:26:42.189848, 1.76930
2022-12-15 13:26:42.189848, 1.74486
2022-12-15 13:26:42.223968, 1.73020
2022-12-15 13:26:42.223968, 1.72043
2022-12-15 13:26:42.224985, 1.72043
2022-12-15 13:26:42.256511, 1.70087
2022-12-15 13:26:42.257547, 1.68132
2022-12-15 13:26:42.257547, 1.67155
2022-12-15 13:26:42.290633, 1.66666
2022-12-15 13:26:42.291000, 1.66177
2022-12-15 13:26:42.324028, 1.65200
2022-12-15 13:26:42.324028, 1.69110
2022-12-15 13:26:42.325047, 1.67155
2022-12-15 13:26:42.357925, 1.67155
2022-12-15 13:26:42.358246, 1.68132
2022-12-15 13:26:42.358886, 1.67644
2022-12-15 13:26:42.391443, 1.71065
2022-12-15 13:26:42.391789, 1.68621
2022-12-15 13:26:42.425106, 1.67644
2022-12-15 13:26:42.425344, 1.67155
2022-12-15 13:26:42.425344, 1.66666
2022-12-15 13:26:42.458497, 1.65689
2022-12-15 13:26:42.458834, 1.63245
2022-12-15 13:26:42.459334, 1.61779
2022-12-15 13:26:42.492000, 1.62267
2022-12-15 13:26:42.493002, 1.60801
2022-12-15 13:26:42.525192, 1.60801
2022-12-15 13:26:42.525192, 1.58846
2022-12-15 13:26:42.526190, 1.59824
2022-12-15 13:26:42.558803, 1.58357
2022-12-15 13:26:42.559177, 1.56891
2022-12-15 13:26:42.559629, 1.56891
2022-12-15 13:26:42.592839, 1.56891
2022-12-15 13:26:42.593185, 1.56891
2022-12-15 13:26:42.626365, 1.58846
2022-12-15 13:26:42.626602, 1.55425
2022-12-15 13:26:42.627179, 1.55913
2022-12-15 13:26:42.659970, 1.56402
2022-12-15 13:26:42.660303, 1.54936
2022-12-15 13:26:42.660760, 1.54447
2022-12-15 13:26:42.693444, 1.54936
2022-12-15 13:26:42.693792, 1.55425
2022-12-15 13:26:42.726874, 1.53958
2022-12-15 13:26:42.727143, 1.54447
2022-12-15 13:26:42.727644, 1.53958
2022-12-15 13:26:42.760389, 1.55425
2022-12-15 13:26:42.760389, 1.52981
2022-12-15 13:26:42.761389, 1.53470
2022-12-15 13:26:42.793812, 1.53470
2022-12-15 13:26:42.794844, 1.53958
2022-12-15 13:26:42.827011, 1.53470
2022-12-15 13:26:42.827301, 1.52981
2022-12-15 13:26:42.827768, 1.53470
2022-12-15 13:26:42.861106, 1.53958
2022-12-15 13:26:42.861449, 1.53470
2022-12-15 13:26:42.861449, 1.52981
2022-12-15 13:26:42.894624, 1.56402
2022-12-15 13:26:42.894967, 1.53470
2022-12-15 13:26:42.928209, 1.55425
2022-12-15 13:26:42.928447, 1.52003
2022-12-15 13:26:42.929037, 1.52003
2022-12-15 13:26:42.961660, 1.52981
2022-12-15 13:26:42.961993, 1.52981
2022-12-15 13:26:42.962447, 1.56891
2022-12-15 13:26:42.995099, 1.58846
2022-12-15 13:26:42.995099, 1.66177
2022-12-15 13:26:43.028563, 1.73020
2022-12-15 13:26:43.028563, 1.78396
2022-12-15 13:26:43.029574, 1.85239
2022-12-15 13:26:43.061488, 1.91104
2022-12-15 13:26:43.061488, 1.93059
2022-12-15 13:26:43.062489, 1.94037
2022-12-15 13:26:43.095784, 1.94037
2022-12-15 13:26:43.096127, 1.93548
2022-12-15 13:26:43.129347, 1.91104
2022-12-15 13:26:43.129588, 1.89149
2022-12-15 13:26:43.130172, 1.84750
2022-12-15 13:26:43.162841, 1.82795
2022-12-15 13:26:43.163161, 1.79863
2022-12-15 13:26:43.163806, 1.79374
2022-12-15 13:26:43.196374, 1.75464
2022-12-15 13:26:43.196716, 1.74486
2022-12-15 13:26:43.229936, 1.73020
2022-12-15 13:26:43.230202, 1.70576
2022-12-15 13:26:43.231205, 1.69110
2022-12-15 13:26:43.263388, 1.68621
2022-12-15 13:26:43.263736, 1.67644
2022-12-15 13:26:43.263736, 1.66177
2022-12-15 13:26:43.297288, 1.67155
2022-12-15 13:26:43.297288, 1.68132
2022-12-15 13:26:43.329696, 1.68621
2022-12-15 13:26:43.329696, 1.69110
2022-12-15 13:26:43.330705, 1.69599
2022-12-15 13:26:43.363615, 1.74486
2022-12-15 13:26:43.363987, 1.71065
2022-12-15 13:26:43.364436, 1.70087
2022-12-15 13:26:43.397601, 1.71554
2022-12-15 13:26:43.397987, 1.69599
2022-12-15 13:26:43.431152, 1.69110
2022-12-15 13:26:43.431391, 1.70576
2022-12-15 13:26:43.431976, 1.66177
2022-12-15 13:26:43.464654, 1.64711
2022-12-15 13:26:43.464975, 1.64222
2022-12-15 13:26:43.465657, 1.62267
2022-12-15 13:26:43.498109, 1.61290
2022-12-15 13:26:43.498500, 1.61290
2022-12-15 13:26:43.531708, 1.60801
2022-12-15 13:26:43.531975, 1.59824
2022-12-15 13:26:43.531975, 1.58846
2022-12-15 13:26:43.565099, 1.62267
2022-12-15 13:26:43.565099, 1.59335
2022-12-15 13:26:43.566102, 1.60312
2022-12-15 13:26:43.598590, 1.57869
2022-12-15 13:26:43.598590, 1.59824
2022-12-15 13:26:43.631409, 1.57380
2022-12-15 13:26:43.631409, 1.56891
2022-12-15 13:26:43.632417, 1.56402
2022-12-15 13:26:43.665199, 1.56402
2022-12-15 13:26:43.665552, 1.57869
2022-12-15 13:26:43.666019, 1.55425
2022-12-15 13:26:43.698293, 1.55425
2022-12-15 13:26:43.699259, 1.54936
2022-12-15 13:26:43.732184, 1.55913
2022-12-15 13:26:43.732184, 1.54936
2022-12-15 13:26:43.733146, 1.54447
2022-12-15 13:26:43.766473, 1.54447
2022-12-15 13:26:43.766473, 1.55425
2022-12-15 13:26:43.767478, 1.54447
2022-12-15 13:26:43.799998, 1.54936
2022-12-15 13:26:43.800999, 1.53958
2022-12-15 13:26:43.833431, 1.56402
2022-12-15 13:26:43.833431, 1.53958
2022-12-15 13:26:43.834433, 1.52981
2022-12-15 13:26:43.867015, 1.52981
2022-12-15 13:26:43.868052, 1.53470
2022-12-15 13:26:43.868052, 1.53958
2022-12-15 13:26:43.900562, 1.52492
2022-12-15 13:26:43.900997, 1.55913
2022-12-15 13:26:43.934149, 1.52492
2022-12-15 13:26:43.934419, 1.54936
2022-12-15 13:26:43.935025, 1.51026
2022-12-15 13:26:43.967546, 1.51026
2022-12-15 13:26:43.967869, 1.52492
2022-12-15 13:26:43.967869, 1.54447
2022-12-15 13:26:44.000596, 1.57380
2022-12-15 13:26:44.000596, 1.63245
2022-12-15 13:26:44.034008, 1.74486
2022-12-15 13:26:44.034008, 1.79863
2022-12-15 13:26:44.035009, 1.85728
2022-12-15 13:26:44.067251, 1.92082
2022-12-15 13:26:44.068254, 1.99902
2022-12-15 13:26:44.068621, 2.00391
2022-12-15 13:26:44.100657, 1.99902
2022-12-15 13:26:44.101695, 1.99902
2022-12-15 13:26:44.134028, 1.99413
2022-12-15 13:26:44.135031, 1.97458
2022-12-15 13:26:44.135419, 1.93548
2022-12-15 13:26:44.167476, 1.91104
2022-12-15 13:26:44.168476, 1.88172
2022-12-15 13:26:44.168476, 1.86705
2022-12-15 13:26:44.202086, 1.83284
2022-12-15 13:26:44.202431, 1.81818
2022-12-15 13:26:44.234661, 1.80840
2022-12-15 13:26:44.235658, 1.80351
2022-12-15 13:26:44.235658, 1.78396
2022-12-15 13:26:44.269357, 1.76441
2022-12-15 13:26:44.269694, 1.74975
2022-12-15 13:26:44.270192, 1.75464
2022-12-15 13:26:44.302636, 1.73020
2022-12-15 13:26:44.302636, 1.71554
2022-12-15 13:26:44.335042, 1.72043
2022-12-15 13:26:44.336078, 1.72531
2022-12-15 13:26:44.336078, 1.73509
2022-12-15 13:26:44.369795, 1.72043
2022-12-15 13:26:44.370085, 1.72531
2022-12-15 13:26:44.370671, 1.73998
2022-12-15 13:26:44.403281, 1.73509
2022-12-15 13:26:44.404283, 1.74486
2022-12-15 13:26:44.436983, 1.72531
2022-12-15 13:26:44.437223, 1.72531
2022-12-15 13:26:44.437223, 1.71554
2022-12-15 13:26:44.470518, 1.69110
2022-12-15 13:26:44.470810, 1.68132
2022-12-15 13:26:44.470810, 1.67155
2022-12-15 13:26:44.504055, 1.65689
2022-12-15 13:26:44.504399, 1.64222
2022-12-15 13:26:44.537471, 1.63245
2022-12-15 13:26:44.537712, 1.63734
2022-12-15 13:26:44.538262, 1.62756
2022-12-15 13:26:44.571162, 1.61290
2022-12-15 13:26:44.571453, 1.60801
2022-12-15 13:26:44.572078, 1.61779
2022-12-15 13:26:44.604595, 1.60312
2022-12-15 13:26:44.604941, 1.59335
2022-12-15 13:26:44.638159, 1.58846
2022-12-15 13:26:44.638518, 1.60312
2022-12-15 13:26:44.639070, 1.58846
2022-12-15 13:26:44.671662, 1.59335
2022-12-15 13:26:44.671662, 1.57380
2022-12-15 13:26:44.672666, 1.60801
2022-12-15 13:26:44.705224, 1.57380
2022-12-15 13:26:44.705224, 1.56402
2022-12-15 13:26:44.737800, 1.56402
2022-12-15 13:26:44.738801, 1.56402
2022-12-15 13:26:44.738801, 1.56402
2022-12-15 13:26:44.772153, 1.55425
2022-12-15 13:26:44.772153, 1.54936
2022-12-15 13:26:44.773161, 1.55913
2022-12-15 13:26:44.805482, 1.55913
2022-12-15 13:26:44.805482, 1.56891
2022-12-15 13:26:44.838829, 1.54447
2022-12-15 13:26:44.838829, 1.54936
2022-12-15 13:26:44.839832, 1.54936
2022-12-15 13:26:44.872728, 1.53958
2022-12-15 13:26:44.872728, 1.53470
2022-12-15 13:26:44.873720, 1.53958
2022-12-15 13:26:44.906238, 1.54936
2022-12-15 13:26:44.906238, 1.53470
2022-12-15 13:26:44.939789, 1.56402
2022-12-15 13:26:44.940259, 1.52981
2022-12-15 13:26:44.941262, 1.53958
2022-12-15 13:26:44.973400, 1.52981
2022-12-15 13:26:44.973820, 1.52492
2022-12-15 13:26:44.974350, 1.52492
2022-12-15 13:26:45.006777, 1.53958
2022-12-15 13:26:45.007346, 1.54936
2022-12-15 13:26:45.040482, 1.58357
2022-12-15 13:26:45.040482, 1.64222
2022-12-15 13:26:45.041497, 1.72531
2022-12-15 13:26:45.073790, 1.80351
2022-12-15 13:26:45.073790, 1.86705
2022-12-15 13:26:45.073790, 1.93548
2022-12-15 13:26:45.107357, 1.98924
2022-12-15 13:26:45.107357, 2.05278
2022-12-15 13:26:45.141054, 2.02834
2022-12-15 13:26:45.141339, 2.02346
2022-12-15 13:26:45.141982, 2.01857
2022-12-15 13:26:45.174290, 1.98924
2022-12-15 13:26:45.174629, 1.95503
2022-12-15 13:26:45.175179, 1.92570
2022-12-15 13:26:45.207836, 1.90127
2022-12-15 13:26:45.208229, 1.87194
2022-12-15 13:26:45.241720, 1.86217
2022-12-15 13:26:45.241960, 1.86217
2022-12-15 13:26:45.242555, 1.82306
2022-12-15 13:26:45.275192, 1.80840
2022-12-15 13:26:45.275483, 1.78396
2022-12-15 13:26:45.275483, 1.76930
2022-12-15 13:26:45.308538, 1.75953
2022-12-15 13:26:45.309032, 1.74975
2022-12-15 13:26:45.342280, 1.74486
2022-12-15 13:26:45.342520, 1.72531
2022-12-15 13:26:45.343078, 1.73020
2022-12-15 13:26:45.375726, 1.73509
2022-12-15 13:26:45.376021, 1.73020
2022-12-15 13:26:45.376021, 1.73998
2022-12-15 13:26:45.409258, 1.74486
2022-12-15 13:26:45.409606, 1.78396
2022-12-15 13:26:45.442791, 1.73998
2022-12-15 13:26:45.443030, 1.73998
2022-12-15 13:26:45.443618, 1.74486
2022-12-15 13:26:45.476359, 1.73509
2022-12-15 13:26:45.476649, 1.71554
2022-12-15 13:26:45.477102, 1.69599
2022-12-15 13:26:45.510015, 1.71554
2022-12-15 13:26:45.510359, 1.67155
2022-12-15 13:26:45.543400, 1.65200
2022-12-15 13:26:45.543640, 1.64711
2022-12-15 13:26:45.544101, 1.63245
2022-12-15 13:26:45.576870, 1.63734
2022-12-15 13:26:45.577346, 1.61290
2022-12-15 13:26:45.578346, 1.61290
2022-12-15 13:26:45.609707, 1.60312
2022-12-15 13:26:45.610716, 1.61290
2022-12-15 13:26:45.644107, 1.59335
2022-12-15 13:26:45.644348, 1.58846
2022-12-15 13:26:45.644932, 1.58846
2022-12-15 13:26:45.677593, 1.59335
2022-12-15 13:26:45.677883, 1.58357
2022-12-15 13:26:45.678463, 1.56891
2022-12-15 13:26:45.711270, 1.56891
2022-12-15 13:26:45.711612, 1.56891
2022-12-15 13:26:45.744663, 1.56402
2022-12-15 13:26:45.744901, 1.55913
2022-12-15 13:26:45.745360, 1.55913
2022-12-15 13:26:45.778353, 1.56402
2022-12-15 13:26:45.778645, 1.57869
2022-12-15 13:26:45.779227, 1.54936
2022-12-15 13:26:45.811775, 1.55913
2022-12-15 13:26:45.812151, 1.55425
2022-12-15 13:26:45.845212, 1.57380
2022-12-15 13:26:45.845212, 1.53958
2022-12-15 13:26:45.846214, 1.57380
2022-12-15 13:26:45.878859, 1.54447
2022-12-15 13:26:45.878859, 1.56891
2022-12-15 13:26:45.879869, 1.52981
2022-12-15 13:26:45.911729, 1.54936
2022-12-15 13:26:45.911729, 1.53958
2022-12-15 13:26:45.945865, 1.55425
2022-12-15 13:26:45.946103, 1.52492
2022-12-15 13:26:45.946703, 1.55913
2022-12-15 13:26:45.979414, 1.52981
2022-12-15 13:26:45.979703, 1.52981
2022-12-15 13:26:45.980286, 1.51515
2022-12-15 13:26:46.013002, 1.51515
2022-12-15 13:26:46.013345, 1.52492
2022-12-15 13:26:46.046485, 1.52492
2022-12-15 13:26:46.046722, 1.52492
2022-12-15 13:26:46.047232, 1.54936
2022-12-15 13:26:46.080026, 1.60312
2022-12-15 13:26:46.080348, 1.67644
2022-12-15 13:26:46.081350, 1.74486
2022-12-15 13:26:46.113428, 1.82795
2022-12-15 13:26:46.113428, 1.91104
2022-12-15 13:26:46.145662, 1.97458
2022-12-15 13:26:46.146669, 2.00391
2022-12-15 13:26:46.146669, 2.06256
2022-12-15 13:26:46.180610, 2.04301
2022-12-15 13:26:46.180944, 2.03812
2022-12-15 13:26:46.181528, 2.00391
2022-12-15 13:26:46.213980, 1.98435
2022-12-15 13:26:46.214325, 1.94525
2022-12-15 13:26:46.247592, 1.91104
2022-12-15 13:26:46.248593, 1.87194
2022-12-15 13:26:46.249591, 1.84750
2022-12-15 13:26:46.281312, 1.82795
2022-12-15 13:26:46.281604, 1.81818
2022-12-15 13:26:46.282066, 1.79374
2022-12-15 13:26:46.314728, 1.77908
2022-12-15 13:26:46.315104, 1.76441
2022-12-15 13:26:46.348307, 1.76441
2022-12-15 13:26:46.348573, 1.73998
2022-12-15 13:26:46.348573, 1.75953
2022-12-15 13:26:46.381744, 1.72043
2022-12-15 13:26:46.381744, 1.72531
2022-12-15 13:26:46.382789, 1.73509
2022-12-15 13:26:46.414719, 1.72531
2022-12-15 13:26:46.414719, 1.73509
2022-12-15 13:26:46.448354, 1.75464
2022-12-15 13:26:46.448676, 1.74975
2022-12-15 13:26:46.449137, 1.75464
2022-12-15 13:26:46.482245, 1.74975
2022-12-15 13:26:46.482578, 1.78396
2022-12-15 13:26:46.483167, 1.73998
2022-12-15 13:26:46.515992, 1.72043
2022-12-15 13:26:46.516337, 1.71065
2022-12-15 13:26:46.549481, 1.70087
2022-12-15 13:26:46.549767, 1.71554
2022-12-15 13:26:46.549767, 1.66177
2022-12-15 13:26:46.583034, 1.65200
2022-12-15 13:26:46.583326, 1.67155
2022-12-15 13:26:46.583789, 1.63734
2022-12-15 13:26:46.615774, 1.62756
2022-12-15 13:26:46.616774, 1.62267
2022-12-15 13:26:46.649600, 1.62267
2022-12-15 13:26:46.649600, 1.61290
2022-12-15 13:26:46.649600, 1.60312
2022-12-15 13:26:46.683512, 1.60801
2022-12-15 13:26:46.684544, 1.60801
2022-12-15 13:26:46.684544, 1.60312
2022-12-15 13:26:46.716855, 1.58846
2022-12-15 13:26:46.717011, 1.59335
2022-12-15 13:26:46.750356, 1.59335
2022-12-15 13:26:46.750594, 1.59824
2022-12-15 13:26:46.751195, 1.57869
2022-12-15 13:26:46.784228, 1.57869
2022-12-15 13:26:46.784520, 1.57869
2022-12-15 13:26:46.784520, 1.58846
2022-12-15 13:26:46.817664, 1.57380
2022-12-15 13:26:46.817664, 1.57380
2022-12-15 13:26:46.851254, 1.57380
2022-12-15 13:26:46.851254, 1.57380
2022-12-15 13:26:46.852257, 1.56402
2022-12-15 13:26:46.884702, 1.56402
2022-12-15 13:26:46.885740, 1.56402
2022-12-15 13:26:46.885740, 1.56891
2022-12-15 13:26:46.918368, 1.55913
2022-12-15 13:26:46.918803, 1.56402
2022-12-15 13:26:46.951862, 1.56402
2022-12-15 13:26:46.952240, 1.57380
2022-12-15 13:26:46.952893, 1.56402
2022-12-15 13:26:46.985201, 1.56402
2022-12-15 13:26:46.985201, 1.54936
2022-12-15 13:26:46.986202, 1.55425
2022-12-15 13:26:47.018176, 1.54447
2022-12-15 13:26:47.019182, 1.53958
2022-12-15 13:26:47.051462, 1.54936
2022-12-15 13:26:47.052462, 1.57869
2022-12-15 13:26:47.052742, 1.60312
2022-12-15 13:26:47.085162, 1.66177
2022-12-15 13:26:47.086163, 1.74486
2022-12-15 13:26:47.086163, 1.83284
2022-12-15 13:26:47.118540, 1.89638
2022-12-15 13:26:47.119542, 1.97458
2022-12-15 13:26:47.151832, 2.02346
2022-12-15 13:26:47.152834, 2.05278
2022-12-15 13:26:47.153278, 2.04789
