76.44600617283949
68.43455104463436
60.687937408270734
61.979878603852285
60.52325039872408
59.263638425331614
58.72698592870543
58.72698592870543
57.82475223613595
55.927748062015496
56.62908756818833
57.77080304335342
57.98840058097312
57.28706107480028
56.58572156862745
57.755308333333325
58.702116666666655
59.90060822784809
58.73102146314221
58.731021463142206
59.52581060371516
63.865147006102205
63.619678178941705
61.40361904581478
57.51520766114566
57.275725878550055
58.69699587110404
58.930707008335894
58.69699587110404
57.72665089626799
58.72142137781896
59.44008312480691
59.44008312480691
58.44531264325594
58.69699587110404
59.1701887909315
59.1701887909315
58.199843816095445
58.69699587110404
59.18194648086014
59.655139400687595
59.157987345679
59.157987345679
61.0155892809476
64.43080774578925
64.94062761758414
62.843543899719926
61.58038090587438
62.682694142187614
63.16764475194371
60.54239636112015
58.44531264325594
58.95513251505081
59.188843652282664
58.95513251505081
59.21997400689231
61.030456283315075
63.07464969696969
61.81503772357723
62.10163916501867
60.530638671191504
59.846002516241725
57.988400580973114
59.008530771769976
61.224589904896916
61.721741959905515
60.2284188492812
59.433629708708246
61.39116592530459
63.156300040713596
63.414436684660366
61.45690046806402
62.93080521231902
63.74651700719082
62.776172032354765
59.53713317269076
59.8237346141322
61.317057724756516
61.79025064458397
60.17811753647586
61.92383328551555
65.3390517503572
67.24563839419282
67.24563839419281
67.93377942815346
68.5475698969939
65.54224217456175
60.0845719052188
57.81587802039085
58.81064850194182
60.410428099642964
60.668564743589734
62.67912198447092
66.18788227858856
66.72453477521475
64.71397753433357
61.205217240215916
60.668564743589734
62.36796431623931
63.98009742434742
63.22480872539205
60.530638671191504
60.530638671191504
62.682694142187614
63.94230611558008
63.10483437110834
62.24472009569378
63.99043584473347
64.54130614776378
63.009883169586615
60.48950605691056
59.41565761809199
61.807194871683706
64.97694450936487
65.77173364993781
63.3801963963461
61.53597842533161
60.48950605691056
60.48950605691056
59.16397439024389
59.67379426203876
59.67379426203876
58.72698592870543
57.73221544715446
58.46884928475866
58.930707008335894
59.41565761809199
59.67379426203876
59.67379426203876
74.3699062185605
74.3699062185605
73.90804849498326
58.72698592870543
58.991827420546926
59.938635753880256
60.17811753647586
59.40345617283949
59.913276044634365
59.67379426203876
59.188843652282664
58.433554953327295
59.42832543487827
59.913276044634365
60.93340623543123
61.74911803030302
64.58954303030302
68.03248242424242
68.9161702020202
66.32742842986829
62.10982767229254
60.67526959148446
59.938635753880256
58.991827420546926
57.73221544715446
58.72698592870543
59.42832543487827
58.966467711301036
58.45664783950616
59.21193653846153
59.913276044634365
59.66780721747387
58.43932559869105
58.68479442585154
58.930263253012036
59.16397439024389
58.67902378048779
58.433554953327295
59.42832543487827
59.66780721747387
59.66780721747387
58.9125185185185
59.66780721747387
59.913276044634365
60.15874487179486
59.40345617283949
60.17811753647586
62.38733698092031
63.14262567987568
60.98078001391373
58.526091742308786
59.06274423893497
60.70161176910865
60.947080596269146
60.410428099642964
61.48427653846153
62.530748906882586
61.77546020792722
59.96497793150445
59.42832543487827
60.99932592870543
61.735959766309634
61.477823122362864
60.66211132749107
61.45690046806402
61.205217240215916
60.69539736842104
59.90060822784809
60.67526959148446
60.67526959148446
60.17811753647586
59.40345617283949
60.17811753647586
61.19824772727272
61.44993095512083
60.429800764323964
59.655139400687595
60.72898783950616
61.74911803030302
63.07464969696969
62.00080125815113
62.55167156118143
63.43535933895921
64.50920777777777
63.183676111111104
60.48950605691056
59.41565761809199
59.41565761809199
59.41565761809199
58.44531264325594
58.44531264325594
58.930263253012036
59.16397439024389
58.67902378048779
58.433554953327295
59.1701887909315
59.655139400687595
59.655139400687595
58.91850556308339
59.42832543487827
59.188843652282664
58.72698592870543
57.49850430992261
57.49850430992261
58.69699587110404
59.1701887909315
59.4096705735271
58.6730367359229
59.42832543487827
59.67379426203876
60.15874487179486
59.40345617283949
59.40345617283949
60.72898783950616
60.974456666666654
60.72898783950616
59.40345617283949
59.157987345679
60.17811753647586
59.932648709315366
59.932648709315366
59.157987345679
60.72898783950616
60.974456666666654
60.974456666666654
59.648924999999984
60.69539736842104
60.69539736842104
60.44992854126055
59.655139400687595
60.429800764323964
61.18508946327933
62.54553934353934
64.29125509257904
67.63932589242594
68.5475698969939
67.0736651527389
66.05619948109711
68.1242012145749
69.5981059588299
66.5122121316694
61.2051715385276
59.19461429764642
59.691766352655016
59.925477489886866
59.41565761809199
59.41565761809199
60.947080596269146
61.19876382411725
60.70161176910865
59.655139400687595
59.913276044634365
60.410428099642964
60.16495927248247
58.93647765369965
58.199843816095445
58.95513251505081
59.67379426203876
59.44008312480691
58.68479442585154
58.93647765369965
59.655139400687595
59.41565761809199
59.16397439024389
59.67379426203876
60.15874487179486
60.410428099642964
60.152291455696194
61.764424563804305
62.022561207751075
61.525409152742476
59.42832543487827
57.97169722975006
58.21716605691056
58.21716605691056
57.77679008791831
56.60720332321243
56.14534559963519
57.04757929220468
57.047579292204674
56.82480086083213
56.362943137254895
57.53252990196078
58.21716605691056
58.44531264325594
57.96036203349984
57.96036203349984
58.67902378048779
59.41565761809199
59.41565761809199
59.1701887909315
58.433554953327295
58.6730367359229
58.199843816095445
57.29761012352596
56.59627061735313
56.368124031007746
57.50983950617283
57.50983950617283
57.50983950617283
57.03664658634538
57.73798609251821
58.68479442585154
58.68479442585154
58.44531264325594
57.96036203349984
59.725496148908846
59.96497793150445
60.44992854126055
59.655139400687595
61.22613989451476
63.74651700719082
67.35272445098451
70.61557163047169
72.31279527537139
72.31279527537139
65.1309849074784
59.96657581656932
57.155157513348584
59.263638425331614
59.04085999395906
57.275725878550055
57.275725878550055
58.69699587110404
58.930707008335894
58.930707008335894
58.19407317073169
59.188843652282664
59.42832543487827
59.66780721747387
58.9125185185185
58.6730367359229
59.42832543487827
59.188843652282664
58.72698592870543
57.73221544715446
58.21716605691056
58.67902378048779
58.67902378048779
57.73221544715446
57.49850430992261
57.73798609251821
58.93647765369965
59.1701887909315
58.69699587110404
57.49850430992261
58.49327479147358
58.72698592870543
58.95513251505081
57.72665089626799
58.98626286966046
59.21997400689231
59.45368514412416
58.433554953327295
59.1701887909315
60.70161176910865
61.9935529646902
60.79506140350877
59.50312020792722
59.50312020792722
59.96497793150445
59.96497793150445
59.42832543487827
59.42832543487827
58.72698592870543
57.49850430992261
58.49327479147358
58.95513251505081
58.95513251505081
57.96036203349984
58.95513251505081
60.72026663045982
61.45690046806402
61.19876382411725
60.66211132749107
61.18508946327933
62.54553934353934
62.035719471744464
61.0155892809476
60.17811753647586
59.23130920314253
57.87699843260188
55.71515276663993
56.41649227281277
56.62908756818833
56.41649227281277
55.27477679764768
56.177010490217164
57.05812834093036
57.49850430992261
56.81386815497282
56.58572156862745
56.81386815497283
57.98345491967871
57.98345491967871
57.98345491967871
57.49850430992261
57.72665089626799
57.49850430992261
56.81386815497282
57.04757929220468
57.74891879837751
57.97169722975006
57.50983950617283
56.368124031007746
57.06946353718058
57.531321260757814
57.97169722975006
56.82998175458498
57.314932364341075
57.314932364341075
57.53252990196077
56.3629431372549
56.14016470588234
57.56143469843633
57.784213129808876
57.784213129808876
56.3629431372549
57.06428264342773
57.988400580973114
58.6730367359229
58.433554953327295
58.930707008335894
61.0277907262001
66.10112018211005
70.06703771183771
67.28531783902372
61.097159395168724
56.634089810432464
57.80367657513835
58.68479442585154
58.21160150602409
57.72665089626799
57.05812834093036
56.38960578559273
56.62908756818833
56.846685105808035
57.06428264342773
56.14016470588234
56.14016470588234
57.309751470588225
57.53252990196077
57.98345491967871
57.49850430992261
57.96036203349984
58.433554953327295
58.199843816095445
57.966132678863595
57.72665089626799
58.69699587110404
58.930707008335894
58.930707008335894
57.96036203349984
57.72665089626799
58.21160150602409
58.930263253012036
59.16397439024389
58.67902378048779
58.67902378048779
59.41565761809199
59.41565761809199
58.246070853386115
57.509437015781906
58.24607085338611
59.1701887909315
59.1701887909315
58.433554953327295
58.930707008335894
58.69699587110404
58.012359716154265
57.042014741318205
57.76067648830615
57.98345491967871
57.53252990196077
56.58572156862745
57.53252990196078
57.755308333333325
57.98345491967871
58.49327479147358
58.95513251505081
59.188843652282664
58.67902378048779
60.21044675866494
61.205217240215916
60.258408906882586
59.21193653846153
58.95379989451476
58.73102146314221
57.56143469843633
57.06428264342773
57.06428264342773
56.634089810432464
56.39460802783686
57.079244182786645
57.50943701578191
56.39460802783686
56.39460802783686
57.56419479254274
58.21716605691056
57.98345491967871
57.73798609251821
58.68479442585154
58.68479442585154
57.98345491967871
57.73798609251821
58.45664783950616
58.68479442585154
57.98345491967871
57.73798609251821
58.708331067354266
58.93647765369965
58.46328473387219
57.49293975903614
58.21160150602409
58.44531264325594
58.91850556308339
59.1701887909315
59.4096705735271
58.708331067354266
57.50983950617283
57.755308333333325
59.74858903508771
62.60198401225666
62.11703340250056
60.585610424323406
59.725496148908846
60.72026663045982
60.95974841305542
59.42832543487827
59.1701887909315
60.46212998651305
60.947080596269146
60.44992854126055
60.72898783950616
60.72898783950616
60.027648333333325
57.314932364341075
56.82998175458498
55.969246906100125
54.76299968668658
65.95416760413498
83.22624689706427
84.21989882110225
71.70613833159177
54.641822622779515
54.641822622779515
55.9644151948416
56.39460802783687
56.39460802783686
55.93275030425963
56.61738645920941
57.27035772357723
56.82998175458498
56.368124031007746
57.314932364341075
58.45664783950616
58.68479442585154
57.966132678863595
58.46328473387219
58.46328473387219
58.46328473387219
58.46328473387219
58.69699587110404
58.46884928475866
57.73221544715446
58.46884928475866
59.41565761809199
59.41565761809199
58.91850556308339
59.42832543487827
60.42309591642924
60.92024797143784
60.410428099642964
60.67526959148446
60.42358636363635
59.476778030303024
58.95379989451476
58.23513814752681
58.23513814752681
56.81386815497282
57.04757929220468
57.994387625538
58.67902378048779
57.99438762553801
57.275725878550055
57.51520766114566
57.73798609251821
58.45664783950616
58.702116666666655
59.16397439024389
58.91850556308339
60.24403722975006
60.72898783950616
61.48427653846153
60.410428099642964
59.925477489886866
59.41565761809199
59.938635753880256
59.704924616648405
58.53533785194253
57.275725878550055
58.50420749733288
58.95513251505081
58.72142137781896
58.72142137781896
61.64930256925136
64.57718376068377
63.58241327913279
62.147855198324706
59.45368514412416
58.76904898917438
57.047579292204674
57.78421312980888
57.56661559218918
56.913644327821366
55.06218150227212
55.9644151948416
56.177010490217164
56.177010490217164
55.06218150227212
55.73070405760975
55.94329935298531
56.37349218598058
55.70496963064294
56.84668510580803
57.29761012352596
57.966132678863595
57.72665089626799
58.69699587110404
58.930707008335894
58.69699587110404
57.72665089626799
57.72665089626799
58.95513251505081
59.42832543487827
59.19461429764642
58.68479442585154
59.18194648086014
60.410428099642964
60.66211132749107
60.410428099642964
60.67526959148446
61.19824772727272
60.713297117516625
59.21997400689231
57.72665089626799
58.46328473387219
58.69699587110404
58.46884928475866
58.46884928475866
58.46884928475866
58.930707008335894
58.19407317073169
58.930707008335894
60.74118928475866
63.74651700719082
63.49483377934271
62.94396347631241
62.035719471744464
62.035719471744464
60.54239636112015
58.68479442585154
59.19461429764642
59.42832543487827
58.95513251505081
58.44531264325594
59.704924616648405
60.17811753647586
59.69316692671976
58.6730367359229
59.69316692671976
59.932648709315366
59.45945578948791
58.43932559869105
59.7312667942726
61.224589904896916
61.224589904896916
60.687937408270734
60.16495927248247
59.24084133493709
57.56143469843633
56.362943137254895
57.04757929220468
56.61738645920941
55.9644151948416
55.06218150227212
55.94329935298531
56.37349218598058
55.95313330648797
55.284610751150346
55.28461075115034
56.373492185980574
56.59108972360028
56.373492185980574
55.70496963064294
56.15589464836088
57.54307895068646
58.21160150602409
58.21160150602409
57.72665089626799
58.69699587110404
59.41565761809199
59.41565761809199
58.91850556308339
59.42832543487827
59.913276044634365
59.913276044634365
58.91850556308339
58.433554953327295
58.67902378048779
59.938635753880256
60.67526959148446
60.67526959148446
59.90060822784809
60.974456666666654
60.974456666666654
60.255794919678706
57.76067648830616
56.59108972360028
57.309751470588225
57.76067648830615
57.98345491967871
57.98345491967871
59.74858903508771
61.205217240215916
60.72026663045982
59.42832543487827
58.91850556308339
58.233869408133614
57.309751470588225
57.06428264342773
57.06428264342773
56.84668510580803
55.49237433526738
55.94329935298531
57.0850148281504
57.29761012352596
57.06946353718058
56.14534559963519
57.78421312980888
58.24607085338611
58.930707008335894
58.19407317073169
58.433554953327295
59.69316692671976
59.69316692671976
58.76904898917438
57.047579292204674
56.81386815497283
57.98345491967871
57.76067648830616
57.09215393296852
55.922567168262646
56.607203323212424
57.047579292204674
56.82998175458498
55.50738918252289
55.28461075115034
54.86425187165774
53.53237794821277
60.89502249980389
81.61563946210987
81.97571597597519
74.8358498557566
58.13199551971326
63.120555555555555
65.9739505327245
66.2851082009561
68.29348951408741
67.71243453691847
64.70710681448631
60.74118928475866
60.46212998651305
59.55989629394357
57.29757514474715
56.0056339491656
58.16747961512755
59.932648709315366
60.429800764323964
59.9068226285357
61.19876382411725
61.45690046806402
61.45690046806402
60.92024797143784
61.735959766309634
62.2589379020979
62.00080125815113
61.44993095512083
62.28740269959257
62.54553934353934
62.280697851697845
61.994096410256404
63.390863182297146
63.92751567892333
63.37664537589303
62.51653110047847
63.08219184016552
63.35400284495021
62.81735034832403
61.979878603852285
61.4432261072261
62.2589379020979
62.2589379020979
62.2589379020979
61.4432261072261
61.71503711201079
62.81735034832403
62.81735034832403
62.022561207751075
60.66211132749107
60.92695281933256
62.28740269959257
62.54553934353934
62.280697851697845
61.71503711201079
63.725594352891974
67.43337523867285
68.59612231469626
65.35708345503224
61.13948269745649
59.704924616648405
60.17811753647586
59.45945578948791
58.43932559869105
58.93647765369965
59.1701887909315
58.69699587110404
57.96036203349984
58.95513251505081
59.925477489886866
60.92024797143784
60.66211132749107
61.45690046806402
64.80497126791094
67.72303767774399
69.51699030932295
67.27123274578926
66.00806975194371
66.33739438962488
62.321824743055224
59.028053796894035
55.85830415921287
59.30821306609546
60.44992854126055
59.96497793150445
59.42832543487827
63.53168493368055
66.53701265611272
75.6004770435771
77.51506298483854
80.3599330943847
80.9157115709745
80.9157115709745
82.17812268208561
77.41430716845878
75.8594313131313
73.44937373737372
74.27718430203674
73.91747421610279
72.22025057120308
69.53595307843548
69.89566316436945
70.21571105169339
68.61353740141136
67.23636164383561
67.90469693795325
67.90469693795325
66.97085858178886
65.36868493150683
66.63184792535237
66.33739438962488
65.20546910942562
62.28740269959257
61.721741959905515
64.4558408903868
69.17490141253869
70.96885404411763
68.50656611842105
64.3104837320574
63.08219184016552
63.361251138411134
63.361251138411134
62.2589379020979
61.18508946327933
61.45690046806402
61.19876382411725
60.70161176910865
59.1701887909315
58.6730367359229
59.42832543487827
59.913276044634365
59.913276044634365
59.40345617283949
59.157987345679
60.17811753647586
60.429800764323964
60.429800764323964
59.9068226285357
59.9068226285357
60.92695281933256
61.18508946327933
60.93340623543123
60.93340623543123
61.74911803030302
62.52377939393939
62.2589379020979
61.4432261072261
61.71503711201079
62.530748906882586
62.272612262935816
61.22613989451476
60.67526959148446
61.74911803030302
61.50364920314253
60.24403722975006
58.6730367359229
59.42832543487827
59.913276044634365
59.67379426203876
58.91850556308339
59.1701887909315
60.16495927248247
60.410428099642964
59.913276044634365
59.157987345679
59.66780721747387
60.42309591642924
60.668564743589734
59.913276044634365
59.40345617283949
59.913276044634365
60.15874487179486
59.913276044634365
59.157987345679
60.204459714100054
60.204459714100054
59.96497793150445
58.433554953327295
58.19407317073169
58.930707008335894
58.46884928475866
58.00699156118143
57.03664658634538
58.23513814752681
58.69699587110404
59.1701887909315
58.6730367359229
59.66780721747387
61.81986268846998
61.81986268846998
60.82509220691901
58.91850556308339
59.67379426203876
59.67379426203876
58.95513251505081
57.72665089626799
58.21160150602409
58.44531264325594
58.44531264325594
57.72665089626799
58.21160150602409
58.68479442585154
58.91850556308339
58.6730367359229
58.433554953327295
59.42832543487827
59.67379426203876
59.67379426203876
58.67902378048779
59.188843652282664
59.188843652282664
58.95513251505081
57.96036203349984
58.44531264325594
59.67379426203876
59.67379426203876
58.72698592870543
58.21716605691056
58.21716605691056
57.99438762553801
57.047579292204674
57.78421312980888
58.00699156118143
58.00699156118143
57.755308333333325
57.98345491967871
58.44531264325594
58.69699587110404
59.667340845940096
59.667340845940096
59.41565761809199
59.41565761809199
60.410428099642964
60.66211132749107
60.410428099642964
60.67526959148446
60.93340623543123
60.44845562567513
58.504207497332885
56.39460802783686
56.634089810432464
56.41649227281277
56.20872868869573
54.64665433403804
54.64665433403804
56.20872868869573
56.846685105808035
57.28706107480028
56.1453455996352
56.59627061735313
57.29761012352596
57.73798609251821
57.06946353718058
56.14534559963519
56.373492185980574
56.59108972360028
56.373492185980574
55.08151601162021
55.08151601162021
67.1749176216381
86.29416193833525
95.98502370304112
102.38741279069765
82.68537487360969
74.1640998736097
57.56531335005573
58.77156056946928
55.99221997807143
54.99744949652046
55.215047034140156
56.39460802783686
55.072015455774775
55.29479388714733
56.175911737860524
56.175911737860524
55.735535768868274
56.20872868869573
56.846685105808035
57.06428264342773
57.309751470588225
57.53252990196077
57.755308333333325
57.755308333333325
58.702116666666655
58.930263253012036
58.44531264325594
57.96036203349984
57.73221544715446
57.047579292204674
57.53252990196078
57.53252990196077
57.314932364341075
55.927748062015496
56.62908756818833
56.846685105808035
57.06428264342773
56.362943137254895
57.04757929220468
57.97169722975006
57.97169722975006
58.21117901234567
57.97169722975006
57.97169722975006
57.27035772357723
57.755308333333325
60.027648333333325
63.81488166666666
68.03248242424242
71.2953296037296
67.96995399397349
61.543133791953295
56.469804336043346
56.70928611863895
58.199843816095445
57.29761012352596
56.82441720369851
57.54307895068646
57.98345491967871
57.98345491967871
57.49850430992261
59.21997400689231
62.459012866556314
65.78438847631242
66.62186022078416
65.42701477477476
64.79580921921922
67.0415667827529
68.23641222876228
66.8018541479542
63.19564670416052
62.28740269959257
62.83827300262287
62.586589774774765
60.255794919678706
58.68479442585154
60.01032609251821
62.05451950617283
62.299988333333324
60.72898783950616
59.913276044634365
60.687937408270734
60.687937408270734
59.69316692671976
58.91850556308339
59.67379426203876
59.913276044634365
59.42832543487827
58.433554953327295
57.96036203349984
58.69699587110404
58.23513814752681
57.56661559218918
56.14534559963519
57.09215393296852
57.309751470588225
57.53252990196077
56.81386815497283
57.98345491967871
59.18194648086014
59.41565761809199
58.246070853386115
57.047579292204674
57.287061074800285
57.28706107480028
56.426326226315425
55.284610751150346
54.44355959450791
54.86391847400051
54.65132317862495
54.85441791815508
55.072015455774775
54.66115713212761
55.521891980612466
55.0916991476172
55.71515276663993
55.71515276663993
57.314932364341075
58.21716605691056
60.21044675866494
61.256919127086
61.9935529646902
59.13953741445096
57.14625671269658
56.64910465768798
58.708331067354266
58.48555263598172
57.784213129808876
57.04757929220468
58.46884928475866
58.930707008335894
59.667340845940096
59.925477489886866
61.45690046806402
64.04564224021593
65.14795547652915
63.38282136112015
58.942616763419004
57.0850148281504
58.578337938774716
60.95277890011223
