2022-12-15 13:26:06.411840
2022-12-15 13:26:06.412845
2022-12-15 13:26:06.412845
2022-12-15 13:26:06.446274
2022-12-15 13:26:06.446274
2022-12-15 13:26:06.447275
2022-12-15 13:26:06.479782
2022-12-15 13:26:06.480184
2022-12-15 13:26:06.513203
2022-12-15 13:26:06.513738
2022-12-15 13:26:06.513738
2022-12-15 13:26:06.546562
2022-12-15 13:26:06.547051
2022-12-15 13:26:06.547051
2022-12-15 13:26:06.580254
2022-12-15 13:26:06.580254
2022-12-15 13:26:06.613916
2022-12-15 13:26:06.613916
2022-12-15 13:26:06.614922
2022-12-15 13:26:06.647097
2022-12-15 13:26:06.647097
2022-12-15 13:26:06.648106
2022-12-15 13:26:06.679760
2022-12-15 13:26:06.680772
2022-12-15 13:26:06.714261
2022-12-15 13:26:06.714538
2022-12-15 13:26:06.715192
2022-12-15 13:26:06.748045
2022-12-15 13:26:06.748336
2022-12-15 13:26:06.748336
2022-12-15 13:26:06.781118
2022-12-15 13:26:06.781530
2022-12-15 13:26:06.814623
2022-12-15 13:26:06.814623
2022-12-15 13:26:06.815621
2022-12-15 13:26:06.847780
2022-12-15 13:26:06.847780
2022-12-15 13:26:06.848785
2022-12-15 13:26:06.881688
2022-12-15 13:26:06.881688
2022-12-15 13:26:06.915408
2022-12-15 13:26:06.915625
2022-12-15 13:26:06.915625
2022-12-15 13:26:06.948904
2022-12-15 13:26:06.948904
2022-12-15 13:26:06.949855
2022-12-15 13:26:06.982280
2022-12-15 13:26:06.982596
2022-12-15 13:26:07.016298
2022-12-15 13:26:07.016537
2022-12-15 13:26:07.016537
2022-12-15 13:26:07.049784
2022-12-15 13:26:07.050078
2022-12-15 13:26:07.050660
2022-12-15 13:26:07.083277
2022-12-15 13:26:07.083623
2022-12-15 13:26:07.116829
2022-12-15 13:26:07.116829
2022-12-15 13:26:07.117580
2022-12-15 13:26:07.150366
2022-12-15 13:26:07.150661
2022-12-15 13:26:07.150661
2022-12-15 13:26:07.183892
2022-12-15 13:26:07.183892
2022-12-15 13:26:07.216688
2022-12-15 13:26:07.217158
2022-12-15 13:26:07.217607
2022-12-15 13:26:07.250939
2022-12-15 13:26:07.251233
2022-12-15 13:26:07.251233
2022-12-15 13:26:07.284154
2022-12-15 13:26:07.284154
2022-12-15 13:26:07.317434
2022-12-15 13:26:07.317434
2022-12-15 13:26:07.318085
2022-12-15 13:26:07.351577
2022-12-15 13:26:07.351874
2022-12-15 13:26:07.352330
2022-12-15 13:26:07.385091
2022-12-15 13:26:07.386093
2022-12-15 13:26:07.417866
2022-12-15 13:26:07.417866
2022-12-15 13:26:07.418867
2022-12-15 13:26:07.451282
2022-12-15 13:26:07.452288
2022-12-15 13:26:07.452393
2022-12-15 13:26:07.484986
2022-12-15 13:26:07.485981
2022-12-15 13:26:07.519231
2022-12-15 13:26:07.519471
2022-12-15 13:26:07.520473
2022-12-15 13:26:07.552858
2022-12-15 13:26:07.552858
2022-12-15 13:26:07.553858
2022-12-15 13:26:07.585572
2022-12-15 13:26:07.586199
2022-12-15 13:26:07.619633
2022-12-15 13:26:07.619633
2022-12-15 13:26:07.620634
2022-12-15 13:26:07.653221
2022-12-15 13:26:07.654226
2022-12-15 13:26:07.655219
2022-12-15 13:26:07.686335
2022-12-15 13:26:07.687330
2022-12-15 13:26:07.720024
2022-12-15 13:26:07.720024
2022-12-15 13:26:07.721063
2022-12-15 13:26:07.753420
2022-12-15 13:26:07.754421
2022-12-15 13:26:07.754421
2022-12-15 13:26:07.786939
2022-12-15 13:26:07.786939
2022-12-15 13:26:07.820133
2022-12-15 13:26:07.821168
2022-12-15 13:26:07.821168
2022-12-15 13:26:07.853490
2022-12-15 13:26:07.854495
2022-12-15 13:26:07.854855
2022-12-15 13:26:07.887952
2022-12-15 13:26:07.888300
2022-12-15 13:26:07.921372
2022-12-15 13:26:07.921372
2022-12-15 13:26:07.922375
2022-12-15 13:26:07.953816
2022-12-15 13:26:07.954816
2022-12-15 13:26:07.954816
2022-12-15 13:26:07.988327
2022-12-15 13:26:07.988758
2022-12-15 13:26:08.021847
2022-12-15 13:26:08.022169
2022-12-15 13:26:08.022636
2022-12-15 13:26:08.055172
2022-12-15 13:26:08.055546
2022-12-15 13:26:08.055995
2022-12-15 13:26:08.089162
2022-12-15 13:26:08.089509
2022-12-15 13:26:08.122755
2022-12-15 13:26:08.122995
2022-12-15 13:26:08.123584
2022-12-15 13:26:08.156272
2022-12-15 13:26:08.156272
2022-12-15 13:26:08.157273
2022-12-15 13:26:08.189388
2022-12-15 13:26:08.189708
2022-12-15 13:26:08.223015
2022-12-15 13:26:08.223015
2022-12-15 13:26:08.224015
2022-12-15 13:26:08.256403
2022-12-15 13:26:08.257407
2022-12-15 13:26:08.257536
2022-12-15 13:26:08.290380
2022-12-15 13:26:08.290758
2022-12-15 13:26:08.323770
2022-12-15 13:26:08.323770
2022-12-15 13:26:08.324783
2022-12-15 13:26:08.357522
2022-12-15 13:26:08.357822
2022-12-15 13:26:08.357822
2022-12-15 13:26:08.391129
2022-12-15 13:26:08.391129
2022-12-15 13:26:08.424302
2022-12-15 13:26:08.425140
2022-12-15 13:26:08.425140
2022-12-15 13:26:08.457693
2022-12-15 13:26:08.458070
2022-12-15 13:26:08.458526
2022-12-15 13:26:08.491585
2022-12-15 13:26:08.491585
2022-12-15 13:26:08.524458
2022-12-15 13:26:08.524931
2022-12-15 13:26:08.525498
2022-12-15 13:26:08.558666
2022-12-15 13:26:08.558959
2022-12-15 13:26:08.559422
2022-12-15 13:26:08.592294
2022-12-15 13:26:08.592638
2022-12-15 13:26:08.625687
2022-12-15 13:26:08.626695
2022-12-15 13:26:08.626695
2022-12-15 13:26:08.658334
2022-12-15 13:26:08.659329
2022-12-15 13:26:08.660094
2022-12-15 13:26:08.692937
2022-12-15 13:26:08.693282
2022-12-15 13:26:08.726364
2022-12-15 13:26:08.726605
2022-12-15 13:26:08.727149
2022-12-15 13:26:08.759986
2022-12-15 13:26:08.760279
2022-12-15 13:26:08.760279
2022-12-15 13:26:08.793381
2022-12-15 13:26:08.793732
2022-12-15 13:26:08.827066
2022-12-15 13:26:08.827305
2022-12-15 13:26:08.827305
2022-12-15 13:26:08.860485
2022-12-15 13:26:08.860778
2022-12-15 13:26:08.860778
2022-12-15 13:26:08.894204
2022-12-15 13:26:08.894204
2022-12-15 13:26:08.927004
2022-12-15 13:26:08.927004
2022-12-15 13:26:08.927004
2022-12-15 13:26:08.961048
2022-12-15 13:26:08.961343
2022-12-15 13:26:08.961969
2022-12-15 13:26:08.994593
2022-12-15 13:26:08.994936
2022-12-15 13:26:09.028177
2022-12-15 13:26:09.028417
2022-12-15 13:26:09.028417
2022-12-15 13:26:09.061639
2022-12-15 13:26:09.061639
2022-12-15 13:26:09.062440
2022-12-15 13:26:09.094914
2022-12-15 13:26:09.094914
2022-12-15 13:26:09.128822
2022-12-15 13:26:09.129089
2022-12-15 13:26:09.129593
2022-12-15 13:26:09.162410
2022-12-15 13:26:09.162410
2022-12-15 13:26:09.163410
2022-12-15 13:26:09.195298
2022-12-15 13:26:09.195298
2022-12-15 13:26:09.228601
2022-12-15 13:26:09.228601
2022-12-15 13:26:09.229599
2022-12-15 13:26:09.262787
2022-12-15 13:26:09.263109
2022-12-15 13:26:09.263109
2022-12-15 13:26:09.295724
2022-12-15 13:26:09.295724
2022-12-15 13:26:09.329965
2022-12-15 13:26:09.330203
2022-12-15 13:26:09.330203
2022-12-15 13:26:09.363431
2022-12-15 13:26:09.363431
2022-12-15 13:26:09.364215
2022-12-15 13:26:09.397083
2022-12-15 13:26:09.397861
2022-12-15 13:26:09.430495
2022-12-15 13:26:09.430495
2022-12-15 13:26:09.431330
2022-12-15 13:26:09.464135
2022-12-15 13:26:09.464947
2022-12-15 13:26:09.464947
2022-12-15 13:26:09.497140
2022-12-15 13:26:09.498170
2022-12-15 13:26:09.529921
2022-12-15 13:26:09.530920
2022-12-15 13:26:09.530920
2022-12-15 13:26:09.564362
2022-12-15 13:26:09.564362
2022-12-15 13:26:09.565414
2022-12-15 13:26:09.598040
2022-12-15 13:26:09.599049
2022-12-15 13:26:09.631667
2022-12-15 13:26:09.631667
2022-12-15 13:26:09.632685
2022-12-15 13:26:09.664858
2022-12-15 13:26:09.664858
2022-12-15 13:26:09.665865
2022-12-15 13:26:09.698020
2022-12-15 13:26:09.698970
2022-12-15 13:26:09.731849
2022-12-15 13:26:09.732121
2022-12-15 13:26:09.732121
2022-12-15 13:26:09.765717
2022-12-15 13:26:09.766710
2022-12-15 13:26:09.766710
2022-12-15 13:26:09.798580
2022-12-15 13:26:09.798580
2022-12-15 13:26:09.831524
2022-12-15 13:26:09.832521
2022-12-15 13:26:09.832521
2022-12-15 13:26:09.866399
2022-12-15 13:26:09.866694
2022-12-15 13:26:09.866694
2022-12-15 13:26:09.899895
2022-12-15 13:26:09.900243
2022-12-15 13:26:09.933444
2022-12-15 13:26:09.933712
2022-12-15 13:26:09.934309
2022-12-15 13:26:09.967021
2022-12-15 13:26:09.967312
2022-12-15 13:26:09.967894
2022-12-15 13:26:10.000458
2022-12-15 13:26:10.000801
2022-12-15 13:26:10.033966
2022-12-15 13:26:10.034205
2022-12-15 13:26:10.034795
2022-12-15 13:26:10.067407
2022-12-15 13:26:10.067407
2022-12-15 13:26:10.068378
2022-12-15 13:26:10.101009
2022-12-15 13:26:10.101355
2022-12-15 13:26:10.134538
2022-12-15 13:26:10.134780
2022-12-15 13:26:10.135324
2022-12-15 13:26:10.168269
2022-12-15 13:26:10.168567
2022-12-15 13:26:10.169112
2022-12-15 13:26:10.201646
2022-12-15 13:26:10.201993
2022-12-15 13:26:10.235294
2022-12-15 13:26:10.235535
2022-12-15 13:26:10.235535
2022-12-15 13:26:10.268878
2022-12-15 13:26:10.269169
2022-12-15 13:26:10.269628
2022-12-15 13:26:10.302279
2022-12-15 13:26:10.302683
2022-12-15 13:26:10.335882
2022-12-15 13:26:10.336150
2022-12-15 13:26:10.336150
2022-12-15 13:26:10.369250
2022-12-15 13:26:10.369887
2022-12-15 13:26:10.370900
2022-12-15 13:26:10.402351
2022-12-15 13:26:10.402351
2022-12-15 13:26:10.436435
2022-12-15 13:26:10.436674
2022-12-15 13:26:10.437241
2022-12-15 13:26:10.470076
2022-12-15 13:26:10.470426
2022-12-15 13:26:10.471458
2022-12-15 13:26:10.503486
2022-12-15 13:26:10.503486
2022-12-15 13:26:10.537038
2022-12-15 13:26:10.537038
2022-12-15 13:26:10.538040
2022-12-15 13:26:10.570526
2022-12-15 13:26:10.570526
2022-12-15 13:26:10.571527
2022-12-15 13:26:10.603895
2022-12-15 13:26:10.603895
2022-12-15 13:26:10.637225
2022-12-15 13:26:10.637225
2022-12-15 13:26:10.638227
2022-12-15 13:26:10.670475
2022-12-15 13:26:10.670475
2022-12-15 13:26:10.671515
2022-12-15 13:26:10.703831
2022-12-15 13:26:10.704861
2022-12-15 13:26:10.737760
2022-12-15 13:26:10.737760
2022-12-15 13:26:10.738795
2022-12-15 13:26:10.771183
2022-12-15 13:26:10.772185
2022-12-15 13:26:10.772185
2022-12-15 13:26:10.804535
2022-12-15 13:26:10.805537
2022-12-15 13:26:10.837885
2022-12-15 13:26:10.838888
2022-12-15 13:26:10.838888
2022-12-15 13:26:10.872218
2022-12-15 13:26:10.872511
2022-12-15 13:26:10.872971
2022-12-15 13:26:10.905770
2022-12-15 13:26:10.906176
2022-12-15 13:26:10.939453
2022-12-15 13:26:10.939720
2022-12-15 13:26:10.940228
2022-12-15 13:26:10.972819
2022-12-15 13:26:10.972819
2022-12-15 13:26:10.973862
2022-12-15 13:26:11.005583
2022-12-15 13:26:11.006563
2022-12-15 13:26:11.040035
2022-12-15 13:26:11.040276
2022-12-15 13:26:11.040860
2022-12-15 13:26:11.073294
2022-12-15 13:26:11.073294
2022-12-15 13:26:11.074282
2022-12-15 13:26:11.107120
2022-12-15 13:26:11.107467
2022-12-15 13:26:11.140484
2022-12-15 13:26:11.140722
2022-12-15 13:26:11.141181
2022-12-15 13:26:11.174020
2022-12-15 13:26:11.174316
2022-12-15 13:26:11.174903
2022-12-15 13:26:11.207523
2022-12-15 13:26:11.207523
2022-12-15 13:26:11.240214
2022-12-15 13:26:11.241224
2022-12-15 13:26:11.241224
2022-12-15 13:26:11.274236
2022-12-15 13:26:11.274236
2022-12-15 13:26:11.274236
2022-12-15 13:26:11.308296
2022-12-15 13:26:11.308640
2022-12-15 13:26:11.341830
2022-12-15 13:26:11.342069
2022-12-15 13:26:11.342619
2022-12-15 13:26:11.375337
2022-12-15 13:26:11.375628
2022-12-15 13:26:11.376208
2022-12-15 13:26:11.408712
2022-12-15 13:26:11.408712
2022-12-15 13:26:11.442355
2022-12-15 13:26:11.442647
2022-12-15 13:26:11.443255
2022-12-15 13:26:11.475903
2022-12-15 13:26:11.476376
2022-12-15 13:26:11.477379
2022-12-15 13:26:11.508202
2022-12-15 13:26:11.509237
2022-12-15 13:26:11.542869
2022-12-15 13:26:11.543105
2022-12-15 13:26:11.543706
2022-12-15 13:26:11.576639
2022-12-15 13:26:11.576977
2022-12-15 13:26:11.577558
2022-12-15 13:26:11.610168
2022-12-15 13:26:11.610513
2022-12-15 13:26:11.643635
2022-12-15 13:26:11.643873
2022-12-15 13:26:11.644429
2022-12-15 13:26:11.677128
2022-12-15 13:26:11.677458
2022-12-15 13:26:11.677956
2022-12-15 13:26:11.710667
2022-12-15 13:26:11.710667
2022-12-15 13:26:11.744216
2022-12-15 13:26:11.744216
2022-12-15 13:26:11.745241
2022-12-15 13:26:11.777051
2022-12-15 13:26:11.777051
2022-12-15 13:26:11.778053
2022-12-15 13:26:11.811211
2022-12-15 13:26:11.811560
2022-12-15 13:26:11.844907
2022-12-15 13:26:11.845193
2022-12-15 13:26:11.845780
2022-12-15 13:26:11.878469
2022-12-15 13:26:11.878761
2022-12-15 13:26:11.878761
2022-12-15 13:26:11.911934
2022-12-15 13:26:11.912308
2022-12-15 13:26:11.945393
2022-12-15 13:26:11.945661
2022-12-15 13:26:11.946313
2022-12-15 13:26:11.978981
2022-12-15 13:26:11.979646
2022-12-15 13:26:11.979646
2022-12-15 13:26:12.012041
2022-12-15 13:26:12.012041
2022-12-15 13:26:12.045589
2022-12-15 13:26:12.045820
2022-12-15 13:26:12.046368
2022-12-15 13:26:12.079508
2022-12-15 13:26:12.079804
2022-12-15 13:26:12.080386
2022-12-15 13:26:12.113135
2022-12-15 13:26:12.113483
2022-12-15 13:26:12.146732
2022-12-15 13:26:12.147017
2022-12-15 13:26:12.147477
2022-12-15 13:26:12.180201
2022-12-15 13:26:12.180495
2022-12-15 13:26:12.180495
2022-12-15 13:26:12.213682
2022-12-15 13:26:12.214059
2022-12-15 13:26:12.247078
2022-12-15 13:26:12.247420
2022-12-15 13:26:12.248424
2022-12-15 13:26:12.279794
2022-12-15 13:26:12.280795
2022-12-15 13:26:12.280795
2022-12-15 13:26:12.313724
2022-12-15 13:26:12.314129
2022-12-15 13:26:12.347644
2022-12-15 13:26:12.347915
2022-12-15 13:26:12.347915
2022-12-15 13:26:12.381146
2022-12-15 13:26:12.381645
2022-12-15 13:26:12.382647
2022-12-15 13:26:12.415060
2022-12-15 13:26:12.415322
2022-12-15 13:26:12.448327
2022-12-15 13:26:12.448677
2022-12-15 13:26:12.449195
2022-12-15 13:26:12.481925
2022-12-15 13:26:12.482325
2022-12-15 13:26:12.482325
2022-12-15 13:26:12.515342
2022-12-15 13:26:12.515342
2022-12-15 13:26:12.548912
2022-12-15 13:26:12.548912
2022-12-15 13:26:12.549921
2022-12-15 13:26:12.581452
2022-12-15 13:26:12.582461
2022-12-15 13:26:12.582461
2022-12-15 13:26:12.614693
2022-12-15 13:26:12.615691
2022-12-15 13:26:12.649296
2022-12-15 13:26:12.649296
2022-12-15 13:26:12.650302
2022-12-15 13:26:12.682559
2022-12-15 13:26:12.682856
2022-12-15 13:26:12.682856
2022-12-15 13:26:12.716431
2022-12-15 13:26:12.716776
2022-12-15 13:26:12.749579
2022-12-15 13:26:12.749861
2022-12-15 13:26:12.749861
2022-12-15 13:26:12.783142
2022-12-15 13:26:12.783437
2022-12-15 13:26:12.784025
2022-12-15 13:26:12.816939
2022-12-15 13:26:12.816939
2022-12-15 13:26:12.850451
2022-12-15 13:26:12.851449
2022-12-15 13:26:12.851703
2022-12-15 13:26:12.883588
2022-12-15 13:26:12.883588
2022-12-15 13:26:12.884620
2022-12-15 13:26:12.917296
2022-12-15 13:26:12.917723
2022-12-15 13:26:12.951279
2022-12-15 13:26:12.951522
2022-12-15 13:26:12.951522
2022-12-15 13:26:12.983923
2022-12-15 13:26:12.984883
2022-12-15 13:26:12.984883
2022-12-15 13:26:13.018350
2022-12-15 13:26:13.018715
2022-12-15 13:26:13.051930
2022-12-15 13:26:13.052170
2022-12-15 13:26:13.052627
2022-12-15 13:26:13.085440
2022-12-15 13:26:13.085733
2022-12-15 13:26:13.085733
2022-12-15 13:26:13.119124
2022-12-15 13:26:13.119124
2022-12-15 13:26:13.152043
2022-12-15 13:26:13.152261
2022-12-15 13:26:13.152721
2022-12-15 13:26:13.186069
2022-12-15 13:26:13.186365
2022-12-15 13:26:13.186911
2022-12-15 13:26:13.219574
2022-12-15 13:26:13.219921
2022-12-15 13:26:13.253152
2022-12-15 13:26:13.253395
2022-12-15 13:26:13.253983
2022-12-15 13:26:13.286590
2022-12-15 13:26:13.286937
2022-12-15 13:26:13.287397
2022-12-15 13:26:13.320265
2022-12-15 13:26:13.320655
2022-12-15 13:26:13.353688
2022-12-15 13:26:13.353953
2022-12-15 13:26:13.353953
2022-12-15 13:26:13.387423
2022-12-15 13:26:13.387423
2022-12-15 13:26:13.388404
2022-12-15 13:26:13.420107
2022-12-15 13:26:13.421114
2022-12-15 13:26:13.454284
2022-12-15 13:26:13.454524
2022-12-15 13:26:13.455073
2022-12-15 13:26:13.487893
2022-12-15 13:26:13.488188
2022-12-15 13:26:13.489189
2022-12-15 13:26:13.521402
2022-12-15 13:26:13.521750
2022-12-15 13:26:13.554968
2022-12-15 13:26:13.555299
2022-12-15 13:26:13.555751
2022-12-15 13:26:13.588488
2022-12-15 13:26:13.588488
2022-12-15 13:26:13.589579
2022-12-15 13:26:13.621935
2022-12-15 13:26:13.621935
2022-12-15 13:26:13.654946
2022-12-15 13:26:13.655954
2022-12-15 13:26:13.655954
2022-12-15 13:26:13.688532
2022-12-15 13:26:13.688532
2022-12-15 13:26:13.689533
2022-12-15 13:26:13.722311
2022-12-15 13:26:13.723313
2022-12-15 13:26:13.755614
2022-12-15 13:26:13.755614
2022-12-15 13:26:13.756616
2022-12-15 13:26:13.789093
2022-12-15 13:26:13.790097
2022-12-15 13:26:13.790097
2022-12-15 13:26:13.822434
2022-12-15 13:26:13.822878
2022-12-15 13:26:13.856220
2022-12-15 13:26:13.856500
2022-12-15 13:26:13.856500
2022-12-15 13:26:13.890076
2022-12-15 13:26:13.890409
2022-12-15 13:26:13.890872
2022-12-15 13:26:13.923478
2022-12-15 13:26:13.924470
2022-12-15 13:26:13.957086
2022-12-15 13:26:13.957324
2022-12-15 13:26:13.957914
2022-12-15 13:26:13.990319
2022-12-15 13:26:13.990677
2022-12-15 13:26:13.991123
2022-12-15 13:26:14.023815
2022-12-15 13:26:14.024212
2022-12-15 13:26:14.057569
2022-12-15 13:26:14.057862
2022-12-15 13:26:14.058310
2022-12-15 13:26:14.091238
2022-12-15 13:26:14.091534
2022-12-15 13:26:14.091991
2022-12-15 13:26:14.124245
2022-12-15 13:26:14.124245
2022-12-15 13:26:14.158170
2022-12-15 13:26:14.158170
2022-12-15 13:26:14.158960
2022-12-15 13:26:14.191270
2022-12-15 13:26:14.191270
2022-12-15 13:26:14.192263
2022-12-15 13:26:14.225375
2022-12-15 13:26:14.225723
2022-12-15 13:26:14.258973
2022-12-15 13:26:14.259212
2022-12-15 13:26:14.259802
2022-12-15 13:26:14.292428
2022-12-15 13:26:14.292722
2022-12-15 13:26:14.293304
2022-12-15 13:26:14.326073
2022-12-15 13:26:14.326422
2022-12-15 13:26:14.359320
2022-12-15 13:26:14.359320
2022-12-15 13:26:14.360327
2022-12-15 13:26:14.393098
2022-12-15 13:26:14.393437
2022-12-15 13:26:14.394066
2022-12-15 13:26:14.426634
2022-12-15 13:26:14.427016
2022-12-15 13:26:14.460061
2022-12-15 13:26:14.460061
2022-12-15 13:26:14.461033
2022-12-15 13:26:14.492521
2022-12-15 13:26:14.493533
2022-12-15 13:26:14.493533
2022-12-15 13:26:14.527068
2022-12-15 13:26:14.527743
2022-12-15 13:26:14.560738
2022-12-15 13:26:14.560978
2022-12-15 13:26:14.561578
2022-12-15 13:26:14.594426
2022-12-15 13:26:14.594721
2022-12-15 13:26:14.595303
2022-12-15 13:26:14.627908
2022-12-15 13:26:14.627908
2022-12-15 13:26:14.661375
2022-12-15 13:26:14.661613
2022-12-15 13:26:14.662072
2022-12-15 13:26:14.694933
2022-12-15 13:26:14.695280
2022-12-15 13:26:14.695280
2022-12-15 13:26:14.728558
2022-12-15 13:26:14.728904
2022-12-15 13:26:14.761845
2022-12-15 13:26:14.762186
2022-12-15 13:26:14.763188
2022-12-15 13:26:14.795082
2022-12-15 13:26:14.795082
2022-12-15 13:26:14.796079
2022-12-15 13:26:14.829012
2022-12-15 13:26:14.829360
2022-12-15 13:26:14.862637
2022-12-15 13:26:14.862904
2022-12-15 13:26:14.863557
2022-12-15 13:26:14.896266
2022-12-15 13:26:14.896603
2022-12-15 13:26:14.896603
2022-12-15 13:26:14.929633
2022-12-15 13:26:14.929984
2022-12-15 13:26:14.963199
2022-12-15 13:26:14.963481
2022-12-15 13:26:14.963481
2022-12-15 13:26:14.996590
2022-12-15 13:26:14.996590
2022-12-15 13:26:14.997593
2022-12-15 13:26:15.029473
2022-12-15 13:26:15.029473
2022-12-15 13:26:15.063193
2022-12-15 13:26:15.063193
2022-12-15 13:26:15.064188
2022-12-15 13:26:15.097271
2022-12-15 13:26:15.097564
2022-12-15 13:26:15.097564
2022-12-15 13:26:15.130705
2022-12-15 13:26:15.131287
2022-12-15 13:26:15.164526
2022-12-15 13:26:15.164810
2022-12-15 13:26:15.164810
2022-12-15 13:26:15.198092
2022-12-15 13:26:15.198427
2022-12-15 13:26:15.198427
2022-12-15 13:26:15.231334
2022-12-15 13:26:15.231334
2022-12-15 13:26:15.265014
2022-12-15 13:26:15.265281
2022-12-15 13:26:15.265281
2022-12-15 13:26:15.298184
2022-12-15 13:26:15.299108
2022-12-15 13:26:15.299108
2022-12-15 13:26:15.331054
2022-12-15 13:26:15.332061
2022-12-15 13:26:15.364959
2022-12-15 13:26:15.365187
2022-12-15 13:26:15.365187
2022-12-15 13:26:15.399100
2022-12-15 13:26:15.399449
2022-12-15 13:26:15.399449
2022-12-15 13:26:15.432384
2022-12-15 13:26:15.432384
2022-12-15 13:26:15.465316
2022-12-15 13:26:15.465316
2022-12-15 13:26:15.466312
2022-12-15 13:26:15.498495
2022-12-15 13:26:15.499493
2022-12-15 13:26:15.499493
2022-12-15 13:26:15.532727
2022-12-15 13:26:15.532727
2022-12-15 13:26:15.566001
2022-12-15 13:26:15.566001
2022-12-15 13:26:15.567010
2022-12-15 13:26:15.599496
2022-12-15 13:26:15.599496
2022-12-15 13:26:15.600547
2022-12-15 13:26:15.633166
2022-12-15 13:26:15.633617
2022-12-15 13:26:15.667311
2022-12-15 13:26:15.667592
2022-12-15 13:26:15.667592
2022-12-15 13:26:15.700733
2022-12-15 13:26:15.700733
2022-12-15 13:26:15.701654
2022-12-15 13:26:15.734388
2022-12-15 13:26:15.734735
2022-12-15 13:26:15.766516
2022-12-15 13:26:15.767514
2022-12-15 13:26:15.767514
2022-12-15 13:26:15.801224
2022-12-15 13:26:15.801224
2022-12-15 13:26:15.802197
2022-12-15 13:26:15.834595
2022-12-15 13:26:15.835222
2022-12-15 13:26:15.868159
2022-12-15 13:26:15.868492
2022-12-15 13:26:15.868903
2022-12-15 13:26:15.901987
2022-12-15 13:26:15.902281
2022-12-15 13:26:15.902828
2022-12-15 13:26:15.935129
2022-12-15 13:26:15.935477
2022-12-15 13:26:15.968928
2022-12-15 13:26:15.969169
2022-12-15 13:26:15.969760
2022-12-15 13:26:16.002531
2022-12-15 13:26:16.002853
2022-12-15 13:26:16.003856
2022-12-15 13:26:16.036004
2022-12-15 13:26:16.036351
2022-12-15 13:26:16.069625
2022-12-15 13:26:16.069923
2022-12-15 13:26:16.069923
2022-12-15 13:26:16.103237
2022-12-15 13:26:16.103237
2022-12-15 13:26:16.104242
2022-12-15 13:26:16.136241
2022-12-15 13:26:16.137237
2022-12-15 13:26:16.170324
2022-12-15 13:26:16.170563
2022-12-15 13:26:16.171155
2022-12-15 13:26:16.203856
2022-12-15 13:26:16.204154
2022-12-15 13:26:16.204705
2022-12-15 13:26:16.237309
2022-12-15 13:26:16.237662
2022-12-15 13:26:16.270958
2022-12-15 13:26:16.271196
2022-12-15 13:26:16.271196
2022-12-15 13:26:16.304500
2022-12-15 13:26:16.304794
2022-12-15 13:26:16.305253
2022-12-15 13:26:16.337954
2022-12-15 13:26:16.338306
2022-12-15 13:26:16.371490
2022-12-15 13:26:16.372021
2022-12-15 13:26:16.372021
2022-12-15 13:26:16.404584
2022-12-15 13:26:16.404584
2022-12-15 13:26:16.405592
2022-12-15 13:26:16.438521
2022-12-15 13:26:16.438872
2022-12-15 13:26:16.472135
2022-12-15 13:26:16.472375
2022-12-15 13:26:16.472984
2022-12-15 13:26:16.505539
2022-12-15 13:26:16.505833
2022-12-15 13:26:16.505833
2022-12-15 13:26:16.539168
2022-12-15 13:26:16.539515
2022-12-15 13:26:16.572623
2022-12-15 13:26:16.572863
2022-12-15 13:26:16.573364
2022-12-15 13:26:16.606177
2022-12-15 13:26:16.606584
2022-12-15 13:26:16.607186
2022-12-15 13:26:16.639613
2022-12-15 13:26:16.639613
2022-12-15 13:26:16.673119
2022-12-15 13:26:16.673119
2022-12-15 13:26:16.674149
2022-12-15 13:26:16.706166
2022-12-15 13:26:16.706166
2022-12-15 13:26:16.707167
2022-12-15 13:26:16.740144
2022-12-15 13:26:16.741147
2022-12-15 13:26:16.773538
2022-12-15 13:26:16.774573
2022-12-15 13:26:16.774573
2022-12-15 13:26:16.806901
2022-12-15 13:26:16.807936
2022-12-15 13:26:16.807936
2022-12-15 13:26:16.840184
2022-12-15 13:26:16.841186
2022-12-15 13:26:16.874355
2022-12-15 13:26:16.874594
2022-12-15 13:26:16.875050
2022-12-15 13:26:16.907991
2022-12-15 13:26:16.908316
2022-12-15 13:26:16.908316
2022-12-15 13:26:16.941439
2022-12-15 13:26:16.941790
2022-12-15 13:26:16.974863
2022-12-15 13:26:16.975650
2022-12-15 13:26:16.975650
2022-12-15 13:26:17.008206
2022-12-15 13:26:17.008406
2022-12-15 13:26:17.008406
2022-12-15 13:26:17.041738
2022-12-15 13:26:17.042136
2022-12-15 13:26:17.075241
2022-12-15 13:26:17.075565
2022-12-15 13:26:17.076015
2022-12-15 13:26:17.108774
2022-12-15 13:26:17.109145
2022-12-15 13:26:17.109596
2022-12-15 13:26:17.142189
2022-12-15 13:26:17.142509
2022-12-15 13:26:17.176103
2022-12-15 13:26:17.176344
2022-12-15 13:26:17.176801
2022-12-15 13:26:17.209642
2022-12-15 13:26:17.209937
2022-12-15 13:26:17.209937
2022-12-15 13:26:17.243224
2022-12-15 13:26:17.243224
2022-12-15 13:26:17.275853
2022-12-15 13:26:17.275853
2022-12-15 13:26:17.276885
2022-12-15 13:26:17.309948
2022-12-15 13:26:17.310224
2022-12-15 13:26:17.310224
2022-12-15 13:26:17.343946
2022-12-15 13:26:17.344324
2022-12-15 13:26:17.377335
2022-12-15 13:26:17.377576
2022-12-15 13:26:17.378167
2022-12-15 13:26:17.410934
2022-12-15 13:26:17.411227
2022-12-15 13:26:17.411808
2022-12-15 13:26:17.444416
2022-12-15 13:26:17.444762
2022-12-15 13:26:17.477977
2022-12-15 13:26:17.478260
2022-12-15 13:26:17.478813
2022-12-15 13:26:17.511605
2022-12-15 13:26:17.511605
2022-12-15 13:26:17.512607
2022-12-15 13:26:17.544925
2022-12-15 13:26:17.545463
2022-12-15 13:26:17.577340
2022-12-15 13:26:17.578290
2022-12-15 13:26:17.578752
2022-12-15 13:26:17.612026
2022-12-15 13:26:17.612350
2022-12-15 13:26:17.612953
2022-12-15 13:26:17.645611
2022-12-15 13:26:17.645964
2022-12-15 13:26:17.679088
2022-12-15 13:26:17.679327
2022-12-15 13:26:17.679917
2022-12-15 13:26:17.712690
2022-12-15 13:26:17.713011
2022-12-15 13:26:17.713011
2022-12-15 13:26:17.746318
2022-12-15 13:26:17.746665
2022-12-15 13:26:17.779771
2022-12-15 13:26:17.780012
2022-12-15 13:26:17.780473
2022-12-15 13:26:17.813335
2022-12-15 13:26:17.813629
2022-12-15 13:26:17.814179
2022-12-15 13:26:17.847000
2022-12-15 13:26:17.847380
2022-12-15 13:26:17.880401
2022-12-15 13:26:17.880401
2022-12-15 13:26:17.881402
2022-12-15 13:26:17.913951
2022-12-15 13:26:17.913951
2022-12-15 13:26:17.914979
2022-12-15 13:26:17.947216
2022-12-15 13:26:17.947216
2022-12-15 13:26:17.980873
2022-12-15 13:26:17.981112
2022-12-15 13:26:17.981704
2022-12-15 13:26:18.014491
2022-12-15 13:26:18.014788
2022-12-15 13:26:18.015334
2022-12-15 13:26:18.048034
2022-12-15 13:26:18.048384
2022-12-15 13:26:18.081572
2022-12-15 13:26:18.081814
2022-12-15 13:26:18.082331
2022-12-15 13:26:18.115239
2022-12-15 13:26:18.115535
2022-12-15 13:26:18.116123
2022-12-15 13:26:18.148588
2022-12-15 13:26:18.148976
2022-12-15 13:26:18.182095
2022-12-15 13:26:18.182095
2022-12-15 13:26:18.183097
2022-12-15 13:26:18.215625
2022-12-15 13:26:18.215625
2022-12-15 13:26:18.216651
2022-12-15 13:26:18.248360
2022-12-15 13:26:18.249360
2022-12-15 13:26:18.282547
2022-12-15 13:26:18.283133
2022-12-15 13:26:18.283133
2022-12-15 13:26:18.316125
2022-12-15 13:26:18.316962
2022-12-15 13:26:18.316962
2022-12-15 13:26:18.349742
2022-12-15 13:26:18.350440
2022-12-15 13:26:18.383283
2022-12-15 13:26:18.383897
2022-12-15 13:26:18.383897
2022-12-15 13:26:18.416985
2022-12-15 13:26:18.417298
2022-12-15 13:26:18.417298
2022-12-15 13:26:18.450436
2022-12-15 13:26:18.450436
2022-12-15 13:26:18.483894
2022-12-15 13:26:18.484901
2022-12-15 13:26:18.484901
2022-12-15 13:26:18.516795
2022-12-15 13:26:18.516795
2022-12-15 13:26:18.517793
2022-12-15 13:26:18.550305
2022-12-15 13:26:18.550735
2022-12-15 13:26:18.584291
2022-12-15 13:26:18.584291
2022-12-15 13:26:18.585299
2022-12-15 13:26:18.617508
2022-12-15 13:26:18.617806
2022-12-15 13:26:18.618372
2022-12-15 13:26:18.651491
2022-12-15 13:26:18.651840
2022-12-15 13:26:18.684511
2022-12-15 13:26:18.684511
2022-12-15 13:26:18.685527
2022-12-15 13:26:18.718535
2022-12-15 13:26:18.718535
2022-12-15 13:26:18.719537
2022-12-15 13:26:18.751887
2022-12-15 13:26:18.752695
2022-12-15 13:26:18.785388
2022-12-15 13:26:18.785724
2022-12-15 13:26:18.786235
2022-12-15 13:26:18.819243
2022-12-15 13:26:18.819538
2022-12-15 13:26:18.820125
2022-12-15 13:26:18.852631
2022-12-15 13:26:18.852982
2022-12-15 13:26:18.886143
2022-12-15 13:26:18.886411
2022-12-15 13:26:18.887067
2022-12-15 13:26:18.919752
2022-12-15 13:26:18.920077
2022-12-15 13:26:18.920578
2022-12-15 13:26:18.953249
2022-12-15 13:26:18.953249
2022-12-15 13:26:18.986780
2022-12-15 13:26:18.986780
2022-12-15 13:26:18.987781
2022-12-15 13:26:19.020195
2022-12-15 13:26:19.020664
2022-12-15 13:26:19.020664
2022-12-15 13:26:19.053081
2022-12-15 13:26:19.054082
2022-12-15 13:26:19.087482
2022-12-15 13:26:19.087760
2022-12-15 13:26:19.088762
2022-12-15 13:26:19.120995
2022-12-15 13:26:19.121295
2022-12-15 13:26:19.121875
2022-12-15 13:26:19.154575
2022-12-15 13:26:19.154923
2022-12-15 13:26:19.188152
2022-12-15 13:26:19.188391
2022-12-15 13:26:19.188853
2022-12-15 13:26:19.221506
2022-12-15 13:26:19.221798
2022-12-15 13:26:19.222378
2022-12-15 13:26:19.255026
2022-12-15 13:26:19.255384
2022-12-15 13:26:19.288490
2022-12-15 13:26:19.288490
2022-12-15 13:26:19.289390
2022-12-15 13:26:19.321319
2022-12-15 13:26:19.322327
2022-12-15 13:26:19.322327
2022-12-15 13:26:19.355579
2022-12-15 13:26:19.355928
2022-12-15 13:26:19.389331
2022-12-15 13:26:19.389571
2022-12-15 13:26:19.390157
2022-12-15 13:26:19.422894
2022-12-15 13:26:19.423188
2022-12-15 13:26:19.423835
2022-12-15 13:26:19.456401
2022-12-15 13:26:19.456748
2022-12-15 13:26:19.489642
2022-12-15 13:26:19.489964
2022-12-15 13:26:19.489964
2022-12-15 13:26:19.523401
2022-12-15 13:26:19.523693
2022-12-15 13:26:19.523693
2022-12-15 13:26:19.556905
2022-12-15 13:26:19.557284
2022-12-15 13:26:19.590414
2022-12-15 13:26:19.590716
2022-12-15 13:26:19.591269
2022-12-15 13:26:19.623928
2022-12-15 13:26:19.624971
2022-12-15 13:26:19.624971
2022-12-15 13:26:19.656490
2022-12-15 13:26:19.657496
2022-12-15 13:26:19.689886
2022-12-15 13:26:19.690883
2022-12-15 13:26:19.690883
2022-12-15 13:26:19.724497
2022-12-15 13:26:19.725499
2022-12-15 13:26:19.725499
2022-12-15 13:26:19.758061
2022-12-15 13:26:19.759066
2022-12-15 13:26:19.791396
2022-12-15 13:26:19.791396
2022-12-15 13:26:19.792399
2022-12-15 13:26:19.824183
2022-12-15 13:26:19.825181
2022-12-15 13:26:19.825181
2022-12-15 13:26:19.858109
2022-12-15 13:26:19.858647
2022-12-15 13:26:19.891457
2022-12-15 13:26:19.891457
2022-12-15 13:26:19.892485
2022-12-15 13:26:19.925605
2022-12-15 13:26:19.925903
2022-12-15 13:26:19.926444
2022-12-15 13:26:19.959000
2022-12-15 13:26:19.959000
2022-12-15 13:26:19.992413
2022-12-15 13:26:19.992413
2022-12-15 13:26:19.992413
2022-12-15 13:26:20.025805
2022-12-15 13:26:20.026068
2022-12-15 13:26:20.026068
2022-12-15 13:26:20.059381
2022-12-15 13:26:20.059776
2022-12-15 13:26:20.093226
2022-12-15 13:26:20.093468
2022-12-15 13:26:20.093922
2022-12-15 13:26:20.126994
2022-12-15 13:26:20.127315
2022-12-15 13:26:20.128318
2022-12-15 13:26:20.160404
2022-12-15 13:26:20.161242
2022-12-15 13:26:20.193435
2022-12-15 13:26:20.193435
2022-12-15 13:26:20.194437
2022-12-15 13:26:20.227421
2022-12-15 13:26:20.227741
2022-12-15 13:26:20.228400
2022-12-15 13:26:20.261078
2022-12-15 13:26:20.261475
2022-12-15 13:26:20.294379
2022-12-15 13:26:20.294379
2022-12-15 13:26:20.295401
2022-12-15 13:26:20.328000
2022-12-15 13:26:20.328000
2022-12-15 13:26:20.329001
2022-12-15 13:26:20.361398
2022-12-15 13:26:20.361398
2022-12-15 13:26:20.394779
2022-12-15 13:26:20.394779
2022-12-15 13:26:20.395738
2022-12-15 13:26:20.428155
2022-12-15 13:26:20.428155
2022-12-15 13:26:20.429173
2022-12-15 13:26:20.461301
2022-12-15 13:26:20.462352
2022-12-15 13:26:20.495603
2022-12-15 13:26:20.495846
2022-12-15 13:26:20.496401
2022-12-15 13:26:20.529120
2022-12-15 13:26:20.529415
2022-12-15 13:26:20.529415
2022-12-15 13:26:20.562804
2022-12-15 13:26:20.563153
2022-12-15 13:26:20.596344
2022-12-15 13:26:20.596583
2022-12-15 13:26:20.597173
2022-12-15 13:26:20.629888
2022-12-15 13:26:20.630185
2022-12-15 13:26:20.630739
2022-12-15 13:26:20.663426
2022-12-15 13:26:20.663803
2022-12-15 13:26:20.696851
2022-12-15 13:26:20.697093
2022-12-15 13:26:20.697680
2022-12-15 13:26:20.730596
2022-12-15 13:26:20.730934
2022-12-15 13:26:20.731393
2022-12-15 13:26:20.763814
2022-12-15 13:26:20.763814
2022-12-15 13:26:20.796899
2022-12-15 13:26:20.796899
2022-12-15 13:26:20.797899
2022-12-15 13:26:20.831049
2022-12-15 13:26:20.831343
2022-12-15 13:26:20.831929
2022-12-15 13:26:20.864647
2022-12-15 13:26:20.865037
2022-12-15 13:26:20.898280
2022-12-15 13:26:20.898567
2022-12-15 13:26:20.899117
2022-12-15 13:26:20.931646
2022-12-15 13:26:20.931940
2022-12-15 13:26:20.932401
2022-12-15 13:26:20.965208
2022-12-15 13:26:20.965600
2022-12-15 13:26:20.998901
2022-12-15 13:26:20.999165
2022-12-15 13:26:20.999662
2022-12-15 13:26:21.032082
2022-12-15 13:26:21.032082
2022-12-15 13:26:21.033097
2022-12-15 13:26:21.065214
2022-12-15 13:26:21.065214
2022-12-15 13:26:21.098894
2022-12-15 13:26:21.099190
2022-12-15 13:26:21.099643
2022-12-15 13:26:21.132879
2022-12-15 13:26:21.133174
2022-12-15 13:26:21.133174
2022-12-15 13:26:21.166538
2022-12-15 13:26:21.166538
2022-12-15 13:26:21.199911
2022-12-15 13:26:21.200482
2022-12-15 13:26:21.200863
2022-12-15 13:26:21.233348
2022-12-15 13:26:21.234052
2022-12-15 13:26:21.234270
2022-12-15 13:26:21.266916
2022-12-15 13:26:21.267458
2022-12-15 13:26:21.300515
2022-12-15 13:26:21.300515
2022-12-15 13:26:21.301517
2022-12-15 13:26:21.333615
2022-12-15 13:26:21.333615
2022-12-15 13:26:21.333615
2022-12-15 13:26:21.367371
2022-12-15 13:26:21.367839
2022-12-15 13:26:21.400975
2022-12-15 13:26:21.401321
2022-12-15 13:26:21.401888
2022-12-15 13:26:21.434297
2022-12-15 13:26:21.434297
2022-12-15 13:26:21.435304
2022-12-15 13:26:21.468125
2022-12-15 13:26:21.468531
2022-12-15 13:26:21.501312
2022-12-15 13:26:21.501312
2022-12-15 13:26:21.502226
2022-12-15 13:26:21.534869
2022-12-15 13:26:21.535191
2022-12-15 13:26:21.535693
2022-12-15 13:26:21.568175
2022-12-15 13:26:21.568175
2022-12-15 13:26:21.601178
2022-12-15 13:26:21.602185
2022-12-15 13:26:21.602185
2022-12-15 13:26:21.635350
2022-12-15 13:26:21.635612
2022-12-15 13:26:21.636107
2022-12-15 13:26:21.668865
2022-12-15 13:26:21.669506
2022-12-15 13:26:21.702695
2022-12-15 13:26:21.702934
2022-12-15 13:26:21.703523
2022-12-15 13:26:21.735190
2022-12-15 13:26:21.736156
2022-12-15 13:26:21.736156
2022-12-15 13:26:21.769068
2022-12-15 13:26:21.770068
2022-12-15 13:26:21.803338
2022-12-15 13:26:21.803628
2022-12-15 13:26:21.804143
2022-12-15 13:26:21.836877
2022-12-15 13:26:21.837219
2022-12-15 13:26:21.837861
2022-12-15 13:26:21.870420
2022-12-15 13:26:21.871482
2022-12-15 13:26:21.903013
2022-12-15 13:26:21.903992
2022-12-15 13:26:21.903992
2022-12-15 13:26:21.937478
2022-12-15 13:26:21.937807
2022-12-15 13:26:21.937807
2022-12-15 13:26:21.971158
2022-12-15 13:26:21.971504
2022-12-15 13:26:22.004597
2022-12-15 13:26:22.004834
2022-12-15 13:26:22.004834
2022-12-15 13:26:22.038261
2022-12-15 13:26:22.038556
2022-12-15 13:26:22.039104
2022-12-15 13:26:22.071755
2022-12-15 13:26:22.072146
2022-12-15 13:26:22.105372
2022-12-15 13:26:22.105658
2022-12-15 13:26:22.106246
2022-12-15 13:26:22.138778
2022-12-15 13:26:22.138778
2022-12-15 13:26:22.139780
2022-12-15 13:26:22.171564
2022-12-15 13:26:22.172571
2022-12-15 13:26:22.205871
2022-12-15 13:26:22.206111
2022-12-15 13:26:22.206701
2022-12-15 13:26:22.239477
2022-12-15 13:26:22.239769
2022-12-15 13:26:22.240320
2022-12-15 13:26:22.273029
2022-12-15 13:26:22.273380
2022-12-15 13:26:22.306468
2022-12-15 13:26:22.306709
2022-12-15 13:26:22.307295
2022-12-15 13:26:22.340096
2022-12-15 13:26:22.340393
2022-12-15 13:26:22.340393
2022-12-15 13:26:22.373488
2022-12-15 13:26:22.373879
2022-12-15 13:26:22.407016
2022-12-15 13:26:22.407300
2022-12-15 13:26:22.407300
2022-12-15 13:26:22.440462
2022-12-15 13:26:22.441262
2022-12-15 13:26:22.441262
2022-12-15 13:26:22.473918
2022-12-15 13:26:22.473918
2022-12-15 13:26:22.506980
2022-12-15 13:26:22.507277
2022-12-15 13:26:22.507732
2022-12-15 13:26:22.541259
2022-12-15 13:26:22.541557
2022-12-15 13:26:22.542558
2022-12-15 13:26:22.574691
2022-12-15 13:26:22.575038
2022-12-15 13:26:22.608390
2022-12-15 13:26:22.608629
2022-12-15 13:26:22.609630
2022-12-15 13:26:22.641795
2022-12-15 13:26:22.641795
2022-12-15 13:26:22.642828
2022-12-15 13:26:22.675320
2022-12-15 13:26:22.675819
2022-12-15 13:26:22.708894
2022-12-15 13:26:22.709137
2022-12-15 13:26:22.709137
2022-12-15 13:26:22.742408
2022-12-15 13:26:22.743411
2022-12-15 13:26:22.743411
2022-12-15 13:26:22.775005
2022-12-15 13:26:22.776006
2022-12-15 13:26:22.809159
2022-12-15 13:26:22.809159
2022-12-15 13:26:22.810161
2022-12-15 13:26:22.842531
2022-12-15 13:26:22.842531
2022-12-15 13:26:22.843536
2022-12-15 13:26:22.875927
2022-12-15 13:26:22.876930
2022-12-15 13:26:22.909545
2022-12-15 13:26:22.909788
2022-12-15 13:26:22.910245
2022-12-15 13:26:22.943443
2022-12-15 13:26:22.943742
2022-12-15 13:26:22.944325
2022-12-15 13:26:22.977104
2022-12-15 13:26:22.977483
2022-12-15 13:26:23.010372
2022-12-15 13:26:23.010372
2022-12-15 13:26:23.011352
2022-12-15 13:26:23.043817
2022-12-15 13:26:23.043817
2022-12-15 13:26:23.044814
2022-12-15 13:26:23.077325
2022-12-15 13:26:23.077325
2022-12-15 13:26:23.110772
2022-12-15 13:26:23.111097
2022-12-15 13:26:23.111553
2022-12-15 13:26:23.144251
2022-12-15 13:26:23.144624
2022-12-15 13:26:23.145088
2022-12-15 13:26:23.177687
2022-12-15 13:26:23.178111
2022-12-15 13:26:23.211138
2022-12-15 13:26:23.211466
2022-12-15 13:26:23.211919
2022-12-15 13:26:23.245222
2022-12-15 13:26:23.245516
2022-12-15 13:26:23.245977
2022-12-15 13:26:23.278758
2022-12-15 13:26:23.279107
2022-12-15 13:26:23.312198
2022-12-15 13:26:23.312198
2022-12-15 13:26:23.313200
2022-12-15 13:26:23.344846
2022-12-15 13:26:23.345928
2022-12-15 13:26:23.346416
2022-12-15 13:26:23.379351
2022-12-15 13:26:23.379703
2022-12-15 13:26:23.412935
2022-12-15 13:26:23.413176
2022-12-15 13:26:23.413766
2022-12-15 13:26:23.446425
2022-12-15 13:26:23.446728
2022-12-15 13:26:23.447310
2022-12-15 13:26:23.480089
2022-12-15 13:26:23.480437
2022-12-15 13:26:23.513494
2022-12-15 13:26:23.513733
2022-12-15 13:26:23.514324
2022-12-15 13:26:23.547073
2022-12-15 13:26:23.547369
2022-12-15 13:26:23.547825
2022-12-15 13:26:23.580567
2022-12-15 13:26:23.580914
2022-12-15 13:26:23.614331
2022-12-15 13:26:23.614599
2022-12-15 13:26:23.615151
2022-12-15 13:26:23.647560
2022-12-15 13:26:23.647871
2022-12-15 13:26:23.648875
2022-12-15 13:26:23.680931
2022-12-15 13:26:23.681306
2022-12-15 13:26:23.714660
2022-12-15 13:26:23.714900
2022-12-15 13:26:23.715452
2022-12-15 13:26:23.748244
2022-12-15 13:26:23.748538
2022-12-15 13:26:23.748538
2022-12-15 13:26:23.781933
2022-12-15 13:26:23.782281
2022-12-15 13:26:23.815341
2022-12-15 13:26:23.815584
2022-12-15 13:26:23.816043
2022-12-15 13:26:23.848923
2022-12-15 13:26:23.849217
2022-12-15 13:26:23.849803
2022-12-15 13:26:23.881734
2022-12-15 13:26:23.881734
2022-12-15 13:26:23.915911
2022-12-15 13:26:23.916665
2022-12-15 13:26:23.916665
2022-12-15 13:26:23.948391
2022-12-15 13:26:23.949392
2022-12-15 13:26:23.949685
2022-12-15 13:26:23.983055
2022-12-15 13:26:23.983445
2022-12-15 13:26:24.016563
2022-12-15 13:26:24.016803
2022-12-15 13:26:24.017352
2022-12-15 13:26:24.050258
2022-12-15 13:26:24.050258
2022-12-15 13:26:24.051259
2022-12-15 13:26:24.083632
2022-12-15 13:26:24.083984
2022-12-15 13:26:24.117226
2022-12-15 13:26:24.117996
2022-12-15 13:26:24.117996
2022-12-15 13:26:24.150618
2022-12-15 13:26:24.151571
2022-12-15 13:26:24.151571
2022-12-15 13:26:24.184408
2022-12-15 13:26:24.185455
2022-12-15 13:26:24.216812
2022-12-15 13:26:24.216812
2022-12-15 13:26:24.217814
2022-12-15 13:26:24.251291
2022-12-15 13:26:24.251501
2022-12-15 13:26:24.252041
2022-12-15 13:26:24.284822
2022-12-15 13:26:24.285325
2022-12-15 13:26:24.318307
2022-12-15 13:26:24.318745
2022-12-15 13:26:24.318745
2022-12-15 13:26:24.351821
2022-12-15 13:26:24.351821
2022-12-15 13:26:24.352826
2022-12-15 13:26:24.385605
2022-12-15 13:26:24.386016
2022-12-15 13:26:24.418770
2022-12-15 13:26:24.418770
2022-12-15 13:26:24.419791
2022-12-15 13:26:24.451894
2022-12-15 13:26:24.451894
2022-12-15 13:26:24.452909
2022-12-15 13:26:24.485923
2022-12-15 13:26:24.486967
2022-12-15 13:26:24.519126
2022-12-15 13:26:24.519126
2022-12-15 13:26:24.520134
2022-12-15 13:26:24.551784
2022-12-15 13:26:24.552783
2022-12-15 13:26:24.553335
2022-12-15 13:26:24.586490
2022-12-15 13:26:24.586839
2022-12-15 13:26:24.619993
2022-12-15 13:26:24.620232
2022-12-15 13:26:24.620232
2022-12-15 13:26:24.653451
2022-12-15 13:26:24.653746
2022-12-15 13:26:24.654333
2022-12-15 13:26:24.687018
2022-12-15 13:26:24.687367
2022-12-15 13:26:24.720569
2022-12-15 13:26:24.720809
2022-12-15 13:26:24.721272
2022-12-15 13:26:24.754047
2022-12-15 13:26:24.754386
2022-12-15 13:26:24.755030
2022-12-15 13:26:24.787584
2022-12-15 13:26:24.787584
2022-12-15 13:26:24.821192
2022-12-15 13:26:24.821192
2022-12-15 13:26:24.822112
2022-12-15 13:26:24.854209
2022-12-15 13:26:24.854209
2022-12-15 13:26:24.855210
2022-12-15 13:26:24.887919
2022-12-15 13:26:24.888272
2022-12-15 13:26:24.921865
2022-12-15 13:26:24.922105
2022-12-15 13:26:24.922105
2022-12-15 13:26:24.955313
2022-12-15 13:26:24.955606
2022-12-15 13:26:24.956155
2022-12-15 13:26:24.988898
2022-12-15 13:26:24.989277
2022-12-15 13:26:25.022550
2022-12-15 13:26:25.022820
2022-12-15 13:26:25.022820
2022-12-15 13:26:25.055928
2022-12-15 13:26:25.056234
2022-12-15 13:26:25.057236
2022-12-15 13:26:25.089365
2022-12-15 13:26:25.089365
2022-12-15 13:26:25.122434
2022-12-15 13:26:25.122434
2022-12-15 13:26:25.122434
2022-12-15 13:26:25.156228
2022-12-15 13:26:25.156228
2022-12-15 13:26:25.156228
2022-12-15 13:26:25.189981
2022-12-15 13:26:25.190396
2022-12-15 13:26:25.223568
2022-12-15 13:26:25.223568
2022-12-15 13:26:25.224468
2022-12-15 13:26:25.256117
2022-12-15 13:26:25.257120
2022-12-15 13:26:25.257120
2022-12-15 13:26:25.290284
2022-12-15 13:26:25.290284
2022-12-15 13:26:25.323746
2022-12-15 13:26:25.324032
2022-12-15 13:26:25.324032
2022-12-15 13:26:25.357890
2022-12-15 13:26:25.357890
2022-12-15 13:26:25.358890
2022-12-15 13:26:25.390944
2022-12-15 13:26:25.391168
2022-12-15 13:26:25.424878
2022-12-15 13:26:25.425118
2022-12-15 13:26:25.425707
2022-12-15 13:26:25.458258
2022-12-15 13:26:25.458554
2022-12-15 13:26:25.459106
2022-12-15 13:26:25.491910
2022-12-15 13:26:25.492258
2022-12-15 13:26:25.525286
2022-12-15 13:26:25.525527
2022-12-15 13:26:25.526074
2022-12-15 13:26:25.559007
2022-12-15 13:26:25.559301
2022-12-15 13:26:25.559759
2022-12-15 13:26:25.592512
2022-12-15 13:26:25.592860
2022-12-15 13:26:25.625397
2022-12-15 13:26:25.625397
2022-12-15 13:26:25.625397
2022-12-15 13:26:25.659564
2022-12-15 13:26:25.659949
2022-12-15 13:26:25.659949
2022-12-15 13:26:25.693095
2022-12-15 13:26:25.694042
2022-12-15 13:26:25.726444
2022-12-15 13:26:25.727475
2022-12-15 13:26:25.727475
2022-12-15 13:26:25.760025
2022-12-15 13:26:25.761028
2022-12-15 13:26:25.761028
2022-12-15 13:26:25.793526
2022-12-15 13:26:25.794529
2022-12-15 13:26:25.826982
2022-12-15 13:26:25.826982
2022-12-15 13:26:25.827988
2022-12-15 13:26:25.860333
2022-12-15 13:26:25.861337
2022-12-15 13:26:25.861337
2022-12-15 13:26:25.893679
2022-12-15 13:26:25.894119
2022-12-15 13:26:25.927405
2022-12-15 13:26:25.927647
2022-12-15 13:26:25.927647
2022-12-15 13:26:25.961381
2022-12-15 13:26:25.961381
2022-12-15 13:26:25.962491
2022-12-15 13:26:25.994791
2022-12-15 13:26:25.995142
2022-12-15 13:26:26.027967
2022-12-15 13:26:26.027967
2022-12-15 13:26:26.027967
2022-12-15 13:26:26.061405
2022-12-15 13:26:26.061405
2022-12-15 13:26:26.062401
2022-12-15 13:26:26.094949
2022-12-15 13:26:26.095350
2022-12-15 13:26:26.128659
2022-12-15 13:26:26.128954
2022-12-15 13:26:26.129403
2022-12-15 13:26:26.162401
2022-12-15 13:26:26.162696
2022-12-15 13:26:26.163155
2022-12-15 13:26:26.196090
2022-12-15 13:26:26.196438
2022-12-15 13:26:26.229134
2022-12-15 13:26:26.229134
2022-12-15 13:26:26.230169
2022-12-15 13:26:26.263083
2022-12-15 13:26:26.263380
2022-12-15 13:26:26.263978
2022-12-15 13:26:26.296486
2022-12-15 13:26:26.296834
2022-12-15 13:26:26.330179
2022-12-15 13:26:26.330423
2022-12-15 13:26:26.331014
2022-12-15 13:26:26.363715
2022-12-15 13:26:26.364011
2022-12-15 13:26:26.364559
2022-12-15 13:26:26.397179
2022-12-15 13:26:26.397525
2022-12-15 13:26:26.430750
2022-12-15 13:26:26.430990
2022-12-15 13:26:26.431580
2022-12-15 13:26:26.464425
2022-12-15 13:26:26.464425
2022-12-15 13:26:26.465426
2022-12-15 13:26:26.497947
2022-12-15 13:26:26.498949
2022-12-15 13:26:26.530739
2022-12-15 13:26:26.530739
2022-12-15 13:26:26.531740
2022-12-15 13:26:26.564976
2022-12-15 13:26:26.565322
2022-12-15 13:26:26.565322
2022-12-15 13:26:26.598545
2022-12-15 13:26:26.598938
2022-12-15 13:26:26.632105
2022-12-15 13:26:26.632347
2022-12-15 13:26:26.632936
2022-12-15 13:26:26.665597
2022-12-15 13:26:26.665892
2022-12-15 13:26:26.666469
2022-12-15 13:26:26.698998
2022-12-15 13:26:26.699344
2022-12-15 13:26:26.732539
2022-12-15 13:26:26.732777
2022-12-15 13:26:26.733369
2022-12-15 13:26:26.766215
2022-12-15 13:26:26.766508
2022-12-15 13:26:26.766508
2022-12-15 13:26:26.799489
2022-12-15 13:26:26.799489
2022-12-15 13:26:26.832694
2022-12-15 13:26:26.832694
2022-12-15 13:26:26.833692
2022-12-15 13:26:26.866519
2022-12-15 13:26:26.866815
2022-12-15 13:26:26.866815
2022-12-15 13:26:26.900335
2022-12-15 13:26:26.900714
2022-12-15 13:26:26.933836
2022-12-15 13:26:26.934074
2022-12-15 13:26:26.934074
2022-12-15 13:26:26.967389
2022-12-15 13:26:26.967686
2022-12-15 13:26:26.967686
2022-12-15 13:26:27.000810
2022-12-15 13:26:27.001201
2022-12-15 13:26:27.034437
2022-12-15 13:26:27.034724
2022-12-15 13:26:27.034724
2022-12-15 13:26:27.067905
2022-12-15 13:26:27.067905
2022-12-15 13:26:27.068908
2022-12-15 13:26:27.101168
2022-12-15 13:26:27.102036
2022-12-15 13:26:27.134770
2022-12-15 13:26:27.135501
2022-12-15 13:26:27.135817
2022-12-15 13:26:27.168369
2022-12-15 13:26:27.169037
2022-12-15 13:26:27.169037
2022-12-15 13:26:27.201938
2022-12-15 13:26:27.202584
2022-12-15 13:26:27.235334
2022-12-15 13:26:27.235334
2022-12-15 13:26:27.236145
2022-12-15 13:26:27.269012
2022-12-15 13:26:27.269530
2022-12-15 13:26:27.269530
2022-12-15 13:26:27.302396
2022-12-15 13:26:27.303064
2022-12-15 13:26:27.336081
2022-12-15 13:26:27.337088
2022-12-15 13:26:27.337412
2022-12-15 13:26:27.368508
2022-12-15 13:26:27.369515
2022-12-15 13:26:27.369515
2022-12-15 13:26:27.402645
2022-12-15 13:26:27.402645
2022-12-15 13:26:27.436558
2022-12-15 13:26:27.436558
2022-12-15 13:26:27.437580
2022-12-15 13:26:27.469602
2022-12-15 13:26:27.469602
2022-12-15 13:26:27.470629
2022-12-15 13:26:27.503685
2022-12-15 13:26:27.504031
2022-12-15 13:26:27.537263
2022-12-15 13:26:27.537503
2022-12-15 13:26:27.538095
2022-12-15 13:26:27.570018
2022-12-15 13:26:27.571026
2022-12-15 13:26:27.571026
2022-12-15 13:26:27.603131
2022-12-15 13:26:27.604139
2022-12-15 13:26:27.637431
2022-12-15 13:26:27.637756
2022-12-15 13:26:27.638206
2022-12-15 13:26:27.671150
2022-12-15 13:26:27.671532
2022-12-15 13:26:27.671532
2022-12-15 13:26:27.704778
2022-12-15 13:26:27.705123
2022-12-15 13:26:27.738372
2022-12-15 13:26:27.738640
2022-12-15 13:26:27.739280
2022-12-15 13:26:27.771380
2022-12-15 13:26:27.771822
2022-12-15 13:26:27.771822
2022-12-15 13:26:27.805474
2022-12-15 13:26:27.805869
2022-12-15 13:26:27.838866
2022-12-15 13:26:27.838866
2022-12-15 13:26:27.839777
2022-12-15 13:26:27.871983
2022-12-15 13:26:27.871983
2022-12-15 13:26:27.872984
2022-12-15 13:26:27.906218
2022-12-15 13:26:27.906609
2022-12-15 13:26:27.939214
2022-12-15 13:26:27.939214
2022-12-15 13:26:27.940243
2022-12-15 13:26:27.973123
2022-12-15 13:26:27.973418
2022-12-15 13:26:27.974008
2022-12-15 13:26:28.005895
2022-12-15 13:26:28.006903
2022-12-15 13:26:28.038982
2022-12-15 13:26:28.040001
2022-12-15 13:26:28.040001
2022-12-15 13:26:28.073680
2022-12-15 13:26:28.074002
2022-12-15 13:26:28.074002
2022-12-15 13:26:28.107255
2022-12-15 13:26:28.107255
2022-12-15 13:26:28.141065
2022-12-15 13:26:28.141065
2022-12-15 13:26:28.142103
2022-12-15 13:26:28.173620
2022-12-15 13:26:28.173620
2022-12-15 13:26:28.174621
2022-12-15 13:26:28.207785
2022-12-15 13:26:28.208133
2022-12-15 13:26:28.241597
2022-12-15 13:26:28.241894
2022-12-15 13:26:28.242443
2022-12-15 13:26:28.274480
2022-12-15 13:26:28.274774
2022-12-15 13:26:28.274774
2022-12-15 13:26:28.308588
2022-12-15 13:26:28.308979
2022-12-15 13:26:28.342083
2022-12-15 13:26:28.342353
2022-12-15 13:26:28.342867
2022-12-15 13:26:28.375514
2022-12-15 13:26:28.375839
2022-12-15 13:26:28.375839
2022-12-15 13:26:28.408944
2022-12-15 13:26:28.409955
2022-12-15 13:26:28.441235
2022-12-15 13:26:28.442242
2022-12-15 13:26:28.442242
2022-12-15 13:26:28.476217
2022-12-15 13:26:28.476517
2022-12-15 13:26:28.477100
2022-12-15 13:26:28.509879
2022-12-15 13:26:28.510183
2022-12-15 13:26:28.543257
2022-12-15 13:26:28.543496
2022-12-15 13:26:28.544051
2022-12-15 13:26:28.576787
2022-12-15 13:26:28.576787
2022-12-15 13:26:28.577787
2022-12-15 13:26:28.610446
2022-12-15 13:26:28.610793
2022-12-15 13:26:28.644040
2022-12-15 13:26:28.644476
2022-12-15 13:26:28.644476
2022-12-15 13:26:28.677432
2022-12-15 13:26:28.677432
2022-12-15 13:26:28.678434
2022-12-15 13:26:28.710914
2022-12-15 13:26:28.711922
2022-12-15 13:26:28.743860
2022-12-15 13:26:28.744157
2022-12-15 13:26:28.744157
2022-12-15 13:26:28.777926
2022-12-15 13:26:28.778966
2022-12-15 13:26:28.778966
2022-12-15 13:26:28.811375
2022-12-15 13:26:28.812377
2022-12-15 13:26:28.844877
2022-12-15 13:26:28.844877
2022-12-15 13:26:28.845879
2022-12-15 13:26:28.878152
2022-12-15 13:26:28.878539
2022-12-15 13:26:28.879001
2022-12-15 13:26:28.911719
2022-12-15 13:26:28.912079
2022-12-15 13:26:28.945182
2022-12-15 13:26:28.945451
2022-12-15 13:26:28.945451
2022-12-15 13:26:28.979182
2022-12-15 13:26:28.979182
2022-12-15 13:26:28.980180
2022-12-15 13:26:29.011980
2022-12-15 13:26:29.011980
2022-12-15 13:26:29.045841
2022-12-15 13:26:29.046195
2022-12-15 13:26:29.046675
2022-12-15 13:26:29.079195
2022-12-15 13:26:29.079444
2022-12-15 13:26:29.079444
2022-12-15 13:26:29.112776
2022-12-15 13:26:29.113172
2022-12-15 13:26:29.146416
2022-12-15 13:26:29.146711
2022-12-15 13:26:29.147162
2022-12-15 13:26:29.179932
2022-12-15 13:26:29.179932
2022-12-15 13:26:29.180965
2022-12-15 13:26:29.213828
2022-12-15 13:26:29.214214
2022-12-15 13:26:29.247419
2022-12-15 13:26:29.247419
2022-12-15 13:26:29.248421
2022-12-15 13:26:29.281324
2022-12-15 13:26:29.281324
2022-12-15 13:26:29.282327
2022-12-15 13:26:29.314019
2022-12-15 13:26:29.314451
2022-12-15 13:26:29.348048
2022-12-15 13:26:29.348343
2022-12-15 13:26:29.348898
2022-12-15 13:26:29.380432
2022-12-15 13:26:29.381431
2022-12-15 13:26:29.381431
2022-12-15 13:26:29.415042
2022-12-15 13:26:29.415396
2022-12-15 13:26:29.448523
2022-12-15 13:26:29.448765
2022-12-15 13:26:29.449223
2022-12-15 13:26:29.482137
2022-12-15 13:26:29.482475
2022-12-15 13:26:29.483030
2022-12-15 13:26:29.515650
2022-12-15 13:26:29.515650
2022-12-15 13:26:29.549144
2022-12-15 13:26:29.549144
2022-12-15 13:26:29.550163
2022-12-15 13:26:29.581633
2022-12-15 13:26:29.582663
2022-12-15 13:26:29.582663
2022-12-15 13:26:29.615838
2022-12-15 13:26:29.615838
2022-12-15 13:26:29.649872
2022-12-15 13:26:29.650139
2022-12-15 13:26:29.650768
2022-12-15 13:26:29.683477
2022-12-15 13:26:29.683810
2022-12-15 13:26:29.684360
2022-12-15 13:26:29.716916
2022-12-15 13:26:29.717262
2022-12-15 13:26:29.750372
2022-12-15 13:26:29.750612
2022-12-15 13:26:29.751070
2022-12-15 13:26:29.783979
2022-12-15 13:26:29.784319
2022-12-15 13:26:29.784908
2022-12-15 13:26:29.817565
2022-12-15 13:26:29.817910
2022-12-15 13:26:29.850806
2022-12-15 13:26:29.851814
2022-12-15 13:26:29.851814
2022-12-15 13:26:29.884026
2022-12-15 13:26:29.884295
2022-12-15 13:26:29.884681
2022-12-15 13:26:29.917932
2022-12-15 13:26:29.918276
2022-12-15 13:26:29.951516
2022-12-15 13:26:29.951754
2022-12-15 13:26:29.951754
2022-12-15 13:26:29.985113
2022-12-15 13:26:29.985468
2022-12-15 13:26:29.985468
2022-12-15 13:26:30.018494
2022-12-15 13:26:30.018494
2022-12-15 13:26:30.052045
2022-12-15 13:26:30.052045
2022-12-15 13:26:30.053046
2022-12-15 13:26:30.085639
2022-12-15 13:26:30.085639
2022-12-15 13:26:30.086641
2022-12-15 13:26:30.119100
2022-12-15 13:26:30.120128
2022-12-15 13:26:30.152524
2022-12-15 13:26:30.152524
2022-12-15 13:26:30.153454
2022-12-15 13:26:30.185858
2022-12-15 13:26:30.185858
2022-12-15 13:26:30.186860
2022-12-15 13:26:30.219766
2022-12-15 13:26:30.220105
2022-12-15 13:26:30.253249
2022-12-15 13:26:30.253249
2022-12-15 13:26:30.254100
2022-12-15 13:26:30.286835
2022-12-15 13:26:30.286835
2022-12-15 13:26:30.287610
2022-12-15 13:26:30.320175
2022-12-15 13:26:30.320175
2022-12-15 13:26:30.353459
2022-12-15 13:26:30.353700
2022-12-15 13:26:30.354160
2022-12-15 13:26:30.386975
2022-12-15 13:26:30.386975
2022-12-15 13:26:30.388035
2022-12-15 13:26:30.420967
2022-12-15 13:26:30.421947
2022-12-15 13:26:30.453926
2022-12-15 13:26:30.453926
2022-12-15 13:26:30.454958
2022-12-15 13:26:30.487518
2022-12-15 13:26:30.487518
2022-12-15 13:26:30.488517
2022-12-15 13:26:30.521496
2022-12-15 13:26:30.521842
2022-12-15 13:26:30.555097
2022-12-15 13:26:30.555340
2022-12-15 13:26:30.555929
2022-12-15 13:26:30.588530
2022-12-15 13:26:30.588854
2022-12-15 13:26:30.589314
2022-12-15 13:26:30.622193
2022-12-15 13:26:30.622540
2022-12-15 13:26:30.655530
2022-12-15 13:26:30.655812
2022-12-15 13:26:30.656316
2022-12-15 13:26:30.689120
2022-12-15 13:26:30.689120
2022-12-15 13:26:30.690122
2022-12-15 13:26:30.723117
2022-12-15 13:26:30.723117
2022-12-15 13:26:30.755434
2022-12-15 13:26:30.756060
2022-12-15 13:26:30.756060
2022-12-15 13:26:30.789807
2022-12-15 13:26:30.790102
2022-12-15 13:26:30.790688
2022-12-15 13:26:30.823267
2022-12-15 13:26:30.823612
2022-12-15 13:26:30.856819
2022-12-15 13:26:30.857058
2022-12-15 13:26:30.857652
2022-12-15 13:26:30.890382
2022-12-15 13:26:30.890675
2022-12-15 13:26:30.891136
2022-12-15 13:26:30.923947
2022-12-15 13:26:30.924342
2022-12-15 13:26:30.957441
2022-12-15 13:26:30.957712
2022-12-15 13:26:30.958218
2022-12-15 13:26:30.991001
2022-12-15 13:26:30.991001
2022-12-15 13:26:30.992034
2022-12-15 13:26:31.024349
2022-12-15 13:26:31.024349
2022-12-15 13:26:31.057348
2022-12-15 13:26:31.057348
2022-12-15 13:26:31.058349
2022-12-15 13:26:31.091316
2022-12-15 13:26:31.092318
2022-12-15 13:26:31.092425
2022-12-15 13:26:31.125212
2022-12-15 13:26:31.125602
2022-12-15 13:26:31.158766
2022-12-15 13:26:31.159064
2022-12-15 13:26:31.159655
2022-12-15 13:26:31.191532
2022-12-15 13:26:31.191532
2022-12-15 13:26:31.192581
2022-12-15 13:26:31.225723
2022-12-15 13:26:31.226068
2022-12-15 13:26:31.259279
2022-12-15 13:26:31.259519
2022-12-15 13:26:31.260106
2022-12-15 13:26:31.292940
2022-12-15 13:26:31.293233
2022-12-15 13:26:31.293690
2022-12-15 13:26:31.326402
2022-12-15 13:26:31.326402
2022-12-15 13:26:31.359851
2022-12-15 13:26:31.360360
2022-12-15 13:26:31.360360
2022-12-15 13:26:31.392921
2022-12-15 13:26:31.393193
2022-12-15 13:26:31.393587
2022-12-15 13:26:31.426962
2022-12-15 13:26:31.427311
2022-12-15 13:26:31.460450
2022-12-15 13:26:31.460688
2022-12-15 13:26:31.460688
2022-12-15 13:26:31.494039
2022-12-15 13:26:31.494334
2022-12-15 13:26:31.494913
2022-12-15 13:26:31.527584
2022-12-15 13:26:31.527931
2022-12-15 13:26:31.561203
2022-12-15 13:26:31.561445
2022-12-15 13:26:31.561900
2022-12-15 13:26:31.594654
2022-12-15 13:26:31.594971
2022-12-15 13:26:31.595673
2022-12-15 13:26:31.628123
2022-12-15 13:26:31.628515
2022-12-15 13:26:31.661535
2022-12-15 13:26:31.661535
2022-12-15 13:26:31.662544
2022-12-15 13:26:31.694544
2022-12-15 13:26:31.694544
2022-12-15 13:26:31.695545
2022-12-15 13:26:31.728603
2022-12-15 13:26:31.728603
2022-12-15 13:26:31.762221
2022-12-15 13:26:31.762221
2022-12-15 13:26:31.763257
2022-12-15 13:26:31.795778
2022-12-15 13:26:31.796813
2022-12-15 13:26:31.796813
2022-12-15 13:26:31.829357
2022-12-15 13:26:31.830359
2022-12-15 13:26:31.862711
2022-12-15 13:26:31.863044
2022-12-15 13:26:31.863503
2022-12-15 13:26:31.896212
2022-12-15 13:26:31.896552
2022-12-15 13:26:31.897195
2022-12-15 13:26:31.929594
2022-12-15 13:26:31.929594
2022-12-15 13:26:31.962755
2022-12-15 13:26:31.962755
2022-12-15 13:26:31.963757
2022-12-15 13:26:31.995818
2022-12-15 13:26:31.996847
2022-12-15 13:26:31.996847
2022-12-15 13:26:32.030052
2022-12-15 13:26:32.030507
2022-12-15 13:26:32.062945
2022-12-15 13:26:32.063822
2022-12-15 13:26:32.064349
2022-12-15 13:26:32.097148
2022-12-15 13:26:32.097460
2022-12-15 13:26:32.097460
2022-12-15 13:26:32.130547
2022-12-15 13:26:32.130969
2022-12-15 13:26:32.164212
2022-12-15 13:26:32.164506
2022-12-15 13:26:32.164970
2022-12-15 13:26:32.197765
2022-12-15 13:26:32.198144
2022-12-15 13:26:32.198603
2022-12-15 13:26:32.231578
2022-12-15 13:26:32.231926
2022-12-15 13:26:32.265090
2022-12-15 13:26:32.265330
2022-12-15 13:26:32.265915
2022-12-15 13:26:32.298488
2022-12-15 13:26:32.299258
2022-12-15 13:26:32.299258
2022-12-15 13:26:32.331880
2022-12-15 13:26:32.332029
2022-12-15 13:26:32.365717
2022-12-15 13:26:32.365958
2022-12-15 13:26:32.366540
2022-12-15 13:26:32.399364
2022-12-15 13:26:32.399659
2022-12-15 13:26:32.400241
2022-12-15 13:26:32.432931
2022-12-15 13:26:32.433315
2022-12-15 13:26:32.466324
2022-12-15 13:26:32.466563
2022-12-15 13:26:32.466563
2022-12-15 13:26:32.499943
2022-12-15 13:26:32.500236
2022-12-15 13:26:32.500825
2022-12-15 13:26:32.533392
2022-12-15 13:26:32.533738
2022-12-15 13:26:32.567015
2022-12-15 13:26:32.567255
2022-12-15 13:26:32.567804
2022-12-15 13:26:32.600559
2022-12-15 13:26:32.600857
2022-12-15 13:26:32.601442
2022-12-15 13:26:32.634010
2022-12-15 13:26:32.634358
2022-12-15 13:26:32.667533
2022-12-15 13:26:32.667772
2022-12-15 13:26:32.668361
2022-12-15 13:26:32.701277
2022-12-15 13:26:32.701596
2022-12-15 13:26:32.701596
2022-12-15 13:26:32.734473
2022-12-15 13:26:32.735244
2022-12-15 13:26:32.767740
2022-12-15 13:26:32.767979
2022-12-15 13:26:32.768461
2022-12-15 13:26:32.801632
2022-12-15 13:26:32.801925
2022-12-15 13:26:32.802479
2022-12-15 13:26:32.835211
2022-12-15 13:26:32.835599
2022-12-15 13:26:32.868699
2022-12-15 13:26:32.868699
2022-12-15 13:26:32.869700
2022-12-15 13:26:32.902403
2022-12-15 13:26:32.902403
2022-12-15 13:26:32.903403
2022-12-15 13:26:32.935947
2022-12-15 13:26:32.935947
2022-12-15 13:26:32.969332
2022-12-15 13:26:32.969572
2022-12-15 13:26:32.969572
2022-12-15 13:26:33.002927
2022-12-15 13:26:33.003255
2022-12-15 13:26:33.003255
2022-12-15 13:26:33.036482
2022-12-15 13:26:33.037072
2022-12-15 13:26:33.069893
2022-12-15 13:26:33.070548
2022-12-15 13:26:33.070548
2022-12-15 13:26:33.103507
2022-12-15 13:26:33.104021
2022-12-15 13:26:33.104021
2022-12-15 13:26:33.136390
2022-12-15 13:26:33.137398
2022-12-15 13:26:33.169806
2022-12-15 13:26:33.169806
2022-12-15 13:26:33.170813
2022-12-15 13:26:33.204323
2022-12-15 13:26:33.204502
2022-12-15 13:26:33.204502
2022-12-15 13:26:33.237810
2022-12-15 13:26:33.238142
2022-12-15 13:26:33.270801
2022-12-15 13:26:33.270801
2022-12-15 13:26:33.271810
2022-12-15 13:26:33.304477
2022-12-15 13:26:33.304814
2022-12-15 13:26:33.304814
2022-12-15 13:26:33.337743
2022-12-15 13:26:33.338122
2022-12-15 13:26:33.371544
2022-12-15 13:26:33.371544
2022-12-15 13:26:33.372552
2022-12-15 13:26:33.404165
2022-12-15 13:26:33.405200
2022-12-15 13:26:33.405200
2022-12-15 13:26:33.438488
2022-12-15 13:26:33.438488
2022-12-15 13:26:33.472209
2022-12-15 13:26:33.472451
2022-12-15 13:26:33.473042
2022-12-15 13:26:33.505679
2022-12-15 13:26:33.505971
2022-12-15 13:26:33.506515
2022-12-15 13:26:33.539248
2022-12-15 13:26:33.539594
2022-12-15 13:26:33.572800
2022-12-15 13:26:33.573041
2022-12-15 13:26:33.573620
2022-12-15 13:26:33.606395
2022-12-15 13:26:33.606688
2022-12-15 13:26:33.607280
2022-12-15 13:26:33.639855
2022-12-15 13:26:33.639855
2022-12-15 13:26:33.673444
2022-12-15 13:26:33.674453
2022-12-15 13:26:33.674610
2022-12-15 13:26:33.706344
2022-12-15 13:26:33.706344
2022-12-15 13:26:33.707344
2022-12-15 13:26:33.740565
2022-12-15 13:26:33.740959
2022-12-15 13:26:33.774142
2022-12-15 13:26:33.774382
2022-12-15 13:26:33.774966
2022-12-15 13:26:33.807644
2022-12-15 13:26:33.807976
2022-12-15 13:26:33.808526
2022-12-15 13:26:33.841242
2022-12-15 13:26:33.841628
2022-12-15 13:26:33.874673
2022-12-15 13:26:33.874961
2022-12-15 13:26:33.874961
2022-12-15 13:26:33.908134
2022-12-15 13:26:33.908134
2022-12-15 13:26:33.909135
2022-12-15 13:26:33.941061
2022-12-15 13:26:33.941061
2022-12-15 13:26:33.975300
2022-12-15 13:26:33.975540
2022-12-15 13:26:33.975540
2022-12-15 13:26:34.008906
2022-12-15 13:26:34.009203
2022-12-15 13:26:34.009797
2022-12-15 13:26:34.042264
2022-12-15 13:26:34.042612
2022-12-15 13:26:34.074613
2022-12-15 13:26:34.075610
2022-12-15 13:26:34.075610
2022-12-15 13:26:34.108433
2022-12-15 13:26:34.109431
2022-12-15 13:26:34.109431
2022-12-15 13:26:34.142930
2022-12-15 13:26:34.143323
2022-12-15 13:26:34.176476
2022-12-15 13:26:34.176476
2022-12-15 13:26:34.177479
2022-12-15 13:26:34.209959
2022-12-15 13:26:34.210993
2022-12-15 13:26:34.210993
2022-12-15 13:26:34.243213
2022-12-15 13:26:34.243213
2022-12-15 13:26:34.276996
2022-12-15 13:26:34.277236
2022-12-15 13:26:34.277236
2022-12-15 13:26:34.310577
2022-12-15 13:26:34.310872
2022-12-15 13:26:34.311458
2022-12-15 13:26:34.344225
2022-12-15 13:26:34.344573
2022-12-15 13:26:34.377737
2022-12-15 13:26:34.378009
2022-12-15 13:26:34.378009
2022-12-15 13:26:34.411341
2022-12-15 13:26:34.411634
2022-12-15 13:26:34.412091
2022-12-15 13:26:34.444714
2022-12-15 13:26:34.445063
2022-12-15 13:26:34.478288
2022-12-15 13:26:34.478898
2022-12-15 13:26:34.478898
2022-12-15 13:26:34.511241
2022-12-15 13:26:34.511241
2022-12-15 13:26:34.512243
2022-12-15 13:26:34.545313
2022-12-15 13:26:34.545661
2022-12-15 13:26:34.578896
2022-12-15 13:26:34.579138
2022-12-15 13:26:34.579685
2022-12-15 13:26:34.612374
2022-12-15 13:26:34.612669
2022-12-15 13:26:34.613260
2022-12-15 13:26:34.646077
2022-12-15 13:26:34.646426
2022-12-15 13:26:34.679501
2022-12-15 13:26:34.679741
2022-12-15 13:26:34.680264
2022-12-15 13:26:34.713013
2022-12-15 13:26:34.713355
2022-12-15 13:26:34.713939
2022-12-15 13:26:34.746574
2022-12-15 13:26:34.747018
2022-12-15 13:26:34.780146
2022-12-15 13:26:34.780146
2022-12-15 13:26:34.781155
2022-12-15 13:26:34.813505
2022-12-15 13:26:34.813505
2022-12-15 13:26:34.814546
2022-12-15 13:26:34.846114
2022-12-15 13:26:34.847122
2022-12-15 13:26:34.880135
2022-12-15 13:26:34.880135
2022-12-15 13:26:34.881137
2022-12-15 13:26:34.913785
2022-12-15 13:26:34.913785
2022-12-15 13:26:34.914787
2022-12-15 13:26:34.947116
2022-12-15 13:26:34.947704
2022-12-15 13:26:34.980692
2022-12-15 13:26:34.980692
2022-12-15 13:26:34.981693
2022-12-15 13:26:35.014241
2022-12-15 13:26:35.014544
2022-12-15 13:26:35.015071
2022-12-15 13:26:35.048266
2022-12-15 13:26:35.048640
2022-12-15 13:26:35.081841
2022-12-15 13:26:35.082110
2022-12-15 13:26:35.082742
2022-12-15 13:26:35.115180
2022-12-15 13:26:35.115933
2022-12-15 13:26:35.115933
2022-12-15 13:26:35.147647
2022-12-15 13:26:35.148650
2022-12-15 13:26:35.181799
2022-12-15 13:26:35.181799
2022-12-15 13:26:35.182662
2022-12-15 13:26:35.215445
2022-12-15 13:26:35.215821
2022-12-15 13:26:35.216268
2022-12-15 13:26:35.248877
2022-12-15 13:26:35.249301
2022-12-15 13:26:35.282512
2022-12-15 13:26:35.282734
2022-12-15 13:26:35.282734
2022-12-15 13:26:35.316192
2022-12-15 13:26:35.316485
2022-12-15 13:26:35.317074
2022-12-15 13:26:35.349968
2022-12-15 13:26:35.350318
2022-12-15 13:26:35.383506
2022-12-15 13:26:35.383748
2022-12-15 13:26:35.383748
2022-12-15 13:26:35.416988
2022-12-15 13:26:35.416988
2022-12-15 13:26:35.417997
2022-12-15 13:26:35.449845
2022-12-15 13:26:35.450851
2022-12-15 13:26:35.484095
2022-12-15 13:26:35.484335
2022-12-15 13:26:35.484925
2022-12-15 13:26:35.517623
2022-12-15 13:26:35.517917
2022-12-15 13:26:35.518468
2022-12-15 13:26:35.551297
2022-12-15 13:26:35.551645
2022-12-15 13:26:35.584831
2022-12-15 13:26:35.585074
2022-12-15 13:26:35.585074
2022-12-15 13:26:35.618284
2022-12-15 13:26:35.618578
2022-12-15 13:26:35.619040
2022-12-15 13:26:35.651890
2022-12-15 13:26:35.652284
2022-12-15 13:26:35.685515
2022-12-15 13:26:35.685781
2022-12-15 13:26:35.685781
2022-12-15 13:26:35.718771
2022-12-15 13:26:35.719175
2022-12-15 13:26:35.720177
2022-12-15 13:26:35.751831
2022-12-15 13:26:35.752191
2022-12-15 13:26:35.785913
2022-12-15 13:26:35.786154
2022-12-15 13:26:35.786743
2022-12-15 13:26:35.819145
2022-12-15 13:26:35.819145
2022-12-15 13:26:35.819914
2022-12-15 13:26:35.853121
2022-12-15 13:26:35.853465
2022-12-15 13:26:35.886559
2022-12-15 13:26:35.886798
2022-12-15 13:26:35.886798
2022-12-15 13:26:35.920102
2022-12-15 13:26:35.920394
2022-12-15 13:26:35.920394
2022-12-15 13:26:35.953549
2022-12-15 13:26:35.954292
2022-12-15 13:26:35.987261
2022-12-15 13:26:35.987261
2022-12-15 13:26:35.988266
2022-12-15 13:26:36.019384
2022-12-15 13:26:36.020385
2022-12-15 13:26:36.020385
2022-12-15 13:26:36.053469
2022-12-15 13:26:36.054466
2022-12-15 13:26:36.087755
2022-12-15 13:26:36.088051
2022-12-15 13:26:36.088051
2022-12-15 13:26:36.121341
2022-12-15 13:26:36.121341
2022-12-15 13:26:36.122359
2022-12-15 13:26:36.154866
2022-12-15 13:26:36.155192
2022-12-15 13:26:36.188440
2022-12-15 13:26:36.188668
2022-12-15 13:26:36.189258
2022-12-15 13:26:36.221484
2022-12-15 13:26:36.221484
2022-12-15 13:26:36.222492
2022-12-15 13:26:36.255379
2022-12-15 13:26:36.255379
2022-12-15 13:26:36.288331
2022-12-15 13:26:36.288331
2022-12-15 13:26:36.289335
2022-12-15 13:26:36.322064
2022-12-15 13:26:36.322714
2022-12-15 13:26:36.322714
2022-12-15 13:26:36.355991
2022-12-15 13:26:36.356341
2022-12-15 13:26:36.388941
2022-12-15 13:26:36.388941
2022-12-15 13:26:36.389965
2022-12-15 13:26:36.423090
2022-12-15 13:26:36.423386
2022-12-15 13:26:36.423848
2022-12-15 13:26:36.456472
2022-12-15 13:26:36.456816
2022-12-15 13:26:36.490079
2022-12-15 13:26:36.490363
2022-12-15 13:26:36.490363
2022-12-15 13:26:36.523380
2022-12-15 13:26:36.523380
2022-12-15 13:26:36.524420
2022-12-15 13:26:36.556426
2022-12-15 13:26:36.556426
2022-12-15 13:26:36.590254
2022-12-15 13:26:36.590503
2022-12-15 13:26:36.590938
2022-12-15 13:26:36.624250
2022-12-15 13:26:36.624544
2022-12-15 13:26:36.625140
2022-12-15 13:26:36.657895
2022-12-15 13:26:36.658284
2022-12-15 13:26:36.691339
2022-12-15 13:26:36.691579
2022-12-15 13:26:36.691579
2022-12-15 13:26:36.724943
2022-12-15 13:26:36.725279
2022-12-15 13:26:36.725739
2022-12-15 13:26:36.758425
2022-12-15 13:26:36.758772
2022-12-15 13:26:36.791823
2022-12-15 13:26:36.792119
2022-12-15 13:26:36.792119
2022-12-15 13:26:36.825505
2022-12-15 13:26:36.825505
2022-12-15 13:26:36.826507
2022-12-15 13:26:36.858636
2022-12-15 13:26:36.858636
2022-12-15 13:26:36.892501
2022-12-15 13:26:36.892743
2022-12-15 13:26:36.893331
2022-12-15 13:26:36.926075
2022-12-15 13:26:36.926396
2022-12-15 13:26:36.927041
2022-12-15 13:26:36.959511
2022-12-15 13:26:36.959858
2022-12-15 13:26:36.993078
2022-12-15 13:26:36.993346
2022-12-15 13:26:36.993346
2022-12-15 13:26:37.026610
2022-12-15 13:26:37.026931
2022-12-15 13:26:37.026931
2022-12-15 13:26:37.060150
2022-12-15 13:26:37.060150
2022-12-15 13:26:37.093564
2022-12-15 13:26:37.093885
2022-12-15 13:26:37.094889
2022-12-15 13:26:37.126337
2022-12-15 13:26:37.127338
2022-12-15 13:26:37.127338
2022-12-15 13:26:37.160345
2022-12-15 13:26:37.160710
2022-12-15 13:26:37.194358
2022-12-15 13:26:37.194601
2022-12-15 13:26:37.194601
2022-12-15 13:26:37.227892
2022-12-15 13:26:37.228215
2022-12-15 13:26:37.228867
2022-12-15 13:26:37.261288
2022-12-15 13:26:37.261639
2022-12-15 13:26:37.294902
2022-12-15 13:26:37.295170
2022-12-15 13:26:37.295822
2022-12-15 13:26:37.328336
2022-12-15 13:26:37.328900
2022-12-15 13:26:37.329905
2022-12-15 13:26:37.361517
2022-12-15 13:26:37.361517
2022-12-15 13:26:37.394632
2022-12-15 13:26:37.394632
2022-12-15 13:26:37.395633
2022-12-15 13:26:37.429024
2022-12-15 13:26:37.429322
2022-12-15 13:26:37.429903
2022-12-15 13:26:37.462637
2022-12-15 13:26:37.462987
2022-12-15 13:26:37.496223
2022-12-15 13:26:37.496463
2022-12-15 13:26:37.496463
2022-12-15 13:26:37.529582
2022-12-15 13:26:37.529923
2022-12-15 13:26:37.530561
2022-12-15 13:26:37.563118
2022-12-15 13:26:37.563511
2022-12-15 13:26:37.596559
2022-12-15 13:26:37.597155
2022-12-15 13:26:37.598160
2022-12-15 13:26:37.629577
2022-12-15 13:26:37.629577
2022-12-15 13:26:37.630579
2022-12-15 13:26:37.662743
2022-12-15 13:26:37.663709
2022-12-15 13:26:37.697324
2022-12-15 13:26:37.697561
2022-12-15 13:26:37.698563
2022-12-15 13:26:37.730611
2022-12-15 13:26:37.730905
2022-12-15 13:26:37.731907
2022-12-15 13:26:37.764346
2022-12-15 13:26:37.764796
2022-12-15 13:26:37.797941
2022-12-15 13:26:37.798210
2022-12-15 13:26:37.799212
2022-12-15 13:26:37.831432
2022-12-15 13:26:37.831776
2022-12-15 13:26:37.832278
2022-12-15 13:26:37.864861
2022-12-15 13:26:37.865444
2022-12-15 13:26:37.897967
2022-12-15 13:26:37.897967
2022-12-15 13:26:37.897967
2022-12-15 13:26:37.931564
2022-12-15 13:26:37.932599
2022-12-15 13:26:37.932599
2022-12-15 13:26:37.964957
2022-12-15 13:26:37.965961
2022-12-15 13:26:37.998340
2022-12-15 13:26:37.998340
2022-12-15 13:26:37.999375
2022-12-15 13:26:38.031745
2022-12-15 13:26:38.032748
2022-12-15 13:26:38.032748
2022-12-15 13:26:38.065957
2022-12-15 13:26:38.066365
2022-12-15 13:26:38.098954
2022-12-15 13:26:38.098954
2022-12-15 13:26:38.099918
2022-12-15 13:26:38.132901
2022-12-15 13:26:38.133796
2022-12-15 13:26:38.133796
2022-12-15 13:26:38.166575
2022-12-15 13:26:38.166921
2022-12-15 13:26:38.199640
2022-12-15 13:26:38.199960
2022-12-15 13:26:38.200413
2022-12-15 13:26:38.233376
2022-12-15 13:26:38.233376
2022-12-15 13:26:38.234376
2022-12-15 13:26:38.266941
2022-12-15 13:26:38.267423
2022-12-15 13:26:38.300326
2022-12-15 13:26:38.300547
2022-12-15 13:26:38.300547
2022-12-15 13:26:38.334205
2022-12-15 13:26:38.334496
2022-12-15 13:26:38.334961
2022-12-15 13:26:38.367803
2022-12-15 13:26:38.368190
2022-12-15 13:26:38.401182
2022-12-15 13:26:38.401570
2022-12-15 13:26:38.402573
2022-12-15 13:26:38.434818
2022-12-15 13:26:38.435111
2022-12-15 13:26:38.435111
2022-12-15 13:26:38.468344
2022-12-15 13:26:38.468693
2022-12-15 13:26:38.501951
2022-12-15 13:26:38.502191
2022-12-15 13:26:38.502741
2022-12-15 13:26:38.535599
2022-12-15 13:26:38.535892
2022-12-15 13:26:38.536473
2022-12-15 13:26:38.569090
2022-12-15 13:26:38.569438
2022-12-15 13:26:38.602562
2022-12-15 13:26:38.602804
2022-12-15 13:26:38.602804
2022-12-15 13:26:38.636054
2022-12-15 13:26:38.636348
2022-12-15 13:26:38.636810
2022-12-15 13:26:38.669601
2022-12-15 13:26:38.669949
2022-12-15 13:26:38.703207
2022-12-15 13:26:38.703717
2022-12-15 13:26:38.704722
2022-12-15 13:26:38.736529
2022-12-15 13:26:38.736529
2022-12-15 13:26:38.736529
2022-12-15 13:26:38.770186
2022-12-15 13:26:38.770533
2022-12-15 13:26:38.803712
2022-12-15 13:26:38.803953
2022-12-15 13:26:38.803953
2022-12-15 13:26:38.837414
2022-12-15 13:26:38.837707
2022-12-15 13:26:38.837707
2022-12-15 13:26:38.870922
2022-12-15 13:26:38.871267
2022-12-15 13:26:38.904283
2022-12-15 13:26:38.904283
2022-12-15 13:26:38.905120
2022-12-15 13:26:38.937803
2022-12-15 13:26:38.938685
2022-12-15 13:26:38.938685
2022-12-15 13:26:38.971502
2022-12-15 13:26:38.972204
2022-12-15 13:26:39.004829
2022-12-15 13:26:39.004829
2022-12-15 13:26:39.005743
2022-12-15 13:26:39.037598
2022-12-15 13:26:39.038601
2022-12-15 13:26:39.039174
2022-12-15 13:26:39.071866
2022-12-15 13:26:39.072600
2022-12-15 13:26:39.105425
2022-12-15 13:26:39.105425
2022-12-15 13:26:39.106431
2022-12-15 13:26:39.138978
2022-12-15 13:26:39.139346
2022-12-15 13:26:39.139346
2022-12-15 13:26:39.172502
2022-12-15 13:26:39.172502
2022-12-15 13:26:39.205589
2022-12-15 13:26:39.205589
2022-12-15 13:26:39.206622
2022-12-15 13:26:39.239508
2022-12-15 13:26:39.239508
2022-12-15 13:26:39.240515
2022-12-15 13:26:39.272411
2022-12-15 13:26:39.273419
2022-12-15 13:26:39.305794
2022-12-15 13:26:39.306794
2022-12-15 13:26:39.306794
2022-12-15 13:26:39.340015
2022-12-15 13:26:39.340717
2022-12-15 13:26:39.340717
2022-12-15 13:26:39.373782
2022-12-15 13:26:39.374126
2022-12-15 13:26:39.407208
2022-12-15 13:26:39.407882
2022-12-15 13:26:39.407882
2022-12-15 13:26:39.440828
2022-12-15 13:26:39.441169
2022-12-15 13:26:39.441632
2022-12-15 13:26:39.474357
2022-12-15 13:26:39.474708
2022-12-15 13:26:39.507682
2022-12-15 13:26:39.507682
2022-12-15 13:26:39.508712
2022-12-15 13:26:39.541246
2022-12-15 13:26:39.541246
2022-12-15 13:26:39.542255
2022-12-15 13:26:39.574372
2022-12-15 13:26:39.574372
2022-12-15 13:26:39.607999
2022-12-15 13:26:39.608530
2022-12-15 13:26:39.608530
2022-12-15 13:26:39.641963
2022-12-15 13:26:39.642259
2022-12-15 13:26:39.642884
2022-12-15 13:26:39.675586
2022-12-15 13:26:39.675932
2022-12-15 13:26:39.708772
2022-12-15 13:26:39.708772
2022-12-15 13:26:39.709780
2022-12-15 13:26:39.742648
2022-12-15 13:26:39.742648
2022-12-15 13:26:39.743633
2022-12-15 13:26:39.776132
2022-12-15 13:26:39.776577
2022-12-15 13:26:39.809249
2022-12-15 13:26:39.809490
2022-12-15 13:26:39.809490
2022-12-15 13:26:39.841976
2022-12-15 13:26:39.842985
2022-12-15 13:26:39.842985
2022-12-15 13:26:39.876396
2022-12-15 13:26:39.876830
2022-12-15 13:26:39.910364
2022-12-15 13:26:39.910605
2022-12-15 13:26:39.911193
2022-12-15 13:26:39.943168
2022-12-15 13:26:39.943168
2022-12-15 13:26:39.944120
2022-12-15 13:26:39.977279
2022-12-15 13:26:39.977629
2022-12-15 13:26:40.010745
2022-12-15 13:26:40.010987
2022-12-15 13:26:40.011446
2022-12-15 13:26:40.044369
2022-12-15 13:26:40.044694
2022-12-15 13:26:40.044694
2022-12-15 13:26:40.077717
2022-12-15 13:26:40.077717
2022-12-15 13:26:40.110716
2022-12-15 13:26:40.110716
2022-12-15 13:26:40.111713
2022-12-15 13:26:40.144720
2022-12-15 13:26:40.145060
2022-12-15 13:26:40.145654
2022-12-15 13:26:40.178525
2022-12-15 13:26:40.178916
2022-12-15 13:26:40.211967
2022-12-15 13:26:40.212207
2022-12-15 13:26:40.212798
2022-12-15 13:26:40.245502
2022-12-15 13:26:40.245794
2022-12-15 13:26:40.246253
2022-12-15 13:26:40.279160
2022-12-15 13:26:40.279536
2022-12-15 13:26:40.312514
2022-12-15 13:26:40.312514
2022-12-15 13:26:40.313516
2022-12-15 13:26:40.344993
2022-12-15 13:26:40.345990
2022-12-15 13:26:40.345990
2022-12-15 13:26:40.379366
2022-12-15 13:26:40.379366
2022-12-15 13:26:40.413269
2022-12-15 13:26:40.413512
2022-12-15 13:26:40.414068
2022-12-15 13:26:40.446883
2022-12-15 13:26:40.447175
2022-12-15 13:26:40.447751
2022-12-15 13:26:40.480387
2022-12-15 13:26:40.480730
2022-12-15 13:26:40.513923
2022-12-15 13:26:40.514162
2022-12-15 13:26:40.514751
2022-12-15 13:26:40.547549
2022-12-15 13:26:40.547881
2022-12-15 13:26:40.548335
2022-12-15 13:26:40.580895
2022-12-15 13:26:40.580895
2022-12-15 13:26:40.614165
2022-12-15 13:26:40.614165
2022-12-15 13:26:40.615173
2022-12-15 13:26:40.647965
2022-12-15 13:26:40.648255
2022-12-15 13:26:40.648255
2022-12-15 13:26:40.681607
2022-12-15 13:26:40.681952
2022-12-15 13:26:40.715098
2022-12-15 13:26:40.715340
2022-12-15 13:26:40.716372
2022-12-15 13:26:40.748558
2022-12-15 13:26:40.748848
2022-12-15 13:26:40.749881
2022-12-15 13:26:40.782236
2022-12-15 13:26:40.782636
2022-12-15 13:26:40.815597
2022-12-15 13:26:40.815923
2022-12-15 13:26:40.816529
2022-12-15 13:26:40.849241
2022-12-15 13:26:40.849241
2022-12-15 13:26:40.850242
2022-12-15 13:26:40.882127
2022-12-15 13:26:40.883135
2022-12-15 13:26:40.915837
2022-12-15 13:26:40.915837
2022-12-15 13:26:40.916841
2022-12-15 13:26:40.949348
2022-12-15 13:26:40.950350
2022-12-15 13:26:40.950350
2022-12-15 13:26:40.982707
2022-12-15 13:26:40.983712
2022-12-15 13:26:41.016128
2022-12-15 13:26:41.016128
2022-12-15 13:26:41.017163
2022-12-15 13:26:41.049536
2022-12-15 13:26:41.050539
2022-12-15 13:26:41.050829
2022-12-15 13:26:41.083681
2022-12-15 13:26:41.084721
2022-12-15 13:26:41.117002
2022-12-15 13:26:41.117002
2022-12-15 13:26:41.118004
2022-12-15 13:26:41.150516
2022-12-15 13:26:41.150516
2022-12-15 13:26:41.151550
2022-12-15 13:26:41.183881
2022-12-15 13:26:41.184259
2022-12-15 13:26:41.217654
2022-12-15 13:26:41.217949
2022-12-15 13:26:41.217949
2022-12-15 13:26:41.251166
2022-12-15 13:26:41.251538
2022-12-15 13:26:41.251538
2022-12-15 13:26:41.284949
2022-12-15 13:26:41.285294
2022-12-15 13:26:41.318556
2022-12-15 13:26:41.318795
2022-12-15 13:26:41.319381
2022-12-15 13:26:41.352154
2022-12-15 13:26:41.352154
2022-12-15 13:26:41.353156
2022-12-15 13:26:41.385494
2022-12-15 13:26:41.386026
2022-12-15 13:26:41.418527
2022-12-15 13:26:41.418527
2022-12-15 13:26:41.419528
2022-12-15 13:26:41.452416
2022-12-15 13:26:41.452688
2022-12-15 13:26:41.453139
2022-12-15 13:26:41.486282
2022-12-15 13:26:41.486626
2022-12-15 13:26:41.519782
2022-12-15 13:26:41.520019
2022-12-15 13:26:41.520606
2022-12-15 13:26:41.553325
2022-12-15 13:26:41.553623
2022-12-15 13:26:41.554207
2022-12-15 13:26:41.586774
2022-12-15 13:26:41.587118
2022-12-15 13:26:41.620380
2022-12-15 13:26:41.620668
2022-12-15 13:26:41.621275
2022-12-15 13:26:41.653878
2022-12-15 13:26:41.653878
2022-12-15 13:26:41.654831
2022-12-15 13:26:41.687438
2022-12-15 13:26:41.687438
2022-12-15 13:26:41.720913
2022-12-15 13:26:41.721179
2022-12-15 13:26:41.721787
2022-12-15 13:26:41.754492
2022-12-15 13:26:41.754782
2022-12-15 13:26:41.754782
2022-12-15 13:26:41.788106
2022-12-15 13:26:41.788449
2022-12-15 13:26:41.821588
2022-12-15 13:26:41.821868
2022-12-15 13:26:41.821868
2022-12-15 13:26:41.854984
2022-12-15 13:26:41.855803
2022-12-15 13:26:41.855803
2022-12-15 13:26:41.888571
2022-12-15 13:26:41.889326
2022-12-15 13:26:41.922052
2022-12-15 13:26:41.922052
2022-12-15 13:26:41.922929
2022-12-15 13:26:41.955936
2022-12-15 13:26:41.955936
2022-12-15 13:26:41.956940
2022-12-15 13:26:41.988638
2022-12-15 13:26:41.988638
2022-12-15 13:26:42.022351
2022-12-15 13:26:42.022351
2022-12-15 13:26:42.023348
2022-12-15 13:26:42.056244
2022-12-15 13:26:42.056244
2022-12-15 13:26:42.057261
2022-12-15 13:26:42.089850
2022-12-15 13:26:42.089850
2022-12-15 13:26:42.123415
2022-12-15 13:26:42.123415
2022-12-15 13:26:42.124442
2022-12-15 13:26:42.156794
2022-12-15 13:26:42.156794
2022-12-15 13:26:42.157801
2022-12-15 13:26:42.189848
2022-12-15 13:26:42.189848
2022-12-15 13:26:42.223968
2022-12-15 13:26:42.223968
2022-12-15 13:26:42.224985
2022-12-15 13:26:42.256511
2022-12-15 13:26:42.257547
2022-12-15 13:26:42.257547
2022-12-15 13:26:42.290633
2022-12-15 13:26:42.291000
2022-12-15 13:26:42.324028
2022-12-15 13:26:42.324028
2022-12-15 13:26:42.325047
2022-12-15 13:26:42.357925
2022-12-15 13:26:42.358246
2022-12-15 13:26:42.358886
2022-12-15 13:26:42.391443
2022-12-15 13:26:42.391789
2022-12-15 13:26:42.425106
2022-12-15 13:26:42.425344
2022-12-15 13:26:42.425344
2022-12-15 13:26:42.458497
2022-12-15 13:26:42.458834
2022-12-15 13:26:42.459334
2022-12-15 13:26:42.492000
2022-12-15 13:26:42.493002
2022-12-15 13:26:42.525192
2022-12-15 13:26:42.525192
2022-12-15 13:26:42.526190
2022-12-15 13:26:42.558803
2022-12-15 13:26:42.559177
2022-12-15 13:26:42.559629
2022-12-15 13:26:42.592839
2022-12-15 13:26:42.593185
2022-12-15 13:26:42.626365
2022-12-15 13:26:42.626602
2022-12-15 13:26:42.627179
2022-12-15 13:26:42.659970
2022-12-15 13:26:42.660303
2022-12-15 13:26:42.660760
2022-12-15 13:26:42.693444
2022-12-15 13:26:42.693792
2022-12-15 13:26:42.726874
2022-12-15 13:26:42.727143
2022-12-15 13:26:42.727644
2022-12-15 13:26:42.760389
2022-12-15 13:26:42.760389
2022-12-15 13:26:42.761389
2022-12-15 13:26:42.793812
2022-12-15 13:26:42.794844
2022-12-15 13:26:42.827011
2022-12-15 13:26:42.827301
2022-12-15 13:26:42.827768
2022-12-15 13:26:42.861106
2022-12-15 13:26:42.861449
2022-12-15 13:26:42.861449
2022-12-15 13:26:42.894624
2022-12-15 13:26:42.894967
2022-12-15 13:26:42.928209
2022-12-15 13:26:42.928447
2022-12-15 13:26:42.929037
2022-12-15 13:26:42.961660
2022-12-15 13:26:42.961993
2022-12-15 13:26:42.962447
2022-12-15 13:26:42.995099
2022-12-15 13:26:42.995099
2022-12-15 13:26:43.028563
2022-12-15 13:26:43.028563
2022-12-15 13:26:43.029574
2022-12-15 13:26:43.061488
2022-12-15 13:26:43.061488
2022-12-15 13:26:43.062489
2022-12-15 13:26:43.095784
2022-12-15 13:26:43.096127
2022-12-15 13:26:43.129347
2022-12-15 13:26:43.129588
2022-12-15 13:26:43.130172
2022-12-15 13:26:43.162841
2022-12-15 13:26:43.163161
2022-12-15 13:26:43.163806
2022-12-15 13:26:43.196374
2022-12-15 13:26:43.196716
2022-12-15 13:26:43.229936
2022-12-15 13:26:43.230202
2022-12-15 13:26:43.231205
2022-12-15 13:26:43.263388
2022-12-15 13:26:43.263736
2022-12-15 13:26:43.263736
2022-12-15 13:26:43.297288
2022-12-15 13:26:43.297288
2022-12-15 13:26:43.329696
2022-12-15 13:26:43.329696
2022-12-15 13:26:43.330705
2022-12-15 13:26:43.363615
2022-12-15 13:26:43.363987
2022-12-15 13:26:43.364436
2022-12-15 13:26:43.397601
2022-12-15 13:26:43.397987
2022-12-15 13:26:43.431152
2022-12-15 13:26:43.431391
2022-12-15 13:26:43.431976
2022-12-15 13:26:43.464654
2022-12-15 13:26:43.464975
2022-12-15 13:26:43.465657
2022-12-15 13:26:43.498109
2022-12-15 13:26:43.498500
2022-12-15 13:26:43.531708
2022-12-15 13:26:43.531975
2022-12-15 13:26:43.531975
2022-12-15 13:26:43.565099
2022-12-15 13:26:43.565099
2022-12-15 13:26:43.566102
2022-12-15 13:26:43.598590
2022-12-15 13:26:43.598590
2022-12-15 13:26:43.631409
2022-12-15 13:26:43.631409
2022-12-15 13:26:43.632417
2022-12-15 13:26:43.665199
2022-12-15 13:26:43.665552
2022-12-15 13:26:43.666019
2022-12-15 13:26:43.698293
2022-12-15 13:26:43.699259
2022-12-15 13:26:43.732184
2022-12-15 13:26:43.732184
2022-12-15 13:26:43.733146
2022-12-15 13:26:43.766473
2022-12-15 13:26:43.766473
2022-12-15 13:26:43.767478
2022-12-15 13:26:43.799998
2022-12-15 13:26:43.800999
2022-12-15 13:26:43.833431
2022-12-15 13:26:43.833431
2022-12-15 13:26:43.834433
2022-12-15 13:26:43.867015
2022-12-15 13:26:43.868052
2022-12-15 13:26:43.868052
2022-12-15 13:26:43.900562
2022-12-15 13:26:43.900997
2022-12-15 13:26:43.934149
2022-12-15 13:26:43.934419
2022-12-15 13:26:43.935025
2022-12-15 13:26:43.967546
2022-12-15 13:26:43.967869
2022-12-15 13:26:43.967869
2022-12-15 13:26:44.000596
2022-12-15 13:26:44.000596
2022-12-15 13:26:44.034008
2022-12-15 13:26:44.034008
2022-12-15 13:26:44.035009
2022-12-15 13:26:44.067251
2022-12-15 13:26:44.068254
2022-12-15 13:26:44.068621
2022-12-15 13:26:44.100657
2022-12-15 13:26:44.101695
2022-12-15 13:26:44.134028
2022-12-15 13:26:44.135031
2022-12-15 13:26:44.135419
2022-12-15 13:26:44.167476
2022-12-15 13:26:44.168476
2022-12-15 13:26:44.168476
2022-12-15 13:26:44.202086
2022-12-15 13:26:44.202431
2022-12-15 13:26:44.234661
2022-12-15 13:26:44.235658
2022-12-15 13:26:44.235658
2022-12-15 13:26:44.269357
2022-12-15 13:26:44.269694
2022-12-15 13:26:44.270192
2022-12-15 13:26:44.302636
2022-12-15 13:26:44.302636
2022-12-15 13:26:44.335042
2022-12-15 13:26:44.336078
2022-12-15 13:26:44.336078
2022-12-15 13:26:44.369795
2022-12-15 13:26:44.370085
2022-12-15 13:26:44.370671
2022-12-15 13:26:44.403281
2022-12-15 13:26:44.404283
2022-12-15 13:26:44.436983
2022-12-15 13:26:44.437223
2022-12-15 13:26:44.437223
2022-12-15 13:26:44.470518
2022-12-15 13:26:44.470810
2022-12-15 13:26:44.470810
2022-12-15 13:26:44.504055
2022-12-15 13:26:44.504399
2022-12-15 13:26:44.537471
2022-12-15 13:26:44.537712
2022-12-15 13:26:44.538262
2022-12-15 13:26:44.571162
2022-12-15 13:26:44.571453
2022-12-15 13:26:44.572078
2022-12-15 13:26:44.604595
2022-12-15 13:26:44.604941
2022-12-15 13:26:44.638159
2022-12-15 13:26:44.638518
2022-12-15 13:26:44.639070
2022-12-15 13:26:44.671662
2022-12-15 13:26:44.671662
2022-12-15 13:26:44.672666
2022-12-15 13:26:44.705224
2022-12-15 13:26:44.705224
2022-12-15 13:26:44.737800
2022-12-15 13:26:44.738801
2022-12-15 13:26:44.738801
2022-12-15 13:26:44.772153
2022-12-15 13:26:44.772153
2022-12-15 13:26:44.773161
2022-12-15 13:26:44.805482
2022-12-15 13:26:44.805482
2022-12-15 13:26:44.838829
2022-12-15 13:26:44.838829
2022-12-15 13:26:44.839832
2022-12-15 13:26:44.872728
2022-12-15 13:26:44.872728
2022-12-15 13:26:44.873720
2022-12-15 13:26:44.906238
2022-12-15 13:26:44.906238
2022-12-15 13:26:44.939789
2022-12-15 13:26:44.940259
2022-12-15 13:26:44.941262
2022-12-15 13:26:44.973400
2022-12-15 13:26:44.973820
2022-12-15 13:26:44.974350
2022-12-15 13:26:45.006777
2022-12-15 13:26:45.007346
2022-12-15 13:26:45.040482
2022-12-15 13:26:45.040482
2022-12-15 13:26:45.041497
2022-12-15 13:26:45.073790
2022-12-15 13:26:45.073790
2022-12-15 13:26:45.073790
2022-12-15 13:26:45.107357
2022-12-15 13:26:45.107357
2022-12-15 13:26:45.141054
2022-12-15 13:26:45.141339
2022-12-15 13:26:45.141982
2022-12-15 13:26:45.174290
2022-12-15 13:26:45.174629
2022-12-15 13:26:45.175179
2022-12-15 13:26:45.207836
2022-12-15 13:26:45.208229
2022-12-15 13:26:45.241720
2022-12-15 13:26:45.241960
2022-12-15 13:26:45.242555
2022-12-15 13:26:45.275192
2022-12-15 13:26:45.275483
2022-12-15 13:26:45.275483
2022-12-15 13:26:45.308538
2022-12-15 13:26:45.309032
2022-12-15 13:26:45.342280
2022-12-15 13:26:45.342520
2022-12-15 13:26:45.343078
2022-12-15 13:26:45.375726
2022-12-15 13:26:45.376021
2022-12-15 13:26:45.376021
2022-12-15 13:26:45.409258
2022-12-15 13:26:45.409606
2022-12-15 13:26:45.442791
2022-12-15 13:26:45.443030
2022-12-15 13:26:45.443618
2022-12-15 13:26:45.476359
2022-12-15 13:26:45.476649
2022-12-15 13:26:45.477102
2022-12-15 13:26:45.510015
2022-12-15 13:26:45.510359
2022-12-15 13:26:45.543400
2022-12-15 13:26:45.543640
2022-12-15 13:26:45.544101
2022-12-15 13:26:45.576870
2022-12-15 13:26:45.577346
2022-12-15 13:26:45.578346
2022-12-15 13:26:45.609707
2022-12-15 13:26:45.610716
2022-12-15 13:26:45.644107
2022-12-15 13:26:45.644348
2022-12-15 13:26:45.644932
2022-12-15 13:26:45.677593
2022-12-15 13:26:45.677883
2022-12-15 13:26:45.678463
2022-12-15 13:26:45.711270
2022-12-15 13:26:45.711612
2022-12-15 13:26:45.744663
2022-12-15 13:26:45.744901
2022-12-15 13:26:45.745360
2022-12-15 13:26:45.778353
2022-12-15 13:26:45.778645
2022-12-15 13:26:45.779227
2022-12-15 13:26:45.811775
2022-12-15 13:26:45.812151
2022-12-15 13:26:45.845212
2022-12-15 13:26:45.845212
2022-12-15 13:26:45.846214
2022-12-15 13:26:45.878859
2022-12-15 13:26:45.878859
2022-12-15 13:26:45.879869
2022-12-15 13:26:45.911729
2022-12-15 13:26:45.911729
2022-12-15 13:26:45.945865
2022-12-15 13:26:45.946103
2022-12-15 13:26:45.946703
2022-12-15 13:26:45.979414
2022-12-15 13:26:45.979703
2022-12-15 13:26:45.980286
2022-12-15 13:26:46.013002
2022-12-15 13:26:46.013345
2022-12-15 13:26:46.046485
2022-12-15 13:26:46.046722
2022-12-15 13:26:46.047232
2022-12-15 13:26:46.080026
2022-12-15 13:26:46.080348
2022-12-15 13:26:46.081350
2022-12-15 13:26:46.113428
2022-12-15 13:26:46.113428
2022-12-15 13:26:46.145662
2022-12-15 13:26:46.146669
2022-12-15 13:26:46.146669
2022-12-15 13:26:46.180610
2022-12-15 13:26:46.180944
2022-12-15 13:26:46.181528
2022-12-15 13:26:46.213980
2022-12-15 13:26:46.214325
2022-12-15 13:26:46.247592
2022-12-15 13:26:46.248593
2022-12-15 13:26:46.249591
2022-12-15 13:26:46.281312
2022-12-15 13:26:46.281604
2022-12-15 13:26:46.282066
2022-12-15 13:26:46.314728
2022-12-15 13:26:46.315104
2022-12-15 13:26:46.348307
2022-12-15 13:26:46.348573
2022-12-15 13:26:46.348573
2022-12-15 13:26:46.381744
2022-12-15 13:26:46.381744
2022-12-15 13:26:46.382789
2022-12-15 13:26:46.414719
2022-12-15 13:26:46.414719
2022-12-15 13:26:46.448354
2022-12-15 13:26:46.448676
2022-12-15 13:26:46.449137
2022-12-15 13:26:46.482245
2022-12-15 13:26:46.482578
2022-12-15 13:26:46.483167
2022-12-15 13:26:46.515992
2022-12-15 13:26:46.516337
2022-12-15 13:26:46.549481
2022-12-15 13:26:46.549767
2022-12-15 13:26:46.549767
2022-12-15 13:26:46.583034
2022-12-15 13:26:46.583326
2022-12-15 13:26:46.583789
2022-12-15 13:26:46.615774
2022-12-15 13:26:46.616774
2022-12-15 13:26:46.649600
2022-12-15 13:26:46.649600
2022-12-15 13:26:46.649600
2022-12-15 13:26:46.683512
2022-12-15 13:26:46.684544
2022-12-15 13:26:46.684544
2022-12-15 13:26:46.716855
2022-12-15 13:26:46.717011
2022-12-15 13:26:46.750356
2022-12-15 13:26:46.750594
2022-12-15 13:26:46.751195
2022-12-15 13:26:46.784228
2022-12-15 13:26:46.784520
2022-12-15 13:26:46.784520
2022-12-15 13:26:46.817664
2022-12-15 13:26:46.817664
2022-12-15 13:26:46.851254
2022-12-15 13:26:46.851254
2022-12-15 13:26:46.852257
2022-12-15 13:26:46.884702
2022-12-15 13:26:46.885740
2022-12-15 13:26:46.885740
2022-12-15 13:26:46.918368
2022-12-15 13:26:46.918803
2022-12-15 13:26:46.951862
2022-12-15 13:26:46.952240
2022-12-15 13:26:46.952893
2022-12-15 13:26:46.985201
2022-12-15 13:26:46.985201
2022-12-15 13:26:46.986202
2022-12-15 13:26:47.018176
2022-12-15 13:26:47.019182
2022-12-15 13:26:47.051462
2022-12-15 13:26:47.052462
2022-12-15 13:26:47.052742
2022-12-15 13:26:47.085162
2022-12-15 13:26:47.086163
2022-12-15 13:26:47.086163
2022-12-15 13:26:47.118540
2022-12-15 13:26:47.119542
2022-12-15 13:26:47.151832
2022-12-15 13:26:47.152834
2022-12-15 13:26:47.153278
2022-12-15 13:26:47.186228
2022-12-15 13:26:47.186228
2022-12-15 13:26:47.187210
2022-12-15 13:26:47.219650
2022-12-15 13:26:47.219650
2022-12-15 13:26:47.253468
2022-12-15 13:26:47.253706
2022-12-15 13:26:47.254165
2022-12-15 13:26:47.287018
2022-12-15 13:26:47.287310
2022-12-15 13:26:47.287310
2022-12-15 13:26:47.320592
2022-12-15 13:26:47.320592
2022-12-15 13:26:47.354038
2022-12-15 13:26:47.354038
2022-12-15 13:26:47.355041
2022-12-15 13:26:47.387584
2022-12-15 13:26:47.387874
2022-12-15 13:26:47.388451
2022-12-15 13:26:47.421185
2022-12-15 13:26:47.421531
2022-12-15 13:26:47.454790
2022-12-15 13:26:47.455031
2022-12-15 13:26:47.455617
2022-12-15 13:26:47.488344
2022-12-15 13:26:47.488637
2022-12-15 13:26:47.489185
2022-12-15 13:26:47.521878
2022-12-15 13:26:47.522222
2022-12-15 13:26:47.555311
2022-12-15 13:26:47.555552
2022-12-15 13:26:47.556141
2022-12-15 13:26:47.588869
2022-12-15 13:26:47.589160
2022-12-15 13:26:47.589613
2022-12-15 13:26:47.622387
2022-12-15 13:26:47.622387
2022-12-15 13:26:47.656133
2022-12-15 13:26:47.656133
2022-12-15 13:26:47.657137
2022-12-15 13:26:47.688886
2022-12-15 13:26:47.688886
2022-12-15 13:26:47.689887
2022-12-15 13:26:47.722804
2022-12-15 13:26:47.722804
2022-12-15 13:26:47.756390
2022-12-15 13:26:47.756390
2022-12-15 13:26:47.757284
2022-12-15 13:26:47.790102
2022-12-15 13:26:47.790102
2022-12-15 13:26:47.791102
2022-12-15 13:26:47.823809
2022-12-15 13:26:47.823809
2022-12-15 13:26:47.857038
2022-12-15 13:26:47.857335
2022-12-15 13:26:47.857335
2022-12-15 13:26:47.890583
2022-12-15 13:26:47.891029
2022-12-15 13:26:47.891598
2022-12-15 13:26:47.924432
2022-12-15 13:26:47.924741
2022-12-15 13:26:47.957662
2022-12-15 13:26:47.958672
2022-12-15 13:26:47.958672
2022-12-15 13:26:47.991026
2022-12-15 13:26:47.991374
2022-12-15 13:26:47.992006
2022-12-15 13:26:48.024462
2022-12-15 13:26:48.024462
2022-12-15 13:26:48.058252
2022-12-15 13:26:48.058560
2022-12-15 13:26:48.059162
2022-12-15 13:26:48.091254
2022-12-15 13:26:48.091254
2022-12-15 13:26:48.092257
2022-12-15 13:26:48.125273
2022-12-15 13:26:48.125273
2022-12-15 13:26:48.158333
2022-12-15 13:26:48.158333
2022-12-15 13:26:48.159429
2022-12-15 13:26:48.192409
2022-12-15 13:26:48.192409
2022-12-15 13:26:48.193410
2022-12-15 13:26:48.225475
2022-12-15 13:26:48.226483
2022-12-15 13:26:48.259489
2022-12-15 13:26:48.259728
2022-12-15 13:26:48.260317
2022-12-15 13:26:48.292982
2022-12-15 13:26:48.293273
2022-12-15 13:26:48.293859
2022-12-15 13:26:48.326388
2022-12-15 13:26:48.327022
2022-12-15 13:26:48.360007
2022-12-15 13:26:48.360245
2022-12-15 13:26:48.360833
2022-12-15 13:26:48.393494
2022-12-15 13:26:48.393786
2022-12-15 13:26:48.394290
2022-12-15 13:26:48.427228
2022-12-15 13:26:48.427228
2022-12-15 13:26:48.460637
2022-12-15 13:26:48.460876
2022-12-15 13:26:48.461335
2022-12-15 13:26:48.493866
2022-12-15 13:26:48.494898
2022-12-15 13:26:48.494898
2022-12-15 13:26:48.527382
2022-12-15 13:26:48.527382
2022-12-15 13:26:48.561241
2022-12-15 13:26:48.561479
2022-12-15 13:26:48.562029
2022-12-15 13:26:48.594839
2022-12-15 13:26:48.595128
2022-12-15 13:26:48.595710
2022-12-15 13:26:48.628275
2022-12-15 13:26:48.628621
2022-12-15 13:26:48.661854
2022-12-15 13:26:48.662093
2022-12-15 13:26:48.662550
2022-12-15 13:26:48.695390
2022-12-15 13:26:48.695682
2022-12-15 13:26:48.696279
2022-12-15 13:26:48.728830
2022-12-15 13:26:48.728830
2022-12-15 13:26:48.762438
2022-12-15 13:26:48.762438
2022-12-15 13:26:48.763457
2022-12-15 13:26:48.796050
2022-12-15 13:26:48.796050
2022-12-15 13:26:48.797073
2022-12-15 13:26:48.828611
2022-12-15 13:26:48.829612
2022-12-15 13:26:48.863079
2022-12-15 13:26:48.863321
2022-12-15 13:26:48.863905
2022-12-15 13:26:48.896591
2022-12-15 13:26:48.896881
2022-12-15 13:26:48.897463
2022-12-15 13:26:48.930130
2022-12-15 13:26:48.930472
2022-12-15 13:26:48.963681
2022-12-15 13:26:48.963920
2022-12-15 13:26:48.964513
2022-12-15 13:26:48.997240
2022-12-15 13:26:48.997576
2022-12-15 13:26:48.998073
2022-12-15 13:26:49.030751
2022-12-15 13:26:49.031098
2022-12-15 13:26:49.063732
2022-12-15 13:26:49.063732
2022-12-15 13:26:49.064741
2022-12-15 13:26:49.097843
2022-12-15 13:26:49.098878
2022-12-15 13:26:49.099071
2022-12-15 13:26:49.130326
2022-12-15 13:26:49.131328
2022-12-15 13:26:49.164840
2022-12-15 13:26:49.165079
2022-12-15 13:26:49.165669
2022-12-15 13:26:49.198392
2022-12-15 13:26:49.198685
2022-12-15 13:26:49.199235
2022-12-15 13:26:49.231946
2022-12-15 13:26:49.232291
2022-12-15 13:26:49.265624
2022-12-15 13:26:49.265890
2022-12-15 13:26:49.266403
2022-12-15 13:26:49.299017
2022-12-15 13:26:49.299355
2022-12-15 13:26:49.300357
2022-12-15 13:26:49.332462
2022-12-15 13:26:49.332462
2022-12-15 13:26:49.365963
2022-12-15 13:26:49.365963
2022-12-15 13:26:49.366971
2022-12-15 13:26:49.398991
2022-12-15 13:26:49.398991
2022-12-15 13:26:49.399996
2022-12-15 13:26:49.431973
2022-12-15 13:26:49.433010
2022-12-15 13:26:49.465529
2022-12-15 13:26:49.466531
2022-12-15 13:26:49.466531
2022-12-15 13:26:49.498917
2022-12-15 13:26:49.499917
2022-12-15 13:26:49.500407
2022-12-15 13:26:49.533751
2022-12-15 13:26:49.533751
2022-12-15 13:26:49.567206
2022-12-15 13:26:49.567518
2022-12-15 13:26:49.568109
2022-12-15 13:26:49.600801
2022-12-15 13:26:49.600801
2022-12-15 13:26:49.601759
2022-12-15 13:26:49.634389
2022-12-15 13:26:49.634389
2022-12-15 13:26:49.667584
2022-12-15 13:26:49.667584
2022-12-15 13:26:49.668588
2022-12-15 13:26:49.700846
2022-12-15 13:26:49.700846
2022-12-15 13:26:49.701852
2022-12-15 13:26:49.734192
2022-12-15 13:26:49.735195
2022-12-15 13:26:49.767478
2022-12-15 13:26:49.768484
2022-12-15 13:26:49.768484
2022-12-15 13:26:49.801976
2022-12-15 13:26:49.802266
2022-12-15 13:26:49.803268
2022-12-15 13:26:49.835464
2022-12-15 13:26:49.835464
2022-12-15 13:26:49.869024
2022-12-15 13:26:49.869024
2022-12-15 13:26:49.870026
2022-12-15 13:26:49.902417
2022-12-15 13:26:49.902417
2022-12-15 13:26:49.903423
2022-12-15 13:26:49.936018
2022-12-15 13:26:49.937021
2022-12-15 13:26:49.969439
2022-12-15 13:26:49.969439
2022-12-15 13:26:49.970473
2022-12-15 13:26:50.002876
2022-12-15 13:26:50.003313
2022-12-15 13:26:50.003774
2022-12-15 13:26:50.036212
2022-12-15 13:26:50.036656
2022-12-15 13:26:50.069797
2022-12-15 13:26:50.070038
2022-12-15 13:26:50.070499
2022-12-15 13:26:50.102914
2022-12-15 13:26:50.103954
2022-12-15 13:26:50.104328
2022-12-15 13:26:50.137015
2022-12-15 13:26:50.137917
2022-12-15 13:26:50.170826
2022-12-15 13:26:50.171067
2022-12-15 13:26:50.171654
2022-12-15 13:26:50.204341
2022-12-15 13:26:50.204631
2022-12-15 13:26:50.205216
2022-12-15 13:26:50.237742
2022-12-15 13:26:50.237742
2022-12-15 13:26:50.271343
2022-12-15 13:26:50.271586
2022-12-15 13:26:50.272127
2022-12-15 13:26:50.304847
2022-12-15 13:26:50.305140
2022-12-15 13:26:50.305140
2022-12-15 13:26:50.337948
2022-12-15 13:26:50.337948
2022-12-15 13:26:50.371353
2022-12-15 13:26:50.371353
2022-12-15 13:26:50.372355
2022-12-15 13:26:50.405369
2022-12-15 13:26:50.406372
2022-12-15 13:26:50.406372
2022-12-15 13:26:50.438562
2022-12-15 13:26:50.438985
2022-12-15 13:26:50.472485
2022-12-15 13:26:50.472726
2022-12-15 13:26:50.473275
2022-12-15 13:26:50.506136
2022-12-15 13:26:50.506432
2022-12-15 13:26:50.506432
2022-12-15 13:26:50.539582
2022-12-15 13:26:50.539930
2022-12-15 13:26:50.573208
2022-12-15 13:26:50.573447
2022-12-15 13:26:50.574037
2022-12-15 13:26:50.606702
2022-12-15 13:26:50.606995
2022-12-15 13:26:50.607451
2022-12-15 13:26:50.640095
2022-12-15 13:26:50.640497
2022-12-15 13:26:50.673839
2022-12-15 13:26:50.674841
2022-12-15 13:26:50.674841
2022-12-15 13:26:50.706746
2022-12-15 13:26:50.706746
2022-12-15 13:26:50.707746
2022-12-15 13:26:50.740932
2022-12-15 13:26:50.740932
2022-12-15 13:26:50.774390
2022-12-15 13:26:50.774819
2022-12-15 13:26:50.774819
2022-12-15 13:26:50.807869
2022-12-15 13:26:50.808310
2022-12-15 13:26:50.808310
2022-12-15 13:26:50.841312
2022-12-15 13:26:50.842142
2022-12-15 13:26:50.874892
2022-12-15 13:26:50.875612
2022-12-15 13:26:50.875612
2022-12-15 13:26:50.908418
2022-12-15 13:26:50.908418
2022-12-15 13:26:50.909461
2022-12-15 13:26:50.941751
2022-12-15 13:26:50.942400
2022-12-15 13:26:50.974895
2022-12-15 13:26:50.975955
2022-12-15 13:26:50.976143
2022-12-15 13:26:51.008869
2022-12-15 13:26:51.008869
2022-12-15 13:26:51.009820
2022-12-15 13:26:51.042004
2022-12-15 13:26:51.042430
2022-12-15 13:26:51.075977
2022-12-15 13:26:51.076258
2022-12-15 13:26:51.076856
2022-12-15 13:26:51.109320
2022-12-15 13:26:51.109613
2022-12-15 13:26:51.109613
2022-12-15 13:26:51.143133
2022-12-15 13:26:51.143850
2022-12-15 13:26:51.176270
2022-12-15 13:26:51.176509
2022-12-15 13:26:51.176970
2022-12-15 13:26:51.210180
2022-12-15 13:26:51.210521
2022-12-15 13:26:51.211166
2022-12-15 13:26:51.243846
2022-12-15 13:26:51.243846
2022-12-15 13:26:51.277185
2022-12-15 13:26:51.277617
2022-12-15 13:26:51.278620
2022-12-15 13:26:51.310705
2022-12-15 13:26:51.310997
2022-12-15 13:26:51.310997
2022-12-15 13:26:51.344250
2022-12-15 13:26:51.344592
2022-12-15 13:26:51.377955
2022-12-15 13:26:51.378223
2022-12-15 13:26:51.378223
2022-12-15 13:26:51.411377
2022-12-15 13:26:51.411669
2022-12-15 13:26:51.412252
2022-12-15 13:26:51.444903
2022-12-15 13:26:51.445247
2022-12-15 13:26:51.478569
2022-12-15 13:26:51.478809
2022-12-15 13:26:51.478809
2022-12-15 13:26:51.512041
2022-12-15 13:26:51.512362
2022-12-15 13:26:51.512362
2022-12-15 13:26:51.545431
2022-12-15 13:26:51.546217
2022-12-15 13:26:51.578573
2022-12-15 13:26:51.578573
2022-12-15 13:26:51.579602
2022-12-15 13:26:51.612570
2022-12-15 13:26:51.612862
2022-12-15 13:26:51.613450
2022-12-15 13:26:51.646139
2022-12-15 13:26:51.646484
2022-12-15 13:26:51.679695
2022-12-15 13:26:51.679935
2022-12-15 13:26:51.680520
2022-12-15 13:26:51.713220
2022-12-15 13:26:51.713561
2022-12-15 13:26:51.714064
2022-12-15 13:26:51.746866
2022-12-15 13:26:51.747209
2022-12-15 13:26:51.780081
2022-12-15 13:26:51.780081
2022-12-15 13:26:51.781084
2022-12-15 13:26:51.813141
2022-12-15 13:26:51.813141
2022-12-15 13:26:51.814148
2022-12-15 13:26:51.846928
2022-12-15 13:26:51.847247
2022-12-15 13:26:51.881048
2022-12-15 13:26:51.881313
2022-12-15 13:26:51.881972
2022-12-15 13:26:51.914621
2022-12-15 13:26:51.914951
2022-12-15 13:26:51.914951
2022-12-15 13:26:51.948102
2022-12-15 13:26:51.948480
2022-12-15 13:26:51.981637
2022-12-15 13:26:51.981877
2022-12-15 13:26:51.982462
2022-12-15 13:26:52.015105
2022-12-15 13:26:52.015105
2022-12-15 13:26:52.016107
2022-12-15 13:26:52.048432
2022-12-15 13:26:52.049115
2022-12-15 13:26:52.080950
2022-12-15 13:26:52.081960
2022-12-15 13:26:52.081960
2022-12-15 13:26:52.115204
2022-12-15 13:26:52.115601
2022-12-15 13:26:52.116109
2022-12-15 13:26:52.149302
2022-12-15 13:26:52.149648
2022-12-15 13:26:52.182699
2022-12-15 13:26:52.182940
2022-12-15 13:26:52.183527
2022-12-15 13:26:52.216262
2022-12-15 13:26:52.216554
2022-12-15 13:26:52.217138
2022-12-15 13:26:52.249768
2022-12-15 13:26:52.250146
2022-12-15 13:26:52.282672
2022-12-15 13:26:52.282672
2022-12-15 13:26:52.283668
2022-12-15 13:26:52.316736
2022-12-15 13:26:52.317294
2022-12-15 13:26:52.318297
2022-12-15 13:26:52.349628
2022-12-15 13:26:52.350635
2022-12-15 13:26:52.382632
2022-12-15 13:26:52.383612
2022-12-15 13:26:52.384242
2022-12-15 13:26:52.417416
2022-12-15 13:26:52.417708
2022-12-15 13:26:52.418295
2022-12-15 13:26:52.451015
2022-12-15 13:26:52.451362
2022-12-15 13:26:52.484596
2022-12-15 13:26:52.484836
2022-12-15 13:26:52.485423
2022-12-15 13:26:52.518160
2022-12-15 13:26:52.518454
2022-12-15 13:26:52.518917
2022-12-15 13:26:52.551667
2022-12-15 13:26:52.552008
2022-12-15 13:26:52.585133
2022-12-15 13:26:52.585133
2022-12-15 13:26:52.585993
2022-12-15 13:26:52.617515
2022-12-15 13:26:52.618522
2022-12-15 13:26:52.618522
2022-12-15 13:26:52.652168
2022-12-15 13:26:52.652554
2022-12-15 13:26:52.685611
2022-12-15 13:26:52.685851
2022-12-15 13:26:52.686400
2022-12-15 13:26:52.719316
2022-12-15 13:26:52.719604
2022-12-15 13:26:52.720605
2022-12-15 13:26:52.752727
2022-12-15 13:26:52.753071
2022-12-15 13:26:52.786260
2022-12-15 13:26:52.786500
2022-12-15 13:26:52.787502
2022-12-15 13:26:52.819811
2022-12-15 13:26:52.820102
2022-12-15 13:26:52.820604
2022-12-15 13:26:52.853457
2022-12-15 13:26:52.853913
2022-12-15 13:26:52.885936
2022-12-15 13:26:52.886935
2022-12-15 13:26:52.886935
2022-12-15 13:26:52.919797
2022-12-15 13:26:52.919797
2022-12-15 13:26:52.920782
2022-12-15 13:26:52.953493
2022-12-15 13:26:52.954519
2022-12-15 13:26:52.986835
2022-12-15 13:26:52.986835
2022-12-15 13:26:52.987867
2022-12-15 13:26:53.020718
2022-12-15 13:26:53.021721
2022-12-15 13:26:53.021721
2022-12-15 13:26:53.054083
2022-12-15 13:26:53.055088
2022-12-15 13:26:53.087461
2022-12-15 13:26:53.087461
2022-12-15 13:26:53.088496
2022-12-15 13:26:53.120845
2022-12-15 13:26:53.121850
2022-12-15 13:26:53.121850
2022-12-15 13:26:53.155052
2022-12-15 13:26:53.155401
2022-12-15 13:26:53.188494
2022-12-15 13:26:53.188733
2022-12-15 13:26:53.188733
2022-12-15 13:26:53.222196
2022-12-15 13:26:53.222518
2022-12-15 13:26:53.222518
2022-12-15 13:26:53.255441
2022-12-15 13:26:53.256242
2022-12-15 13:26:53.288563
2022-12-15 13:26:53.288563
2022-12-15 13:26:53.289565
2022-12-15 13:26:53.322120
2022-12-15 13:26:53.322526
2022-12-15 13:26:53.323022
2022-12-15 13:26:53.355850
2022-12-15 13:26:53.356271
2022-12-15 13:26:53.389295
2022-12-15 13:26:53.389617
2022-12-15 13:26:53.390068
2022-12-15 13:26:53.422850
2022-12-15 13:26:53.423119
2022-12-15 13:26:53.423561
2022-12-15 13:26:53.456778
2022-12-15 13:26:53.457120
2022-12-15 13:26:53.490383
2022-12-15 13:26:53.490383
2022-12-15 13:26:53.491398
2022-12-15 13:26:53.523462
2022-12-15 13:26:53.523462
2022-12-15 13:26:53.524470
2022-12-15 13:26:53.557096
2022-12-15 13:26:53.557554
2022-12-15 13:26:53.591021
2022-12-15 13:26:53.591258
2022-12-15 13:26:53.591258
2022-12-15 13:26:53.624562
2022-12-15 13:26:53.624852
2022-12-15 13:26:53.624852
2022-12-15 13:26:53.657340
2022-12-15 13:26:53.657340
2022-12-15 13:26:53.691576
2022-12-15 13:26:53.691817
2022-12-15 13:26:53.691817
2022-12-15 13:26:53.724963
2022-12-15 13:26:53.725631
2022-12-15 13:26:53.725631
2022-12-15 13:26:53.758512
2022-12-15 13:26:53.759170
2022-12-15 13:26:53.792189
2022-12-15 13:26:53.792671
2022-12-15 13:26:53.792671
2022-12-15 13:26:53.825156
2022-12-15 13:26:53.825156
2022-12-15 13:26:53.826158
2022-12-15 13:26:53.858792
2022-12-15 13:26:53.858792
2022-12-15 13:26:53.891691
2022-12-15 13:26:53.892686
2022-12-15 13:26:53.892686
2022-12-15 13:26:53.926354
2022-12-15 13:26:53.926354
2022-12-15 13:26:53.927370
2022-12-15 13:26:53.959945
2022-12-15 13:26:53.960310
2022-12-15 13:26:53.992874
2022-12-15 13:26:53.992874
2022-12-15 13:26:53.993882
2022-12-15 13:26:54.026789
2022-12-15 13:26:54.026789
2022-12-15 13:26:54.027825
2022-12-15 13:26:54.059851
2022-12-15 13:26:54.059851
2022-12-15 13:26:54.093533
2022-12-15 13:26:54.094167
2022-12-15 13:26:54.094167
2022-12-15 13:26:54.127521
2022-12-15 13:26:54.127521
2022-12-15 13:26:54.127521
2022-12-15 13:26:54.160593
2022-12-15 13:26:54.160938
2022-12-15 13:26:54.194452
2022-12-15 13:26:54.194688
2022-12-15 13:26:54.195277
2022-12-15 13:26:54.227954
2022-12-15 13:26:54.228248
2022-12-15 13:26:54.228826
2022-12-15 13:26:54.260853
2022-12-15 13:26:54.260853
2022-12-15 13:26:54.295030
2022-12-15 13:26:54.295269
2022-12-15 13:26:54.295724
2022-12-15 13:26:54.328632
2022-12-15 13:26:54.328930
2022-12-15 13:26:54.329509
2022-12-15 13:26:54.362271
2022-12-15 13:26:54.362271
2022-12-15 13:26:54.395560
2022-12-15 13:26:54.396568
2022-12-15 13:26:54.396804
2022-12-15 13:26:54.429158
2022-12-15 13:26:54.429514
2022-12-15 13:26:54.430052
2022-12-15 13:26:54.462661
2022-12-15 13:26:54.463104
2022-12-15 13:26:54.496153
2022-12-15 13:26:54.496153
2022-12-15 13:26:54.497054
2022-12-15 13:26:54.529601
2022-12-15 13:26:54.529601
2022-12-15 13:26:54.530607
2022-12-15 13:26:54.562913
2022-12-15 13:26:54.562913
2022-12-15 13:26:54.596183
2022-12-15 13:26:54.598180
2022-12-15 13:26:54.598180
2022-12-15 13:26:54.630425
2022-12-15 13:26:54.630747
2022-12-15 13:26:54.631254
2022-12-15 13:26:54.663845
2022-12-15 13:26:54.663845
2022-12-15 13:26:54.697408
2022-12-15 13:26:54.697408
2022-12-15 13:26:54.698409
2022-12-15 13:26:54.730626
2022-12-15 13:26:54.731012
2022-12-15 13:26:54.731462
2022-12-15 13:26:54.764470
2022-12-15 13:26:54.764814
2022-12-15 13:26:54.798016
2022-12-15 13:26:54.798255
2022-12-15 13:26:54.798255
2022-12-15 13:26:54.831546
2022-12-15 13:26:54.831837
2022-12-15 13:26:54.832421
2022-12-15 13:26:54.865096
2022-12-15 13:26:54.865440
2022-12-15 13:26:54.898622
2022-12-15 13:26:54.898863
2022-12-15 13:26:54.899465
2022-12-15 13:26:54.932059
2022-12-15 13:26:54.932059
2022-12-15 13:26:54.933061
2022-12-15 13:26:54.964578
2022-12-15 13:26:54.965583
2022-12-15 13:26:54.999309
2022-12-15 13:26:54.999548
2022-12-15 13:26:55.000135
2022-12-15 13:26:55.032905
2022-12-15 13:26:55.033202
2022-12-15 13:26:55.033832
2022-12-15 13:26:55.066426
2022-12-15 13:26:55.066769
2022-12-15 13:26:55.100000
2022-12-15 13:26:55.100238
2022-12-15 13:26:55.100695
2022-12-15 13:26:55.133541
2022-12-15 13:26:55.133830
2022-12-15 13:26:55.133830
2022-12-15 13:26:55.167139
2022-12-15 13:26:55.167139
2022-12-15 13:26:55.200336
2022-12-15 13:26:55.200831
2022-12-15 13:26:55.201837
2022-12-15 13:26:55.233319
2022-12-15 13:26:55.233319
2022-12-15 13:26:55.234315
2022-12-15 13:26:55.267605
2022-12-15 13:26:55.267995
2022-12-15 13:26:55.301198
2022-12-15 13:26:55.301437
2022-12-15 13:26:55.302023
2022-12-15 13:26:55.334667
2022-12-15 13:26:55.334957
2022-12-15 13:26:55.335538
2022-12-15 13:26:55.368138
2022-12-15 13:26:55.368490
2022-12-15 13:26:55.401716
2022-12-15 13:26:55.401955
2022-12-15 13:26:55.401955
2022-12-15 13:26:55.435248
2022-12-15 13:26:55.435936
2022-12-15 13:26:55.435936
2022-12-15 13:26:55.468274
2022-12-15 13:26:55.468606
2022-12-15 13:26:55.502315
2022-12-15 13:26:55.502554
2022-12-15 13:26:55.503142
2022-12-15 13:26:55.535905
2022-12-15 13:26:55.536195
2022-12-15 13:26:55.536777
2022-12-15 13:26:55.569484
2022-12-15 13:26:55.569827
2022-12-15 13:26:55.603006
2022-12-15 13:26:55.603244
2022-12-15 13:26:55.603791
2022-12-15 13:26:55.636503
2022-12-15 13:26:55.636796
2022-12-15 13:26:55.637254
2022-12-15 13:26:55.669980
2022-12-15 13:26:55.670367
2022-12-15 13:26:55.703551
2022-12-15 13:26:55.703838
2022-12-15 13:26:55.704343
2022-12-15 13:26:55.736999
2022-12-15 13:26:55.736999
2022-12-15 13:26:55.738053
2022-12-15 13:26:55.770842
2022-12-15 13:26:55.770842
2022-12-15 13:26:55.803670
2022-12-15 13:26:55.803798
2022-12-15 13:26:55.803798
2022-12-15 13:26:55.836897
2022-12-15 13:26:55.836897
2022-12-15 13:26:55.837853
2022-12-15 13:26:55.870246
2022-12-15 13:26:55.871202
2022-12-15 13:26:55.904629
2022-12-15 13:26:55.904629
2022-12-15 13:26:55.905631
2022-12-15 13:26:55.938257
2022-12-15 13:26:55.939291
2022-12-15 13:26:55.939291
2022-12-15 13:26:55.971617
2022-12-15 13:26:55.972050
2022-12-15 13:26:56.005367
2022-12-15 13:26:56.005635
2022-12-15 13:26:56.006281
2022-12-15 13:26:56.038787
2022-12-15 13:26:56.038787
2022-12-15 13:26:56.039788
2022-12-15 13:26:56.071985
2022-12-15 13:26:56.072871
2022-12-15 13:26:56.105388
2022-12-15 13:26:56.105388
2022-12-15 13:26:56.106426
2022-12-15 13:26:56.138486
2022-12-15 13:26:56.139489
2022-12-15 13:26:56.139489
2022-12-15 13:26:56.171914
2022-12-15 13:26:56.172916
2022-12-15 13:26:56.205308
2022-12-15 13:26:56.206310
2022-12-15 13:26:56.206720
2022-12-15 13:26:56.239753
2022-12-15 13:26:56.239927
2022-12-15 13:26:56.239927
2022-12-15 13:26:56.273128
2022-12-15 13:26:56.273404
2022-12-15 13:26:56.306903
2022-12-15 13:26:56.306903
2022-12-15 13:26:56.307904
2022-12-15 13:26:56.339769
2022-12-15 13:26:56.339769
2022-12-15 13:26:56.340755
2022-12-15 13:26:56.374005
2022-12-15 13:26:56.374005
2022-12-15 13:26:56.407386
2022-12-15 13:26:56.407386
2022-12-15 13:26:56.408389
2022-12-15 13:26:56.440958
2022-12-15 13:26:56.441084
2022-12-15 13:26:56.441530
2022-12-15 13:26:56.474616
2022-12-15 13:26:56.474959
2022-12-15 13:26:56.508207
2022-12-15 13:26:56.508446
2022-12-15 13:26:56.508446
2022-12-15 13:26:56.541565
2022-12-15 13:26:56.541856
2022-12-15 13:26:56.541856
2022-12-15 13:26:56.575210
2022-12-15 13:26:56.575210
2022-12-15 13:26:56.608766
2022-12-15 13:26:56.609004
2022-12-15 13:26:56.609004
2022-12-15 13:26:56.642385
2022-12-15 13:26:56.642710
2022-12-15 13:26:56.642710
2022-12-15 13:26:56.675867
2022-12-15 13:26:56.676549
2022-12-15 13:26:56.709257
2022-12-15 13:26:56.710074
2022-12-15 13:26:56.710074
2022-12-15 13:26:56.742918
2022-12-15 13:26:56.742918
2022-12-15 13:26:56.743932
2022-12-15 13:26:56.775624
2022-12-15 13:26:56.776625
2022-12-15 13:26:56.810083
2022-12-15 13:26:56.810353
2022-12-15 13:26:56.810974
2022-12-15 13:26:56.843534
2022-12-15 13:26:56.843534
2022-12-15 13:26:56.844553
2022-12-15 13:26:56.877040
2022-12-15 13:26:56.877040
2022-12-15 13:26:56.910504
2022-12-15 13:26:56.910504
2022-12-15 13:26:56.911455
2022-12-15 13:26:56.943660
2022-12-15 13:26:56.943954
2022-12-15 13:26:56.944413
2022-12-15 13:26:56.977149
2022-12-15 13:26:56.977149
2022-12-15 13:26:57.011119
2022-12-15 13:26:57.011119
2022-12-15 13:26:57.012148
2022-12-15 13:26:57.044923
2022-12-15 13:26:57.044923
2022-12-15 13:26:57.045889
2022-12-15 13:26:57.078002
2022-12-15 13:26:57.078002
2022-12-15 13:26:57.111165
2022-12-15 13:26:57.111736
2022-12-15 13:26:57.112172
2022-12-15 13:26:57.145344
2022-12-15 13:26:57.145686
2022-12-15 13:26:57.146287
2022-12-15 13:26:57.178881
2022-12-15 13:26:57.179264
2022-12-15 13:26:57.212210
2022-12-15 13:26:57.212449
2022-12-15 13:26:57.212907
2022-12-15 13:26:57.245860
2022-12-15 13:26:57.246196
2022-12-15 13:26:57.246196
2022-12-15 13:26:57.279385
2022-12-15 13:26:57.280388
2022-12-15 13:26:57.312915
2022-12-15 13:26:57.312915
2022-12-15 13:26:57.313918
2022-12-15 13:26:57.346398
2022-12-15 13:26:57.346720
2022-12-15 13:26:57.347332
2022-12-15 13:26:57.379026
2022-12-15 13:26:57.379979
2022-12-15 13:26:57.413470
2022-12-15 13:26:57.413707
2022-12-15 13:26:57.414291
2022-12-15 13:26:57.446994
2022-12-15 13:26:57.447285
2022-12-15 13:26:57.447842
2022-12-15 13:26:57.480552
2022-12-15 13:26:57.480895
2022-12-15 13:26:57.514179
2022-12-15 13:26:57.514447
2022-12-15 13:26:57.515092
2022-12-15 13:26:57.547614
2022-12-15 13:26:57.547614
2022-12-15 13:26:57.548615
2022-12-15 13:26:57.581119
2022-12-15 13:26:57.581599
2022-12-15 13:26:57.614429
2022-12-15 13:26:57.614429
2022-12-15 13:26:57.615435
2022-12-15 13:26:57.647800
2022-12-15 13:26:57.647800
2022-12-15 13:26:57.648797
2022-12-15 13:26:57.681745
2022-12-15 13:26:57.682094
2022-12-15 13:26:57.715336
2022-12-15 13:26:57.715576
2022-12-15 13:26:57.715576
2022-12-15 13:26:57.748857
2022-12-15 13:26:57.749177
2022-12-15 13:26:57.749822
2022-12-15 13:26:57.782364
2022-12-15 13:26:57.782711
2022-12-15 13:26:57.815913
2022-12-15 13:26:57.816153
2022-12-15 13:26:57.816748
2022-12-15 13:26:57.849391
2022-12-15 13:26:57.849391
2022-12-15 13:26:57.850393
2022-12-15 13:26:57.881842
2022-12-15 13:26:57.882850
2022-12-15 13:26:57.916062
2022-12-15 13:26:57.916308
2022-12-15 13:26:57.916308
2022-12-15 13:26:57.950114
2022-12-15 13:26:57.950405
2022-12-15 13:26:57.950986
2022-12-15 13:26:57.983693
2022-12-15 13:26:57.984077
2022-12-15 13:26:58.017315
2022-12-15 13:26:58.017596
2022-12-15 13:26:58.018182
2022-12-15 13:26:58.050669
2022-12-15 13:26:58.050963
2022-12-15 13:26:58.051421
2022-12-15 13:26:58.084366
2022-12-15 13:26:58.084749
2022-12-15 13:26:58.117682
2022-12-15 13:26:58.117682
2022-12-15 13:26:58.118684
2022-12-15 13:26:58.150837
2022-12-15 13:26:58.151844
2022-12-15 13:26:58.151844
2022-12-15 13:26:58.184382
2022-12-15 13:26:58.184382
2022-12-15 13:26:58.218264
2022-12-15 13:26:58.218540
2022-12-15 13:26:58.219542
2022-12-15 13:26:58.251926
2022-12-15 13:26:58.252220
2022-12-15 13:26:58.252807
2022-12-15 13:26:58.285431
2022-12-15 13:26:58.285774
2022-12-15 13:26:58.319034
2022-12-15 13:26:58.319273
2022-12-15 13:26:58.319826
2022-12-15 13:26:58.352655
2022-12-15 13:26:58.352981
2022-12-15 13:26:58.353486
2022-12-15 13:26:58.386134
2022-12-15 13:26:58.386478
2022-12-15 13:26:58.419584
2022-12-15 13:26:58.420282
2022-12-15 13:26:58.420282
2022-12-15 13:26:58.452586
2022-12-15 13:26:58.452586
2022-12-15 13:26:58.453595
2022-12-15 13:26:58.485256
2022-12-15 13:26:58.486358
2022-12-15 13:26:58.520123
2022-12-15 13:26:58.520361
2022-12-15 13:26:58.520939
2022-12-15 13:26:58.553561
2022-12-15 13:26:58.553852
2022-12-15 13:26:58.554495
2022-12-15 13:26:58.587247
2022-12-15 13:26:58.587595
2022-12-15 13:26:58.620756
2022-12-15 13:26:58.621034
2022-12-15 13:26:58.621034
2022-12-15 13:26:58.654243
2022-12-15 13:26:58.654535
2022-12-15 13:26:58.654994
2022-12-15 13:26:58.687767
2022-12-15 13:26:58.688111
2022-12-15 13:26:58.721465
2022-12-15 13:26:58.721701
2022-12-15 13:26:58.721701
2022-12-15 13:26:58.754989
2022-12-15 13:26:58.755990
2022-12-15 13:26:58.756299
2022-12-15 13:26:58.787304
2022-12-15 13:26:58.788315
2022-12-15 13:26:58.821507
2022-12-15 13:26:58.821725
2022-12-15 13:26:58.822189
2022-12-15 13:26:58.855427
2022-12-15 13:26:58.855713
2022-12-15 13:26:58.856747
2022-12-15 13:26:58.887739
2022-12-15 13:26:58.888696
2022-12-15 13:26:58.922477
2022-12-15 13:26:58.922477
2022-12-15 13:26:58.923481
2022-12-15 13:26:58.955976
2022-12-15 13:26:58.955976
2022-12-15 13:26:58.956979
2022-12-15 13:26:58.989537
2022-12-15 13:26:58.990540
2022-12-15 13:26:59.023124
2022-12-15 13:26:59.023455
2022-12-15 13:26:59.023913
2022-12-15 13:26:59.056468
2022-12-15 13:26:59.056849
2022-12-15 13:26:59.057396
2022-12-15 13:26:59.089852
2022-12-15 13:26:59.090339
2022-12-15 13:26:59.123425
2022-12-15 13:26:59.123425
2022-12-15 13:26:59.124508
2022-12-15 13:26:59.155884
2022-12-15 13:26:59.156911
2022-12-15 13:26:59.156911
2022-12-15 13:26:59.190074
2022-12-15 13:26:59.190074
2022-12-15 13:26:59.224213
2022-12-15 13:26:59.224451
2022-12-15 13:26:59.225091
2022-12-15 13:26:59.257239
2022-12-15 13:26:59.257239
2022-12-15 13:26:59.258239
2022-12-15 13:26:59.290549
2022-12-15 13:26:59.291545
2022-12-15 13:26:59.324664
2022-12-15 13:26:59.324954
2022-12-15 13:26:59.325409
2022-12-15 13:26:59.358122
2022-12-15 13:26:59.358122
2022-12-15 13:26:59.359115
2022-12-15 13:26:59.391639
2022-12-15 13:26:59.392006
2022-12-15 13:26:59.424156
2022-12-15 13:26:59.425161
2022-12-15 13:26:59.425613
2022-12-15 13:26:59.458512
2022-12-15 13:26:59.458817
2022-12-15 13:26:59.459422
2022-12-15 13:26:59.492460
2022-12-15 13:26:59.492813
2022-12-15 13:26:59.525990
2022-12-15 13:26:59.526231
2022-12-15 13:26:59.526231
2022-12-15 13:26:59.559515
2022-12-15 13:26:59.559807
2022-12-15 13:26:59.559807
2022-12-15 13:26:59.593096
2022-12-15 13:26:59.593439
2022-12-15 13:26:59.626363
2022-12-15 13:26:59.626363
2022-12-15 13:26:59.627256
2022-12-15 13:26:59.659962
2022-12-15 13:26:59.660739
2022-12-15 13:26:59.661029
2022-12-15 13:26:59.693452
2022-12-15 13:26:59.694219
2022-12-15 13:26:59.727039
2022-12-15 13:26:59.727676
2022-12-15 13:26:59.727676
2022-12-15 13:26:59.760412
2022-12-15 13:26:59.761442
2022-12-15 13:26:59.761442
2022-12-15 13:26:59.793469
2022-12-15 13:26:59.793469
2022-12-15 13:26:59.827823
2022-12-15 13:26:59.827823
2022-12-15 13:26:59.828603
2022-12-15 13:26:59.861289
2022-12-15 13:26:59.861289
2022-12-15 13:26:59.862129
2022-12-15 13:26:59.894242
2022-12-15 13:26:59.894630
2022-12-15 13:26:59.928109
2022-12-15 13:26:59.928109
2022-12-15 13:26:59.929040
2022-12-15 13:26:59.961831
2022-12-15 13:26:59.962125
2022-12-15 13:26:59.962585
2022-12-15 13:26:59.994898
2022-12-15 13:26:59.995342
2022-12-15 13:27:00.027828
2022-12-15 13:27:00.028826
2022-12-15 13:27:00.028826
2022-12-15 13:27:00.061777
2022-12-15 13:27:00.062788
2022-12-15 13:27:00.062788
2022-12-15 13:27:00.095817
2022-12-15 13:27:00.096698
2022-12-15 13:27:00.129202
2022-12-15 13:27:00.129497
2022-12-15 13:27:00.129949
2022-12-15 13:27:00.163144
2022-12-15 13:27:00.163436
2022-12-15 13:27:00.163981
2022-12-15 13:27:00.196618
2022-12-15 13:27:00.197005
2022-12-15 13:27:00.230224
2022-12-15 13:27:00.230504
2022-12-15 13:27:00.231051
2022-12-15 13:27:00.263612
2022-12-15 13:27:00.263902
2022-12-15 13:27:00.264357
2022-12-15 13:27:00.297223
2022-12-15 13:27:00.297599
2022-12-15 13:27:00.330671
2022-12-15 13:27:00.330671
2022-12-15 13:27:00.331672
2022-12-15 13:27:00.364101
2022-12-15 13:27:00.364573
2022-12-15 13:27:00.365575
2022-12-15 13:27:00.397457
2022-12-15 13:27:00.397457
2022-12-15 13:27:00.430886
2022-12-15 13:27:00.431110
2022-12-15 13:27:00.431565
2022-12-15 13:27:00.465011
2022-12-15 13:27:00.465352
2022-12-15 13:27:00.465352
2022-12-15 13:27:00.498506
2022-12-15 13:27:00.498848
2022-12-15 13:27:00.532104
2022-12-15 13:27:00.532376
2022-12-15 13:27:00.532836
2022-12-15 13:27:00.565486
2022-12-15 13:27:00.565777
2022-12-15 13:27:00.566364
2022-12-15 13:27:00.598992
2022-12-15 13:27:00.599335
2022-12-15 13:27:00.632417
2022-12-15 13:27:00.632417
2022-12-15 13:27:00.633420
2022-12-15 13:27:00.665803
2022-12-15 13:27:00.665803
2022-12-15 13:27:00.665803
2022-12-15 13:27:00.699193
2022-12-15 13:27:00.699512
2022-12-15 13:27:00.733160
2022-12-15 13:27:00.733397
2022-12-15 13:27:00.734030
2022-12-15 13:27:00.766587
2022-12-15 13:27:00.766881
2022-12-15 13:27:00.766881
2022-12-15 13:27:00.800398
2022-12-15 13:27:00.800780
2022-12-15 13:27:00.833727
2022-12-15 13:27:00.834009
2022-12-15 13:27:00.834470
2022-12-15 13:27:00.867305
2022-12-15 13:27:00.867722
2022-12-15 13:27:00.868349
2022-12-15 13:27:00.900944
2022-12-15 13:27:00.901294
2022-12-15 13:27:00.934456
2022-12-15 13:27:00.934696
2022-12-15 13:27:00.934696
2022-12-15 13:27:00.967754
2022-12-15 13:27:00.968761
2022-12-15 13:27:00.968761
2022-12-15 13:27:01.000852
2022-12-15 13:27:01.000852
2022-12-15 13:27:01.034564
2022-12-15 13:27:01.034790
2022-12-15 13:27:01.035256
2022-12-15 13:27:01.068107
2022-12-15 13:27:01.068107
2022-12-15 13:27:01.069130
2022-12-15 13:27:01.102003
2022-12-15 13:27:01.102347
2022-12-15 13:27:01.135526
2022-12-15 13:27:01.135767
2022-12-15 13:27:01.136224
2022-12-15 13:27:01.168460
2022-12-15 13:27:01.168872
2022-12-15 13:27:01.169565
2022-12-15 13:27:01.202499
2022-12-15 13:27:01.202499
2022-12-15 13:27:01.235736
2022-12-15 13:27:01.236746
2022-12-15 13:27:01.237008
2022-12-15 13:27:01.268625
2022-12-15 13:27:01.269633
2022-12-15 13:27:01.269633
2022-12-15 13:27:01.302721
2022-12-15 13:27:01.302721
2022-12-15 13:27:01.336606
2022-12-15 13:27:01.336884
2022-12-15 13:27:01.337480
2022-12-15 13:27:01.369979
2022-12-15 13:27:01.370267
2022-12-15 13:27:01.370813
2022-12-15 13:27:01.403812
2022-12-15 13:27:01.403812
2022-12-15 13:27:01.437373
2022-12-15 13:27:01.437639
2022-12-15 13:27:01.437639
2022-12-15 13:27:01.470630
2022-12-15 13:27:01.470924
2022-12-15 13:27:01.470924
2022-12-15 13:27:01.504417
2022-12-15 13:27:01.504762
2022-12-15 13:27:01.537963
2022-12-15 13:27:01.538201
2022-12-15 13:27:01.538789
2022-12-15 13:27:01.571296
2022-12-15 13:27:01.571644
2022-12-15 13:27:01.572146
2022-12-15 13:27:01.604895
2022-12-15 13:27:01.605434
2022-12-15 13:27:01.637866
2022-12-15 13:27:01.637866
2022-12-15 13:27:01.638875
2022-12-15 13:27:01.672030
2022-12-15 13:27:01.672320
2022-12-15 13:27:01.672320
2022-12-15 13:27:01.705586
2022-12-15 13:27:01.705945
2022-12-15 13:27:01.739174
2022-12-15 13:27:01.739412
2022-12-15 13:27:01.740015
2022-12-15 13:27:01.772543
2022-12-15 13:27:01.772835
2022-12-15 13:27:01.773408
2022-12-15 13:27:01.806201
2022-12-15 13:27:01.806550
2022-12-15 13:27:01.839670
2022-12-15 13:27:01.839909
2022-12-15 13:27:01.840910
2022-12-15 13:27:01.873177
2022-12-15 13:27:01.873466
2022-12-15 13:27:01.874467
2022-12-15 13:27:01.906685
2022-12-15 13:27:01.907042
2022-12-15 13:27:01.940373
2022-12-15 13:27:01.940373
2022-12-15 13:27:01.941188
2022-12-15 13:27:01.973746
2022-12-15 13:27:01.973746
2022-12-15 13:27:01.974797
2022-12-15 13:27:02.007443
2022-12-15 13:27:02.007818
2022-12-15 13:27:02.040985
2022-12-15 13:27:02.041254
2022-12-15 13:27:02.041254
2022-12-15 13:27:02.074159
2022-12-15 13:27:02.074159
2022-12-15 13:27:02.075161
2022-12-15 13:27:02.107495
2022-12-15 13:27:02.107495
2022-12-15 13:27:02.140846
2022-12-15 13:27:02.140846
2022-12-15 13:27:02.141881
2022-12-15 13:27:02.174224
2022-12-15 13:27:02.175227
2022-12-15 13:27:02.175227
2022-12-15 13:27:02.207564
2022-12-15 13:27:02.208566
2022-12-15 13:27:02.240942
2022-12-15 13:27:02.241946
2022-12-15 13:27:02.241946
2022-12-15 13:27:02.275167
