2022-12-02 12:37:35.309175, 1.57380
2022-12-02 12:37:35.318270, 1.55914
2022-12-02 12:37:35.330291, 1.57380
2022-12-02 12:37:35.338580, 1.52981
2022-12-02 12:37:35.346319, 1.51515
2022-12-02 12:37:35.358620, 1.52004
2022-12-02 12:37:35.366773, 1.49560
2022-12-02 12:37:35.375187, 1.48094
2022-12-02 12:37:35.382926, 1.47605
2022-12-02 12:37:35.395540, 1.46139
2022-12-02 12:37:35.404028, 1.45161
2022-12-02 12:37:35.411837, 1.44673
2022-12-02 12:37:35.424374, 1.43206
2022-12-02 12:37:35.432903, 1.42717
2022-12-02 12:37:35.440806, 1.41740
2022-12-02 12:37:35.448980, 1.42717
2022-12-02 12:37:35.460751, 1.40274
2022-12-02 12:37:35.469272, 1.39785
2022-12-02 12:37:35.477076, 1.41740
2022-12-02 12:37:35.489482, 1.39785
2022-12-02 12:37:35.497908, 1.41251
2022-12-02 12:37:35.505948, 1.46139
2022-12-02 12:37:35.514512, 1.50049
2022-12-02 12:37:35.526339, 1.57380
2022-12-02 12:37:35.534620, 1.65689
2022-12-02 12:37:35.542534, 1.74487
2022-12-02 12:37:35.555316, 1.83284
2022-12-02 12:37:35.563606, 1.90616
2022-12-02 12:37:35.572160, 1.96481
2022-12-02 12:37:35.580036, 2.00880
2022-12-02 12:37:35.592554, 2.03812
2022-12-02 12:37:35.600147, 2.06745
2022-12-02 12:37:35.608324, 2.03812
2022-12-02 12:37:35.620756, 2.02346
2022-12-02 12:37:35.629142, 2.01857
2022-12-02 12:37:35.637404, 1.96481
2022-12-02 12:37:35.644923, 1.93548
2022-12-02 12:37:35.657495, 1.91105
2022-12-02 12:37:35.666139, 1.86706
2022-12-02 12:37:35.674122, 1.83284
2022-12-02 12:37:35.686242, 1.80841
2022-12-02 12:37:35.694499, 1.77908
2022-12-02 12:37:35.703159, 1.74976
2022-12-02 12:37:35.710908, 1.72532
2022-12-02 12:37:35.722765, 1.69599
2022-12-02 12:37:35.731305, 1.67644
2022-12-02 12:37:35.739353, 1.65200
2022-12-02 12:37:35.751824, 1.65689
2022-12-02 12:37:35.760088, 1.61290
2022-12-02 12:37:35.768114, 1.60313
2022-12-02 12:37:35.776510, 1.62268
2022-12-02 12:37:35.789146, 1.59824
2022-12-02 12:37:35.796887, 1.60313
2022-12-02 12:37:35.804848, 1.61290
2022-12-02 12:37:35.817848, 1.61290
2022-12-02 12:37:35.825836, 1.62268
2022-12-02 12:37:35.833316, 1.63245
2022-12-02 12:37:35.841820, 1.63245
2022-12-02 12:37:35.854263, 1.63245
2022-12-02 12:37:35.862770, 1.63245
2022-12-02 12:37:35.871038, 1.63245
2022-12-02 12:37:35.879375, 1.62268
2022-12-02 12:37:35.891383, 1.61290
2022-12-02 12:37:35.898909, 1.63245
2022-12-02 12:37:35.907628, 1.58847
2022-12-02 12:37:35.920160, 1.57380
2022-12-02 12:37:35.927653, 1.57380
2022-12-02 12:37:35.936471, 1.54936
2022-12-02 12:37:35.944566, 1.52981
2022-12-02 12:37:35.956214, 1.52004
2022-12-02 12:37:35.964486, 1.50049
2022-12-02 12:37:35.972991, 1.49071
2022-12-02 12:37:35.985007, 1.48094
2022-12-02 12:37:35.993246, 1.47116
2022-12-02 12:37:36.003486, 1.46139
2022-12-02 12:37:36.009966, 1.45650
2022-12-02 12:37:36.022423, 1.45161
2022-12-02 12:37:36.030870, 1.43206
2022-12-02 12:37:36.038740, 1.42717
2022-12-02 12:37:36.050596, 1.44673
2022-12-02 12:37:36.059575, 1.40762
2022-12-02 12:37:36.067414, 1.39785
2022-12-02 12:37:36.075404, 1.40762
2022-12-02 12:37:36.087261, 1.38807
2022-12-02 12:37:36.095830, 1.38319
2022-12-02 12:37:36.104249, 1.38807
2022-12-02 12:37:36.116242, 1.38807
2022-12-02 12:37:36.124751, 1.40762
2022-12-02 12:37:36.132532, 1.45161
2022-12-02 12:37:36.140615, 1.51026
2022-12-02 12:37:36.153292, 1.57869
2022-12-02 12:37:36.161703, 1.67155
2022-12-02 12:37:36.169320, 1.75464
2022-12-02 12:37:36.181964, 1.84262
2022-12-02 12:37:36.190566, 1.91105
2022-12-02 12:37:36.198835, 2.00391
2022-12-02 12:37:36.206396, 2.00880
2022-12-02 12:37:36.219404, 2.03324
2022-12-02 12:37:36.226937, 2.04301
2022-12-02 12:37:36.235811, 2.02835
2022-12-02 12:37:36.247743, 2.00391
2022-12-02 12:37:36.255384, 1.97947
2022-12-02 12:37:36.264241, 1.94037
2022-12-02 12:37:36.272558, 1.90127
2022-12-02 12:37:36.284181, 1.86706
2022-12-02 12:37:36.292393, 1.82796
2022-12-02 12:37:36.301028, 1.79374
2022-12-02 12:37:36.312543, 1.76442
2022-12-02 12:37:36.320956, 1.76931
2022-12-02 12:37:36.329690, 1.71065
2022-12-02 12:37:36.337615, 1.68133
2022-12-02 12:37:36.349465, 1.66667
2022-12-02 12:37:36.358468, 1.62757
2022-12-02 12:37:36.366416, 1.60802
2022-12-02 12:37:36.378626, 1.59824
2022-12-02 12:37:36.387014, 1.58358
2022-12-02 12:37:36.395485, 1.57869
2022-12-02 12:37:36.403245, 1.58358
2022-12-02 12:37:36.415499, 1.58358
2022-12-02 12:37:36.423161, 1.59335
2022-12-02 12:37:36.432065, 1.60313
2022-12-02 12:37:36.443722, 1.61290
2022-12-02 12:37:36.452624, 1.62268
2022-12-02 12:37:36.460113, 1.63245
2022-12-02 12:37:36.468608, 1.66667
2022-12-02 12:37:36.481088, 1.64223
2022-12-02 12:37:36.489577, 1.64223
2022-12-02 12:37:36.497348, 1.64712
2022-12-02 12:37:36.509460, 1.62757
2022-12-02 12:37:36.518095, 1.61779
2022-12-02 12:37:36.526075, 1.61290
2022-12-02 12:37:36.534851, 1.58847
2022-12-02 12:37:36.546619, 1.57869
2022-12-02 12:37:36.554660, 1.56403
2022-12-02 12:37:36.562700, 1.54936
2022-12-02 12:37:36.574887, 1.53470
2022-12-02 12:37:36.583592, 1.52493
2022-12-02 12:37:36.591550, 1.51026
2022-12-02 12:37:36.600260, 1.50049
2022-12-02 12:37:36.612045, 1.48583
2022-12-02 12:37:36.620495, 1.48094
2022-12-02 12:37:36.628503, 1.47116
2022-12-02 12:37:36.640893, 1.45650
2022-12-02 12:37:36.648892, 1.48094
2022-12-02 12:37:36.657327, 1.44184
2022-12-02 12:37:36.665686, 1.43206
2022-12-02 12:37:36.677516, 1.43695
2022-12-02 12:37:36.685929, 1.41740
2022-12-02 12:37:36.693943, 1.41251
2022-12-02 12:37:36.706629, 1.41251
2022-12-02 12:37:36.714161, 1.40274
2022-12-02 12:37:36.722676, 1.39785
2022-12-02 12:37:36.731289, 1.40274
2022-12-02 12:37:36.743584, 1.40762
2022-12-02 12:37:36.751801, 1.43695
2022-12-02 12:37:36.759687, 1.47605
2022-12-02 12:37:36.767995, 1.54936
2022-12-02 12:37:36.779834, 1.62268
2022-12-02 12:37:36.788428, 1.71065
2022-12-02 12:37:36.796530, 1.81818
2022-12-02 12:37:36.808966, 1.87683
2022-12-02 12:37:36.816743, 1.94037
2022-12-02 12:37:36.825178, 1.99902
2022-12-02 12:37:36.833807, 2.01857
2022-12-02 12:37:36.846007, 2.03324
2022-12-02 12:37:36.854102, 2.03324
2022-12-02 12:37:36.861670, 2.00880
2022-12-02 12:37:36.874359, 1.98925
2022-12-02 12:37:36.882695, 1.95992
2022-12-02 12:37:36.890421, 1.92082
2022-12-02 12:37:36.898829, 1.88172
2022-12-02 12:37:36.911416, 1.84262
2022-12-02 12:37:36.919668, 1.80841
2022-12-02 12:37:36.927030, 1.77419
2022-12-02 12:37:36.939209, 1.73998
2022-12-02 12:37:36.948394, 1.73998
2022-12-02 12:37:36.956118, 1.67644
2022-12-02 12:37:36.964819, 1.64712
2022-12-02 12:37:36.976942, 1.63245
2022-12-02 12:37:36.985076, 1.58847
2022-12-02 12:37:36.993490, 1.56891
2022-12-02 12:37:37.004629, 1.56403
2022-12-02 12:37:37.013350, 1.55425
2022-12-02 12:37:37.022166, 1.55425
2022-12-02 12:37:37.030092, 1.56403
2022-12-02 12:37:37.042474, 1.56403
2022-12-02 12:37:37.050815, 1.57869
2022-12-02 12:37:37.058850, 1.59335
2022-12-02 12:37:37.070609, 1.60313
2022-12-02 12:37:37.079396, 1.61779
2022-12-02 12:37:37.087391, 1.62757
2022-12-02 12:37:37.095847, 1.64712
2022-12-02 12:37:37.108035, 1.62757
2022-12-02 12:37:37.115830, 1.62757
2022-12-02 12:37:37.124343, 1.64712
2022-12-02 12:37:37.136754, 1.60802
2022-12-02 12:37:37.144418, 1.59824
2022-12-02 12:37:37.152978, 1.59335
2022-12-02 12:37:37.160554, 1.56891
2022-12-02 12:37:37.172972, 1.55425
2022-12-02 12:37:37.181603, 1.54448
2022-12-02 12:37:37.189673, 1.52493
2022-12-02 12:37:37.201432, 1.51026
2022-12-02 12:37:37.210071, 1.50049
2022-12-02 12:37:37.218739, 1.48583
2022-12-02 12:37:37.226506, 1.47605
2022-12-02 12:37:37.238796, 1.46628
2022-12-02 12:37:37.246676, 1.45161
2022-12-02 12:37:37.254985, 1.44184
2022-12-02 12:37:37.267018, 1.43695
2022-12-02 12:37:37.275196, 1.45161
2022-12-02 12:37:37.283945, 1.41740
2022-12-02 12:37:37.292261, 1.41251
2022-12-02 12:37:37.304339, 1.42229
2022-12-02 12:37:37.312124, 1.39785
2022-12-02 12:37:37.321176, 1.38807
2022-12-02 12:37:37.333361, 1.38807
2022-12-02 12:37:37.341542, 1.37830
2022-12-02 12:37:37.349068, 1.39296
2022-12-02 12:37:37.357356, 1.42717
2022-12-02 12:37:37.369918, 1.47116
2022-12-02 12:37:37.377515, 1.53959
2022-12-02 12:37:37.385944, 1.62268
2022-12-02 12:37:37.398786, 1.70577
2022-12-02 12:37:37.406266, 1.78886
2022-12-02 12:37:37.415321, 1.87195
2022-12-02 12:37:37.423297, 1.95015
2022-12-02 12:37:37.434887, 1.98436
2022-12-02 12:37:37.443471, 2.01369
2022-12-02 12:37:37.451881, 2.04790
2022-12-02 12:37:37.464186, 2.01369
2022-12-02 12:37:37.472444, 1.99902
2022-12-02 12:37:37.480042, 1.98436
2022-12-02 12:37:37.489081, 1.94037
2022-12-02 12:37:37.501329, 1.90616
2022-12-02 12:37:37.509142, 1.86706
2022-12-02 12:37:37.517541, 1.82796
2022-12-02 12:37:37.529950, 1.79374
2022-12-02 12:37:37.537643, 1.75953
2022-12-02 12:37:37.546047, 1.72532
2022-12-02 12:37:37.554693, 1.69110
2022-12-02 12:37:37.566265, 1.66178
2022-12-02 12:37:37.574646, 1.65689
2022-12-02 12:37:37.583087, 1.60802
2022-12-02 12:37:37.591205, 1.57869
2022-12-02 12:37:37.603535, 1.56403
2022-12-02 12:37:37.611256, 1.54448
2022-12-02 12:37:37.620206, 1.53959
2022-12-02 12:37:37.631869, 1.54448
2022-12-02 12:37:37.640179, 1.53959
2022-12-02 12:37:37.648868, 1.54448
2022-12-02 12:37:37.656152, 1.55425
2022-12-02 12:37:37.669096, 1.56403
2022-12-02 12:37:37.677357, 1.57380
2022-12-02 12:37:37.685254, 1.58358
2022-12-02 12:37:37.697843, 1.61779
2022-12-02 12:37:37.705834, 1.59335
2022-12-02 12:37:37.714110, 1.59335
2022-12-02 12:37:37.722602, 1.60802
2022-12-02 12:37:37.734728, 1.58847
2022-12-02 12:37:37.742298, 1.57380
2022-12-02 12:37:37.751322, 1.57380
2022-12-02 12:37:37.762525, 1.55425
2022-12-02 12:37:37.770845, 1.53959
2022-12-02 12:37:37.779385, 1.52493
2022-12-02 12:37:37.787650, 1.51026
2022-12-02 12:37:37.800024, 1.50049
2022-12-02 12:37:37.807678, 1.48583
2022-12-02 12:37:37.816502, 1.47116
2022-12-02 12:37:37.828851, 1.46139
2022-12-02 12:37:37.837261, 1.44673
2022-12-02 12:37:37.845139, 1.47116
2022-12-02 12:37:37.852875, 1.42717
2022-12-02 12:37:37.864846, 1.41251
2022-12-02 12:37:37.873583, 1.41251
2022-12-02 12:37:37.881967, 1.39785
2022-12-02 12:37:37.894457, 1.38319
2022-12-02 12:37:37.902240, 1.38319
2022-12-02 12:37:37.910804, 1.36852
2022-12-02 12:37:37.918310, 1.36364
2022-12-02 12:37:37.930677, 1.35875
2022-12-02 12:37:37.939329, 1.35386
2022-12-02 12:37:37.947797, 1.36364
2022-12-02 12:37:37.960025, 1.38807
2022-12-02 12:37:37.967893, 1.44184
2022-12-02 12:37:37.976386, 1.49071
2022-12-02 12:37:37.984297, 1.56891
2022-12-02 12:37:37.996950, 1.68133
2022-12-02 12:37:38.005102, 1.74976
2022-12-02 12:37:38.013316, 1.83773
2022-12-02 12:37:38.025593, 1.91593
2022-12-02 12:37:38.033765, 1.96481
2022-12-02 12:37:38.041984, 1.99902
2022-12-02 12:37:38.050365, 2.02346
2022-12-02 12:37:38.062238, 2.01857
2022-12-02 12:37:38.070159, 2.00880
2022-12-02 12:37:38.078910, 1.98436
2022-12-02 12:37:38.091830, 1.95503
2022-12-02 12:37:38.099160, 1.92082
2022-12-02 12:37:38.107790, 1.88661
2022-12-02 12:37:38.115808, 1.87683
2022-12-02 12:37:38.128235, 1.81329
2022-12-02 12:37:38.136199, 1.77908
2022-12-02 12:37:38.144473, 1.75953
2022-12-02 12:37:38.156951, 1.71554
2022-12-02 12:37:38.164456, 1.68622
2022-12-02 12:37:38.173578, 1.66178
2022-12-02 12:37:38.181597, 1.63245
2022-12-02 12:37:38.192695, 1.59824
2022-12-02 12:37:38.200852, 1.58358
2022-12-02 12:37:38.210653, 1.56403
2022-12-02 12:37:38.221425, 1.54936
2022-12-02 12:37:38.229919, 1.54448
2022-12-02 12:37:38.238273, 1.54936
2022-12-02 12:37:38.246984, 1.54448
2022-12-02 12:37:38.258345, 1.54936
2022-12-02 12:37:38.266901, 1.57869
2022-12-02 12:37:38.274976, 1.56891
2022-12-02 12:37:38.287693, 1.57380
2022-12-02 12:37:38.296005, 1.58358
2022-12-02 12:37:38.304194, 1.58847
2022-12-02 12:37:38.312425, 1.58847
2022-12-02 12:37:38.324769, 1.59335
2022-12-02 12:37:38.332934, 1.58358
2022-12-02 12:37:38.340683, 1.57869
2022-12-02 12:37:38.352900, 1.56891
2022-12-02 12:37:38.360837, 1.55914
2022-12-02 12:37:38.368988, 1.54448
2022-12-02 12:37:38.377162, 1.53470
2022-12-02 12:37:38.390171, 1.54936
2022-12-02 12:37:38.397932, 1.50538
2022-12-02 12:37:38.406593, 1.49071
2022-12-02 12:37:38.418650, 1.48583
2022-12-02 12:37:38.426164, 1.46139
2022-12-02 12:37:38.434906, 1.45161
2022-12-02 12:37:38.443514, 1.44184
2022-12-02 12:37:38.455196, 1.42717
2022-12-02 12:37:38.463417, 1.41740
2022-12-02 12:37:38.471358, 1.40762
2022-12-02 12:37:38.480228, 1.41251
2022-12-02 12:37:38.492331, 1.39296
2022-12-02 12:37:38.500837, 1.37830
2022-12-02 12:37:38.508814, 1.39785
2022-12-02 12:37:38.520863, 1.36364
2022-12-02 12:37:38.528910, 1.35875
2022-12-02 12:37:38.536764, 1.35875
2022-12-02 12:37:38.545310, 1.34897
2022-12-02 12:37:38.557259, 1.35386
2022-12-02 12:37:38.565663, 1.38319
2022-12-02 12:37:38.573771, 1.42229
2022-12-02 12:37:38.586483, 1.48583
2022-12-02 12:37:38.594543, 1.56891
2022-12-02 12:37:38.602429, 1.65689
2022-12-02 12:37:38.611206, 1.75464
2022-12-02 12:37:38.623357, 1.84262
2022-12-02 12:37:38.631101, 1.95015
2022-12-02 12:37:38.639793, 1.96970
2022-12-02 12:37:38.651682, 2.01369
2022-12-02 12:37:38.659891, 2.04301
2022-12-02 12:37:38.668118, 2.02835
2022-12-02 12:37:38.676324, 2.01857
2022-12-02 12:37:38.688862, 1.99902
2022-12-02 12:37:38.697313, 1.95992
2022-12-02 12:37:38.705422, 1.92571
2022-12-02 12:37:38.717775, 1.89150
2022-12-02 12:37:38.725194, 1.85239
2022-12-02 12:37:38.733739, 1.81818
2022-12-02 12:37:38.741624, 1.78397
2022-12-02 12:37:38.754739, 1.74976
2022-12-02 12:37:38.762857, 1.72043
2022-12-02 12:37:38.770906, 1.69110
2022-12-02 12:37:38.783358, 1.68622
2022-12-02 12:37:38.790624, 1.63734
2022-12-02 12:37:38.799485, 1.60802
2022-12-02 12:37:38.807859, 1.58847
2022-12-02 12:37:38.819849, 1.56891
2022-12-02 12:37:38.828378, 1.55425
2022-12-02 12:37:38.836042, 1.54936
2022-12-02 12:37:38.848608, 1.53959
2022-12-02 12:37:38.856869, 1.54448
2022-12-02 12:37:38.864673, 1.54936
2022-12-02 12:37:38.873137, 1.55425
2022-12-02 12:37:38.885486, 1.56403
2022-12-02 12:37:38.893687, 1.57380
2022-12-02 12:37:38.901913, 1.60802
2022-12-02 12:37:38.914423, 1.58358
2022-12-02 12:37:38.921869, 1.58847
2022-12-02 12:37:38.930541, 1.60802
2022-12-02 12:37:38.938807, 1.58847
2022-12-02 12:37:38.950804, 1.57869
2022-12-02 12:37:38.959635, 1.57869
2022-12-02 12:37:38.967412, 1.55914
2022-12-02 12:37:38.979604, 1.54448
2022-12-02 12:37:38.987569, 1.53470
2022-12-02 12:37:38.995952, 1.52004
2022-12-02 12:37:39.004305, 1.50049
2022-12-02 12:37:39.016470, 1.48583
2022-12-02 12:37:39.025180, 1.50538
2022-12-02 12:37:39.033061, 1.46139
2022-12-02 12:37:39.044642, 1.45161
2022-12-02 12:37:39.053141, 1.45650
2022-12-02 12:37:39.061871, 1.43206
2022-12-02 12:37:39.069786, 1.42229
2022-12-02 12:37:39.081463, 1.42229
2022-12-02 12:37:39.090420, 1.40274
2022-12-02 12:37:39.098401, 1.39296
2022-12-02 12:37:39.110908, 1.38319
2022-12-02 12:37:39.118999, 1.37341
2022-12-02 12:37:39.126777, 1.36364
2022-12-02 12:37:39.135549, 1.35386
2022-12-02 12:37:39.147555, 1.34409
2022-12-02 12:37:39.155740, 1.34409
2022-12-02 12:37:39.164256, 1.35875
2022-12-02 12:37:39.175820, 1.42229
2022-12-02 12:37:39.184438, 1.44184
2022-12-02 12:37:39.192412, 1.51026
2022-12-02 12:37:39.199888, 1.60802
2022-12-02 12:37:39.212587, 1.69599
2022-12-02 12:37:39.220872, 1.78397
2022-12-02 12:37:39.229462, 1.87195
2022-12-02 12:37:39.241344, 1.93548
2022-12-02 12:37:39.249481, 1.98436
2022-12-02 12:37:39.258283, 2.01857
2022-12-02 12:37:39.266132, 2.02346
2022-12-02 12:37:39.278560, 2.02346
2022-12-02 12:37:39.286591, 2.00880
2022-12-02 12:37:39.295161, 1.97947
2022-12-02 12:37:39.302853, 1.94526
2022-12-02 12:37:39.315462, 1.91593
2022-12-02 12:37:39.323615, 1.90616
2022-12-02 12:37:39.331701, 1.83773
2022-12-02 12:37:39.344253, 1.80352
2022-12-02 12:37:39.352718, 1.78397
2022-12-02 12:37:39.360039, 1.73998
2022-12-02 12:37:39.368734, 1.70577
2022-12-02 12:37:39.381128, 1.68133
2022-12-02 12:37:39.389131, 1.64712
2022-12-02 12:37:39.397382, 1.62268
2022-12-02 12:37:39.409209, 1.59824
2022-12-02 12:37:39.418120, 1.57380
2022-12-02 12:37:39.426544, 1.55914
2022-12-02 12:37:39.434531, 1.54448
2022-12-02 12:37:39.446582, 1.54936
2022-12-02 12:37:39.455243, 1.54448
2022-12-02 12:37:39.463075, 1.54448
2022-12-02 12:37:39.474673, 1.57869
2022-12-02 12:37:39.483664, 1.56403
2022-12-02 12:37:39.491629, 1.56891
2022-12-02 12:37:39.499863, 1.58847
2022-12-02 12:37:39.512229, 1.58847
2022-12-02 12:37:39.520616, 1.59335
2022-12-02 12:37:39.528191, 1.59824
2022-12-02 12:37:39.540335, 1.59335
2022-12-02 12:37:39.548965, 1.58847
2022-12-02 12:37:39.557180, 1.58358
2022-12-02 12:37:39.565042, 1.57380
2022-12-02 12:37:39.577241, 1.56403
2022-12-02 12:37:39.586257, 1.54936
2022-12-02 12:37:39.593739, 1.53470
2022-12-02 12:37:39.605912, 1.52004
2022-12-02 12:37:39.614943, 1.50538
2022-12-02 12:37:39.622616, 1.52493
2022-12-02 12:37:39.630403, 1.48094
2022-12-02 12:37:39.643206, 1.46628
2022-12-02 12:37:39.651657, 1.46628
2022-12-02 12:37:39.659204, 1.44184
2022-12-02 12:37:39.671687, 1.43206
2022-12-02 12:37:39.679947, 1.42717
2022-12-02 12:37:39.687926, 1.41251
2022-12-02 12:37:39.696735, 1.40274
2022-12-02 12:37:39.709058, 1.39296
2022-12-02 12:37:39.717031, 1.37830
2022-12-02 12:37:39.725486, 1.36852
2022-12-02 12:37:39.737528, 1.36364
2022-12-02 12:37:39.745281, 1.35386
2022-12-02 12:37:39.754109, 1.35386
2022-12-02 12:37:39.761671, 1.36852
2022-12-02 12:37:39.774503, 1.44184
2022-12-02 12:37:39.782647, 1.46628
2022-12-02 12:37:39.790344, 1.54448
2022-12-02 12:37:39.803031, 1.64223
2022-12-02 12:37:39.811428, 1.72532
2022-12-02 12:37:39.819692, 1.81329
2022-12-02 12:37:39.827217, 1.89638
2022-12-02 12:37:39.839627, 1.95503
2022-12-02 12:37:39.847455, 1.99902
2022-12-02 12:37:39.856491, 2.02835
2022-12-02 12:37:39.868152, 2.03324
2022-12-02 12:37:39.876909, 2.02346
2022-12-02 12:37:39.885273, 1.99902
2022-12-02 12:37:39.893011, 1.97947
2022-12-02 12:37:39.904744, 1.93548
2022-12-02 12:37:39.913696, 1.89638
2022-12-02 12:37:39.922093, 1.88172
2022-12-02 12:37:39.933565, 1.82796
2022-12-02 12:37:39.941590, 1.79374
2022-12-02 12:37:39.950476, 1.76442
2022-12-02 12:37:39.958544, 1.73021
2022-12-02 12:37:39.971096, 1.70088
2022-12-02 12:37:39.979224, 1.67644
2022-12-02 12:37:39.987446, 1.64712
2022-12-02 12:37:39.999598, 1.61779
2022-12-02 12:37:40.007304, 1.59824
2022-12-02 12:37:40.015554, 1.57869
2022-12-02 12:37:40.023617, 1.56891
2022-12-02 12:37:40.036627, 1.55914
2022-12-02 12:37:40.044221, 1.58358
2022-12-02 12:37:40.052948, 1.55425
2022-12-02 12:37:40.065469, 1.56403
2022-12-02 12:37:40.073416, 1.58847
2022-12-02 12:37:40.081027, 1.57869
2022-12-02 12:37:40.089843, 1.58847
2022-12-02 12:37:40.102069, 1.60802
2022-12-02 12:37:40.110129, 1.60802
2022-12-02 12:37:40.118500, 1.61290
2022-12-02 12:37:40.130195, 1.61779
2022-12-02 12:37:40.138582, 1.61290
2022-12-02 12:37:40.146994, 1.60802
2022-12-02 12:37:40.155373, 1.60313
2022-12-02 12:37:40.167647, 1.58358
2022-12-02 12:37:40.175810, 1.57380
2022-12-02 12:37:40.183671, 1.56403
2022-12-02 12:37:40.192438, 1.55914
2022-12-02 12:37:40.203851, 1.52981
2022-12-02 12:37:40.212115, 1.51515
2022-12-02 12:37:40.220505, 1.52981
2022-12-02 12:37:40.233189, 1.48583
2022-12-02 12:37:40.241414, 1.47605
2022-12-02 12:37:40.249885, 1.48094
2022-12-02 12:37:40.257992, 1.45650
2022-12-02 12:37:40.269360, 1.44184
2022-12-02 12:37:40.278291, 1.44184
2022-12-02 12:37:40.285926, 1.42717
2022-12-02 12:37:40.298211, 1.42229
2022-12-02 12:37:40.306989, 1.41251
2022-12-02 12:37:40.314799, 1.40762
2022-12-02 12:37:40.323726, 1.39785
2022-12-02 12:37:40.335191, 1.39785
2022-12-02 12:37:40.343802, 1.41740
2022-12-02 12:37:40.352104, 1.42717
2022-12-02 12:37:40.364165, 1.47116
2022-12-02 12:37:40.372457, 1.55914
2022-12-02 12:37:40.380216, 1.60802
2022-12-02 12:37:40.388856, 1.69599
2022-12-02 12:37:40.400530, 1.79374
2022-12-02 12:37:40.409560, 1.86706
2022-12-02 12:37:40.417230, 1.93060
2022-12-02 12:37:40.429509, 1.98925
2022-12-02 12:37:40.437595, 2.01857
2022-12-02 12:37:40.446268, 2.03324
2022-12-02 12:37:40.454268, 2.03324
2022-12-02 12:37:40.466807, 2.01857
2022-12-02 12:37:40.474282, 1.99413
2022-12-02 12:37:40.482989, 1.96481
2022-12-02 12:37:40.495099, 1.93060
2022-12-02 12:37:40.504011, 1.89150
2022-12-02 12:37:40.511515, 1.85728
2022-12-02 12:37:40.520133, 1.85728
2022-12-02 12:37:40.532642, 1.78886
2022-12-02 12:37:40.540769, 1.75953
2022-12-02 12:37:40.548626, 1.73509
2022-12-02 12:37:40.560635, 1.69599
2022-12-02 12:37:40.569596, 1.66667
2022-12-02 12:37:40.577638, 1.64223
2022-12-02 12:37:40.585683, 1.60802
2022-12-02 12:37:40.597732, 1.58847
2022-12-02 12:37:40.606304, 1.57380
2022-12-02 12:37:40.614256, 1.55914
2022-12-02 12:37:40.626838, 1.55425
2022-12-02 12:37:40.634729, 1.55914
2022-12-02 12:37:40.643711, 1.56891
2022-12-02 12:37:40.651155, 1.57380
2022-12-02 12:37:40.663818, 1.58358
2022-12-02 12:37:40.671858, 1.62268
2022-12-02 12:37:40.680345, 1.60802
2022-12-02 12:37:40.692695, 1.60802
2022-12-02 12:37:40.700039, 1.63245
2022-12-02 12:37:40.708785, 1.61779
2022-12-02 12:37:40.716604, 1.61779
2022-12-02 12:37:40.729206, 1.61779
2022-12-02 12:37:40.737427, 1.60313
2022-12-02 12:37:40.745656, 1.58847
2022-12-02 12:37:40.757675, 1.57869
2022-12-02 12:37:40.765937, 1.56891
2022-12-02 12:37:40.774674, 1.55425
2022-12-02 12:37:40.782330, 1.54448
2022-12-02 12:37:40.794816, 1.52981
2022-12-02 12:37:40.802637, 1.51515
2022-12-02 12:37:40.810746, 1.50049
2022-12-02 12:37:40.823685, 1.51515
2022-12-02 12:37:40.831054, 1.47605
2022-12-02 12:37:40.839927, 1.46628
2022-12-02 12:37:40.847419, 1.46628
2022-12-02 12:37:40.860525, 1.44673
2022-12-02 12:37:40.868336, 1.43695
2022-12-02 12:37:40.876779, 1.43206
2022-12-02 12:37:40.889059, 1.41740
2022-12-02 12:37:40.896635, 1.40274
2022-12-02 12:37:40.905239, 1.40274
2022-12-02 12:37:40.912965, 1.40762
2022-12-02 12:37:40.925661, 1.42717
2022-12-02 12:37:40.932994, 1.47116
2022-12-02 12:37:40.942580, 1.52981
2022-12-02 12:37:40.954478, 1.60313
2022-12-02 12:37:40.962736, 1.68622
2022-12-02 12:37:40.970418, 1.80352
2022-12-02 12:37:40.977824, 1.85239
2022-12-02 12:37:40.991653, 1.91593
2022-12-02 12:37:40.999597, 1.98436
2022-12-02 12:37:41.007768, 1.99902
2022-12-02 12:37:41.016133, 2.00880
2022-12-02 12:37:41.028305, 2.01369
2022-12-02 12:37:41.036658, 1.98925
2022-12-02 12:37:41.044624, 1.96970
2022-12-02 12:37:41.056919, 1.94037
2022-12-02 12:37:41.064496, 1.90616
2022-12-02 12:37:41.073139, 1.87195
2022-12-02 12:37:41.081344, 1.83284
2022-12-02 12:37:41.092644, 1.79863
2022-12-02 12:37:41.101732, 1.76442
2022-12-02 12:37:41.109900, 1.73021
2022-12-02 12:37:41.122121, 1.71554
2022-12-02 12:37:41.130589, 1.66667
2022-12-02 12:37:41.139061, 1.63734
2022-12-02 12:37:41.146548, 1.63734
2022-12-02 12:37:41.159088, 1.57869
2022-12-02 12:37:41.166895, 1.56403
2022-12-02 12:37:41.175441, 1.55914
2022-12-02 12:37:41.186863, 1.53959
2022-12-02 12:37:41.195947, 1.53959
2022-12-02 12:37:41.203424, 1.54936
2022-12-02 12:37:41.212162, 1.54936
2022-12-02 12:37:41.224710, 1.55914
2022-12-02 12:37:41.232805, 1.57380
2022-12-02 12:37:41.241057, 1.58358
2022-12-02 12:37:41.252718, 1.59335
2022-12-02 12:37:41.261372, 1.59824
2022-12-02 12:37:41.269009, 1.60313
2022-12-02 12:37:41.277885, 1.60313
2022-12-02 12:37:41.289203, 1.60313
2022-12-02 12:37:41.298357, 1.62757
2022-12-02 12:37:41.306713, 1.58847
2022-12-02 12:37:41.319132, 1.57380
2022-12-02 12:37:41.327650, 1.57869
2022-12-02 12:37:41.335659, 1.55914
2022-12-02 12:37:41.343763, 1.53959
2022-12-02 12:37:41.355311, 1.53470
2022-12-02 12:37:41.363768, 1.51515
2022-12-02 12:37:41.372115, 1.50049
2022-12-02 12:37:41.383961, 1.49071
2022-12-02 12:37:41.392707, 1.47605
2022-12-02 12:37:41.400284, 1.46139
2022-12-02 12:37:41.408667, 1.45650
2022-12-02 12:37:41.420511, 1.46628
2022-12-02 12:37:41.429070, 1.43206
2022-12-02 12:37:41.437925, 1.42229
2022-12-02 12:37:41.449664, 1.43695
2022-12-02 12:37:41.458287, 1.40762
2022-12-02 12:37:41.466159, 1.40274
2022-12-02 12:37:41.474649, 1.41251
2022-12-02 12:37:41.486815, 1.42717
2022-12-02 12:37:41.494234, 1.46628
2022-12-02 12:37:41.502370, 1.52493
2022-12-02 12:37:41.515134, 1.59335
2022-12-02 12:37:41.523300, 1.67155
2022-12-02 12:37:41.531897, 1.75953
2022-12-02 12:37:41.540014, 1.83773
2022-12-02 12:37:41.552271, 1.90127
2022-12-02 12:37:41.560550, 1.95503
2022-12-02 12:37:41.568149, 2.01857
2022-12-02 12:37:41.580465, 2.00391
2022-12-02 12:37:41.589699, 2.00880
2022-12-02 12:37:41.596985, 2.01369
2022-12-02 12:37:41.605828, 1.96970
2022-12-02 12:37:41.617823, 1.94037
2022-12-02 12:37:41.626700, 1.91593
2022-12-02 12:37:41.633899, 1.87195
2022-12-02 12:37:41.646319, 1.83773
2022-12-02 12:37:41.654518, 1.80352
2022-12-02 12:37:41.662976, 1.76442
2022-12-02 12:37:41.671145, 1.73021
2022-12-02 12:37:41.682746, 1.70088
2022-12-02 12:37:41.692006, 1.66667
2022-12-02 12:37:41.699642, 1.63734
2022-12-02 12:37:41.712102, 1.60802
2022-12-02 12:37:41.720332, 1.61290
2022-12-02 12:37:41.728099, 1.56891
2022-12-02 12:37:41.736031, 1.55914
2022-12-02 12:37:41.749135, 1.56403
2022-12-02 12:37:41.757582, 1.55914
2022-12-02 12:37:41.765432, 1.56403
2022-12-02 12:37:41.777793, 1.57869
2022-12-02 12:37:41.785222, 1.58847
2022-12-02 12:37:41.793657, 1.60313
2022-12-02 12:37:41.802231, 1.62268
2022-12-02 12:37:41.814515, 1.63245
2022-12-02 12:37:41.822880, 1.63734
2022-12-02 12:37:41.830619, 1.64712
2022-12-02 12:37:41.843017, 1.66178
2022-12-02 12:37:41.850589, 1.64712
2022-12-02 12:37:41.859262, 1.64223
2022-12-02 12:37:41.867258, 1.65689
2022-12-02 12:37:41.879822, 1.62757
2022-12-02 12:37:41.887852, 1.61779
2022-12-02 12:37:41.896074, 1.61290
2022-12-02 12:37:41.905134, 1.58847
2022-12-02 12:37:41.916119, 1.57380
2022-12-02 12:37:41.925029, 1.56891
2022-12-02 12:37:41.932762, 1.54936
2022-12-02 12:37:41.945346, 1.53470
2022-12-02 12:37:41.954044, 1.52004
2022-12-02 12:37:41.962243, 1.51026
2022-12-02 12:37:41.969934, 1.49560
2022-12-02 12:37:41.982094, 1.48583
2022-12-02 12:37:41.990859, 1.50049
2022-12-02 12:37:41.998916, 1.46628
2022-12-02 12:37:42.011852, 1.45650
2022-12-02 12:37:42.019689, 1.46628
2022-12-02 12:37:42.027732, 1.45161
2022-12-02 12:37:42.035751, 1.46139
2022-12-02 12:37:42.047712, 1.49560
2022-12-02 12:37:42.056034, 1.53959
2022-12-02 12:37:42.063954, 1.59824
2022-12-02 12:37:42.076487, 1.67644
2022-12-02 12:37:42.084660, 1.74976
2022-12-02 12:37:42.093123, 1.83284
2022-12-02 12:37:42.100679, 1.90127
2022-12-02 12:37:42.112752, 1.95503
2022-12-02 12:37:42.120690, 1.99413
2022-12-02 12:37:42.129300, 2.01369
2022-12-02 12:37:42.141855, 2.05279
2022-12-02 12:37:42.150377, 2.01369
2022-12-02 12:37:42.157785, 1.99413
2022-12-02 12:37:42.166150, 1.97947
2022-12-02 12:37:42.178502, 1.93060
2022-12-02 12:37:42.187127, 1.89638
2022-12-02 12:37:42.195883, 1.86706
2022-12-02 12:37:42.207987, 1.82307
2022-12-02 12:37:42.215812, 1.78886
2022-12-02 12:37:42.224211, 1.74976
2022-12-02 12:37:42.232279, 1.71065
2022-12-02 12:37:42.244089, 1.67644
2022-12-02 12:37:42.253070, 1.64223
2022-12-02 12:37:42.260936, 1.60802
2022-12-02 12:37:42.273276, 1.57869
2022-12-02 12:37:42.281467, 1.55914
2022-12-02 12:37:42.290038, 1.57380
2022-12-02 12:37:42.297859, 1.53959
2022-12-02 12:37:42.309951, 1.54448
2022-12-02 12:37:42.318264, 1.55914
2022-12-02 12:37:42.326259, 1.55914
2022-12-02 12:37:42.338461, 1.57380
2022-12-02 12:37:42.346953, 1.59335
2022-12-02 12:37:42.355608, 1.60802
2022-12-02 12:37:42.363584, 1.62268
2022-12-02 12:37:42.375814, 1.63734
2022-12-02 12:37:42.382923, 1.63734
2022-12-02 12:37:42.392223, 1.64712
2022-12-02 12:37:42.404684, 1.64223
2022-12-02 12:37:42.412511, 1.66667
2022-12-02 12:37:42.420977, 1.63245
2022-12-02 12:37:42.428202, 1.62268
2022-12-02 12:37:42.441449, 1.63734
2022-12-02 12:37:42.449233, 1.60313
2022-12-02 12:37:42.457769, 1.58847
2022-12-02 12:37:42.470151, 1.58358
2022-12-02 12:37:42.478369, 1.55914
2022-12-02 12:37:42.486690, 1.53959
2022-12-02 12:37:42.494358, 1.53470
2022-12-02 12:37:42.506507, 1.52004
2022-12-02 12:37:42.514929, 1.50538
2022-12-02 12:37:42.523352, 1.49560
2022-12-02 12:37:42.535140, 1.48583
2022-12-02 12:37:42.543045, 1.47605
2022-12-02 12:37:42.551908, 1.46628
2022-12-02 12:37:42.559931, 1.48094
2022-12-02 12:37:42.572545, 1.46139
2022-12-02 12:37:42.580448, 1.47116
2022-12-02 12:37:42.587848, 1.51026
2022-12-02 12:37:42.600678, 1.54936
2022-12-02 12:37:42.608268, 1.61290
2022-12-02 12:37:42.617027, 1.69599
2022-12-02 12:37:42.624882, 1.77419
2022-12-02 12:37:42.637121, 1.85728
2022-12-02 12:37:42.646010, 1.93060
2022-12-02 12:37:42.653934, 1.98436
2022-12-02 12:37:42.665747, 2.02835
2022-12-02 12:37:42.674363, 2.05279
2022-12-02 12:37:42.682894, 2.08211
2022-12-02 12:37:42.690873, 2.04301
2022-12-02 12:37:42.702674, 2.02346
2022-12-02 12:37:42.711505, 2.00391
2022-12-02 12:37:42.718994, 1.95503
2022-12-02 12:37:42.727374, 1.91593
2022-12-02 12:37:42.739651, 1.88661
2022-12-02 12:37:42.748005, 1.84262
2022-12-02 12:37:42.756318, 1.80841
2022-12-02 12:37:42.768506, 1.77419
2022-12-02 12:37:42.776956, 1.73998
2022-12-02 12:37:42.784742, 1.70577
2022-12-02 12:37:42.792569, 1.67644
2022-12-02 12:37:42.805205, 1.64712
2022-12-02 12:37:42.813406, 1.62268
2022-12-02 12:37:42.822091, 1.60313
2022-12-02 12:37:42.833400, 1.61779
2022-12-02 12:37:42.841954, 1.58358
2022-12-02 12:37:42.850227, 1.57869
2022-12-02 12:37:42.858612, 1.59824
2022-12-02 12:37:42.870580, 1.59824
2022-12-02 12:37:42.878849, 1.60802
2022-12-02 12:37:42.886785, 1.62268
2022-12-02 12:37:42.899188, 1.63245
2022-12-02 12:37:42.907506, 1.64223
2022-12-02 12:37:42.915467, 1.65200
2022-12-02 12:37:42.924560, 1.65200
2022-12-02 12:37:42.935524, 1.65200
2022-12-02 12:37:42.944480, 1.65200
2022-12-02 12:37:42.952821, 1.67155
2022-12-02 12:37:42.964455, 1.63245
2022-12-02 12:37:42.973049, 1.62268
2022-12-02 12:37:42.981263, 1.63245
2022-12-02 12:37:42.989139, 1.59824
2022-12-02 12:37:43.002181, 1.57869
2022-12-02 12:37:43.009711, 1.57380
2022-12-02 12:37:43.018335, 1.55425
2022-12-02 12:37:43.030797, 1.53959
2022-12-02 12:37:43.039056, 1.52981
2022-12-02 12:37:43.047381, 1.51026
2022-12-02 12:37:43.055262, 1.50049
2022-12-02 12:37:43.067819, 1.49071
2022-12-02 12:37:43.076000, 1.47605
2022-12-02 12:37:43.084227, 1.46628
2022-12-02 12:37:43.095990, 1.45650
2022-12-02 12:37:43.104759, 1.49071
2022-12-02 12:37:43.112283, 1.46139
2022-12-02 12:37:43.121293, 1.48094
2022-12-02 12:37:43.133398, 1.52493
2022-12-02 12:37:43.141163, 1.57380
2022-12-02 12:37:43.149801, 1.64223
2022-12-02 12:37:43.162054, 1.72532
2022-12-02 12:37:43.169799, 1.80352
2022-12-02 12:37:43.178283, 1.88172
2022-12-02 12:37:43.186942, 1.95015
2022-12-02 12:37:43.198915, 1.99902
2022-12-02 12:37:43.207707, 2.03812
2022-12-02 12:37:43.215460, 2.05279
2022-12-02 12:37:43.228033, 2.08211
2022-12-02 12:37:43.235625, 2.03812
2022-12-02 12:37:43.243326, 2.01857
2022-12-02 12:37:43.251748, 2.00880
2022-12-02 12:37:43.263632, 1.95503
2022-12-02 12:37:43.272447, 1.92082
2022-12-02 12:37:43.280614, 1.89150
2022-12-02 12:37:43.292896, 1.84751
2022-12-02 12:37:43.301301, 1.81329
2022-12-02 12:37:43.309538, 1.78397
2022-12-02 12:37:43.317106, 1.74976
2022-12-02 12:37:43.329961, 1.72043
2022-12-02 12:37:43.337992, 1.69110
2022-12-02 12:37:43.346142, 1.66667
2022-12-02 12:37:43.358837, 1.63734
2022-12-02 12:37:43.366559, 1.62268
2022-12-02 12:37:43.375104, 1.63245
2022-12-02 12:37:43.383135, 1.59335
2022-12-02 12:37:43.395350, 1.59335
2022-12-02 12:37:43.403020, 1.60802
2022-12-02 12:37:43.411570, 1.60313
2022-12-02 12:37:43.424140, 1.60802
2022-12-02 12:37:43.432097, 1.62268
2022-12-02 12:37:43.440814, 1.63245
2022-12-02 12:37:43.448899, 1.64223
2022-12-02 12:37:43.460795, 1.64712
2022-12-02 12:37:43.469607, 1.65200
2022-12-02 12:37:43.477926, 1.65200
2022-12-02 12:37:43.490067, 1.64223
2022-12-02 12:37:43.498203, 1.66667
2022-12-02 12:37:43.506695, 1.62757
2022-12-02 12:37:43.514609, 1.61290
2022-12-02 12:37:43.526336, 1.62268
2022-12-02 12:37:43.534869, 1.58847
2022-12-02 12:37:43.542050, 1.56891
2022-12-02 12:37:43.555600, 1.56403
2022-12-02 12:37:43.563597, 1.54448
2022-12-02 12:37:43.571923, 1.52981
2022-12-02 12:37:43.579041, 1.52004
2022-12-02 12:37:43.592275, 1.50049
2022-12-02 12:37:43.599586, 1.49071
2022-12-02 12:37:43.608762, 1.48094
2022-12-02 12:37:43.616464, 1.46628
2022-12-02 12:37:43.628503, 1.45650
2022-12-02 12:37:43.637601, 1.44673
2022-12-02 12:37:43.645673, 1.46628
2022-12-02 12:37:43.658049, 1.43695
2022-12-02 12:37:43.665503, 1.43695
2022-12-02 12:37:43.674588, 1.47116
2022-12-02 12:37:43.682298, 1.49560
2022-12-02 12:37:43.694132, 1.55425
2022-12-02 12:37:43.703006, 1.62757
2022-12-02 12:37:43.711268, 1.71065
2022-12-02 12:37:43.723570, 1.79374
2022-12-02 12:37:43.731489, 1.87683
2022-12-02 12:37:43.739906, 1.94037
2022-12-02 12:37:43.747762, 1.99413
2022-12-02 12:37:43.759967, 2.03324
2022-12-02 12:37:43.768248, 2.07722
2022-12-02 12:37:43.775819, 2.04790
2022-12-02 12:37:43.789162, 2.03812
2022-12-02 12:37:43.796888, 2.03324
2022-12-02 12:37:43.805231, 1.98436
2022-12-02 12:37:43.813288, 1.95015
2022-12-02 12:37:43.825825, 1.91593
2022-12-02 12:37:43.833832, 1.87683
2022-12-02 12:37:43.842705, 1.84262
2022-12-02 12:37:43.854604, 1.80841
2022-12-02 12:37:43.861957, 1.77419
2022-12-02 12:37:43.870935, 1.74976
2022-12-02 12:37:43.878965, 1.72043
2022-12-02 12:37:43.891608, 1.69110
2022-12-02 12:37:43.899207, 1.66667
2022-12-02 12:37:43.907881, 1.64223
2022-12-02 12:37:43.920001, 1.64712
2022-12-02 12:37:43.927598, 1.59824
2022-12-02 12:37:43.936186, 1.58847
2022-12-02 12:37:43.944841, 1.59335
2022-12-02 12:37:43.957007, 1.58358
2022-12-02 12:37:43.965038, 1.57869
2022-12-02 12:37:43.973596, 1.59335
2022-12-02 12:37:43.985616, 1.59335
2022-12-02 12:37:43.993035, 1.59824
2022-12-02 12:37:44.000963, 1.60802
2022-12-02 12:37:44.010168, 1.61290
2022-12-02 12:37:44.021385, 1.61779
2022-12-02 12:37:44.030375, 1.61779
2022-12-02 12:37:44.038384, 1.64223
2022-12-02 12:37:44.050690, 1.60802
2022-12-02 12:37:44.059712, 1.60313
2022-12-02 12:37:44.066978, 1.60802
2022-12-02 12:37:44.075608, 1.57380
2022-12-02 12:37:44.087744, 1.55914
2022-12-02 12:37:44.095748, 1.54936
2022-12-02 12:37:44.104018, 1.53470
2022-12-02 12:37:44.116267, 1.52004
2022-12-02 12:37:44.124923, 1.51026
2022-12-02 12:37:44.132912, 1.49071
2022-12-02 12:37:44.141206, 1.48094
2022-12-02 12:37:44.153189, 1.47116
2022-12-02 12:37:44.160903, 1.45650
2022-12-02 12:37:44.169169, 1.44673
2022-12-02 12:37:44.181890, 1.43695
2022-12-02 12:37:44.189018, 1.46139
2022-12-02 12:37:44.198514, 1.42229
2022-12-02 12:37:44.206830, 1.41251
2022-12-02 12:37:44.218599, 1.42229
2022-12-02 12:37:44.227208, 1.40274
2022-12-02 12:37:44.235367, 1.40274
2022-12-02 12:37:44.247638, 1.42229
2022-12-02 12:37:44.255902, 1.45161
2022-12-02 12:37:44.263839, 1.50538
2022-12-02 12:37:44.272288, 1.58358
2022-12-02 12:37:44.284163, 1.66178
2022-12-02 12:37:44.292795, 1.75464
2022-12-02 12:37:44.300764, 1.83773
2022-12-02 12:37:44.312672, 1.91105
2022-12-02 12:37:44.321697, 1.96970
2022-12-02 12:37:44.329264, 2.01369
2022-12-02 12:37:44.337926, 2.07234
2022-12-02 12:37:44.349614, 2.04790
2022-12-02 12:37:44.358323, 2.03812
2022-12-02 12:37:44.366114, 2.03324
2022-12-02 12:37:44.377983, 1.99413
2022-12-02 12:37:44.386486, 1.95992
2022-12-02 12:37:44.394227, 1.93060
2022-12-02 12:37:44.403490, 1.88661
2022-12-02 12:37:44.415175, 1.85239
2022-12-02 12:37:44.422579, 1.82307
2022-12-02 12:37:44.431859, 1.78886
2022-12-02 12:37:44.440037, 1.75464
2022-12-02 12:37:44.452687, 1.73021
2022-12-02 12:37:44.460733, 1.73509
2022-12-02 12:37:44.469153, 1.68133
2022-12-02 12:37:44.480930, 1.65689
2022-12-02 12:37:44.489709, 1.65200
2022-12-02 12:37:44.497742, 1.61779
2022-12-02 12:37:44.505794, 1.60802
2022-12-02 12:37:44.517795, 1.60802
2022-12-02 12:37:44.526435, 1.60313
2022-12-02 12:37:44.534155, 1.60313
2022-12-02 12:37:44.546107, 1.61290
2022-12-02 12:37:44.554652, 1.62268
2022-12-02 12:37:44.563091, 1.62757
2022-12-02 12:37:44.571235, 1.64223
2022-12-02 12:37:44.582736, 1.64712
2022-12-02 12:37:44.591641, 1.65200
2022-12-02 12:37:44.599392, 1.65689
2022-12-02 12:37:44.612234, 1.68133
2022-12-02 12:37:44.620819, 1.64712
2022-12-02 12:37:44.628624, 1.64223
2022-12-02 12:37:44.636666, 1.64223
2022-12-02 12:37:44.648044, 1.61779
2022-12-02 12:37:44.657281, 1.60313
2022-12-02 12:37:44.664848, 1.58847
2022-12-02 12:37:44.677904, 1.57380
2022-12-02 12:37:44.685951, 1.55914
2022-12-02 12:37:44.693958, 1.54448
2022-12-02 12:37:44.702445, 1.52981
2022-12-02 12:37:44.713493, 1.51026
2022-12-02 12:37:44.722957, 1.50538
2022-12-02 12:37:44.729649, 1.51026
2022-12-02 12:37:44.743317, 1.48094
2022-12-02 12:37:44.751450, 1.46628
2022-12-02 12:37:44.759824, 1.48583
2022-12-02 12:37:44.767633, 1.45161
2022-12-02 12:37:44.779516, 1.44184
2022-12-02 12:37:44.787450, 1.44184
2022-12-02 12:37:44.796497, 1.42229
2022-12-02 12:37:44.808289, 1.41740
2022-12-02 12:37:44.815909, 1.41740
2022-12-02 12:37:44.825624, 1.42717
2022-12-02 12:37:44.833274, 1.45161
2022-12-02 12:37:44.845281, 1.50049
2022-12-02 12:37:44.853130, 1.56403
2022-12-02 12:37:44.862160, 1.64223
2022-12-02 12:37:44.874513, 1.73021
2022-12-02 12:37:44.882425, 1.82307
2022-12-02 12:37:44.890871, 1.89638
2022-12-02 12:37:44.898948, 1.95992
2022-12-02 12:37:44.910404, 2.03812
2022-12-02 12:37:44.919083, 2.03812
2022-12-02 12:37:44.927244, 2.04301
2022-12-02 12:37:44.939925, 2.05279
2022-12-02 12:37:44.948031, 2.02346
2022-12-02 12:37:44.956731, 1.99413
2022-12-02 12:37:44.964361, 1.95992
2022-12-02 12:37:44.976230, 1.92571
2022-12-02 12:37:44.984177, 1.88172
2022-12-02 12:37:44.993091, 1.85239
2022-12-02 12:37:45.005123, 1.80841
2022-12-02 12:37:45.013360, 1.77419
2022-12-02 12:37:45.021864, 1.74487
2022-12-02 12:37:45.029837, 1.74487
2022-12-02 12:37:45.042725, 1.68622
2022-12-02 12:37:45.050304, 1.65689
2022-12-02 12:37:45.058768, 1.64712
2022-12-02 12:37:45.071116, 1.60802
2022-12-02 12:37:45.078479, 1.58358
2022-12-02 12:37:45.086487, 1.57869
2022-12-02 12:37:45.095648, 1.56891
2022-12-02 12:37:45.108040, 1.56403
2022-12-02 12:37:45.115796, 1.56403
2022-12-02 12:37:45.124439, 1.56891
2022-12-02 12:37:45.136428, 1.57869
2022-12-02 12:37:45.144643, 1.58358
2022-12-02 12:37:45.152628, 1.58847
2022-12-02 12:37:45.160626, 1.59824
2022-12-02 12:37:45.173617, 1.60313
2022-12-02 12:37:45.181631, 1.63734
2022-12-02 12:37:45.188914, 1.60802
2022-12-02 12:37:45.202130, 1.60313
2022-12-02 12:37:45.209518, 1.60313
2022-12-02 12:37:45.217783, 1.58358
2022-12-02 12:37:45.225915, 1.56403
2022-12-02 12:37:45.238478, 1.54936
2022-12-02 12:37:45.246936, 1.52981
2022-12-02 12:37:45.255117, 1.51515
2022-12-02 12:37:45.266966, 1.50049
2022-12-02 12:37:45.274890, 1.48094
2022-12-02 12:37:45.283511, 1.46628
2022-12-02 12:37:45.291642, 1.45161
2022-12-02 12:37:45.303397, 1.46628
2022-12-02 12:37:45.312448, 1.42717
2022-12-02 12:37:45.320268, 1.41251
2022-12-02 12:37:45.328187, 1.43206
2022-12-02 12:37:45.341622, 1.40274
2022-12-02 12:37:45.349086, 1.39296
2022-12-02 12:37:45.357612, 1.39785
2022-12-02 12:37:45.369778, 1.38319
2022-12-02 12:37:45.377794, 1.38319
2022-12-02 12:37:45.385509, 1.38319
2022-12-02 12:37:45.394052, 1.37341
2022-12-02 12:37:45.406962, 1.37341
2022-12-02 12:37:45.414722, 1.37830
2022-12-02 12:37:45.423592, 1.39296
2022-12-02 12:37:45.435286, 1.42717
2022-12-02 12:37:45.443848, 1.47605
2022-12-02 12:37:45.452080, 1.57869
2022-12-02 12:37:45.460051, 1.63734
2022-12-02 12:37:45.472292, 1.72532
2022-12-02 12:37:45.479682, 1.82307
2022-12-02 12:37:45.488844, 1.88661
2022-12-02 12:37:45.501090, 1.95015
2022-12-02 12:37:45.509251, 2.00391
2022-12-02 12:37:45.517462, 2.02835
2022-12-02 12:37:45.524988, 2.03812
2022-12-02 12:37:45.538110, 2.03812
2022-12-02 12:37:45.545920, 2.01369
2022-12-02 12:37:45.554601, 1.98925
2022-12-02 12:37:45.566429, 1.95503
2022-12-02 12:37:45.574956, 1.92082
2022-12-02 12:37:45.582495, 1.88172
2022-12-02 12:37:45.591317, 1.85239
2022-12-02 12:37:45.603627, 1.82307
2022-12-02 12:37:45.611698, 1.78886
2022-12-02 12:37:45.619928, 1.75953
2022-12-02 12:37:45.631651, 1.74487
2022-12-02 12:37:45.640281, 1.70577
2022-12-02 12:37:45.647905, 1.68133
2022-12-02 12:37:45.656712, 1.66178
2022-12-02 12:37:45.669130, 1.63245
2022-12-02 12:37:45.677134, 1.61290
2022-12-02 12:37:45.685723, 1.59824
2022-12-02 12:37:45.697598, 1.58358
2022-12-02 12:37:45.705942, 1.57380
2022-12-02 12:37:45.714004, 1.57380
2022-12-02 12:37:45.722513, 1.59335
2022-12-02 12:37:45.734728, 1.57380
2022-12-02 12:37:45.742410, 1.57869
2022-12-02 12:37:45.750936, 1.60802
2022-12-02 12:37:45.763611, 1.59335
2022-12-02 12:37:45.771753, 1.60313
2022-12-02 12:37:45.779186, 1.61290
2022-12-02 12:37:45.787946, 1.60802
2022-12-02 12:37:45.799842, 1.59824
2022-12-02 12:37:45.808275, 1.59335
2022-12-02 12:37:45.816335, 1.58358
2022-12-02 12:37:45.828308, 1.56403
2022-12-02 12:37:45.837192, 1.54936
2022-12-02 12:37:45.845130, 1.54448
2022-12-02 12:37:45.853729, 1.52004
2022-12-02 12:37:45.864771, 1.50538
2022-12-02 12:37:45.874072, 1.51026
2022-12-02 12:37:45.881276, 1.47605
2022-12-02 12:37:45.894045, 1.46139
2022-12-02 12:37:45.902721, 1.45650
2022-12-02 12:37:45.910309, 1.44184
2022-12-02 12:37:45.918911, 1.43206
2022-12-02 12:37:45.931242, 1.42229
2022-12-02 12:37:45.939573, 1.41251
2022-12-02 12:37:45.947636, 1.40274
2022-12-02 12:37:45.959839, 1.39296
2022-12-02 12:37:45.967944, 1.38807
2022-12-02 12:37:45.976241, 1.37341
2022-12-02 12:37:45.984521, 1.35875
2022-12-02 12:37:45.995944, 1.37341
2022-12-02 12:37:46.004986, 1.34409
2022-12-02 12:37:46.012999, 1.34409
2022-12-02 12:37:46.025459, 1.35875
2022-12-02 12:37:46.033383, 1.38319
2022-12-02 12:37:46.041631, 1.43206
2022-12-02 12:37:46.049748, 1.50049
2022-12-02 12:37:46.061479, 1.57869
2022-12-02 12:37:46.070534, 1.67155
2022-12-02 12:37:46.078361, 1.76442
2022-12-02 12:37:46.090315, 1.83773
2022-12-02 12:37:46.098612, 1.90127
2022-12-02 12:37:46.107214, 1.95015
2022-12-02 12:37:46.114622, 2.00880
2022-12-02 12:37:46.127179, 1.98925
2022-12-02 12:37:46.135969, 1.97947
2022-12-02 12:37:46.144152, 1.97947
2022-12-02 12:37:46.151925, 1.94037
2022-12-02 12:37:46.164499, 1.90616
2022-12-02 12:37:46.173002, 1.87195
2022-12-02 12:37:46.181140, 1.83284
2022-12-02 12:37:46.193501, 1.79374
2022-12-02 12:37:46.201194, 1.75953
2022-12-02 12:37:46.208647, 1.72043
2022-12-02 12:37:46.218027, 1.68622
2022-12-02 12:37:46.230022, 1.65200
2022-12-02 12:37:46.238744, 1.64712
2022-12-02 12:37:46.246533, 1.59335
2022-12-02 12:37:46.258540, 1.56891
2022-12-02 12:37:46.267048, 1.56403
2022-12-02 12:37:46.275217, 1.52981
2022-12-02 12:37:46.283488, 1.51515
2022-12-02 12:37:46.295049, 1.51515
2022-12-02 12:37:46.303797, 1.50538
2022-12-02 12:37:46.312218, 1.50538
2022-12-02 12:37:46.324127, 1.51026
2022-12-02 12:37:46.332390, 1.52004
2022-12-02 12:37:46.340909, 1.52981
2022-12-02 12:37:46.348825, 1.53470
2022-12-02 12:37:46.361612, 1.54448
2022-12-02 12:37:46.369731, 1.54448
2022-12-02 12:37:46.377716, 1.54448
2022-12-02 12:37:46.390051, 1.57380
2022-12-02 12:37:46.397723, 1.54448
2022-12-02 12:37:46.406713, 1.53470
2022-12-02 12:37:46.414035, 1.53959
2022-12-02 12:37:46.426425, 1.52004
2022-12-02 12:37:46.434052, 1.50538
2022-12-02 12:37:46.442962, 1.49560
2022-12-02 12:37:46.454883, 1.48094
2022-12-02 12:37:46.463209, 1.47116
2022-12-02 12:37:46.471734, 1.45650
2022-12-02 12:37:46.479792, 1.44184
2022-12-02 12:37:46.491997, 1.42717
2022-12-02 12:37:46.499630, 1.41740
2022-12-02 12:37:46.508601, 1.41251
2022-12-02 12:37:46.520039, 1.39296
2022-12-02 12:37:46.528653, 1.37830
2022-12-02 12:37:46.536825, 1.39296
2022-12-02 12:37:46.545338, 1.35875
2022-12-02 12:37:46.557634, 1.34897
2022-12-02 12:37:46.565640, 1.34409
2022-12-02 12:37:46.573308, 1.33431
2022-12-02 12:37:46.585550, 1.32454
2022-12-02 12:37:46.594170, 1.31965
2022-12-02 12:37:46.602658, 1.30987
2022-12-02 12:37:46.610875, 1.30987
2022-12-02 12:37:46.623179, 1.31476
2022-12-02 12:37:46.630696, 1.32942
2022-12-02 12:37:46.639736, 1.36364
2022-12-02 12:37:46.652093, 1.41740
2022-12-02 12:37:46.660307, 1.52004
2022-12-02 12:37:46.668280, 1.57380
2022-12-02 12:37:46.676415, 1.66667
2022-12-02 12:37:46.688930, 1.75953
2022-12-02 12:37:46.696975, 1.81818
2022-12-02 12:37:46.705354, 1.87683
2022-12-02 12:37:46.717369, 1.91593
2022-12-02 12:37:46.726089, 1.93548
2022-12-02 12:37:46.733697, 1.93548
2022-12-02 12:37:46.742343, 1.92571
2022-12-02 12:37:46.754718, 1.89638
2022-12-02 12:37:46.762553, 1.86706
2022-12-02 12:37:46.770834, 1.82796
2022-12-02 12:37:46.782872, 1.81818
2022-12-02 12:37:46.791696, 1.74976
2022-12-02 12:37:46.798644, 1.71554
2022-12-02 12:37:46.807431, 1.70088
2022-12-02 12:37:46.819514, 1.64712
2022-12-02 12:37:46.827763, 1.61290
2022-12-02 12:37:46.835865, 1.57869
2022-12-02 12:37:46.848487, 1.54448
2022-12-02 12:37:46.856363, 1.51515
2022-12-02 12:37:46.864337, 1.49071
2022-12-02 12:37:46.872984, 1.46628
2022-12-02 12:37:46.885494, 1.44673
2022-12-02 12:37:46.893291, 1.44673
2022-12-02 12:37:46.902159, 1.44184
2022-12-02 12:37:46.914179, 1.44673
2022-12-02 12:37:46.922722, 1.45650
2022-12-02 12:37:46.930602, 1.50049
2022-12-02 12:37:46.938546, 1.48094
2022-12-02 12:37:46.950861, 1.49071
2022-12-02 12:37:46.959534, 1.52493
2022-12-02 12:37:46.967231, 1.51515
2022-12-02 12:37:46.978399, 1.52493
2022-12-02 12:37:46.987523, 1.53470
2022-12-02 12:37:46.995860, 1.52493
2022-12-02 12:37:47.004716, 1.52004
2022-12-02 12:37:47.015719, 1.51515
2022-12-02 12:37:47.024474, 1.51026
2022-12-02 12:37:47.032729, 1.49560
2022-12-02 12:37:47.040946, 1.48583
2022-12-02 12:37:47.053482, 1.47605
2022-12-02 12:37:47.060937, 1.46628
2022-12-02 12:37:47.069904, 1.45161
2022-12-02 12:37:47.081712, 1.46628
2022-12-02 12:37:47.090058, 1.42717
2022-12-02 12:37:47.098212, 1.41251
2022-12-02 12:37:47.106546, 1.41251
2022-12-02 12:37:47.118814, 1.39296
2022-12-02 12:37:47.127202, 1.38319
2022-12-02 12:37:47.135380, 1.37341
2022-12-02 12:37:47.147359, 1.35875
2022-12-02 12:37:47.155418, 1.34409
2022-12-02 12:37:47.164202, 1.33920
2022-12-02 12:37:47.172357, 1.32942
2022-12-02 12:37:47.184407, 1.31965
2022-12-02 12:37:47.192711, 1.30987
2022-12-02 12:37:47.200773, 1.30499
2022-12-02 12:37:47.213405, 1.29032
2022-12-02 12:37:47.221736, 1.28543
2022-12-02 12:37:47.228785, 1.31965
2022-12-02 12:37:47.237793, 1.31476
2022-12-02 12:37:47.249292, 1.35875
2022-12-02 12:37:47.257447, 1.43695
2022-12-02 12:37:47.266215, 1.50538
2022-12-02 12:37:47.278484, 1.59335
2022-12-02 12:37:47.286970, 1.69110
2022-12-02 12:37:47.294692, 1.76931
2022-12-02 12:37:47.303020, 1.84262
2022-12-02 12:37:47.314916, 1.90127
2022-12-02 12:37:47.323691, 1.93548
2022-12-02 12:37:47.331687, 1.95015
2022-12-02 12:37:47.343464, 1.95503
2022-12-02 12:37:47.351901, 1.95015
2022-12-02 12:37:47.360322, 1.92082
2022-12-02 12:37:47.368233, 1.88661
2022-12-02 12:37:47.380604, 1.88172
2022-12-02 12:37:47.389412, 1.81329
2022-12-02 12:37:47.397079, 1.77419
2022-12-02 12:37:47.409582, 1.74487
2022-12-02 12:37:47.417534, 1.70088
2022-12-02 12:37:47.425635, 1.65689
2022-12-02 12:37:47.433646, 1.63245
2022-12-02 12:37:47.445996, 1.58847
2022-12-02 12:37:47.454531, 1.55914
2022-12-02 12:37:47.462641, 1.52981
2022-12-02 12:37:47.474315, 1.50049
2022-12-02 12:37:47.483316, 1.48094
2022-12-02 12:37:47.491735, 1.46628
2022-12-02 12:37:47.499381, 1.46139
2022-12-02 12:37:47.512184, 1.46139
2022-12-02 12:37:47.520191, 1.46628
2022-12-02 12:37:47.528413, 1.50538
2022-12-02 12:37:47.541021, 1.49071
2022-12-02 12:37:47.548726, 1.51026
2022-12-02 12:37:47.557392, 1.54936
2022-12-02 12:37:47.564958, 1.54448
2022-12-02 12:37:47.577260, 1.55425
2022-12-02 12:37:47.585626, 1.57380
2022-12-02 12:37:47.593711, 1.56891
2022-12-02 12:37:47.606732, 1.57380
2022-12-02 12:37:47.613889, 1.57380
2022-12-02 12:37:47.622844, 1.56403
2022-12-02 12:37:47.630800, 1.55914
2022-12-02 12:37:47.642978, 1.54936
2022-12-02 12:37:47.651745, 1.53959
2022-12-02 12:37:47.659874, 1.52981
2022-12-02 12:37:47.671589, 1.51515
2022-12-02 12:37:47.680130, 1.53470
2022-12-02 12:37:47.687410, 1.49560
2022-12-02 12:37:47.696418, 1.48583
2022-12-02 12:37:47.708872, 1.48583
2022-12-02 12:37:47.716873, 1.45650
2022-12-02 12:37:47.725630, 1.44673
2022-12-02 12:37:47.737448, 1.44184
2022-12-02 12:37:47.745546, 1.42717
2022-12-02 12:37:47.754020, 1.41740
2022-12-02 12:37:47.761832, 1.41251
2022-12-02 12:37:47.774752, 1.40274
2022-12-02 12:37:47.781724, 1.39296
2022-12-02 12:37:47.790891, 1.38319
2022-12-02 12:37:47.803179, 1.37830
2022-12-02 12:37:47.810752, 1.36852
2022-12-02 12:37:47.819638, 1.36852
2022-12-02 12:37:47.826854, 1.40762
2022-12-02 12:37:47.839320, 1.41740
2022-12-02 12:37:47.847938, 1.47116
2022-12-02 12:37:47.855308, 1.55914
2022-12-02 12:37:47.863814, 1.63734
2022-12-02 12:37:47.876235, 1.72532
2022-12-02 12:37:47.885427, 1.80841
2022-12-02 12:37:47.892560, 1.87683
2022-12-02 12:37:47.905625, 1.93060
2022-12-02 12:37:47.913427, 1.96970
2022-12-02 12:37:47.921984, 1.97947
2022-12-02 12:37:47.930038, 1.98436
2022-12-02 12:37:47.942561, 1.96970
2022-12-02 12:37:47.950636, 1.96481
2022-12-02 12:37:47.958688, 1.91593
2022-12-02 12:37:47.970273, 1.87683
2022-12-02 12:37:47.978144, 1.86217
2022-12-02 12:37:47.987728, 1.80352
2022-12-02 12:37:47.995355, 1.76442
2022-12-02 12:37:48.008027, 1.73998
2022-12-02 12:37:48.015790, 1.68622
2022-12-02 12:37:48.024421, 1.64712
2022-12-02 12:37:48.036763, 1.61779
2022-12-02 12:37:48.044584, 1.57380
2022-12-02 12:37:48.052179, 1.53959
2022-12-02 12:37:48.060733, 1.51026
2022-12-02 12:37:48.072907, 1.48583
2022-12-02 12:37:48.081000, 1.47116
2022-12-02 12:37:48.089371, 1.46628
2022-12-02 12:37:48.101492, 1.46139
2022-12-02 12:37:48.109645, 1.47116
2022-12-02 12:37:48.117847, 1.48583
2022-12-02 12:37:48.125881, 1.52004
2022-12-02 12:37:48.138944, 1.51026
2022-12-02 12:37:48.147153, 1.52981
2022-12-02 12:37:48.154768, 1.56403
2022-12-02 12:37:48.167638, 1.55914
2022-12-02 12:37:48.175914, 1.56891
2022-12-02 12:37:48.184036, 1.58358
2022-12-02 12:37:48.192132, 1.57380
2022-12-02 12:37:48.204740, 1.57380
2022-12-02 12:37:48.212698, 1.57380
2022-12-02 12:37:48.220995, 1.56403
2022-12-02 12:37:48.232869, 1.55425
2022-12-02 12:37:48.240495, 1.54448
2022-12-02 12:37:48.249267, 1.52981
2022-12-02 12:37:48.257748, 1.52004
2022-12-02 12:37:48.269610, 1.50538
2022-12-02 12:37:48.277918, 1.52004
2022-12-02 12:37:48.285915, 1.48094
2022-12-02 12:37:48.297925, 1.46628
2022-12-02 12:37:48.306276, 1.48094
2022-12-02 12:37:48.314596, 1.44673
2022-12-02 12:37:48.322695, 1.43695
2022-12-02 12:37:48.334407, 1.43695
2022-12-02 12:37:48.343061, 1.41740
2022-12-02 12:37:48.351373, 1.41251
2022-12-02 12:37:48.363636, 1.40762
2022-12-02 12:37:48.372074, 1.39785
2022-12-02 12:37:48.379896, 1.39785
2022-12-02 12:37:48.388434, 1.40762
2022-12-02 12:37:48.400288, 1.43206
2022-12-02 12:37:48.408696, 1.47605
2022-12-02 12:37:48.416329, 1.53959
2022-12-02 12:37:48.428613, 1.65689
2022-12-02 12:37:48.436849, 1.71554
2022-12-02 12:37:48.445482, 1.81329
2022-12-02 12:37:48.454068, 1.91593
2022-12-02 12:37:48.465610, 1.97947
2022-12-02 12:37:48.473693, 2.04301
2022-12-02 12:37:48.482055, 2.09189
2022-12-02 12:37:48.494443, 2.11144
2022-12-02 12:37:48.503229, 2.12610
2022-12-02 12:37:48.510597, 2.13099
2022-12-02 12:37:48.518865, 2.12121
2022-12-02 12:37:48.531313, 2.10655
2022-12-02 12:37:48.539186, 2.08211
2022-12-02 12:37:48.547977, 2.04301
2022-12-02 12:37:48.559935, 2.00880
2022-12-02 12:37:48.568044, 1.97458
2022-12-02 12:37:48.576723, 1.95503
2022-12-02 12:37:48.584737, 1.89150
2022-12-02 12:37:48.597048, 1.85239
2022-12-02 12:37:48.604996, 1.84262
2022-12-02 12:37:48.612946, 1.77419
2022-12-02 12:37:48.625883, 1.73998
2022-12-02 12:37:48.634039, 1.71554
2022-12-02 12:37:48.641481, 1.67644
2022-12-02 12:37:48.650559, 1.65200
2022-12-02 12:37:48.662348, 1.63245
2022-12-02 12:37:48.670402, 1.61779
2022-12-02 12:37:48.679061, 1.60313
2022-12-02 12:37:48.691235, 1.60313
2022-12-02 12:37:48.699599, 1.59335
2022-12-02 12:37:48.707422, 1.59335
2022-12-02 12:37:48.715658, 1.59335
2022-12-02 12:37:48.728319, 1.59824
2022-12-02 12:37:48.736686, 1.59824
2022-12-02 12:37:48.743876, 1.59824
2022-12-02 12:37:48.752423, 1.62268
2022-12-02 12:37:48.764991, 1.58847
2022-12-02 12:37:48.772965, 1.57869
2022-12-02 12:37:48.781399, 1.57869
2022-12-02 12:37:48.793441, 1.55914
2022-12-02 12:37:48.802149, 1.54936
2022-12-02 12:37:48.810542, 1.53470
2022-12-02 12:37:48.818559, 1.52493
2022-12-02 12:37:48.830746, 1.51515
2022-12-02 12:37:48.839034, 1.50538
2022-12-02 12:37:48.846401, 1.49560
2022-12-02 12:37:48.859387, 1.49071
2022-12-02 12:37:48.867816, 1.48583
2022-12-02 12:37:48.875754, 1.49560
2022-12-02 12:37:48.884064, 1.47116
2022-12-02 12:37:48.896459, 1.46628
2022-12-02 12:37:48.904743, 1.48583
2022-12-02 12:37:48.912810, 1.45650
2022-12-02 12:37:48.925374, 1.45161
2022-12-02 12:37:48.933021, 1.45161
2022-12-02 12:37:48.941890, 1.44184
2022-12-02 12:37:48.949469, 1.44184
2022-12-02 12:37:48.962091, 1.44673
2022-12-02 12:37:48.969509, 1.45650
2022-12-02 12:37:48.978768, 1.49071
2022-12-02 12:37:48.991025, 1.53959
2022-12-02 12:37:48.998756, 1.60802
2022-12-02 12:37:49.007542, 1.69599
2022-12-02 12:37:49.015461, 1.77908
2022-12-02 12:37:49.027449, 1.88661
2022-12-02 12:37:49.036044, 1.94526
2022-12-02 12:37:49.043793, 2.00391
2022-12-02 12:37:49.056158, 2.06745
2022-12-02 12:37:49.063698, 2.06256
2022-12-02 12:37:49.072235, 2.07234
2022-12-02 12:37:49.080902, 2.06745
2022-12-02 12:37:49.092886, 2.02835
2022-12-02 12:37:49.101665, 1.99413
2022-12-02 12:37:49.108946, 1.96481
2022-12-02 12:37:49.121998, 1.91593
2022-12-02 12:37:49.129882, 1.87195
2022-12-02 12:37:49.138754, 1.83773
2022-12-02 12:37:49.146645, 1.78886
2022-12-02 12:37:49.158382, 1.75464
2022-12-02 12:37:49.166803, 1.72532
2022-12-02 12:37:49.175510, 1.68622
2022-12-02 12:37:49.187745, 1.65689
2022-12-02 12:37:49.195436, 1.62268
2022-12-02 12:37:49.203985, 1.59335
2022-12-02 12:37:49.211634, 1.56891
2022-12-02 12:37:49.223760, 1.54936
2022-12-02 12:37:49.232406, 1.56403
2022-12-02 12:37:49.240740, 1.52981
2022-12-02 12:37:49.252457, 1.52981
2022-12-02 12:37:49.260960, 1.54936
2022-12-02 12:37:49.269373, 1.54936
2022-12-02 12:37:49.276985, 1.56403
2022-12-02 12:37:49.289964, 1.58358
2022-12-02 12:37:49.297333, 1.58847
2022-12-02 12:37:49.306752, 1.59824
2022-12-02 12:37:49.318575, 1.61290
2022-12-02 12:37:49.326523, 1.61779
2022-12-02 12:37:49.333900, 1.62268
2022-12-02 12:37:49.342462, 1.62268
2022-12-02 12:37:49.355744, 1.61779
2022-12-02 12:37:49.362936, 1.60802
2022-12-02 12:37:49.371865, 1.60313
2022-12-02 12:37:49.384110, 1.61779
2022-12-02 12:37:49.392557, 1.57380
2022-12-02 12:37:49.400307, 1.55914
2022-12-02 12:37:49.408833, 1.55425
2022-12-02 12:37:49.421119, 1.52981
2022-12-02 12:37:49.429235, 1.51026
2022-12-02 12:37:49.437631, 1.50049
2022-12-02 12:37:49.449414, 1.48094
2022-12-02 12:37:49.457778, 1.46628
2022-12-02 12:37:49.465796, 1.46139
2022-12-02 12:37:49.474068, 1.44673
2022-12-02 12:37:49.486043, 1.43695
2022-12-02 12:37:49.494559, 1.42717
2022-12-02 12:37:49.502130, 1.42717
2022-12-02 12:37:49.514293, 1.41251
2022-12-02 12:37:49.522345, 1.40762
2022-12-02 12:37:49.531065, 1.43695
2022-12-02 12:37:49.539751, 1.43206
2022-12-02 12:37:49.552003, 1.47116
2022-12-02 12:37:49.560049, 1.53959
2022-12-02 12:37:49.568307, 1.60313
2022-12-02 12:37:49.576755, 1.69110
2022-12-02 12:37:49.589076, 1.78397
2022-12-02 12:37:49.596288, 1.87195
2022-12-02 12:37:49.605743, 1.95015
2022-12-02 12:37:49.617651, 2.00880
2022-12-02 12:37:49.625605, 2.04790
2022-12-02 12:37:49.634053, 2.06745
2022-12-02 12:37:49.641902, 2.07722
2022-12-02 12:37:49.654255, 2.06256
2022-12-02 12:37:49.662691, 2.03812
2022-12-02 12:37:49.669688, 2.00880
2022-12-02 12:37:49.683114, 1.97947
2022-12-02 12:37:49.691760, 1.93060
2022-12-02 12:37:49.699968, 1.89150
2022-12-02 12:37:49.707727, 1.87195
2022-12-02 12:37:49.720005, 1.81818
2022-12-02 12:37:49.728256, 1.78397
2022-12-02 12:37:49.736291, 1.75953
2022-12-02 12:37:49.748552, 1.72043
2022-12-02 12:37:49.756948, 1.69110
2022-12-02 12:37:49.764928, 1.66667
2022-12-02 12:37:49.773934, 1.63734
2022-12-02 12:37:49.785743, 1.61290
2022-12-02 12:37:49.793550, 1.59824
2022-12-02 12:37:49.801896, 1.58358
2022-12-02 12:37:49.813685, 1.57869
2022-12-02 12:37:49.822027, 1.57869
2022-12-02 12:37:49.830374, 1.62268
2022-12-02 12:37:49.838630, 1.59824
2022-12-02 12:37:49.850207, 1.60802
2022-12-02 12:37:49.858492, 1.63245
2022-12-02 12:37:49.867216, 1.63245
2022-12-02 12:37:49.879581, 1.64223
2022-12-02 12:37:49.887876, 1.65200
2022-12-02 12:37:49.896016, 1.64712
2022-12-02 12:37:49.904345, 1.64223
2022-12-02 12:37:49.916550, 1.64223
2022-12-02 12:37:49.924748, 1.63245
2022-12-02 12:37:49.932356, 1.62268
2022-12-02 12:37:49.945025, 1.61290
2022-12-02 12:37:49.953182, 1.61779
2022-12-02 12:37:49.961195, 1.58847
2022-12-02 12:37:49.970020, 1.57380
2022-12-02 12:37:49.981891, 1.58358
2022-12-02 12:37:49.990633, 1.54936
2022-12-02 12:37:49.998383, 1.53470
2022-12-02 12:37:50.010492, 1.52981
2022-12-02 12:37:50.018630, 1.51026
2022-12-02 12:37:50.026741, 1.50049
2022-12-02 12:37:50.035758, 1.49560
2022-12-02 12:37:50.047216, 1.48094
2022-12-02 12:37:50.055237, 1.47116
2022-12-02 12:37:50.063874, 1.46139
2022-12-02 12:37:50.076314, 1.45161
2022-12-02 12:37:50.084218, 1.44184
2022-12-02 12:37:50.091852, 1.43695
2022-12-02 12:37:50.100666, 1.47116
2022-12-02 12:37:50.112846, 1.45650
2022-12-02 12:37:50.121353, 1.49071
2022-12-02 12:37:50.129291, 1.56403
2022-12-02 12:37:50.141797, 1.62268
2022-12-02 12:37:50.149237, 1.70577
2022-12-02 12:37:50.158337, 1.80352
2022-12-02 12:37:50.166643, 1.88172
2022-12-02 12:37:50.178551, 1.95503
2022-12-02 12:37:50.187067, 2.01369
2022-12-02 12:37:50.194996, 2.05279
2022-12-02 12:37:50.207030, 2.07234
2022-12-02 12:37:50.215354, 2.07234
2022-12-02 12:37:50.223713, 2.06256
2022-12-02 12:37:50.231698, 2.03812
2022-12-02 12:37:50.244229, 2.00880
2022-12-02 12:37:50.252521, 1.99413
2022-12-02 12:37:50.260412, 1.93548
2022-12-02 12:37:50.272876, 1.89638
2022-12-02 12:37:50.280623, 1.88661
2022-12-02 12:37:50.288680, 1.82796
2022-12-02 12:37:50.297200, 1.79374
2022-12-02 12:37:50.309850, 1.76931
2022-12-02 12:37:50.318049, 1.73021
2022-12-02 12:37:50.326239, 1.70088
2022-12-02 12:37:50.338745, 1.67644
2022-12-02 12:37:50.346589, 1.64712
2022-12-02 12:37:50.354904, 1.62757
2022-12-02 12:37:50.362771, 1.61290
2022-12-02 12:37:50.374917, 1.59824
2022-12-02 12:37:50.383750, 1.59335
2022-12-02 12:37:50.390778, 1.59335
2022-12-02 12:37:50.399954, 1.63734
2022-12-02 12:37:50.412639, 1.61290
2022-12-02 12:37:50.420636, 1.62268
2022-12-02 12:37:50.428730, 1.64712
2022-12-02 12:37:50.440675, 1.64223
2022-12-02 12:37:50.448818, 1.65200
2022-12-02 12:37:50.457638, 1.66178
2022-12-02 12:37:50.465071, 1.65689
2022-12-02 12:37:50.477529, 1.65200
2022-12-02 12:37:50.485055, 1.65200
2022-12-02 12:37:50.493789, 1.64223
2022-12-02 12:37:50.505336, 1.62757
2022-12-02 12:37:50.514314, 1.61779
2022-12-02 12:37:50.522559, 1.60802
2022-12-02 12:37:50.530706, 1.58847
2022-12-02 12:37:50.543252, 1.57380
2022-12-02 12:37:50.551715, 1.58358
2022-12-02 12:37:50.559999, 1.53959
2022-12-02 12:37:50.572124, 1.52981
2022-12-02 12:37:50.579437, 1.52981
2022-12-02 12:37:50.588559, 1.50538
2022-12-02 12:37:50.595758, 1.49071
2022-12-02 12:37:50.608397, 1.48583
2022-12-02 12:37:50.616906, 1.47605
2022-12-02 12:37:50.625348, 1.46628
2022-12-02 12:37:50.637317, 1.46139
2022-12-02 12:37:50.645699, 1.44673
2022-12-02 12:37:50.653723, 1.44184
2022-12-02 12:37:50.662175, 1.43695
2022-12-02 12:37:50.674107, 1.45650
2022-12-02 12:37:50.682445, 1.44673
2022-12-02 12:37:50.691136, 1.47605
2022-12-02 12:37:50.703054, 1.54936
2022-12-02 12:37:50.711208, 1.59824
2022-12-02 12:37:50.719729, 1.68133
2022-12-02 12:37:50.727398, 1.77419
2022-12-02 12:37:50.739941, 1.85239
2022-12-02 12:37:50.747913, 1.92082
2022-12-02 12:37:50.756745, 1.99413
2022-12-02 12:37:50.768361, 2.03324
2022-12-02 12:37:50.776436, 2.05767
2022-12-02 12:37:50.785030, 2.06745
2022-12-02 12:37:50.792599, 2.06256
2022-12-02 12:37:50.805653, 2.04301
2022-12-02 12:37:50.812650, 2.01369
2022-12-02 12:37:50.821945, 2.00880
2022-12-02 12:37:50.834134, 1.94526
2022-12-02 12:37:50.841367, 1.90616
2022-12-02 12:37:50.849791, 1.88661
2022-12-02 12:37:50.858092, 1.83284
2022-12-02 12:37:50.870978, 1.80352
2022-12-02 12:37:50.879167, 1.77419
2022-12-02 12:37:50.887643, 1.74487
2022-12-02 12:37:50.899405, 1.71554
2022-12-02 12:37:50.907235, 1.69110
2022-12-02 12:37:50.915990, 1.66178
2022-12-02 12:37:50.924369, 1.63734
2022-12-02 12:37:50.936285, 1.62268
2022-12-02 12:37:50.944708, 1.60802
2022-12-02 12:37:50.952926, 1.59824
2022-12-02 12:37:50.964448, 1.59335
2022-12-02 12:37:50.973339, 1.63245
2022-12-02 12:37:50.981318, 1.60802
2022-12-02 12:37:50.989854, 1.61290
2022-12-02 12:37:51.002170, 1.64223
2022-12-02 12:37:51.010306, 1.63734
2022-12-02 12:37:51.018759, 1.64712
2022-12-02 12:37:51.030198, 1.65689
2022-12-02 12:37:51.038627, 1.65200
2022-12-02 12:37:51.046954, 1.65200
2022-12-02 12:37:51.055269, 1.64712
2022-12-02 12:37:51.067573, 1.63734
2022-12-02 12:37:51.075109, 1.62757
2022-12-02 12:37:51.083843, 1.61290
2022-12-02 12:37:51.095792, 1.59824
2022-12-02 12:37:51.104334, 1.58358
2022-12-02 12:37:51.112187, 1.56891
2022-12-02 12:37:51.120941, 1.58847
2022-12-02 12:37:51.133617, 1.54448
2022-12-02 12:37:51.141836, 1.52981
2022-12-02 12:37:51.149280, 1.52981
2022-12-02 12:37:51.160702, 1.50538
2022-12-02 12:37:51.170609, 1.49560
2022-12-02 12:37:51.178596, 1.48583
2022-12-02 12:37:51.186774, 1.47116
2022-12-02 12:37:51.198408, 1.45650
2022-12-02 12:37:51.206893, 1.45650
2022-12-02 12:37:51.214925, 1.44673
2022-12-02 12:37:51.227103, 1.43695
2022-12-02 12:37:51.234917, 1.43206
2022-12-02 12:37:51.243461, 1.42229
2022-12-02 12:37:51.251936, 1.41740
2022-12-02 12:37:51.263542, 1.42717
2022-12-02 12:37:51.272346, 1.48094
2022-12-02 12:37:51.279832, 1.49071
2022-12-02 12:37:51.288716, 1.54936
2022-12-02 12:37:51.300901, 1.64223
2022-12-02 12:37:51.309031, 1.71065
2022-12-02 12:37:51.317057, 1.80352
2022-12-02 12:37:51.328503, 1.89150
2022-12-02 12:37:51.338032, 1.95503
2022-12-02 12:37:51.345668, 2.00880
2022-12-02 12:37:51.354354, 2.04301
2022-12-02 12:37:51.367194, 2.05767
2022-12-02 12:37:51.375150, 2.05767
2022-12-02 12:37:51.383522, 2.04301
2022-12-02 12:37:51.395339, 2.01369
2022-12-02 12:37:51.403761, 1.97947
2022-12-02 12:37:51.411666, 1.94526
2022-12-02 12:37:51.419885, 1.92571
2022-12-02 12:37:51.431894, 1.87195
2022-12-02 12:37:51.440156, 1.83773
2022-12-02 12:37:51.448241, 1.82796
2022-12-02 12:37:51.460410, 1.77908
2022-12-02 12:37:51.467931, 1.74487
2022-12-02 12:37:51.476796, 1.72532
2022-12-02 12:37:51.485282, 1.69110
2022-12-02 12:37:51.497057, 1.66667
2022-12-02 12:37:51.504882, 1.64223
2022-12-02 12:37:51.513623, 1.61779
2022-12-02 12:37:51.525609, 1.60313
2022-12-02 12:37:51.534372, 1.59335
2022-12-02 12:37:51.542584, 1.58847
2022-12-02 12:37:51.550152, 1.58847
2022-12-02 12:37:51.562370, 1.59335
2022-12-02 12:37:51.570609, 1.63245
2022-12-02 12:37:51.578938, 1.60802
2022-12-02 12:37:51.590983, 1.61779
2022-12-02 12:37:51.599825, 1.65200
2022-12-02 12:37:51.607881, 1.63734
2022-12-02 12:37:51.616162, 1.64223
2022-12-02 12:37:51.628453, 1.64712
2022-12-02 12:37:51.636441, 1.63734
2022-12-02 12:37:51.645212, 1.62757
2022-12-02 12:37:51.657134, 1.62268
2022-12-02 12:37:51.665343, 1.60802
2022-12-02 12:37:51.673766, 1.59335
2022-12-02 12:37:51.681139, 1.58358
2022-12-02 12:37:51.694239, 1.56403
2022-12-02 12:37:51.702971, 1.54936
2022-12-02 12:37:51.710857, 1.53470
2022-12-02 12:37:51.723449, 1.55425
2022-12-02 12:37:51.730981, 1.51026
2022-12-02 12:37:51.739333, 1.50049
2022-12-02 12:37:51.747457, 1.49560
2022-12-02 12:37:51.759747, 1.47116
2022-12-02 12:37:51.767905, 1.46139
2022-12-02 12:37:51.775942, 1.46139
2022-12-02 12:37:51.788566, 1.44184
2022-12-02 12:37:51.796474, 1.43695
2022-12-02 12:37:51.804976, 1.42717
2022-12-02 12:37:51.813175, 1.42229
2022-12-02 12:37:51.825138, 1.41251
2022-12-02 12:37:51.833396, 1.40762
2022-12-02 12:37:51.841484, 1.40274
2022-12-02 12:37:51.853678, 1.40762
2022-12-02 12:37:51.861941, 1.42717
2022-12-02 12:37:51.870206, 1.49560
2022-12-02 12:37:51.878457, 1.52493
2022-12-02 12:37:51.891097, 1.59824
2022-12-02 12:37:51.900054, 1.70088
2022-12-02 12:37:51.907278, 1.77419
2022-12-02 12:37:51.919576, 1.86217
2022-12-02 12:37:51.927627, 1.94037
2022-12-02 12:37:51.935922, 1.98925
2022-12-02 12:37:51.943877, 2.02346
2022-12-02 12:37:51.956936, 2.04790
2022-12-02 12:37:51.964508, 2.05279
2022-12-02 12:37:51.973306, 2.03812
2022-12-02 12:37:51.985689, 2.01857
2022-12-02 12:37:51.993312, 1.98436
2022-12-02 12:37:52.001235, 1.95015
2022-12-02 12:37:52.009609, 1.91593
2022-12-02 12:37:52.022082, 1.91105
2022-12-02 12:37:52.029889, 1.84262
2022-12-02 12:37:52.039358, 1.81329
2022-12-02 12:37:52.050555, 1.79374
2022-12-02 12:37:52.058493, 1.75464
2022-12-02 12:37:52.067507, 1.72532
2022-12-02 12:37:52.074364, 1.70088
2022-12-02 12:37:52.087092, 1.67155
2022-12-02 12:37:52.095429, 1.64712
2022-12-02 12:37:52.103758, 1.62757
2022-12-02 12:37:52.112040, 1.60313
2022-12-02 12:37:52.124280, 1.59824
2022-12-02 12:37:52.132116, 1.59335
2022-12-02 12:37:52.140453, 1.61779
2022-12-02 12:37:52.153001, 1.59824
2022-12-02 12:37:52.161192, 1.60313
2022-12-02 12:37:52.169993, 1.63734
2022-12-02 12:37:52.178020, 1.62757
2022-12-02 12:37:52.190114, 1.64223
2022-12-02 12:37:52.197657, 1.65689
2022-12-02 12:37:52.206916, 1.65689
2022-12-02 12:37:52.219155, 1.66667
2022-12-02 12:37:52.226392, 1.67644
2022-12-02 12:37:52.235404, 1.67644
2022-12-02 12:37:52.242103, 1.67644
2022-12-02 12:37:52.255667, 1.67644
2022-12-02 12:37:52.262782, 1.66667
2022-12-02 12:37:52.271789, 1.66178
2022-12-02 12:37:52.284175, 1.65200
2022-12-02 12:37:52.292070, 1.67155
2022-12-02 12:37:52.300987, 1.63245
2022-12-02 12:37:52.308416, 1.62757
2022-12-02 12:37:52.320187, 1.63245
2022-12-02 12:37:52.328474, 1.60802
2022-12-02 12:37:52.337844, 1.59335
2022-12-02 12:37:52.349230, 1.59335
2022-12-02 12:37:52.357051, 1.58358
2022-12-02 12:37:52.365337, 1.57869
2022-12-02 12:37:52.374232, 1.57380
2022-12-02 12:37:52.387118, 1.56891
2022-12-02 12:37:52.394887, 1.56403
2022-12-02 12:37:52.402954, 1.56403
2022-12-02 12:37:52.415127, 1.55914
2022-12-02 12:37:52.423567, 1.55914
2022-12-02 12:37:52.431177, 1.55425
2022-12-02 12:37:52.439738, 1.56403
2022-12-02 12:37:52.452213, 1.56403
2022-12-02 12:37:52.460107, 1.58358
2022-12-02 12:37:52.469024, 1.64712
2022-12-02 12:37:52.479629, 1.67644
2022-12-02 12:37:52.488440, 1.75464
2022-12-02 12:37:52.496194, 1.85239
2022-12-02 12:37:52.504982, 1.94037
2022-12-02 12:37:52.518098, 2.03324
2022-12-02 12:37:52.525464, 2.12121
2022-12-02 12:37:52.534655, 2.19941
2022-12-02 12:37:52.545779, 2.25806
2022-12-02 12:37:52.554042, 2.29717
2022-12-02 12:37:52.562210, 2.31672
2022-12-02 12:37:52.570492, 2.32649
2022-12-02 12:37:52.583416, 2.32160
2022-12-02 12:37:52.591094, 2.30694
2022-12-02 12:37:52.599640, 2.28739
2022-12-02 12:37:52.610801, 2.25806
2022-12-02 12:37:52.620114, 2.25806
2022-12-02 12:37:52.627395, 2.19453
2022-12-02 12:37:52.635355, 2.17009
2022-12-02 12:37:52.648221, 2.16031
2022-12-02 12:37:52.655961, 2.10655
2022-12-02 12:37:52.664293, 2.07234
2022-12-02 12:37:52.676904, 2.04790
2022-12-02 12:37:52.685432, 2.01857
2022-12-02 12:37:52.693384, 1.98925
2022-12-02 12:37:52.701931, 1.97947
2022-12-02 12:37:52.713477, 1.96481
2022-12-02 12:37:52.721354, 1.96481
2022-12-02 12:37:52.730252, 1.96970
2022-12-02 12:37:52.742419, 1.97458
2022-12-02 12:37:52.750076, 1.97947
2022-12-02 12:37:52.758940, 1.98925
2022-12-02 12:37:52.767112, 2.02835
2022-12-02 12:37:52.779299, 2.00880
2022-12-02 12:37:52.787109, 2.01857
2022-12-02 12:37:52.795581, 2.03324
2022-12-02 12:37:52.808015, 2.02346
2022-12-02 12:37:52.815961, 2.01857
2022-12-02 12:37:52.824513, 2.01369
2022-12-02 12:37:52.832680, 1.99902
2022-12-02 12:37:52.844863, 1.97947
2022-12-02 12:37:52.853505, 1.96970
2022-12-02 12:37:52.861597, 1.95015
2022-12-02 12:37:52.873639, 1.93060
2022-12-02 12:37:52.882181, 1.91593
2022-12-02 12:37:52.890110, 1.90616
2022-12-02 12:37:52.898499, 1.89638
2022-12-02 12:37:52.911347, 1.88661
2022-12-02 12:37:52.918438, 1.90127
2022-12-02 12:37:52.926729, 1.87195
2022-12-02 12:37:52.939733, 1.86706
2022-12-02 12:37:52.946407, 1.87195
2022-12-02 12:37:52.955902, 1.85728
2022-12-02 12:37:52.963658, 1.85239
2022-12-02 12:37:52.975923, 1.85239
2022-12-02 12:37:52.983913, 1.84262
2022-12-02 12:37:52.992081, 1.83284
2022-12-02 12:37:53.001526, 1.83284
2022-12-02 12:37:53.012750, 1.81818
2022-12-02 12:37:53.022028, 1.81329
2022-12-02 12:37:53.029485, 1.80841
2022-12-02 12:37:53.041268, 1.80841
2022-12-02 12:37:53.049193, 1.80841
2022-12-02 12:37:53.057485, 1.80841
2022-12-02 12:37:53.067008, 1.84751
2022-12-02 12:37:53.078505, 1.83773
2022-12-02 12:37:53.086632, 1.87683
2022-12-02 12:37:53.094961, 1.94526
2022-12-02 12:37:53.107219, 2.00391
2022-12-02 12:37:53.115142, 2.08700
2022-12-02 12:37:53.123347, 2.18475
2022-12-02 12:37:53.130700, 2.25806
2022-12-02 12:37:53.144105, 2.32160
2022-12-02 12:37:53.152349, 2.37048
2022-12-02 12:37:53.160729, 2.38514
2022-12-02 12:37:53.173491, 2.38514
2022-12-02 12:37:53.180882, 2.36070
2022-12-02 12:37:53.189808, 2.31672
2022-12-02 12:37:53.197258, 2.24829
2022-12-02 12:37:53.210063, 2.17986
2022-12-02 12:37:53.218598, 2.09189
2022-12-02 12:37:53.225951, 2.00880
2022-12-02 12:37:53.238320, 1.93060
2022-12-02 12:37:53.246069, 1.88172
2022-12-02 12:37:53.254034, 1.77908
2022-12-02 12:37:53.262731, 1.71554
2022-12-02 12:37:53.275475, 1.66667
2022-12-02 12:37:53.283834, 1.59824
2022-12-02 12:37:53.291633, 1.54936
2022-12-02 12:37:53.303970, 1.50049
2022-12-02 12:37:53.311632, 1.45161
2022-12-02 12:37:53.320350, 1.41251
2022-12-02 12:37:53.328102, 1.38319
2022-12-02 12:37:53.340460, 1.35386
2022-12-02 12:37:53.348497, 1.33920
2022-12-02 12:37:53.356535, 1.33431
2022-12-02 12:37:53.368462, 1.32942
2022-12-02 12:37:53.377341, 1.33431
2022-12-02 12:37:53.385347, 1.33431
2022-12-02 12:37:53.393606, 1.37341
2022-12-02 12:37:53.406371, 1.34897
2022-12-02 12:37:53.414460, 1.34897
2022-12-02 12:37:53.422519, 1.36852
2022-12-02 12:37:53.435603, 1.34897
2022-12-02 12:37:53.443003, 1.34409
2022-12-02 12:37:53.451673, 1.33920
2022-12-02 12:37:53.459733, 1.31965
2022-12-02 12:37:53.471890, 1.30499
2022-12-02 12:37:53.479463, 1.29521
2022-12-02 12:37:53.487942, 1.28055
2022-12-02 12:37:53.500146, 1.26588
2022-12-02 12:37:53.508576, 1.25122
2022-12-02 12:37:53.516818, 1.23656
2022-12-02 12:37:53.524918, 1.21701
2022-12-02 12:37:53.537966, 1.21212
2022-12-02 12:37:53.544716, 1.23167
2022-12-02 12:37:53.553991, 1.18280
2022-12-02 12:37:53.566674, 1.17302
2022-12-02 12:37:53.574437, 1.17791
2022-12-02 12:37:53.583065, 1.15347
2022-12-02 12:37:53.590330, 1.14858
2022-12-02 12:37:53.602820, 1.14858
2022-12-02 12:37:53.610492, 1.13881
2022-12-02 12:37:53.618875, 1.12903
2022-12-02 12:37:53.631290, 1.13392
2022-12-02 12:37:53.639472, 1.12414
2022-12-02 12:37:53.647437, 1.12414
2022-12-02 12:37:53.655926, 1.12903
2022-12-02 12:37:53.669174, 1.12903
2022-12-02 12:37:53.676614, 1.14369
2022-12-02 12:37:53.685450, 1.17302
2022-12-02 12:37:53.696175, 1.26588
2022-12-02 12:37:53.704910, 1.30499
2022-12-02 12:37:53.713423, 1.38807
2022-12-02 12:37:53.721847, 1.49071
2022-12-02 12:37:53.733353, 1.56403
2022-12-02 12:37:53.741986, 1.64223
2022-12-02 12:37:53.750437, 1.71065
2022-12-02 12:37:53.762344, 1.75464
2022-12-02 12:37:53.771039, 1.78397
2022-12-02 12:37:53.778351, 1.79374
2022-12-02 12:37:53.787311, 1.78397
2022-12-02 12:37:53.799261, 1.76931
2022-12-02 12:37:53.807728, 1.73998
2022-12-02 12:37:53.815899, 1.71065
2022-12-02 12:37:53.823521, 1.67644
2022-12-02 12:37:53.836606, 1.64223
2022-12-02 12:37:53.844633, 1.63245
2022-12-02 12:37:53.852954, 1.57380
2022-12-02 12:37:53.864657, 1.54448
2022-12-02 12:37:53.872856, 1.54448
2022-12-02 12:37:53.881674, 1.49560
2022-12-02 12:37:53.888881, 1.46628
2022-12-02 12:37:53.902476, 1.45161
2022-12-02 12:37:53.910284, 1.41740
2022-12-02 12:37:53.918274, 1.39785
2022-12-02 12:37:53.930290, 1.38807
2022-12-02 12:37:53.939380, 1.37341
2022-12-02 12:37:53.946846, 1.36852
2022-12-02 12:37:53.955676, 1.37341
2022-12-02 12:37:53.967622, 1.37830
2022-12-02 12:37:53.975512, 1.39296
2022-12-02 12:37:53.983944, 1.40274
2022-12-02 12:37:53.995430, 1.42717
2022-12-02 12:37:54.005038, 1.42717
2022-12-02 12:37:54.011550, 1.43695
2022-12-02 12:37:54.021397, 1.46628
2022-12-02 12:37:54.033702, 1.45650
2022-12-02 12:37:54.041044, 1.45650
2022-12-02 12:37:54.049543, 1.46628
2022-12-02 12:37:54.061395, 1.45161
2022-12-02 12:37:54.070126, 1.44184
2022-12-02 12:37:54.077339, 1.43695
2022-12-02 12:37:54.086727, 1.42229
2022-12-02 12:37:54.099157, 1.40762
2022-12-02 12:37:54.106420, 1.39785
2022-12-02 12:37:54.115522, 1.38319
2022-12-02 12:37:54.127413, 1.37341
2022-12-02 12:37:54.135526, 1.36364
2022-12-02 12:37:54.143691, 1.38319
2022-12-02 12:37:54.151615, 1.33920
2022-12-02 12:37:54.163680, 1.32942
2022-12-02 12:37:54.173149, 1.34409
2022-12-02 12:37:54.180203, 1.31476
2022-12-02 12:37:54.192919, 1.30499
2022-12-02 12:37:54.200972, 1.30499
2022-12-02 12:37:54.209334, 1.29032
2022-12-02 12:37:54.217166, 1.28543
2022-12-02 12:37:54.228817, 1.28543
2022-12-02 12:37:54.237939, 1.27077
2022-12-02 12:37:54.245467, 1.26588
2022-12-02 12:37:54.258119, 1.26588
2022-12-02 12:37:54.266642, 1.27077
2022-12-02 12:37:54.274700, 1.28543
2022-12-02 12:37:54.283009, 1.31965
2022-12-02 12:37:54.294467, 1.40762
2022-12-02 12:37:54.303556, 1.45650
2022-12-02 12:37:54.311305, 1.54448
2022-12-02 12:37:54.323501, 1.65689
2022-12-02 12:37:54.331929, 1.73021
2022-12-02 12:37:54.339689, 1.80841
2022-12-02 12:37:54.348503, 1.87195
2022-12-02 12:37:54.360475, 1.90616
2022-12-02 12:37:54.368813, 1.93060
2022-12-02 12:37:54.377393, 1.94037
2022-12-02 12:37:54.388346, 1.93060
2022-12-02 12:37:54.397666, 1.90616
2022-12-02 12:37:54.405816, 1.88172
2022-12-02 12:37:54.413837, 1.84262
2022-12-02 12:37:54.425878, 1.80352
2022-12-02 12:37:54.434868, 1.76931
2022-12-02 12:37:54.442639, 1.73021
2022-12-02 12:37:54.455207, 1.70088
2022-12-02 12:37:54.462922, 1.66667
2022-12-02 12:37:54.471355, 1.67155
2022-12-02 12:37:54.478908, 1.60802
2022-12-02 12:37:54.491790, 1.58847
2022-12-02 12:37:54.500091, 1.57380
2022-12-02 12:37:54.507552, 1.53470
2022-12-02 12:37:54.520342, 1.51515
2022-12-02 12:37:54.528546, 1.49560
2022-12-02 12:37:54.536120, 1.47605
2022-12-02 12:37:54.544135, 1.47116
2022-12-02 12:37:54.557052, 1.46628
2022-12-02 12:37:54.565509, 1.46628
2022-12-02 12:37:54.573502, 1.47116
2022-12-02 12:37:54.586153, 1.48094
2022-12-02 12:37:54.593406, 1.51026
2022-12-02 12:37:54.601507, 1.50049
2022-12-02 12:37:54.609930, 1.51515
2022-12-02 12:37:54.621938, 1.54448
2022-12-02 12:37:54.631082, 1.52981
2022-12-02 12:37:54.638949, 1.52981
2022-12-02 12:37:54.651012, 1.53959
2022-12-02 12:37:54.658858, 1.52493
2022-12-02 12:37:54.667341, 1.52004
2022-12-02 12:37:54.675785, 1.51515
2022-12-02 12:37:54.688155, 1.49560
2022-12-02 12:37:54.695633, 1.48583
2022-12-02 12:37:54.704476, 1.47116
2022-12-02 12:37:54.712821, 1.45650
2022-12-02 12:37:54.724599, 1.44184
2022-12-02 12:37:54.732396, 1.43206
2022-12-02 12:37:54.740658, 1.41740
2022-12-02 12:37:54.752976, 1.40274
2022-12-02 12:37:54.762077, 1.39785
2022-12-02 12:37:54.771000, 1.41740
2022-12-02 12:37:54.777783, 1.37341
2022-12-02 12:37:54.791378, 1.36364
2022-12-02 12:37:54.799388, 1.36364
2022-12-02 12:37:54.806955, 1.34409
2022-12-02 12:37:54.819799, 1.33431
2022-12-02 12:37:54.827076, 1.33431
2022-12-02 12:37:54.835812, 1.32454
2022-12-02 12:37:54.843523, 1.31476
2022-12-02 12:37:54.856165, 1.30987
2022-12-02 12:37:54.863688, 1.30010
2022-12-02 12:37:54.872983, 1.30499
2022-12-02 12:37:54.885620, 1.32454
2022-12-02 12:37:54.893023, 1.35875
2022-12-02 12:37:54.901958, 1.41251
2022-12-02 12:37:54.909756, 1.48583
2022-12-02 12:37:54.920968, 1.58358
2022-12-02 12:37:54.929882, 1.67155
2022-12-02 12:37:54.937442, 1.75953
2022-12-02 12:37:54.950368, 1.86217
2022-12-02 12:37:54.958559, 1.89638
2022-12-02 12:37:54.966915, 1.93548
2022-12-02 12:37:54.974575, 1.96970
2022-12-02 12:37:54.987682, 1.96481
2022-12-02 12:37:54.995553, 1.95015
2022-12-02 12:37:55.003985, 1.93548
2022-12-02 12:37:55.016127, 1.89638
2022-12-02 12:37:55.024137, 1.86217
2022-12-02 12:37:55.032313, 1.82796
2022-12-02 12:37:55.041023, 1.78886
2022-12-02 12:37:55.052371, 1.75464
2022-12-02 12:37:55.061002, 1.73021
2022-12-02 12:37:55.069918, 1.70088
2022-12-02 12:37:55.081660, 1.68133
2022-12-02 12:37:55.089538, 1.66178
2022-12-02 12:37:55.098693, 1.65689
2022-12-02 12:37:55.106667, 1.61779
2022-12-02 12:37:55.118279, 1.59335
2022-12-02 12:37:55.127103, 1.59335
2022-12-02 12:37:55.135432, 1.54936
2022-12-02 12:37:55.146992, 1.52981
2022-12-02 12:37:55.155675, 1.52004
2022-12-02 12:37:55.163196, 1.50049
2022-12-02 12:37:55.171840, 1.49560
2022-12-02 12:37:55.184074, 1.49071
2022-12-02 12:37:55.191583, 1.48583
2022-12-02 12:37:55.200303, 1.48583
2022-12-02 12:37:55.212503, 1.49071
2022-12-02 12:37:55.221577, 1.49560
2022-12-02 12:37:55.228885, 1.50538
2022-12-02 12:37:55.237274, 1.52004
2022-12-02 12:37:55.250233, 1.52981
2022-12-02 12:37:55.257459, 1.53470
2022-12-02 12:37:55.266578, 1.53470
2022-12-02 12:37:55.277583, 1.55425
2022-12-02 12:37:55.285999, 1.50538
2022-12-02 12:37:55.294245, 1.48583
2022-12-02 12:37:55.302740, 1.48094
2022-12-02 12:37:55.315493, 1.44673
2022-12-02 12:37:55.323421, 1.43695
2022-12-02 12:37:55.331102, 1.43695
2022-12-02 12:37:55.343830, 1.44184
2022-12-02 12:37:55.352002, 1.45650
2022-12-02 12:37:55.360158, 1.47116
2022-12-02 12:37:55.367681, 1.47116
2022-12-02 12:37:55.381213, 1.46628
2022-12-02 12:37:55.388869, 1.44184
2022-12-02 12:37:55.396627, 1.41251
2022-12-02 12:37:55.409037, 1.37830
2022-12-02 12:37:55.418150, 1.34897
2022-12-02 12:37:55.426336, 1.35386
2022-12-02 12:37:55.433970, 1.30987
2022-12-02 12:37:55.445974, 1.30499
2022-12-02 12:37:55.454549, 1.31476
2022-12-02 12:37:55.462511, 1.30010
2022-12-02 12:37:55.474982, 1.29521
2022-12-02 12:37:55.483133, 1.29521
2022-12-02 12:37:55.491296, 1.29521
2022-12-02 12:37:55.499683, 1.32942
2022-12-02 12:37:55.510816, 1.38807
2022-12-02 12:37:55.519941, 1.47605
2022-12-02 12:37:55.527429, 1.58358
2022-12-02 12:37:55.536184, 1.70088
2022-12-02 12:37:55.549217, 1.81818
2022-12-02 12:37:55.556510, 1.90127
2022-12-02 12:37:55.565032, 1.97947
2022-12-02 12:37:55.577181, 2.06256
2022-12-02 12:37:55.585540, 2.07234
2022-12-02 12:37:55.593541, 2.09189
2022-12-02 12:37:55.601964, 2.10166
2022-12-02 12:37:55.614213, 2.08211
2022-12-02 12:37:55.622480, 2.05767
2022-12-02 12:37:55.630585, 2.02835
2022-12-02 12:37:55.642733, 1.98925
2022-12-02 12:37:55.651151, 1.95503
2022-12-02 12:37:55.659527, 1.92082
2022-12-02 12:37:55.667776, 1.89638
2022-12-02 12:37:55.679200, 1.86706
2022-12-02 12:37:55.686432, 1.85239
2022-12-02 12:37:55.696016, 1.83773
2022-12-02 12:37:55.707743, 1.78886
2022-12-02 12:37:55.716347, 1.74976
2022-12-02 12:37:55.724599, 1.73509
2022-12-02 12:37:55.732572, 1.67644
2022-12-02 12:37:55.744876, 1.64223
2022-12-02 12:37:55.753714, 1.62268
2022-12-02 12:37:55.761349, 1.59335
2022-12-02 12:37:55.773140, 1.57869
2022-12-02 12:37:55.782262, 1.58358
2022-12-02 12:37:55.790573, 1.58358
2022-12-02 12:37:55.798886, 1.59335
2022-12-02 12:37:55.810288, 1.60802
2022-12-02 12:37:55.819605, 1.62268
2022-12-02 12:37:55.827359, 1.63734
2022-12-02 12:37:55.838913, 1.65200
2022-12-02 12:37:55.847668, 1.68133
2022-12-02 12:37:55.855410, 1.66178
2022-12-02 12:37:55.864135, 1.66178
2022-12-02 12:37:55.876511, 1.68622
2022-12-02 12:37:55.885354, 1.66178
2022-12-02 12:37:55.892633, 1.65200
2022-12-02 12:37:55.903885, 1.65200
2022-12-02 12:37:55.913241, 1.62757
2022-12-02 12:37:55.921247, 1.61290
2022-12-02 12:37:55.929277, 1.60313
2022-12-02 12:37:55.941817, 1.57869
2022-12-02 12:37:55.949956, 1.55914
2022-12-02 12:37:55.958067, 1.54448
2022-12-02 12:37:55.970607, 1.52981
2022-12-02 12:37:55.978367, 1.51026
2022-12-02 12:37:55.987479, 1.49560
2022-12-02 12:37:55.994937, 1.51026
2022-12-02 12:37:56.007446, 1.46628
2022-12-02 12:37:56.015696, 1.44673
2022-12-02 12:37:56.023865, 1.44673
2022-12-02 12:37:56.036223, 1.41251
2022-12-02 12:37:56.043854, 1.40274
2022-12-02 12:37:56.053186, 1.39785
2022-12-02 12:37:56.060534, 1.37830
2022-12-02 12:37:56.072588, 1.36364
2022-12-02 12:37:56.080476, 1.36364
2022-12-02 12:37:56.089063, 1.34897
2022-12-02 12:37:56.102178, 1.33920
2022-12-02 12:37:56.109719, 1.33920
2022-12-02 12:37:56.118469, 1.34897
2022-12-02 12:37:56.126593, 1.37830
2022-12-02 12:37:56.138955, 1.43695
2022-12-02 12:37:56.146127, 1.54936
2022-12-02 12:37:56.154708, 1.61290
2022-12-02 12:37:56.167420, 1.72043
2022-12-02 12:37:56.175312, 1.82796
2022-12-02 12:37:56.183263, 1.90616
2022-12-02 12:37:56.191887, 1.97947
2022-12-02 12:37:56.204080, 2.03812
2022-12-02 12:37:56.211555, 2.06256
2022-12-02 12:37:56.220415, 2.07722
2022-12-02 12:37:56.232538, 2.07234
2022-12-02 12:37:56.240525, 2.05767
2022-12-02 12:37:56.248995, 2.02835
2022-12-02 12:37:56.256897, 1.99413
2022-12-02 12:37:56.269275, 1.95503
2022-12-02 12:37:56.277179, 1.90616
2022-12-02 12:37:56.286407, 1.86706
2022-12-02 12:37:56.298190, 1.82796
2022-12-02 12:37:56.306286, 1.78886
2022-12-02 12:37:56.313889, 1.74976
2022-12-02 12:37:56.322661, 1.74487
2022-12-02 12:37:56.335536, 1.67644
2022-12-02 12:37:56.343646, 1.64712
2022-12-02 12:37:56.351475, 1.63734
2022-12-02 12:37:56.359477, 1.58847
2022-12-02 12:37:56.371885, 1.56403
2022-12-02 12:37:56.380040, 1.55425
2022-12-02 12:37:56.388355, 1.53470
2022-12-02 12:37:56.400357, 1.52493
2022-12-02 12:37:56.408425, 1.52981
2022-12-02 12:37:56.416590, 1.52981
2022-12-02 12:37:56.424895, 1.53959
2022-12-02 12:37:56.437143, 1.54936
2022-12-02 12:37:56.444689, 1.55914
2022-12-02 12:37:56.452819, 1.57380
2022-12-02 12:37:56.466659, 1.58358
2022-12-02 12:37:56.473979, 1.59824
2022-12-02 12:37:56.483321, 1.59824
2022-12-02 12:37:56.490582, 1.59335
2022-12-02 12:37:56.503098, 1.62268
2022-12-02 12:37:56.510976, 1.58847
2022-12-02 12:37:56.519446, 1.58358
2022-12-02 12:37:56.530423, 1.58358
2022-12-02 12:37:56.539776, 1.56403
2022-12-02 12:37:56.548017, 1.55425
2022-12-02 12:37:56.555687, 1.53959
2022-12-02 12:37:56.568198, 1.52493
2022-12-02 12:37:56.576357, 1.51515
2022-12-02 12:37:56.585213, 1.50538
2022-12-02 12:37:56.597810, 1.48583
2022-12-02 12:37:56.605323, 1.47605
2022-12-02 12:37:56.614085, 1.46628
2022-12-02 12:37:56.621580, 1.47605
2022-12-02 12:37:56.634617, 1.44184
2022-12-02 12:37:56.642046, 1.43206
2022-12-02 12:37:56.650210, 1.45650
2022-12-02 12:37:56.662164, 1.41251
2022-12-02 12:37:56.670008, 1.40762
2022-12-02 12:37:56.678870, 1.41251
2022-12-02 12:37:56.687033, 1.38319
2022-12-02 12:37:56.699384, 1.37341
2022-12-02 12:37:56.707701, 1.37341
2022-12-02 12:37:56.715257, 1.36852
2022-12-02 12:37:56.727181, 1.36852
2022-12-02 12:37:56.736277, 1.38807
2022-12-02 12:37:56.744541, 1.41740
2022-12-02 12:37:56.752939, 1.47116
2022-12-02 12:37:56.765228, 1.54936
2022-12-02 12:37:56.773535, 1.63245
2022-12-02 12:37:56.782138, 1.72043
2022-12-02 12:37:56.793532, 1.80841
2022-12-02 12:37:56.802622, 1.92082
2022-12-02 12:37:56.810260, 1.95015
2022-12-02 12:37:56.818875, 1.99413
2022-12-02 12:37:56.831184, 2.03324
2022-12-02 12:37:56.838638, 2.02346
2022-12-02 12:37:56.846880, 2.01369
2022-12-02 12:37:56.859480, 2.00391
2022-12-02 12:37:56.867213, 1.96481
2022-12-02 12:37:56.875343, 1.93060
2022-12-02 12:37:56.883772, 1.88661
2022-12-02 12:37:56.895883, 1.84262
2022-12-02 12:37:56.904161, 1.80352
2022-12-02 12:37:56.911967, 1.75953
2022-12-02 12:37:56.925388, 1.72043
2022-12-02 12:37:56.933190, 1.68133
2022-12-02 12:37:56.940899, 1.64712
2022-12-02 12:37:56.948637, 1.64223
2022-12-02 12:37:56.961463, 1.57869
2022-12-02 12:37:56.969688, 1.54448
2022-12-02 12:37:56.977526, 1.54936
2022-12-02 12:37:56.990681, 1.49560
2022-12-02 12:37:56.999129, 1.48583
2022-12-02 12:37:57.006759, 1.49560
2022-12-02 12:37:57.015194, 1.48094
2022-12-02 12:37:57.026874, 1.49071
2022-12-02 12:37:57.035699, 1.50538
2022-12-02 12:37:57.043538, 1.51515
2022-12-02 12:37:57.055669, 1.53470
2022-12-02 12:37:57.064159, 1.54936
2022-12-02 12:37:57.071795, 1.56403
2022-12-02 12:37:57.080315, 1.57380
2022-12-02 12:37:57.092857, 1.58847
2022-12-02 12:37:57.099606, 1.58847
2022-12-02 12:37:57.109530, 1.58847
2022-12-02 12:37:57.121687, 1.58358
2022-12-02 12:37:57.129654, 1.60802
2022-12-02 12:37:57.137749, 1.56891
2022-12-02 12:37:57.146083, 1.55914
2022-12-02 12:37:57.158976, 1.56403
2022-12-02 12:37:57.166580, 1.53470
2022-12-02 12:37:57.174897, 1.52493
2022-12-02 12:37:57.187613, 1.52004
2022-12-02 12:37:57.194509, 1.50049
2022-12-02 12:37:57.203571, 1.48583
2022-12-02 12:37:57.211138, 1.47605
2022-12-02 12:37:57.223563, 1.45650
2022-12-02 12:37:57.231656, 1.45161
2022-12-02 12:37:57.239400, 1.44184
2022-12-02 12:37:57.247951, 1.42717
2022-12-02 12:37:57.260509, 1.42229
2022-12-02 12:37:57.268905, 1.41251
2022-12-02 12:37:57.276763, 1.44184
2022-12-02 12:37:57.288576, 1.40274
2022-12-02 12:37:57.298141, 1.39296
2022-12-02 12:37:57.305671, 1.39785
2022-12-02 12:37:57.314828, 1.37830
2022-12-02 12:37:57.325582, 1.38319
2022-12-02 12:37:57.334278, 1.39785
2022-12-02 12:37:57.342457, 1.42717
2022-12-02 12:37:57.354754, 1.48583
2022-12-02 12:37:57.362826, 1.56403
2022-12-02 12:37:57.371300, 1.65200
2022-12-02 12:37:57.379164, 1.74976
2022-12-02 12:37:57.391750, 1.83773
2022-12-02 12:37:57.400011, 1.92571
2022-12-02 12:37:57.408334, 1.97947
2022-12-02 12:37:57.421008, 2.02346
2022-12-02 12:37:57.427990, 2.07234
2022-12-02 12:37:57.436300, 2.04790
2022-12-02 12:37:57.444382, 2.03812
2022-12-02 12:37:57.457121, 2.02346
2022-12-02 12:37:57.465801, 1.98436
2022-12-02 12:37:57.474050, 1.94526
2022-12-02 12:37:57.485765, 1.91105
2022-12-02 12:37:57.493357, 1.86706
2022-12-02 12:37:57.502163, 1.82796
2022-12-02 12:37:57.510021, 1.78397
2022-12-02 12:37:57.522235, 1.74487
2022-12-02 12:37:57.531686, 1.70577
2022-12-02 12:37:57.538509, 1.66667
2022-12-02 12:37:57.551620, 1.65689
2022-12-02 12:37:57.559761, 1.58847
2022-12-02 12:37:57.567928, 1.56403
2022-12-02 12:37:57.576141, 1.55425
2022-12-02 12:37:57.588760, 1.51515
2022-12-02 12:37:57.597133, 1.50049
2022-12-02 12:37:57.604938, 1.50538
2022-12-02 12:37:57.617727, 1.50049
2022-12-02 12:37:57.625265, 1.50538
2022-12-02 12:37:57.634116, 1.52004
2022-12-02 12:37:57.641541, 1.52981
2022-12-02 12:37:57.654092, 1.54448
2022-12-02 12:37:57.662008, 1.56403
2022-12-02 12:37:57.670832, 1.57380
2022-12-02 12:37:57.682668, 1.58358
2022-12-02 12:37:57.690574, 1.59335
2022-12-02 12:37:57.699553, 1.59335
2022-12-02 12:37:57.707100, 1.59335
2022-12-02 12:37:57.719531, 1.58358
2022-12-02 12:37:57.727610, 1.61290
2022-12-02 12:37:57.734974, 1.56891
2022-12-02 12:37:57.747862, 1.56403
2022-12-02 12:37:57.755665, 1.56403
2022-12-02 12:37:57.763499, 1.53470
2022-12-02 12:37:57.772211, 1.51515
2022-12-02 12:37:57.784191, 1.51026
2022-12-02 12:37:57.792463, 1.49071
2022-12-02 12:37:57.801021, 1.47605
2022-12-02 12:37:57.813205, 1.46628
2022-12-02 12:37:57.821334, 1.45161
2022-12-02 12:37:57.829789, 1.44184
2022-12-02 12:37:57.837696, 1.43206
2022-12-02 12:37:57.850353, 1.42229
2022-12-02 12:37:57.857943, 1.41251
2022-12-02 12:37:57.865971, 1.40762
2022-12-02 12:37:57.878881, 1.42717
2022-12-02 12:37:57.886738, 1.38807
2022-12-02 12:37:57.894578, 1.37830
2022-12-02 12:37:57.903854, 1.38807
2022-12-02 12:37:57.915639, 1.37830
2022-12-02 12:37:57.924462, 1.39785
2022-12-02 12:37:57.932227, 1.45161
2022-12-02 12:37:57.944175, 1.50049
2022-12-02 12:37:57.953001, 1.57869
2022-12-02 12:37:57.960750, 1.67644
2022-12-02 12:37:57.969888, 1.77419
2022-12-02 12:37:57.982137, 1.86706
2022-12-02 12:37:57.989858, 1.94526
2022-12-02 12:37:57.998295, 2.00880
2022-12-02 12:37:58.009454, 2.05279
2022-12-02 12:37:58.018823, 2.08211
2022-12-02 12:37:58.026242, 2.09677
2022-12-02 12:37:58.035373, 2.07234
2022-12-02 12:37:58.047542, 2.04790
2022-12-02 12:37:58.054957, 2.04790
2022-12-02 12:37:58.063707, 1.97947
2022-12-02 12:37:58.070873, 1.93548
2022-12-02 12:37:58.084450, 1.90616
2022-12-02 12:37:58.092273, 1.84751
2022-12-02 12:37:58.100710, 1.81329
2022-12-02 12:37:58.112680, 1.77908
2022-12-02 12:37:58.120872, 1.73998
2022-12-02 12:37:58.128869, 1.70577
2022-12-02 12:37:58.137815, 1.67644
2022-12-02 12:37:58.150106, 1.64223
2022-12-02 12:37:58.157767, 1.60802
2022-12-02 12:37:58.165766, 1.58847
2022-12-02 12:37:58.177032, 1.56403
2022-12-02 12:37:58.186260, 1.55425
2022-12-02 12:37:58.193869, 1.54448
2022-12-02 12:37:58.202426, 1.56891
2022-12-02 12:37:58.215547, 1.54448
2022-12-02 12:37:58.223410, 1.55425
2022-12-02 12:37:58.231624, 1.58358
2022-12-02 12:37:58.242985, 1.57869
2022-12-02 12:37:58.252102, 1.58847
2022-12-02 12:37:58.259709, 1.60802
2022-12-02 12:37:58.268462, 1.60802
2022-12-02 12:37:58.280522, 1.61779
2022-12-02 12:37:58.288751, 1.61779
2022-12-02 12:37:58.296885, 1.61779
2022-12-02 12:37:58.309294, 1.61290
2022-12-02 12:37:58.317604, 1.60802
2022-12-02 12:37:58.325776, 1.59824
2022-12-02 12:37:58.333913, 1.58358
2022-12-02 12:37:58.345664, 1.57380
2022-12-02 12:37:58.354346, 1.58847
2022-12-02 12:37:58.362493, 1.53959
2022-12-02 12:37:58.375424, 1.52981
2022-12-02 12:37:58.382325, 1.52493
2022-12-02 12:37:58.390772, 1.50049
2022-12-02 12:37:58.399587, 1.49071
2022-12-02 12:37:58.410592, 1.48094
2022-12-02 12:37:58.419595, 1.46628
2022-12-02 12:37:58.427710, 1.45161
2022-12-02 12:37:58.439990, 1.44673
2022-12-02 12:37:58.448495, 1.43695
2022-12-02 12:37:58.456732, 1.42717
2022-12-02 12:37:58.464725, 1.42229
2022-12-02 12:37:58.477134, 1.40762
2022-12-02 12:37:58.485375, 1.39785
2022-12-02 12:37:58.493476, 1.38807
2022-12-02 12:37:58.506326, 1.42229
2022-12-02 12:37:58.513715, 1.40274
2022-12-02 12:37:58.521715, 1.44184
2022-12-02 12:37:58.530265, 1.50538
2022-12-02 12:37:58.542918, 1.57380
2022-12-02 12:37:58.551458, 1.66178
2022-12-02 12:37:58.559871, 1.76442
2022-12-02 12:37:58.571714, 1.85239
2022-12-02 12:37:58.579712, 1.93548
2022-12-02 12:37:58.587889, 2.00880
2022-12-02 12:37:58.596004, 2.05279
2022-12-02 12:37:58.607918, 2.08700
2022-12-02 12:37:58.616378, 2.09677
2022-12-02 12:37:58.623569, 2.09189
2022-12-02 12:37:58.636994, 2.07234
2022-12-02 12:37:58.644941, 2.04301
2022-12-02 12:37:58.653489, 2.00880
2022-12-02 12:37:58.661456, 1.96481
2022-12-02 12:37:58.674377, 1.92571
2022-12-02 12:37:58.682629, 1.88661
2022-12-02 12:37:58.689933, 1.84751
2022-12-02 12:37:58.701970, 1.80841
2022-12-02 12:37:58.710521, 1.80352
2022-12-02 12:37:58.718525, 1.74487
2022-12-02 12:37:58.727050, 1.71065
2022-12-02 12:37:58.738502, 1.69599
2022-12-02 12:37:58.746735, 1.64712
2022-12-02 12:37:58.755119, 1.61779
2022-12-02 12:37:58.767226, 1.60802
2022-12-02 12:37:58.775939, 1.58358
2022-12-02 12:37:58.783645, 1.56891
2022-12-02 12:37:58.792341, 1.56891
2022-12-02 12:37:58.803762, 1.56403
2022-12-02 12:37:58.812231, 1.57380
2022-12-02 12:37:58.820806, 1.58358
2022-12-02 12:37:58.833149, 1.59335
2022-12-02 12:37:58.841615, 1.60802
2022-12-02 12:37:58.849481, 1.61779
2022-12-02 12:37:58.857280, 1.65689
2022-12-02 12:37:58.870272, 1.63734
2022-12-02 12:37:58.877627, 1.64223
2022-12-02 12:37:58.886471, 1.65200
2022-12-02 12:37:58.898427, 1.63245
2022-12-02 12:37:58.907134, 1.61779
2022-12-02 12:37:58.915044, 1.61779
2022-12-02 12:37:58.923051, 1.60313
2022-12-02 12:37:58.935471, 1.58847
2022-12-02 12:37:58.944001, 1.57869
2022-12-02 12:37:58.951435, 1.55914
2022-12-02 12:37:58.960414, 1.54448
2022-12-02 12:37:58.972733, 1.53959
2022-12-02 12:37:58.980371, 1.52493
2022-12-02 12:37:58.989073, 1.51026
2022-12-02 12:37:59.001287, 1.49560
2022-12-02 12:37:59.009039, 1.51515
2022-12-02 12:37:59.016849, 1.47605
2022-12-02 12:37:59.025792, 1.46628
2022-12-02 12:37:59.037573, 1.47605
2022-12-02 12:37:59.047243, 1.44673
2022-12-02 12:37:59.054902, 1.43695
2022-12-02 12:37:59.067728, 1.43206
2022-12-02 12:37:59.075038, 1.41740
2022-12-02 12:37:59.083825, 1.41251
2022-12-02 12:37:59.091569, 1.41251
2022-12-02 12:37:59.103773, 1.41251
2022-12-02 12:37:59.111958, 1.43206
2022-12-02 12:37:59.120216, 1.47605
2022-12-02 12:37:59.132293, 1.53470
2022-12-02 12:37:59.141413, 1.61779
2022-12-02 12:37:59.149677, 1.70577
2022-12-02 12:37:59.157410, 1.82796
2022-12-02 12:37:59.170130, 1.89150
2022-12-02 12:37:59.177305, 1.97458
2022-12-02 12:37:59.186380, 2.05279
2022-12-02 12:37:59.198260, 2.07722
2022-12-02 12:37:59.206408, 2.09677
2022-12-02 12:37:59.215071, 2.10655
2022-12-02 12:37:59.222507, 2.09189
2022-12-02 12:37:59.235528, 2.07234
2022-12-02 12:37:59.242648, 2.03812
2022-12-02 12:37:59.252078, 1.99902
2022-12-02 12:37:59.263754, 1.95503
2022-12-02 12:37:59.272006, 1.91593
2022-12-02 12:37:59.280027, 1.87683
2022-12-02 12:37:59.288097, 1.83773
2022-12-02 12:37:59.300162, 1.80841
2022-12-02 12:37:59.308839, 1.77419
2022-12-02 12:37:59.317019, 1.73998
2022-12-02 12:37:59.329142, 1.71554
2022-12-02 12:37:59.337413, 1.72043
2022-12-02 12:37:59.345761, 1.65689
2022-12-02 12:37:59.353737, 1.62757
2022-12-02 12:37:59.366135, 1.62268
2022-12-02 12:37:59.374063, 1.59824
2022-12-02 12:37:59.382691, 1.58847
2022-12-02 12:37:59.394142, 1.59335
2022-12-02 12:37:59.403497, 1.58847
2022-12-02 12:37:59.411017, 1.59824
2022-12-02 12:37:59.419580, 1.61290
2022-12-02 12:37:59.431748, 1.62268
2022-12-02 12:37:59.438986, 1.63245
2022-12-02 12:37:59.448020, 1.64223
2022-12-02 12:37:59.459172, 1.65689
2022-12-02 12:37:59.468285, 1.65689
2022-12-02 12:37:59.475897, 1.65689
2022-12-02 12:37:59.484529, 1.67644
2022-12-02 12:37:59.497212, 1.64223
2022-12-02 12:37:59.505977, 1.63734
2022-12-02 12:37:59.512964, 1.63245
2022-12-02 12:37:59.525853, 1.60802
2022-12-02 12:37:59.534558, 1.59335
2022-12-02 12:37:59.542520, 1.58358
2022-12-02 12:37:59.550416, 1.56891
2022-12-02 12:37:59.562067, 1.55425
2022-12-02 12:37:59.570631, 1.54448
2022-12-02 12:37:59.578838, 1.52493
2022-12-02 12:37:59.591335, 1.51515
2022-12-02 12:37:59.599636, 1.50538
2022-12-02 12:37:59.607711, 1.50538
2022-12-02 12:37:59.615725, 1.47605
2022-12-02 12:37:59.627980, 1.46628
2022-12-02 12:37:59.636974, 1.47605
2022-12-02 12:37:59.644500, 1.44673
2022-12-02 12:37:59.657158, 1.43695
2022-12-02 12:37:59.664833, 1.43695
2022-12-02 12:37:59.673361, 1.42229
2022-12-02 12:37:59.681280, 1.41251
2022-12-02 12:37:59.693340, 1.40762
2022-12-02 12:37:59.701434, 1.40762
2022-12-02 12:37:59.709989, 1.41251
2022-12-02 12:37:59.722141, 1.44184
2022-12-02 12:37:59.730816, 1.48094
2022-12-02 12:37:59.738598, 1.54448
2022-12-02 12:37:59.747007, 1.63245
2022-12-02 12:37:59.759066, 1.72043
2022-12-02 12:37:59.767629, 1.81818
2022-12-02 12:37:59.775684, 1.90616
2022-12-02 12:37:59.783885, 2.00391
2022-12-02 12:37:59.796206, 2.02835
2022-12-02 12:37:59.804607, 2.06745
2022-12-02 12:37:59.811946, 2.10655
2022-12-02 12:37:59.824439, 2.08211
2022-12-02 12:37:59.832085, 2.07234
2022-12-02 12:37:59.840520, 2.04790
2022-12-02 12:37:59.848947, 2.01369
2022-12-02 12:37:59.861708, 1.97458
2022-12-02 12:37:59.869441, 1.94037
2022-12-02 12:37:59.877888, 1.89638
2022-12-02 12:37:59.889823, 1.85239
2022-12-02 12:37:59.898166, 1.82307
2022-12-02 12:37:59.906147, 1.78397
2022-12-02 12:37:59.915048, 1.74976
2022-12-02 12:37:59.926703, 1.72043
2022-12-02 12:37:59.935499, 1.73021
2022-12-02 12:37:59.943363, 1.67155
2022-12-02 12:37:59.955271, 1.64712
2022-12-02 12:37:59.964116, 1.63734
2022-12-02 12:37:59.972641, 1.60313
2022-12-02 12:37:59.981135, 1.59335
2022-12-02 12:37:59.992336, 1.58847
2022-12-02 12:38:00.000892, 1.57869
2022-12-02 12:38:00.008715, 1.57869
2022-12-02 12:38:00.021199, 1.58358
2022-12-02 12:38:00.029261, 1.59335
2022-12-02 12:38:00.037279, 1.59824
2022-12-02 12:38:00.045330, 1.61290
2022-12-02 12:38:00.058198, 1.61779
2022-12-02 12:38:00.066531, 1.62757
2022-12-02 12:38:00.073870, 1.63245
2022-12-02 12:38:00.085936, 1.66178
2022-12-02 12:38:00.095022, 1.62757
2022-12-02 12:38:00.102777, 1.61779
2022-12-02 12:38:00.111343, 1.62268
2022-12-02 12:38:00.123608, 1.59824
2022-12-02 12:38:00.131934, 1.58358
2022-12-02 12:38:00.140217, 1.57380
2022-12-02 12:38:00.152333, 1.55425
2022-12-02 12:38:00.160713, 1.53959
2022-12-02 12:38:00.168728, 1.52981
2022-12-02 12:38:00.176514, 1.51515
2022-12-02 12:38:00.188475, 1.50049
2022-12-02 12:38:00.197196, 1.49071
2022-12-02 12:38:00.205617, 1.49071
2022-12-02 12:38:00.218634, 1.46628
2022-12-02 12:38:00.225702, 1.45650
2022-12-02 12:38:00.234418, 1.46628
2022-12-02 12:38:00.242239, 1.43695
2022-12-02 12:38:00.254444, 1.43206
2022-12-02 12:38:00.263459, 1.42717
2022-12-02 12:38:00.271330, 1.41251
2022-12-02 12:38:00.283722, 1.40762
2022-12-02 12:38:00.291865, 1.40274
2022-12-02 12:38:00.299698, 1.39296
2022-12-02 12:38:00.308307, 1.39296
2022-12-02 12:38:00.320231, 1.39785
2022-12-02 12:38:00.327810, 1.41251
2022-12-02 12:38:00.336309, 1.45650
2022-12-02 12:38:00.349684, 1.51515
2022-12-02 12:38:00.357856, 1.61779
2022-12-02 12:38:00.366070, 1.68622
2022-12-02 12:38:00.372921, 1.78397
2022-12-02 12:38:00.385079, 1.89150
2022-12-02 12:38:00.393458, 1.95015
2022-12-02 12:38:00.402894, 2.01369
2022-12-02 12:38:00.415296, 2.06745
2022-12-02 12:38:00.422901, 2.08211
2022-12-02 12:38:00.431465, 2.08700
2022-12-02 12:38:00.439494, 2.07722
2022-12-02 12:38:00.451724, 2.04790
2022-12-02 12:38:00.458815, 2.02346
2022-12-02 12:38:00.467986, 1.98925
2022-12-02 12:38:00.480204, 1.94526
2022-12-02 12:38:00.487712, 1.90616
2022-12-02 12:38:00.496288, 1.87195
2022-12-02 12:38:00.504015, 1.86706
2022-12-02 12:38:00.517652, 1.79863
2022-12-02 12:38:00.525461, 1.76442
2022-12-02 12:38:00.533983, 1.74976
2022-12-02 12:38:00.545288, 1.71065
2022-12-02 12:38:00.553974, 1.68133
2022-12-02 12:38:00.561152, 1.66667
2022-12-02 12:38:00.570063, 1.63245
2022-12-02 12:38:00.583121, 1.61290
2022-12-02 12:38:00.591209, 1.60313
2022-12-02 12:38:00.599467, 1.58847
2022-12-02 12:38:00.611086, 1.58358
2022-12-02 12:38:00.619494, 1.58358
2022-12-02 12:38:00.627227, 1.58847
2022-12-02 12:38:00.635895, 1.59335
2022-12-02 12:38:00.648169, 1.60313
2022-12-02 12:38:00.656158, 1.64712
2022-12-02 12:38:00.664420, 1.62757
2022-12-02 12:38:00.672458, 1.63245
2022-12-02 12:38:00.684836, 1.65200
2022-12-02 12:38:00.692713, 1.63734
2022-12-02 12:38:00.701943, 1.63245
2022-12-02 12:38:00.713278, 1.63245
2022-12-02 12:38:00.721830, 1.61779
2022-12-02 12:38:00.729449, 1.60802
2022-12-02 12:38:00.738351, 1.59335
2022-12-02 12:38:00.750093, 1.57869
2022-12-02 12:38:00.757933, 1.56891
2022-12-02 12:38:00.766610, 1.55425
2022-12-02 12:38:00.778983, 1.53959
2022-12-02 12:38:00.787408, 1.52004
2022-12-02 12:38:00.795806, 1.51026
2022-12-02 12:38:00.803583, 1.52493
2022-12-02 12:38:00.816158, 1.48094
2022-12-02 12:38:00.823989, 1.47116
2022-12-02 12:38:00.832405, 1.47116
2022-12-02 12:38:00.844553, 1.45161
2022-12-02 12:38:00.852331, 1.43695
2022-12-02 12:38:00.860358, 1.43695
2022-12-02 12:38:00.869879, 1.42229
2022-12-02 12:38:00.882238, 1.41251
2022-12-02 12:38:00.889972, 1.40762
2022-12-02 12:38:00.897899, 1.39785
2022-12-02 12:38:00.909658, 1.39296
2022-12-02 12:38:00.918362, 1.38807
2022-12-02 12:38:00.926006, 1.40762
2022-12-02 12:38:00.934585, 1.38319
2022-12-02 12:38:00.946049, 1.40762
2022-12-02 12:38:00.954534, 1.45650
2022-12-02 12:38:00.963364, 1.49560
2022-12-02 12:38:00.974906, 1.57380
2022-12-02 12:38:00.983746, 1.67155
2022-12-02 12:38:00.991137, 1.76442
2022-12-02 12:38:00.999974, 1.85728
2022-12-02 12:38:01.012448, 1.94037
2022-12-02 12:38:01.020362, 1.99902
2022-12-02 12:38:01.028430, 2.04301
2022-12-02 12:38:01.040663, 2.07234
2022-12-02 12:38:01.049629, 2.07234
2022-12-02 12:38:01.057580, 2.06256
2022-12-02 12:38:01.066240, 2.04301
2022-12-02 12:38:01.078846, 2.04790
2022-12-02 12:38:01.087070, 1.97947
2022-12-02 12:38:01.095012, 1.94037
2022-12-02 12:38:01.107500, 1.92571
2022-12-02 12:38:01.115647, 1.86706
2022-12-02 12:38:01.123399, 1.83284
2022-12-02 12:38:01.131464, 1.80841
2022-12-02 12:38:01.143174, 1.76442
2022-12-02 12:38:01.151931, 1.73509
2022-12-02 12:38:01.159453, 1.71065
2022-12-02 12:38:01.171730, 1.68133
2022-12-02 12:38:01.180778, 1.65200
2022-12-02 12:38:01.188893, 1.63734
2022-12-02 12:38:01.197118, 1.61290
2022-12-02 12:38:01.208157, 1.59335
2022-12-02 12:38:01.218019, 1.58358
2022-12-02 12:38:01.225006, 1.61290
2022-12-02 12:38:01.237660, 1.57869
2022-12-02 12:38:01.245123, 1.57869
2022-12-02 12:38:01.254150, 1.59824
2022-12-02 12:38:01.262215, 1.59824
2022-12-02 12:38:01.274621, 1.60313
2022-12-02 12:38:01.282504, 1.61779
2022-12-02 12:38:01.290539, 1.61779
2022-12-02 12:38:01.303538, 1.62757
2022-12-02 12:38:01.311771, 1.62757
2022-12-02 12:38:01.319820, 1.62268
2022-12-02 12:38:01.327895, 1.61779
2022-12-02 12:38:01.340819, 1.61290
2022-12-02 12:38:01.349020, 1.59824
2022-12-02 12:38:01.357460, 1.58847
2022-12-02 12:38:01.369569, 1.57380
2022-12-02 12:38:01.376954, 1.59335
2022-12-02 12:38:01.386055, 1.54448
2022-12-02 12:38:01.393234, 1.52981
2022-12-02 12:38:01.405074, 1.52981
2022-12-02 12:38:01.414249, 1.50538
2022-12-02 12:38:01.422339, 1.49071
2022-12-02 12:38:01.434278, 1.48583
2022-12-02 12:38:01.442538, 1.46628
2022-12-02 12:38:01.450673, 1.46139
2022-12-02 12:38:01.458414, 1.45161
2022-12-02 12:38:01.471115, 1.44184
2022-12-02 12:38:01.479869, 1.42717
2022-12-02 12:38:01.487818, 1.42229
2022-12-02 12:38:01.495691, 1.42717
2022-12-02 12:38:01.508285, 1.40274
2022-12-02 12:38:01.515571, 1.39785
2022-12-02 12:38:01.524343, 1.41251
2022-12-02 12:38:01.536676, 1.38807
2022-12-02 12:38:01.544781, 1.38319
2022-12-02 12:38:01.552880, 1.38807
2022-12-02 12:38:01.560637, 1.38319
2022-12-02 12:38:01.573661, 1.40762
2022-12-02 12:38:01.582186, 1.44673
2022-12-02 12:38:01.590047, 1.50049
2022-12-02 12:38:01.602301, 1.57869
2022-12-02 12:38:01.610467, 1.67155
2022-12-02 12:38:01.618662, 1.75953
2022-12-02 12:38:01.626947, 1.85239
2022-12-02 12:38:01.639476, 1.93060
2022-12-02 12:38:01.647578, 1.99902
2022-12-02 12:38:01.655795, 2.03812
2022-12-02 12:38:01.668057, 2.06256
2022-12-02 12:38:01.675994, 2.09677
2022-12-02 12:38:01.684967, 2.05767
2022-12-02 12:38:01.692385, 2.03812
2022-12-02 12:38:01.704642, 2.02346
2022-12-02 12:38:01.713058, 1.96970
2022-12-02 12:38:01.721077, 1.93060
2022-12-02 12:38:01.733356, 1.90127
2022-12-02 12:38:01.741738, 1.85239
2022-12-02 12:38:01.750114, 1.81329
2022-12-02 12:38:01.758130, 1.78397
2022-12-02 12:38:01.770181, 1.75464
2022-12-02 12:38:01.778745, 1.72043
2022-12-02 12:38:01.786136, 1.69599
2022-12-02 12:38:01.799468, 1.66178
2022-12-02 12:38:01.807576, 1.63734
2022-12-02 12:38:01.815736, 1.61290
2022-12-02 12:38:01.823745, 1.62268
2022-12-02 12:38:01.836222, 1.57869
2022-12-02 12:38:01.844097, 1.56891
2022-12-02 12:38:01.853224, 1.58358
2022-12-02 12:38:01.864468, 1.57380
2022-12-02 12:38:01.873173, 1.57869
2022-12-02 12:38:01.879979, 1.59824
2022-12-02 12:38:01.888386, 1.59824
2022-12-02 12:38:01.901281, 1.61290
2022-12-02 12:38:01.909494, 1.62268
2022-12-02 12:38:01.917058, 1.62757
2022-12-02 12:38:01.929306, 1.62757
2022-12-02 12:38:01.937911, 1.63245
2022-12-02 12:38:01.946453, 1.64223
2022-12-02 12:38:01.954856, 1.62268
2022-12-02 12:38:01.967571, 1.61290
2022-12-02 12:38:01.974963, 1.62757
2022-12-02 12:38:01.983598, 1.59335
2022-12-02 12:38:01.995878, 1.57869
2022-12-02 12:38:02.004082, 1.57380
2022-12-02 12:38:02.012246, 1.55425
2022-12-02 12:38:02.019972, 1.53959
2022-12-02 12:38:02.032187, 1.52981
2022-12-02 12:38:02.040840, 1.51026
2022-12-02 12:38:02.048752, 1.49560
2022-12-02 12:38:02.061832, 1.49071
2022-12-02 12:38:02.069799, 1.48094
2022-12-02 12:38:02.077508, 1.46628
2022-12-02 12:38:02.085959, 1.45650
2022-12-02 12:38:02.098762, 1.48094
2022-12-02 12:38:02.106228, 1.44184
2022-12-02 12:38:02.115015, 1.43206
2022-12-02 12:38:02.125874, 1.43695
2022-12-02 12:38:02.135604, 1.41251
2022-12-02 12:38:02.143037, 1.40762
2022-12-02 12:38:02.151487, 1.40274
2022-12-02 12:38:02.163833, 1.38807
2022-12-02 12:38:02.171549, 1.38319
2022-12-02 12:38:02.180189, 1.39296
2022-12-02 12:38:02.191436, 1.40274
2022-12-02 12:38:02.200239, 1.43206
2022-12-02 12:38:02.207962, 1.48583
2022-12-02 12:38:02.216495, 1.56891
2022-12-02 12:38:02.229751, 1.64712
2022-12-02 12:38:02.237767, 1.73509
2022-12-02 12:38:02.245887, 1.84751
2022-12-02 12:38:02.258095, 1.90616
2022-12-02 12:38:02.266664, 1.96481
2022-12-02 12:38:02.274748, 2.01369
2022-12-02 12:38:02.282962, 2.03324
2022-12-02 12:38:02.293903, 2.04301
2022-12-02 12:38:02.303115, 2.03324
2022-12-02 12:38:02.310889, 2.00880
2022-12-02 12:38:02.323854, 1.97947
2022-12-02 12:38:02.331738, 1.95015
2022-12-02 12:38:02.339878, 1.90616
2022-12-02 12:38:02.348089, 1.86706
2022-12-02 12:38:02.360159, 1.82796
2022-12-02 12:38:02.368368, 1.82307
2022-12-02 12:38:02.376604, 1.75464
2022-12-02 12:38:02.384839, 1.71554
2022-12-02 12:38:02.397221, 1.69110
2022-12-02 12:38:02.404963, 1.64712
2022-12-02 12:38:02.413617, 1.61779
2022-12-02 12:38:02.425162, 1.59335
2022-12-02 12:38:02.433729, 1.56403
2022-12-02 12:38:02.442128, 1.54936
2022-12-02 12:38:02.450157, 1.53470
2022-12-02 12:38:02.463357, 1.54448
2022-12-02 12:38:02.470967, 1.53470
2022-12-02 12:38:02.479276, 1.54448
2022-12-02 12:38:02.491315, 1.57380
2022-12-02 12:38:02.499737, 1.56403
2022-12-02 12:38:02.507785, 1.57869
2022-12-02 12:38:02.516030, 1.60313
2022-12-02 12:38:02.527979, 1.60802
2022-12-02 12:38:02.535775, 1.61779
2022-12-02 12:38:02.544190, 1.62757
2022-12-02 12:38:02.556487, 1.62757
2022-12-02 12:38:02.565248, 1.62757
2022-12-02 12:38:02.572651, 1.62268
2022-12-02 12:38:02.581568, 1.61290
2022-12-02 12:38:02.593523, 1.59824
2022-12-02 12:38:02.602146, 1.58847
2022-12-02 12:38:02.609840, 1.57380
2022-12-02 12:38:02.622429, 1.56403
2022-12-02 12:38:02.631018, 1.55425
2022-12-02 12:38:02.638587, 1.56891
2022-12-02 12:38:02.647786, 1.52981
2022-12-02 12:38:02.658675, 1.52493
2022-12-02 12:38:02.667917, 1.52493
2022-12-02 12:38:02.675593, 1.50049
2022-12-02 12:38:02.687740, 1.49071
2022-12-02 12:38:02.695248, 1.48583
2022-12-02 12:38:02.704120, 1.47116
2022-12-02 12:38:02.712175, 1.46139
2022-12-02 12:38:02.724708, 1.46139
2022-12-02 12:38:02.733642, 1.44673
2022-12-02 12:38:02.740892, 1.44184
2022-12-02 12:38:02.753145, 1.43695
2022-12-02 12:38:02.762240, 1.42229
2022-12-02 12:38:02.770379, 1.41251
2022-12-02 12:38:02.778662, 1.40762
2022-12-02 12:38:02.789761, 1.43206
2022-12-02 12:38:02.798518, 1.42717
2022-12-02 12:38:02.805943, 1.46139
2022-12-02 12:38:02.818465, 1.53959
2022-12-02 12:38:02.826909, 1.59335
2022-12-02 12:38:02.835458, 1.68133
2022-12-02 12:38:02.843377, 1.79863
2022-12-02 12:38:02.855853, 1.85239
2022-12-02 12:38:02.863393, 1.93060
2022-12-02 12:38:02.872168, 1.99902
2022-12-02 12:38:02.885184, 2.02835
2022-12-02 12:38:02.891976, 2.04790
2022-12-02 12:38:02.900557, 2.05767
2022-12-02 12:38:02.909069, 2.03812
2022-12-02 12:38:02.921182, 2.01369
2022-12-02 12:38:02.930270, 1.98436
2022-12-02 12:38:02.937862, 1.94037
2022-12-02 12:38:02.950259, 1.90127
2022-12-02 12:38:02.957818, 1.86217
2022-12-02 12:38:02.967100, 1.82307
2022-12-02 12:38:02.974704, 1.78397
2022-12-02 12:38:02.986604, 1.74976
2022-12-02 12:38:02.995705, 1.71065
2022-12-02 12:38:03.002598, 1.67644
2022-12-02 12:38:03.015874, 1.64223
2022-12-02 12:38:03.023088, 1.64223
2022-12-02 12:38:03.031675, 1.57869
2022-12-02 12:38:03.040211, 1.55914
2022-12-02 12:38:03.052236, 1.55425
2022-12-02 12:38:03.060657, 1.52981
2022-12-02 12:38:03.068954, 1.52981
2022-12-02 12:38:03.081083, 1.53470
2022-12-02 12:38:03.089415, 1.53959
2022-12-02 12:38:03.096591, 1.55425
2022-12-02 12:38:03.105416, 1.56891
2022-12-02 12:38:03.118131, 1.57869
2022-12-02 12:38:03.125971, 1.59335
2022-12-02 12:38:03.134866, 1.61290
2022-12-02 12:38:03.147369, 1.61779
2022-12-02 12:38:03.154491, 1.62268
2022-12-02 12:38:03.163669, 1.62268
2022-12-02 12:38:03.171465, 1.65200
2022-12-02 12:38:03.183801, 1.61779
2022-12-02 12:38:03.191696, 1.60313
2022-12-02 12:38:03.199999, 1.60802
2022-12-02 12:38:03.207584, 1.57380
2022-12-02 12:38:03.220163, 1.56403
2022-12-02 12:38:03.229674, 1.55425
2022-12-02 12:38:03.236346, 1.53470
2022-12-02 12:38:03.249124, 1.51515
2022-12-02 12:38:03.257699, 1.51026
2022-12-02 12:38:03.265440, 1.49071
2022-12-02 12:38:03.273554, 1.48094
2022-12-02 12:38:03.285997, 1.46628
2022-12-02 12:38:03.294024, 1.45650
2022-12-02 12:38:03.302176, 1.44673
2022-12-02 12:38:03.314838, 1.43695
2022-12-02 12:38:03.323044, 1.45161
2022-12-02 12:38:03.331577, 1.41251
2022-12-02 12:38:03.338861, 1.40762
2022-12-02 12:38:03.351552, 1.43206
2022-12-02 12:38:03.359602, 1.38807
2022-12-02 12:38:03.367909, 1.38319
2022-12-02 12:38:03.380284, 1.39296
2022-12-02 12:38:03.388156, 1.39785
2022-12-02 12:38:03.397183, 1.43206
2022-12-02 12:38:03.404032, 1.49071
2022-12-02 12:38:03.416103, 1.55914
2022-12-02 12:38:03.425148, 1.64712
2022-12-02 12:38:03.433974, 1.74487
2022-12-02 12:38:03.445585, 1.83284
2022-12-02 12:38:03.453161, 1.91593
2022-12-02 12:38:03.461949, 1.97947
2022-12-02 12:38:03.470254, 2.01857
2022-12-02 12:38:03.482006, 2.04301
2022-12-02 12:38:03.490745, 2.05279
2022-12-02 12:38:03.499363, 2.04301
2022-12-02 12:38:03.511485, 2.02346
2022-12-02 12:38:03.519153, 1.99413
2022-12-02 12:38:03.527705, 1.95503
2022-12-02 12:38:03.535326, 1.92082
2022-12-02 12:38:03.548241, 1.87683
2022-12-02 12:38:03.556073, 1.84262
2022-12-02 12:38:03.565141, 1.80352
2022-12-02 12:38:03.576249, 1.76931
2022-12-02 12:38:03.583814, 1.75953
2022-12-02 12:38:03.593285, 1.70088
2022-12-02 12:38:03.600809, 1.66667
2022-12-02 12:38:03.612765, 1.64712
2022-12-02 12:38:03.621715, 1.60802
2022-12-02 12:38:03.630064, 1.58847
2022-12-02 12:38:03.641653, 1.56891
2022-12-02 12:38:03.650663, 1.54936
2022-12-02 12:38:03.658274, 1.53959
2022-12-02 12:38:03.667432, 1.53959
2022-12-02 12:38:03.678694, 1.53959
2022-12-02 12:38:03.687176, 1.54936
2022-12-02 12:38:03.695573, 1.55914
2022-12-02 12:38:03.707332, 1.56891
2022-12-02 12:38:03.716096, 1.58358
2022-12-02 12:38:03.723852, 1.59335
2022-12-02 12:38:03.732544, 1.63245
2022-12-02 12:38:03.744615, 1.60802
2022-12-02 12:38:03.752297, 1.60802
2022-12-02 12:38:03.761009, 1.62268
2022-12-02 12:38:03.773393, 1.60313
2022-12-02 12:38:03.781720, 1.58847
2022-12-02 12:38:03.789902, 1.58847
2022-12-02 12:38:03.798092, 1.56891
2022-12-02 12:38:03.810017, 1.55425
2022-12-02 12:38:03.818515, 1.54448
2022-12-02 12:38:03.826247, 1.52004
2022-12-02 12:38:03.838523, 1.51026
2022-12-02 12:38:03.846737, 1.50049
2022-12-02 12:38:03.855493, 1.48094
2022-12-02 12:38:03.863292, 1.47116
2022-12-02 12:38:03.874796, 1.45650
2022-12-02 12:38:03.884175, 1.48094
2022-12-02 12:38:03.891838, 1.43695
2022-12-02 12:38:03.904131, 1.42717
2022-12-02 12:38:03.912530, 1.42717
2022-12-02 12:38:03.921226, 1.40762
2022-12-02 12:38:03.929345, 1.39785
2022-12-02 12:38:03.940738, 1.39785
2022-12-02 12:38:03.949255, 1.38319
2022-12-02 12:38:03.957317, 1.37341
2022-12-02 12:38:03.969580, 1.37830
2022-12-02 12:38:03.977470, 1.38807
2022-12-02 12:38:03.985702, 1.42229
2022-12-02 12:38:03.994046, 1.47116
2022-12-02 12:38:04.006925, 1.54448
2022-12-02 12:38:04.015233, 1.62757
2022-12-02 12:38:04.023391, 1.72043
2022-12-02 12:38:04.035648, 1.82307
2022-12-02 12:38:04.043531, 1.89638
2022-12-02 12:38:04.051666, 1.96970
2022-12-02 12:38:04.059678, 2.04790
2022-12-02 12:38:04.071759, 2.05279
2022-12-02 12:38:04.080064, 2.06256
2022-12-02 12:38:04.088149, 2.08211
2022-12-02 12:38:04.096462, 2.04301
2022-12-02 12:38:04.109146, 2.01369
2022-12-02 12:38:04.116692, 1.98925
2022-12-02 12:38:04.125178, 1.94037
2022-12-02 12:38:04.137354, 1.90127
2022-12-02 12:38:04.145186, 1.87195
2022-12-02 12:38:04.154036, 1.82796
2022-12-02 12:38:04.161617, 1.79374
2022-12-02 12:38:04.174566, 1.76442
2022-12-02 12:38:04.182541, 1.73021
2022-12-02 12:38:04.191060, 1.70088
2022-12-02 12:38:04.203248, 1.67155
2022-12-02 12:38:04.211766, 1.64223
2022-12-02 12:38:04.219838, 1.61779
2022-12-02 12:38:04.228085, 1.59824
2022-12-02 12:38:04.240187, 1.57869
2022-12-02 12:38:04.248334, 1.56403
2022-12-02 12:38:04.256660, 1.56403
2022-12-02 12:38:04.268557, 1.57380
2022-12-02 12:38:04.277304, 1.56891
2022-12-02 12:38:04.285189, 1.57380
2022-12-02 12:38:04.293469, 1.61290
2022-12-02 12:38:04.305414, 1.59335
2022-12-02 12:38:04.314691, 1.60313
2022-12-02 12:38:04.321824, 1.62268
2022-12-02 12:38:04.334624, 1.61290
2022-12-02 12:38:04.342548, 1.61290
2022-12-02 12:38:04.351232, 1.61290
2022-12-02 12:38:04.358976, 1.60802
2022-12-02 12:38:04.371874, 1.59824
2022-12-02 12:38:04.379826, 1.58847
2022-12-02 12:38:04.387725, 1.57380
2022-12-02 12:38:04.399922, 1.56403
2022-12-02 12:38:04.407969, 1.55425
2022-12-02 12:38:04.416256, 1.54936
2022-12-02 12:38:04.424393, 1.52981
2022-12-02 12:38:04.436766, 1.51026
2022-12-02 12:38:04.445788, 1.52004
2022-12-02 12:38:04.453163, 1.48583
2022-12-02 12:38:04.466147, 1.47116
2022-12-02 12:38:04.473362, 1.46139
2022-12-02 12:38:04.482680, 1.44673
2022-12-02 12:38:04.489408, 1.43695
2022-12-02 12:38:04.502176, 1.43206
2022-12-02 12:38:04.511286, 1.41740
2022-12-02 12:38:04.518349, 1.40762
2022-12-02 12:38:04.531725, 1.39785
2022-12-02 12:38:04.539840, 1.38807
2022-12-02 12:38:04.547628, 1.38319
2022-12-02 12:38:04.555923, 1.37830
2022-12-02 12:38:04.567913, 1.39296
2022-12-02 12:38:04.575979, 1.37830
2022-12-02 12:38:04.584249, 1.39785
2022-12-02 12:38:04.596145, 1.46628
2022-12-02 12:38:04.604044, 1.51515
2022-12-02 12:38:04.613147, 1.59824
2022-12-02 12:38:04.621324, 1.70088
2022-12-02 12:38:04.634191, 1.78886
2022-12-02 12:38:04.641563, 1.88172
2022-12-02 12:38:04.650581, 1.95503
2022-12-02 12:38:04.662577, 2.00880
2022-12-02 12:38:04.670425, 2.04301
2022-12-02 12:38:04.678703, 2.06256
2022-12-02 12:38:04.686582, 2.06256
2022-12-02 12:38:04.699689, 2.04301
2022-12-02 12:38:04.707111, 2.01857
2022-12-02 12:38:04.715749, 2.01857
2022-12-02 12:38:04.727749, 1.95015
2022-12-02 12:38:04.735742, 1.91593
2022-12-02 12:38:04.744127, 1.88661
2022-12-02 12:38:04.751231, 1.83773
2022-12-02 12:38:04.765449, 1.80352
2022-12-02 12:38:04.773201, 1.77419
2022-12-02 12:38:04.780957, 1.73998
2022-12-02 12:38:04.793254, 1.71065
2022-12-02 12:38:04.801531, 1.68133
2022-12-02 12:38:04.809520, 1.64712
2022-12-02 12:38:04.818546, 1.62268
2022-12-02 12:38:04.829958, 1.60313
2022-12-02 12:38:04.837779, 1.57869
2022-12-02 12:38:04.846249, 1.56891
2022-12-02 12:38:04.858297, 1.55425
2022-12-02 12:38:04.866465, 1.58847
2022-12-02 12:38:04.875119, 1.55914
2022-12-02 12:38:04.882654, 1.56891
2022-12-02 12:38:04.894999, 1.58847
2022-12-02 12:38:04.903390, 1.58358
2022-12-02 12:38:04.911339, 1.59335
2022-12-02 12:38:04.919983, 1.60802
2022-12-02 12:38:04.931474, 1.61290
2022-12-02 12:38:04.940642, 1.61290
2022-12-02 12:38:04.948627, 1.61290
2022-12-02 12:38:04.961080, 1.60313
2022-12-02 12:38:04.968779, 1.59824
2022-12-02 12:38:04.977545, 1.58847
2022-12-02 12:38:04.985935, 1.59335
2022-12-02 12:38:04.998013, 1.56403
2022-12-02 12:38:05.006308, 1.54448
2022-12-02 12:38:05.015030, 1.55914
2022-12-02 12:38:05.026272, 1.52004
2022-12-02 12:38:05.034917, 1.50538
2022-12-02 12:38:05.042824, 1.50049
2022-12-02 12:38:05.050832, 1.48094
2022-12-02 12:38:05.063518, 1.46628
2022-12-02 12:38:05.071646, 1.46139
2022-12-02 12:38:05.079579, 1.44184
2022-12-02 12:38:05.091369, 1.43206
2022-12-02 12:38:05.100364, 1.42229
2022-12-02 12:38:05.108483, 1.40762
2022-12-02 12:38:05.116452, 1.40274
2022-12-02 12:38:05.128797, 1.39296
2022-12-02 12:38:05.136751, 1.38319
2022-12-02 12:38:05.145263, 1.37341
2022-12-02 12:38:05.157253, 1.36852
2022-12-02 12:38:05.165516, 1.39296
2022-12-02 12:38:05.173508, 1.36364
2022-12-02 12:38:05.182178, 1.37341
2022-12-02 12:38:05.193580, 1.41251
2022-12-02 12:38:05.201804, 1.45650
2022-12-02 12:38:05.210906, 1.52493
2022-12-02 12:38:05.223166, 1.61290
2022-12-02 12:38:05.231341, 1.70577
2022-12-02 12:38:05.239523, 1.79863
2022-12-02 12:38:05.247736, 1.88661
2022-12-02 12:38:05.260024, 1.95503
2022-12-02 12:38:05.268473, 2.00391
2022-12-02 12:38:05.276614, 2.04301
2022-12-02 12:38:05.288786, 2.06745
2022-12-02 12:38:05.297278, 2.04790
2022-12-02 12:38:05.305165, 2.02835
2022-12-02 12:38:05.313579, 2.02346
2022-12-02 12:38:05.325652, 1.96481
2022-12-02 12:38:05.334789, 1.92571
2022-12-02 12:38:05.341988, 1.90127
2022-12-02 12:38:05.354438, 1.84751
2022-12-02 12:38:05.362531, 1.81329
2022-12-02 12:38:05.370720, 1.78886
2022-12-02 12:38:05.379552, 1.74976
2022-12-02 12:38:05.391161, 1.72043
2022-12-02 12:38:05.399614, 1.69110
2022-12-02 12:38:05.407296, 1.66178
2022-12-02 12:38:05.419516, 1.63245
2022-12-02 12:38:05.428329, 1.60802
2022-12-02 12:38:05.436574, 1.58358
2022-12-02 12:38:05.444664, 1.56403
2022-12-02 12:38:05.456529, 1.55425
2022-12-02 12:38:05.465709, 1.57869
2022-12-02 12:38:05.473458, 1.54448
2022-12-02 12:38:05.484866, 1.54936
2022-12-02 12:38:05.494171, 1.56891
2022-12-02 12:38:05.501957, 1.56403
2022-12-02 12:38:05.510815, 1.57869
2022-12-02 12:38:05.522902, 1.59335
2022-12-02 12:38:05.530221, 1.59335
2022-12-02 12:38:05.539341, 1.59824
2022-12-02 12:38:05.551022, 1.60313
2022-12-02 12:38:05.558890, 1.59824
2022-12-02 12:38:05.567542, 1.59335
2022-12-02 12:38:05.575351, 1.58358
2022-12-02 12:38:05.587992, 1.57869
2022-12-02 12:38:05.596031, 1.56403
2022-12-02 12:38:05.604137, 1.55425
2022-12-02 12:38:05.616296, 1.56403
2022-12-02 12:38:05.624445, 1.52004
2022-12-02 12:38:05.632506, 1.50538
2022-12-02 12:38:05.640851, 1.50049
