1.57380
1.55914
1.57380
1.52981
1.51515
1.52004
1.49560
1.48094
1.47605
1.46139
1.45161
1.44673
1.43206
1.42717
1.41740
1.42717
1.40274
1.39785
1.41740
1.39785
1.41251
1.46139
1.50049
1.57380
1.65689
1.74487
1.83284
1.90616
1.96481
2.00880
2.03812
2.06745
2.03812
2.02346
2.01857
1.96481
1.93548
1.91105
1.86706
1.83284
1.80841
1.77908
1.74976
1.72532
1.69599
1.67644
1.65200
1.65689
1.61290
1.60313
1.62268
1.59824
1.60313
1.61290
1.61290
1.62268
1.63245
1.63245
1.63245
1.63245
1.63245
1.62268
1.61290
1.63245
1.58847
1.57380
1.57380
1.54936
1.52981
1.52004
1.50049
1.49071
1.48094
1.47116
1.46139
1.45650
1.45161
1.43206
1.42717
1.44673
1.40762
1.39785
1.40762
1.38807
1.38319
1.38807
1.38807
1.40762
1.45161
1.51026
1.57869
1.67155
1.75464
1.84262
1.91105
2.00391
2.00880
2.03324
2.04301
2.02835
2.00391
1.97947
1.94037
1.90127
1.86706
1.82796
1.79374
1.76442
1.76931
1.71065
1.68133
1.66667
1.62757
1.60802
1.59824
1.58358
1.57869
1.58358
1.58358
1.59335
1.60313
1.61290
1.62268
1.63245
1.66667
1.64223
1.64223
1.64712
1.62757
1.61779
1.61290
1.58847
1.57869
1.56403
1.54936
1.53470
1.52493
1.51026
1.50049
1.48583
1.48094
1.47116
1.45650
1.48094
1.44184
1.43206
1.43695
1.41740
1.41251
1.41251
1.40274
1.39785
1.40274
1.40762
1.43695
1.47605
1.54936
1.62268
1.71065
1.81818
1.87683
1.94037
1.99902
2.01857
2.03324
2.03324
2.00880
1.98925
1.95992
1.92082
1.88172
1.84262
1.80841
1.77419
1.73998
1.73998
1.67644
1.64712
1.63245
1.58847
1.56891
1.56403
1.55425
1.55425
1.56403
1.56403
1.57869
1.59335
1.60313
1.61779
1.62757
1.64712
1.62757
1.62757
1.64712
1.60802
1.59824
1.59335
1.56891
1.55425
1.54448
1.52493
1.51026
1.50049
1.48583
1.47605
1.46628
1.45161
1.44184
1.43695
1.45161
1.41740
1.41251
1.42229
1.39785
1.38807
1.38807
1.37830
1.39296
1.42717
1.47116
1.53959
1.62268
1.70577
1.78886
1.87195
1.95015
1.98436
2.01369
2.04790
2.01369
1.99902
1.98436
1.94037
1.90616
1.86706
1.82796
1.79374
1.75953
1.72532
1.69110
1.66178
1.65689
1.60802
1.57869
1.56403
1.54448
1.53959
1.54448
1.53959
1.54448
1.55425
1.56403
1.57380
1.58358
1.61779
1.59335
1.59335
1.60802
1.58847
1.57380
1.57380
1.55425
1.53959
1.52493
1.51026
1.50049
1.48583
1.47116
1.46139
1.44673
1.47116
1.42717
1.41251
1.41251
1.39785
1.38319
1.38319
1.36852
1.36364
1.35875
1.35386
1.36364
1.38807
1.44184
1.49071
1.56891
1.68133
1.74976
1.83773
1.91593
1.96481
1.99902
2.02346
2.01857
2.00880
1.98436
1.95503
1.92082
1.88661
1.87683
1.81329
1.77908
1.75953
1.71554
1.68622
1.66178
1.63245
1.59824
1.58358
1.56403
1.54936
1.54448
1.54936
1.54448
1.54936
1.57869
1.56891
1.57380
1.58358
1.58847
1.58847
1.59335
1.58358
1.57869
1.56891
1.55914
1.54448
1.53470
1.54936
1.50538
1.49071
1.48583
1.46139
1.45161
1.44184
1.42717
1.41740
1.40762
1.41251
1.39296
1.37830
1.39785
1.36364
1.35875
1.35875
1.34897
1.35386
1.38319
1.42229
1.48583
1.56891
1.65689
1.75464
1.84262
1.95015
1.96970
2.01369
2.04301
2.02835
2.01857
1.99902
1.95992
1.92571
1.89150
1.85239
1.81818
1.78397
1.74976
1.72043
1.69110
1.68622
1.63734
1.60802
1.58847
1.56891
1.55425
1.54936
1.53959
1.54448
1.54936
1.55425
1.56403
1.57380
1.60802
1.58358
1.58847
1.60802
1.58847
1.57869
1.57869
1.55914
1.54448
1.53470
1.52004
1.50049
1.48583
1.50538
1.46139
1.45161
1.45650
1.43206
1.42229
1.42229
1.40274
1.39296
1.38319
1.37341
1.36364
1.35386
1.34409
1.34409
1.35875
1.42229
1.44184
1.51026
1.60802
1.69599
1.78397
1.87195
1.93548
1.98436
2.01857
2.02346
2.02346
2.00880
1.97947
1.94526
1.91593
1.90616
1.83773
1.80352
1.78397
1.73998
1.70577
1.68133
1.64712
1.62268
1.59824
1.57380
1.55914
1.54448
1.54936
1.54448
1.54448
1.57869
1.56403
1.56891
1.58847
1.58847
1.59335
1.59824
1.59335
1.58847
1.58358
1.57380
1.56403
1.54936
1.53470
1.52004
1.50538
1.52493
1.48094
1.46628
1.46628
1.44184
1.43206
1.42717
1.41251
1.40274
1.39296
1.37830
1.36852
1.36364
1.35386
1.35386
1.36852
1.44184
1.46628
1.54448
1.64223
1.72532
1.81329
1.89638
1.95503
1.99902
2.02835
2.03324
2.02346
1.99902
1.97947
1.93548
1.89638
1.88172
1.82796
1.79374
1.76442
1.73021
1.70088
1.67644
1.64712
1.61779
1.59824
1.57869
1.56891
1.55914
1.58358
1.55425
1.56403
1.58847
1.57869
1.58847
1.60802
1.60802
1.61290
1.61779
1.61290
1.60802
1.60313
1.58358
1.57380
1.56403
1.55914
1.52981
1.51515
1.52981
1.48583
1.47605
1.48094
1.45650
1.44184
1.44184
1.42717
1.42229
1.41251
1.40762
1.39785
1.39785
1.41740
1.42717
1.47116
1.55914
1.60802
1.69599
1.79374
1.86706
1.93060
1.98925
2.01857
2.03324
2.03324
2.01857
1.99413
1.96481
1.93060
1.89150
1.85728
1.85728
1.78886
1.75953
1.73509
1.69599
1.66667
1.64223
1.60802
1.58847
1.57380
1.55914
1.55425
1.55914
1.56891
1.57380
1.58358
1.62268
1.60802
1.60802
1.63245
1.61779
1.61779
1.61779
1.60313
1.58847
1.57869
1.56891
1.55425
1.54448
1.52981
1.51515
1.50049
1.51515
1.47605
1.46628
1.46628
1.44673
1.43695
1.43206
1.41740
1.40274
1.40274
1.40762
1.42717
1.47116
1.52981
1.60313
1.68622
1.80352
1.85239
1.91593
1.98436
1.99902
2.00880
2.01369
1.98925
1.96970
1.94037
1.90616
1.87195
1.83284
1.79863
1.76442
1.73021
1.71554
1.66667
1.63734
1.63734
1.57869
1.56403
1.55914
1.53959
1.53959
1.54936
1.54936
1.55914
1.57380
1.58358
1.59335
1.59824
1.60313
1.60313
1.60313
1.62757
1.58847
1.57380
1.57869
1.55914
1.53959
1.53470
1.51515
1.50049
1.49071
1.47605
1.46139
1.45650
1.46628
1.43206
1.42229
1.43695
1.40762
1.40274
1.41251
1.42717
1.46628
1.52493
1.59335
1.67155
1.75953
1.83773
1.90127
1.95503
2.01857
2.00391
2.00880
2.01369
1.96970
1.94037
1.91593
1.87195
1.83773
1.80352
1.76442
1.73021
1.70088
1.66667
1.63734
1.60802
1.61290
1.56891
1.55914
1.56403
1.55914
1.56403
1.57869
1.58847
1.60313
1.62268
1.63245
1.63734
1.64712
1.66178
1.64712
1.64223
1.65689
1.62757
1.61779
1.61290
1.58847
1.57380
1.56891
1.54936
1.53470
1.52004
1.51026
1.49560
1.48583
1.50049
1.46628
1.45650
1.46628
1.45161
1.46139
1.49560
1.53959
1.59824
1.67644
1.74976
1.83284
1.90127
1.95503
1.99413
2.01369
2.05279
2.01369
1.99413
1.97947
1.93060
1.89638
1.86706
1.82307
1.78886
1.74976
1.71065
1.67644
1.64223
1.60802
1.57869
1.55914
1.57380
1.53959
1.54448
1.55914
1.55914
1.57380
1.59335
1.60802
1.62268
1.63734
1.63734
1.64712
1.64223
1.66667
1.63245
1.62268
1.63734
1.60313
1.58847
1.58358
1.55914
1.53959
1.53470
1.52004
1.50538
1.49560
1.48583
1.47605
1.46628
1.48094
1.46139
1.47116
1.51026
1.54936
1.61290
1.69599
1.77419
1.85728
1.93060
1.98436
2.02835
2.05279
2.08211
2.04301
2.02346
2.00391
1.95503
1.91593
1.88661
1.84262
1.80841
1.77419
1.73998
1.70577
1.67644
1.64712
1.62268
1.60313
1.61779
1.58358
1.57869
1.59824
1.59824
1.60802
1.62268
1.63245
1.64223
1.65200
1.65200
1.65200
1.65200
1.67155
1.63245
1.62268
1.63245
1.59824
1.57869
1.57380
1.55425
1.53959
1.52981
1.51026
1.50049
1.49071
1.47605
1.46628
1.45650
1.49071
1.46139
1.48094
1.52493
1.57380
1.64223
1.72532
1.80352
1.88172
1.95015
1.99902
2.03812
2.05279
2.08211
2.03812
2.01857
2.00880
1.95503
1.92082
1.89150
1.84751
1.81329
1.78397
1.74976
1.72043
1.69110
1.66667
1.63734
1.62268
1.63245
1.59335
1.59335
1.60802
1.60313
1.60802
1.62268
1.63245
1.64223
1.64712
1.65200
1.65200
1.64223
1.66667
1.62757
1.61290
1.62268
1.58847
1.56891
1.56403
1.54448
1.52981
1.52004
1.50049
1.49071
1.48094
1.46628
1.45650
1.44673
1.46628
1.43695
1.43695
1.47116
1.49560
1.55425
1.62757
1.71065
1.79374
1.87683
1.94037
1.99413
2.03324
2.07722
2.04790
2.03812
2.03324
1.98436
1.95015
1.91593
1.87683
1.84262
1.80841
1.77419
1.74976
1.72043
1.69110
1.66667
1.64223
1.64712
1.59824
1.58847
1.59335
1.58358
1.57869
1.59335
1.59335
1.59824
1.60802
1.61290
1.61779
1.61779
1.64223
1.60802
1.60313
1.60802
1.57380
1.55914
1.54936
1.53470
1.52004
1.51026
1.49071
1.48094
1.47116
1.45650
1.44673
1.43695
1.46139
1.42229
1.41251
1.42229
1.40274
1.40274
1.42229
1.45161
1.50538
1.58358
1.66178
1.75464
1.83773
1.91105
1.96970
2.01369
2.07234
2.04790
2.03812
2.03324
1.99413
1.95992
1.93060
1.88661
1.85239
1.82307
1.78886
1.75464
1.73021
1.73509
1.68133
1.65689
1.65200
1.61779
1.60802
1.60802
1.60313
1.60313
1.61290
1.62268
1.62757
1.64223
1.64712
1.65200
1.65689
1.68133
1.64712
1.64223
1.64223
1.61779
1.60313
1.58847
1.57380
1.55914
1.54448
1.52981
1.51026
1.50538
1.51026
1.48094
1.46628
1.48583
1.45161
1.44184
1.44184
1.42229
1.41740
1.41740
1.42717
1.45161
1.50049
1.56403
1.64223
1.73021
1.82307
1.89638
1.95992
2.03812
2.03812
2.04301
2.05279
2.02346
1.99413
1.95992
1.92571
1.88172
1.85239
1.80841
1.77419
1.74487
1.74487
1.68622
1.65689
1.64712
1.60802
1.58358
1.57869
1.56891
1.56403
1.56403
1.56891
1.57869
1.58358
1.58847
1.59824
1.60313
1.63734
1.60802
1.60313
1.60313
1.58358
1.56403
1.54936
1.52981
1.51515
1.50049
1.48094
1.46628
1.45161
1.46628
1.42717
1.41251
1.43206
1.40274
1.39296
1.39785
1.38319
1.38319
1.38319
1.37341
1.37341
1.37830
1.39296
1.42717
1.47605
1.57869
1.63734
1.72532
1.82307
1.88661
1.95015
2.00391
2.02835
2.03812
2.03812
2.01369
1.98925
1.95503
1.92082
1.88172
1.85239
1.82307
1.78886
1.75953
1.74487
1.70577
1.68133
1.66178
1.63245
1.61290
1.59824
1.58358
1.57380
1.57380
1.59335
1.57380
1.57869
1.60802
1.59335
1.60313
1.61290
1.60802
1.59824
1.59335
1.58358
1.56403
1.54936
1.54448
1.52004
1.50538
1.51026
1.47605
1.46139
1.45650
1.44184
1.43206
1.42229
1.41251
1.40274
1.39296
1.38807
1.37341
1.35875
1.37341
1.34409
1.34409
1.35875
1.38319
1.43206
1.50049
1.57869
1.67155
1.76442
1.83773
1.90127
1.95015
2.00880
1.98925
1.97947
1.97947
1.94037
1.90616
1.87195
1.83284
1.79374
1.75953
1.72043
1.68622
1.65200
1.64712
1.59335
1.56891
1.56403
1.52981
1.51515
1.51515
1.50538
1.50538
1.51026
1.52004
1.52981
1.53470
1.54448
1.54448
1.54448
1.57380
1.54448
1.53470
1.53959
1.52004
1.50538
1.49560
1.48094
1.47116
1.45650
1.44184
1.42717
1.41740
1.41251
1.39296
1.37830
1.39296
1.35875
1.34897
1.34409
1.33431
1.32454
1.31965
1.30987
1.30987
1.31476
1.32942
1.36364
1.41740
1.52004
1.57380
1.66667
1.75953
1.81818
1.87683
1.91593
1.93548
1.93548
1.92571
1.89638
1.86706
1.82796
1.81818
1.74976
1.71554
1.70088
1.64712
1.61290
1.57869
1.54448
1.51515
1.49071
1.46628
1.44673
1.44673
1.44184
1.44673
1.45650
1.50049
1.48094
1.49071
1.52493
1.51515
1.52493
1.53470
1.52493
1.52004
1.51515
1.51026
1.49560
1.48583
1.47605
1.46628
1.45161
1.46628
1.42717
1.41251
1.41251
1.39296
1.38319
1.37341
1.35875
1.34409
1.33920
1.32942
1.31965
1.30987
1.30499
1.29032
1.28543
1.31965
1.31476
1.35875
1.43695
1.50538
1.59335
1.69110
1.76931
1.84262
1.90127
1.93548
1.95015
1.95503
1.95015
1.92082
1.88661
1.88172
1.81329
1.77419
1.74487
1.70088
1.65689
1.63245
1.58847
1.55914
1.52981
1.50049
1.48094
1.46628
1.46139
1.46139
1.46628
1.50538
1.49071
1.51026
1.54936
1.54448
1.55425
1.57380
1.56891
1.57380
1.57380
1.56403
1.55914
1.54936
1.53959
1.52981
1.51515
1.53470
1.49560
1.48583
1.48583
1.45650
1.44673
1.44184
1.42717
1.41740
1.41251
1.40274
1.39296
1.38319
1.37830
1.36852
1.36852
1.40762
1.41740
1.47116
1.55914
1.63734
1.72532
1.80841
1.87683
1.93060
1.96970
1.97947
1.98436
1.96970
1.96481
1.91593
1.87683
1.86217
1.80352
1.76442
1.73998
1.68622
1.64712
1.61779
1.57380
1.53959
1.51026
1.48583
1.47116
1.46628
1.46139
1.47116
1.48583
1.52004
1.51026
1.52981
1.56403
1.55914
1.56891
1.58358
1.57380
1.57380
1.57380
1.56403
1.55425
1.54448
1.52981
1.52004
1.50538
1.52004
1.48094
1.46628
1.48094
1.44673
1.43695
1.43695
1.41740
1.41251
1.40762
1.39785
1.39785
1.40762
1.43206
1.47605
1.53959
1.65689
1.71554
1.81329
1.91593
1.97947
2.04301
2.09189
2.11144
2.12610
2.13099
2.12121
2.10655
2.08211
2.04301
2.00880
1.97458
1.95503
1.89150
1.85239
1.84262
1.77419
1.73998
1.71554
1.67644
1.65200
1.63245
1.61779
1.60313
1.60313
1.59335
1.59335
1.59335
1.59824
1.59824
1.59824
1.62268
1.58847
1.57869
1.57869
1.55914
1.54936
1.53470
1.52493
1.51515
1.50538
1.49560
1.49071
1.48583
1.49560
1.47116
1.46628
1.48583
1.45650
1.45161
1.45161
1.44184
1.44184
1.44673
1.45650
1.49071
1.53959
1.60802
1.69599
1.77908
1.88661
1.94526
2.00391
2.06745
2.06256
2.07234
2.06745
2.02835
1.99413
1.96481
1.91593
1.87195
1.83773
1.78886
1.75464
1.72532
1.68622
1.65689
1.62268
1.59335
1.56891
1.54936
1.56403
1.52981
1.52981
1.54936
1.54936
1.56403
1.58358
1.58847
1.59824
1.61290
1.61779
1.62268
1.62268
1.61779
1.60802
1.60313
1.61779
1.57380
1.55914
1.55425
1.52981
1.51026
1.50049
1.48094
1.46628
1.46139
1.44673
1.43695
1.42717
1.42717
1.41251
1.40762
1.43695
1.43206
1.47116
1.53959
1.60313
1.69110
1.78397
1.87195
1.95015
2.00880
2.04790
2.06745
2.07722
2.06256
2.03812
2.00880
1.97947
1.93060
1.89150
1.87195
1.81818
1.78397
1.75953
1.72043
1.69110
1.66667
1.63734
1.61290
1.59824
1.58358
1.57869
1.57869
1.62268
1.59824
1.60802
1.63245
1.63245
1.64223
1.65200
1.64712
1.64223
1.64223
1.63245
1.62268
1.61290
1.61779
1.58847
1.57380
1.58358
1.54936
1.53470
1.52981
1.51026
1.50049
1.49560
1.48094
1.47116
1.46139
1.45161
1.44184
1.43695
1.47116
1.45650
1.49071
1.56403
1.62268
1.70577
1.80352
1.88172
1.95503
2.01369
2.05279
2.07234
2.07234
2.06256
2.03812
2.00880
1.99413
1.93548
1.89638
1.88661
1.82796
1.79374
1.76931
1.73021
1.70088
1.67644
1.64712
1.62757
1.61290
1.59824
1.59335
1.59335
1.63734
1.61290
1.62268
1.64712
1.64223
1.65200
1.66178
1.65689
1.65200
1.65200
1.64223
1.62757
1.61779
1.60802
1.58847
1.57380
1.58358
1.53959
1.52981
1.52981
1.50538
1.49071
1.48583
1.47605
1.46628
1.46139
1.44673
1.44184
1.43695
1.45650
1.44673
1.47605
1.54936
1.59824
1.68133
1.77419
1.85239
1.92082
1.99413
2.03324
2.05767
2.06745
2.06256
2.04301
2.01369
2.00880
1.94526
1.90616
1.88661
1.83284
1.80352
1.77419
1.74487
1.71554
1.69110
1.66178
1.63734
1.62268
1.60802
1.59824
1.59335
1.63245
1.60802
1.61290
1.64223
1.63734
1.64712
1.65689
1.65200
1.65200
1.64712
1.63734
1.62757
1.61290
1.59824
1.58358
1.56891
1.58847
1.54448
1.52981
1.52981
1.50538
1.49560
1.48583
1.47116
1.45650
1.45650
1.44673
1.43695
1.43206
1.42229
1.41740
1.42717
1.48094
1.49071
1.54936
1.64223
1.71065
1.80352
1.89150
1.95503
2.00880
2.04301
2.05767
2.05767
2.04301
2.01369
1.97947
1.94526
1.92571
1.87195
1.83773
1.82796
1.77908
1.74487
1.72532
1.69110
1.66667
1.64223
1.61779
1.60313
1.59335
1.58847
1.58847
1.59335
1.63245
1.60802
1.61779
1.65200
1.63734
1.64223
1.64712
1.63734
1.62757
1.62268
1.60802
1.59335
1.58358
1.56403
1.54936
1.53470
1.55425
1.51026
1.50049
1.49560
1.47116
1.46139
1.46139
1.44184
1.43695
1.42717
1.42229
1.41251
1.40762
1.40274
1.40762
1.42717
1.49560
1.52493
1.59824
1.70088
1.77419
1.86217
1.94037
1.98925
2.02346
2.04790
2.05279
2.03812
2.01857
1.98436
1.95015
1.91593
1.91105
1.84262
1.81329
1.79374
1.75464
1.72532
1.70088
1.67155
1.64712
1.62757
1.60313
1.59824
1.59335
1.61779
1.59824
1.60313
1.63734
1.62757
1.64223
1.65689
1.65689
1.66667
1.67644
1.67644
1.67644
1.67644
1.66667
1.66178
1.65200
1.67155
1.63245
1.62757
1.63245
1.60802
1.59335
1.59335
1.58358
1.57869
1.57380
1.56891
1.56403
1.56403
1.55914
1.55914
1.55425
1.56403
1.56403
1.58358
1.64712
1.67644
1.75464
1.85239
1.94037
2.03324
2.12121
2.19941
2.25806
2.29717
2.31672
2.32649
2.32160
2.30694
2.28739
2.25806
2.25806
2.19453
2.17009
2.16031
2.10655
2.07234
2.04790
2.01857
1.98925
1.97947
1.96481
1.96481
1.96970
1.97458
1.97947
1.98925
2.02835
2.00880
2.01857
2.03324
2.02346
2.01857
2.01369
1.99902
1.97947
1.96970
1.95015
1.93060
1.91593
1.90616
1.89638
1.88661
1.90127
1.87195
1.86706
1.87195
1.85728
1.85239
1.85239
1.84262
1.83284
1.83284
1.81818
1.81329
1.80841
1.80841
1.80841
1.80841
1.84751
1.83773
1.87683
1.94526
2.00391
2.08700
2.18475
2.25806
2.32160
2.37048
2.38514
2.38514
2.36070
2.31672
2.24829
2.17986
2.09189
2.00880
1.93060
1.88172
1.77908
1.71554
1.66667
1.59824
1.54936
1.50049
1.45161
1.41251
1.38319
1.35386
1.33920
1.33431
1.32942
1.33431
1.33431
1.37341
1.34897
1.34897
1.36852
1.34897
1.34409
1.33920
1.31965
1.30499
1.29521
1.28055
1.26588
1.25122
1.23656
1.21701
1.21212
1.23167
1.18280
1.17302
1.17791
1.15347
1.14858
1.14858
1.13881
1.12903
1.13392
1.12414
1.12414
1.12903
1.12903
1.14369
1.17302
1.26588
1.30499
1.38807
1.49071
1.56403
1.64223
1.71065
1.75464
1.78397
1.79374
1.78397
1.76931
1.73998
1.71065
1.67644
1.64223
1.63245
1.57380
1.54448
1.54448
1.49560
1.46628
1.45161
1.41740
1.39785
1.38807
1.37341
1.36852
1.37341
1.37830
1.39296
1.40274
1.42717
1.42717
1.43695
1.46628
1.45650
1.45650
1.46628
1.45161
1.44184
1.43695
1.42229
1.40762
1.39785
1.38319
1.37341
1.36364
1.38319
1.33920
1.32942
1.34409
1.31476
1.30499
1.30499
1.29032
1.28543
1.28543
1.27077
1.26588
1.26588
1.27077
1.28543
1.31965
1.40762
1.45650
1.54448
1.65689
1.73021
1.80841
1.87195
1.90616
1.93060
1.94037
1.93060
1.90616
1.88172
1.84262
1.80352
1.76931
1.73021
1.70088
1.66667
1.67155
1.60802
1.58847
1.57380
1.53470
1.51515
1.49560
1.47605
1.47116
1.46628
1.46628
1.47116
1.48094
1.51026
1.50049
1.51515
1.54448
1.52981
1.52981
1.53959
1.52493
1.52004
1.51515
1.49560
1.48583
1.47116
1.45650
1.44184
1.43206
1.41740
1.40274
1.39785
1.41740
1.37341
1.36364
1.36364
1.34409
1.33431
1.33431
1.32454
1.31476
1.30987
1.30010
1.30499
1.32454
1.35875
1.41251
1.48583
1.58358
1.67155
1.75953
1.86217
1.89638
1.93548
1.96970
1.96481
1.95015
1.93548
1.89638
1.86217
1.82796
1.78886
1.75464
1.73021
1.70088
1.68133
1.66178
1.65689
1.61779
1.59335
1.59335
1.54936
1.52981
1.52004
1.50049
1.49560
1.49071
1.48583
1.48583
1.49071
1.49560
1.50538
1.52004
1.52981
1.53470
1.53470
1.55425
1.50538
1.48583
1.48094
1.44673
1.43695
1.43695
1.44184
1.45650
1.47116
1.47116
1.46628
1.44184
1.41251
1.37830
1.34897
1.35386
1.30987
1.30499
1.31476
1.30010
1.29521
1.29521
1.29521
1.32942
1.38807
1.47605
1.58358
1.70088
1.81818
1.90127
1.97947
2.06256
2.07234
2.09189
2.10166
2.08211
2.05767
2.02835
1.98925
1.95503
1.92082
1.89638
1.86706
1.85239
1.83773
1.78886
1.74976
1.73509
1.67644
1.64223
1.62268
1.59335
1.57869
1.58358
1.58358
1.59335
1.60802
1.62268
1.63734
1.65200
1.68133
1.66178
1.66178
1.68622
1.66178
1.65200
1.65200
1.62757
1.61290
1.60313
1.57869
1.55914
1.54448
1.52981
1.51026
1.49560
1.51026
1.46628
1.44673
1.44673
1.41251
1.40274
1.39785
1.37830
1.36364
1.36364
1.34897
1.33920
1.33920
1.34897
1.37830
1.43695
1.54936
1.61290
1.72043
1.82796
1.90616
1.97947
2.03812
2.06256
2.07722
2.07234
2.05767
2.02835
1.99413
1.95503
1.90616
1.86706
1.82796
1.78886
1.74976
1.74487
1.67644
1.64712
1.63734
1.58847
1.56403
1.55425
1.53470
1.52493
1.52981
1.52981
1.53959
1.54936
1.55914
1.57380
1.58358
1.59824
1.59824
1.59335
1.62268
1.58847
1.58358
1.58358
1.56403
1.55425
1.53959
1.52493
1.51515
1.50538
1.48583
1.47605
1.46628
1.47605
1.44184
1.43206
1.45650
1.41251
1.40762
1.41251
1.38319
1.37341
1.37341
1.36852
1.36852
1.38807
1.41740
1.47116
1.54936
1.63245
1.72043
1.80841
1.92082
1.95015
1.99413
2.03324
2.02346
2.01369
2.00391
1.96481
1.93060
1.88661
1.84262
1.80352
1.75953
1.72043
1.68133
1.64712
1.64223
1.57869
1.54448
1.54936
1.49560
1.48583
1.49560
1.48094
1.49071
1.50538
1.51515
1.53470
1.54936
1.56403
1.57380
1.58847
1.58847
1.58847
1.58358
1.60802
1.56891
1.55914
1.56403
1.53470
1.52493
1.52004
1.50049
1.48583
1.47605
1.45650
1.45161
1.44184
1.42717
1.42229
1.41251
1.44184
1.40274
1.39296
1.39785
1.37830
1.38319
1.39785
1.42717
1.48583
1.56403
1.65200
1.74976
1.83773
1.92571
1.97947
2.02346
2.07234
2.04790
2.03812
2.02346
1.98436
1.94526
1.91105
1.86706
1.82796
1.78397
1.74487
1.70577
1.66667
1.65689
1.58847
1.56403
1.55425
1.51515
1.50049
1.50538
1.50049
1.50538
1.52004
1.52981
1.54448
1.56403
1.57380
1.58358
1.59335
1.59335
1.59335
1.58358
1.61290
1.56891
1.56403
1.56403
1.53470
1.51515
1.51026
1.49071
1.47605
1.46628
1.45161
1.44184
1.43206
1.42229
1.41251
1.40762
1.42717
1.38807
1.37830
1.38807
1.37830
1.39785
1.45161
1.50049
1.57869
1.67644
1.77419
1.86706
1.94526
2.00880
2.05279
2.08211
2.09677
2.07234
2.04790
2.04790
1.97947
1.93548
1.90616
1.84751
1.81329
1.77908
1.73998
1.70577
1.67644
1.64223
1.60802
1.58847
1.56403
1.55425
1.54448
1.56891
1.54448
1.55425
1.58358
1.57869
1.58847
1.60802
1.60802
1.61779
1.61779
1.61779
1.61290
1.60802
1.59824
1.58358
1.57380
1.58847
1.53959
1.52981
1.52493
1.50049
1.49071
1.48094
1.46628
1.45161
1.44673
1.43695
1.42717
1.42229
1.40762
1.39785
1.38807
1.42229
1.40274
1.44184
1.50538
1.57380
1.66178
1.76442
1.85239
1.93548
2.00880
2.05279
2.08700
2.09677
2.09189
2.07234
2.04301
2.00880
1.96481
1.92571
1.88661
1.84751
1.80841
1.80352
1.74487
1.71065
1.69599
1.64712
1.61779
1.60802
1.58358
1.56891
1.56891
1.56403
1.57380
1.58358
1.59335
1.60802
1.61779
1.65689
1.63734
1.64223
1.65200
1.63245
1.61779
1.61779
1.60313
1.58847
1.57869
1.55914
1.54448
1.53959
1.52493
1.51026
1.49560
1.51515
1.47605
1.46628
1.47605
1.44673
1.43695
1.43206
1.41740
1.41251
1.41251
1.41251
1.43206
1.47605
1.53470
1.61779
1.70577
1.82796
1.89150
1.97458
2.05279
2.07722
2.09677
2.10655
2.09189
2.07234
2.03812
1.99902
1.95503
1.91593
1.87683
1.83773
1.80841
1.77419
1.73998
1.71554
1.72043
1.65689
1.62757
1.62268
1.59824
1.58847
1.59335
1.58847
1.59824
1.61290
1.62268
1.63245
1.64223
1.65689
1.65689
1.65689
1.67644
1.64223
1.63734
1.63245
1.60802
1.59335
1.58358
1.56891
1.55425
1.54448
1.52493
1.51515
1.50538
1.50538
1.47605
1.46628
1.47605
1.44673
1.43695
1.43695
1.42229
1.41251
1.40762
1.40762
1.41251
1.44184
1.48094
1.54448
1.63245
1.72043
1.81818
1.90616
2.00391
2.02835
2.06745
2.10655
2.08211
2.07234
2.04790
2.01369
1.97458
1.94037
1.89638
1.85239
1.82307
1.78397
1.74976
1.72043
1.73021
1.67155
1.64712
1.63734
1.60313
1.59335
1.58847
1.57869
1.57869
1.58358
1.59335
1.59824
1.61290
1.61779
1.62757
1.63245
1.66178
1.62757
1.61779
1.62268
1.59824
1.58358
1.57380
1.55425
1.53959
1.52981
1.51515
1.50049
1.49071
1.49071
1.46628
1.45650
1.46628
1.43695
1.43206
1.42717
1.41251
1.40762
1.40274
1.39296
1.39296
1.39785
1.41251
1.45650
1.51515
1.61779
1.68622
1.78397
1.89150
1.95015
2.01369
2.06745
2.08211
2.08700
2.07722
2.04790
2.02346
1.98925
1.94526
1.90616
1.87195
1.86706
1.79863
1.76442
1.74976
1.71065
1.68133
1.66667
1.63245
1.61290
1.60313
1.58847
1.58358
1.58358
1.58847
1.59335
1.60313
1.64712
1.62757
1.63245
1.65200
1.63734
1.63245
1.63245
1.61779
1.60802
1.59335
1.57869
1.56891
1.55425
1.53959
1.52004
1.51026
1.52493
1.48094
1.47116
1.47116
1.45161
1.43695
1.43695
1.42229
1.41251
1.40762
1.39785
1.39296
1.38807
1.40762
1.38319
1.40762
1.45650
1.49560
1.57380
1.67155
1.76442
1.85728
1.94037
1.99902
2.04301
2.07234
2.07234
2.06256
2.04301
2.04790
1.97947
1.94037
1.92571
1.86706
1.83284
1.80841
1.76442
1.73509
1.71065
1.68133
1.65200
1.63734
1.61290
1.59335
1.58358
1.61290
1.57869
1.57869
1.59824
1.59824
1.60313
1.61779
1.61779
1.62757
1.62757
1.62268
1.61779
1.61290
1.59824
1.58847
1.57380
1.59335
1.54448
1.52981
1.52981
1.50538
1.49071
1.48583
1.46628
1.46139
1.45161
1.44184
1.42717
1.42229
1.42717
1.40274
1.39785
1.41251
1.38807
1.38319
1.38807
1.38319
1.40762
1.44673
1.50049
1.57869
1.67155
1.75953
1.85239
1.93060
1.99902
2.03812
2.06256
2.09677
2.05767
2.03812
2.02346
1.96970
1.93060
1.90127
1.85239
1.81329
1.78397
1.75464
1.72043
1.69599
1.66178
1.63734
1.61290
1.62268
1.57869
1.56891
1.58358
1.57380
1.57869
1.59824
1.59824
1.61290
1.62268
1.62757
1.62757
1.63245
1.64223
1.62268
1.61290
1.62757
1.59335
1.57869
1.57380
1.55425
1.53959
1.52981
1.51026
1.49560
1.49071
1.48094
1.46628
1.45650
1.48094
1.44184
1.43206
1.43695
1.41251
1.40762
1.40274
1.38807
1.38319
1.39296
1.40274
1.43206
1.48583
1.56891
1.64712
1.73509
1.84751
1.90616
1.96481
2.01369
2.03324
2.04301
2.03324
2.00880
1.97947
1.95015
1.90616
1.86706
1.82796
1.82307
1.75464
1.71554
1.69110
1.64712
1.61779
1.59335
1.56403
1.54936
1.53470
1.54448
1.53470
1.54448
1.57380
1.56403
1.57869
1.60313
1.60802
1.61779
1.62757
1.62757
1.62757
1.62268
1.61290
1.59824
1.58847
1.57380
1.56403
1.55425
1.56891
1.52981
1.52493
1.52493
1.50049
1.49071
1.48583
1.47116
1.46139
1.46139
1.44673
1.44184
1.43695
1.42229
1.41251
1.40762
1.43206
1.42717
1.46139
1.53959
1.59335
1.68133
1.79863
1.85239
1.93060
1.99902
2.02835
2.04790
2.05767
2.03812
2.01369
1.98436
1.94037
1.90127
1.86217
1.82307
1.78397
1.74976
1.71065
1.67644
1.64223
1.64223
1.57869
1.55914
1.55425
1.52981
1.52981
1.53470
1.53959
1.55425
1.56891
1.57869
1.59335
1.61290
1.61779
1.62268
1.62268
1.65200
1.61779
1.60313
1.60802
1.57380
1.56403
1.55425
1.53470
1.51515
1.51026
1.49071
1.48094
1.46628
1.45650
1.44673
1.43695
1.45161
1.41251
1.40762
1.43206
1.38807
1.38319
1.39296
1.39785
1.43206
1.49071
1.55914
1.64712
1.74487
1.83284
1.91593
1.97947
2.01857
2.04301
2.05279
2.04301
2.02346
1.99413
1.95503
1.92082
1.87683
1.84262
1.80352
1.76931
1.75953
1.70088
1.66667
1.64712
1.60802
1.58847
1.56891
1.54936
1.53959
1.53959
1.53959
1.54936
1.55914
1.56891
1.58358
1.59335
1.63245
1.60802
1.60802
1.62268
1.60313
1.58847
1.58847
1.56891
1.55425
1.54448
1.52004
1.51026
1.50049
1.48094
1.47116
1.45650
1.48094
1.43695
1.42717
1.42717
1.40762
1.39785
1.39785
1.38319
1.37341
1.37830
1.38807
1.42229
1.47116
1.54448
1.62757
1.72043
1.82307
1.89638
1.96970
2.04790
2.05279
2.06256
2.08211
2.04301
2.01369
1.98925
1.94037
1.90127
1.87195
1.82796
1.79374
1.76442
1.73021
1.70088
1.67155
1.64223
1.61779
1.59824
1.57869
1.56403
1.56403
1.57380
1.56891
1.57380
1.61290
1.59335
1.60313
1.62268
1.61290
1.61290
1.61290
1.60802
1.59824
1.58847
1.57380
1.56403
1.55425
1.54936
1.52981
1.51026
1.52004
1.48583
1.47116
1.46139
1.44673
1.43695
1.43206
1.41740
1.40762
1.39785
1.38807
1.38319
1.37830
1.39296
1.37830
1.39785
1.46628
1.51515
1.59824
1.70088
1.78886
1.88172
1.95503
2.00880
2.04301
2.06256
2.06256
2.04301
2.01857
2.01857
1.95015
1.91593
1.88661
1.83773
1.80352
1.77419
1.73998
1.71065
1.68133
1.64712
1.62268
1.60313
1.57869
1.56891
1.55425
1.58847
1.55914
1.56891
1.58847
1.58358
1.59335
1.60802
1.61290
1.61290
1.61290
1.60313
1.59824
1.58847
1.59335
1.56403
1.54448
1.55914
1.52004
1.50538
1.50049
1.48094
1.46628
1.46139
1.44184
1.43206
1.42229
1.40762
1.40274
1.39296
1.38319
1.37341
1.36852
1.39296
1.36364
1.37341
1.41251
1.45650
1.52493
1.61290
1.70577
1.79863
1.88661
1.95503
2.00391
2.04301
2.06745
2.04790
2.02835
2.02346
1.96481
1.92571
1.90127
1.84751
1.81329
1.78886
1.74976
1.72043
1.69110
1.66178
1.63245
1.60802
1.58358
1.56403
1.55425
1.57869
1.54448
1.54936
1.56891
1.56403
1.57869
1.59335
1.59335
1.59824
1.60313
1.59824
1.59335
1.58358
1.57869
1.56403
1.55425
1.56403
1.52004
1.50538
1.50049
1.47605
1.46139
1.45650
1.44184
1.42717
1.42229
1.40762
1.40274
1.39296
1.38319
1.37830
1.36852
1.38807
1.35386
1.34897
1.36852
1.36364
1.39296
1.45650
1.52004
1.60802
1.70577
1.79863
1.88172
1.95015
2.00391
2.02835
2.04301
2.07234
2.02346
1.99413
1.96970
1.92082
1.88172
1.84751
1.80841
1.77419
1.74487
1.71554
1.68133
1.65200
1.63734
1.59824
1.57869
1.58358
1.54936
1.54448
1.55425
1.55425
1.55914
1.57380
1.58358
1.58847
1.59824
1.60313
1.60802
1.60313
1.63245
1.58847
1.58358
1.58847
1.55425
1.53959
1.52981
1.51026
1.49560
1.48583
1.47605
1.46628
1.45650
1.44673
1.43206
1.42717
1.44673
1.40274
1.39296
1.40274
1.38319
1.37830
1.37830
1.36364
1.36364
1.36852
1.37830
1.40762
1.46139
1.55425
1.62268
1.71065
1.83284
1.89638
1.96970
2.02835
2.05279
2.06745
2.06256
2.04301
2.01369
1.97947
1.94037
1.90127
1.86706
1.82307
1.78886
1.75953
1.74976
1.69599
1.66178
1.66178
1.61290
1.58847
1.57869
1.56403
1.56403
1.56891
1.56891
1.57869
1.59335
1.60802
1.61779
1.62757
1.63734
1.63734
1.64223
1.66667
1.63245
1.62268
1.63245
1.59824
1.58358
1.57380
1.55425
1.53959
1.52981
1.51515
1.50049
1.49071
1.48094
1.47116
1.45650
1.48583
1.44184
1.43206
1.43695
1.41740
1.41251
1.40762
1.39785
1.39785
1.41251
1.44184
1.49560
1.56403
1.65689
1.74487
1.83773
1.94037
1.98436
2.03324
2.06745
2.06256
2.05767
2.04301
2.00880
1.97458
1.94037
1.89638
1.85728
1.82307
1.78886
1.75464
1.72532
1.69110
1.65689
1.63245
1.62268
1.58358
1.56891
1.58847
1.56891
1.56891
1.58847
1.58847
1.60313
1.62268
1.62757
1.63734
1.64712
1.65200
1.64712
1.64223
1.66178
1.62268
1.60313
1.60802
1.57380
1.56403
1.54936
1.52981
1.51515
1.51026
1.49560
1.48094
1.47605
1.47605
1.45650
1.44673
1.45650
1.42717
1.41251
1.42229
1.40762
1.41251
1.43695
1.46628
1.52004
1.60313
1.68622
1.77419
1.86217
1.96970
1.99902
2.03812
2.08211
2.06745
2.05279
2.04301
1.99902
1.95992
1.93060
1.88172
1.84262
1.80841
1.77419
1.73998
1.71065
1.67155
1.64712
1.61779
1.62268
1.56891
1.56403
1.55425
1.55425
1.55425
1.59824
1.57869
1.58847
1.60802
1.61290
1.61779
1.62757
1.61779
1.61779
1.61290
1.59824
1.58847
1.57380
1.56891
1.54936
1.53470
1.53959
1.50538
1.49560
1.49071
1.47116
1.45650
1.45161
1.44184
1.43206
1.42717
1.41251
1.40274
1.39785
1.41251
1.39296
1.41251
1.47605
1.50538
1.58358
1.67644
1.76931
1.85728
1.94037
1.99902
2.04301
2.06745
2.07234
2.06745
2.04790
2.01369
1.97458
1.94526
1.90127
1.86706
1.82796
1.83284
1.76931
1.73998
1.72043
1.68133
1.65200
1.63245
1.60802
1.59824
1.58847
1.58358
1.58358
1.59335
1.60313
1.60802
1.61290
1.65200
1.63734
1.63734
1.64712
1.63734
1.63245
1.63245
1.60802
1.58847
1.58358
1.56403
1.54936
1.53470
1.52493
1.51026
1.49560
1.51515
1.47605
1.46139
1.46139
1.43695
1.43206
1.42717
1.41251
1.40274
1.40274
1.39785
1.40274
1.42229
1.47116
1.52004
1.59824
1.71554
1.78397
1.87195
1.95503
2.00880
2.05279
2.08211
2.08211
2.06745
2.04790
2.01857
1.97947
1.94526
1.90616
1.87195
1.84262
1.80841
1.77908
1.75464
1.72532
1.69599
1.67155
1.65200
1.62757
1.61290
1.62757
1.59824
1.60313
1.61779
1.61290
1.62757
1.63734
1.64223
1.64223
1.65200
1.64712
1.64223
1.63245
1.63245
1.61290
1.59335
1.60313
1.56891
1.54936
1.54448
1.52493
1.51026
1.50538
1.48583
1.47605
1.46628
1.47116
1.44673
1.43695
1.45161
1.42229
1.41251
1.40762
1.39296
1.39785
1.41251
1.43206
1.47605
1.53959
1.62268
1.71554
1.80352
1.91593
1.95992
2.01857
2.07234
2.06745
2.06745
2.05767
2.02835
1.99902
1.96481
1.92082
1.89150
1.85728
1.82307
1.79374
1.76931
1.73998
1.71065
1.68133
1.67155
1.63734
1.61779
1.62757
1.59824
1.59335
1.60313
1.60313
1.60802
1.62268
1.63245
1.64223
1.64223
1.64223
1.63734
1.63245
1.65200
1.61290
1.59824
1.59335
1.56403
1.55425
1.54448
1.52493
1.51026
1.50049
1.48583
1.47605
1.46139
1.46139
1.44673
1.43695
1.45161
1.41740
1.41251
1.41251
1.39785
1.38319
1.38807
1.37830
1.37341
1.38319
1.40762
1.44673
1.50538
1.61779
1.67644
1.76931
1.87195
1.93548
1.99902
2.04301
2.05767
2.06745
2.05767
2.03324
1.99902
1.96970
1.93060
1.89150
1.85728
1.82307
1.79374
1.76442
1.77419
1.71554
1.68622
1.67155
1.63734
1.61779
1.60313
1.58847
1.58847
1.58847
1.59335
1.60313
1.61290
1.65200
1.63245
1.63245
1.65200
1.63245
1.62757
1.62268
1.60802
1.58847
1.58358
1.56403
1.54936
1.53470
1.52981
1.50538
1.49071
1.50538
1.46628
1.45161
1.45650
1.43695
1.42229
1.42229
1.41251
1.40274
1.39296
1.38807
1.38319
1.37830
1.40274
1.36364
1.35875
1.38807
1.37341
1.39296
1.45161
1.50538
1.58847
1.69110
1.77419
1.86217
1.93548
1.99413
2.03324
2.05279
2.04790
2.03812
2.01369
1.97947
1.94526
1.91105
1.87195
1.84262
1.80841
1.77908
1.74976
1.72043
1.71554
1.66178
1.64223
1.64712
1.59824
1.58358
1.60313
1.57869
1.57869
1.59335
1.59335
1.60802
1.61779
1.62268
1.62268
1.63245
1.62757
1.62268
1.61290
1.63734
1.59335
1.57869
1.57869
1.55425
1.53470
1.52493
1.51026
1.49560
1.48583
1.47116
1.46139
1.45650
1.46628
1.43695
1.42717
1.44184
1.41251
1.40762
1.40762
1.39296
1.38807
1.38807
1.37830
1.36852
1.36852
1.39296
1.38319
1.41251
1.48583
1.53959
1.62757
1.72532
1.81329
1.89150
1.96481
2.01369
2.04301
2.05767
2.04790
2.03324
2.00391
1.96481
1.92571
1.89150
1.85239
1.81818
1.78397
1.78886
1.72532
1.70088
1.68622
1.64223
1.61779
1.60313
1.57869
1.56891
1.56891
1.56891
1.57380
1.58847
1.59335
1.60802
1.62268
1.64712
1.63734
1.63245
1.66667
1.63245
1.62268
1.62268
1.59824
1.58847
1.57869
1.55425
1.54448
1.53470
1.51515
1.50049
1.49071
1.48094
1.47116
1.46628
1.48583
1.44673
1.43695
1.44673
1.42229
1.41740
1.41251
1.40274
1.39296
1.39296
1.38319
1.38319
1.39785
1.41740
1.46628
1.52981
1.63245
1.70088
1.79374
1.90127
1.94526
1.99902
2.03324
2.04301
2.03812
2.02346
1.99413
1.95992
1.92571
1.88172
1.84262
1.80841
1.76931
1.73998
1.71065
1.67155
1.63734
1.61779
1.58358
1.56403
1.54936
1.53959
1.53959
1.54448
1.57380
1.56891
1.58358
1.62268
1.60802
1.61779
1.63734
1.62757
1.62757
1.62757
1.61779
1.60802
1.59335
1.57869
1.56891
1.55425
1.53959
1.52493
1.50538
1.49560
1.48094
1.46628
1.48583
1.44673
1.43206
1.44184
1.42229
1.41740
1.41251
1.40274
1.39296
1.39296
1.38807
1.38319
1.39785
1.42229
1.47605
1.54448
1.65689
1.72043
1.81329
1.93060
1.96481
2.01369
2.05279
2.05279
2.04790
2.03324
2.00391
1.96481
1.93060
1.89150
1.85239
1.81329
1.77419
1.74487
1.70577
1.70088
1.64223
1.61779
1.59335
1.56403
1.54936
1.54448
1.53470
1.53470
1.54936
1.55425
1.56403
1.57380
1.62268
1.59824
1.60313
1.62268
1.60802
1.60313
1.60313
1.58358
1.56891
1.55914
1.54448
1.52981
1.51515
1.50049
1.48583
1.47605
1.49071
1.44673
1.43206
1.44184
1.41740
1.40762
1.40762
1.39296
1.38319
1.37830
1.36852
1.36364
1.37341
1.38807
1.43206
1.48583
1.59335
1.66178
1.75953
1.86706
1.92571
1.98925
2.03324
2.05279
2.05767
2.06745
2.01857
1.99413
1.97947
1.92082
1.87683
1.87683
1.80841
1.77908
1.77419
1.71554
1.68622
1.67644
1.62757
1.60313
1.58847
1.56891
1.55914
1.55914
1.55914
1.56403
1.57869
1.58358
1.59335
1.60313
1.64223
1.61290
1.60802
1.62268
1.60802
1.59824
1.58847
1.57869
1.56403
1.54936
1.53470
1.52004
1.51026
1.49071
1.47605
1.46628
1.49071
1.44673
1.43206
1.43695
1.41740
1.40762
1.40274
1.38807
1.38319
1.38319
1.38319
1.39296
1.43206
1.50049
1.55914
1.64223
1.77419
1.83284
1.91593
1.99413
2.02835
2.06256
2.07234
2.06745
2.04301
2.01857
1.98436
1.94526
1.90616
1.87195
1.83773
1.80841
1.77419
1.74487
1.72043
1.69110
1.66178
1.63734
1.61290
1.59824
1.58847
1.60802
1.58358
1.58358
1.61779
1.60313
1.60802
1.62268
1.62268
1.62757
1.63245
1.62757
1.61779
1.61290
1.59824
1.58847
1.57869
1.55914
1.54448
1.53470
1.51515
1.50049
1.49071
1.47605
1.46139
1.45650
1.46139
1.43695
1.42717
1.44673
1.40762
1.40274
1.40274
1.38807
1.39296
1.41251
1.44184
1.49560
1.57869
1.65689
1.74976
1.84262
1.92082
1.98925
2.03812
2.06256
2.07722
2.07234
2.04790
2.02346
1.99413
1.95015
1.91593
1.88172
1.84262
1.80841
1.78397
1.75464
1.72532
1.70577
1.67644
1.65200
1.63245
1.61290
1.59824
1.59335
1.61290
1.59335
1.60313
1.63245
1.61779
1.62757
1.64223
1.63734
1.63734
1.64223
1.62757
1.61779
1.60313
1.58847
1.57869
1.56403
1.57380
1.52981
1.51515
1.53470
1.49071
1.47116
1.47605
1.45161
1.44184
1.43695
1.42229
1.41740
1.41251
1.40274
1.39296
1.38807
1.40274
1.38807
1.40762
1.46628
1.50538
1.57869
1.67644
1.76931
1.85728
1.94037
1.99413
2.04301
2.06745
2.07234
2.05767
2.03812
2.00880
1.97458
1.93548
1.91593
1.86217
1.83284
1.80352
1.77419
1.74976
1.74976
1.69599
1.66667
1.66178
1.62268
1.60802
1.60802
1.59824
1.59335
1.60802
1.60802
1.61779
1.62268
1.62757
1.63245
1.63734
1.66178
1.62757
1.62757
1.64223
1.60802
1.58847
1.58847
1.55914
1.53959
1.53959
1.51515
1.50049
1.49071
1.48094
1.47116
1.46628
1.45161
1.44184
1.43695
1.45161
1.41740
1.40762
1.40762
1.39296
1.39296
1.39785
1.40274
1.43206
1.48583
1.54936
1.63245
1.72043
1.81818
1.89638
1.96481
2.04301
2.04301
2.05767
2.06745
2.04301
2.01369
1.99902
1.95015
1.91593
1.89150
1.84751
1.81329
1.80352
1.75953
1.73509
1.71065
1.68133
1.65689
1.63734
1.61779
1.60802
1.60313
1.60313
1.60313
1.61290
1.64223
1.63245
1.64223
1.67644
1.65689
1.65689
1.67155
1.64223
1.63245
1.62757
1.60802
1.59335
1.57869
1.56403
1.54936
1.53959
1.52004
1.51026
1.49560
1.51515
1.47605
1.46628
1.47116
1.44673
1.44184
1.45650
1.42717
1.41740
1.42229
1.40762
1.40762
1.40274
1.40274
1.41740
1.45161
1.50049
1.56891
1.65200
1.76931
1.82307
1.90616
1.98925
2.01857
2.04301
2.05767
2.04301
2.02835
1.99902
1.95992
1.92571
1.89150
1.84751
1.81818
1.79374
1.74976
1.72532
1.70088
1.66667
1.64223
1.61779
1.59824
1.58847
1.58847
1.58358
1.58847
1.59335
1.64223
1.62268
1.63245
1.66178
1.64712
1.65689
1.66178
1.65200
1.64712
1.63734
1.62268
1.60802
1.59335
1.57380
1.55425
1.54448
1.52493
1.51515
1.50538
1.49071
1.48094
1.47605
1.49560
1.46139
1.45161
1.47605
1.43695
1.42717
1.43206
1.41251
1.40762
1.41251
1.41251
1.43695
1.48583
1.53959
1.61779
1.70577
1.78886
1.86706
1.94037
2.00391
2.02835
2.04301
2.06256
2.02835
1.99902
1.98436
1.92571
1.88661
1.88172
1.81329
1.77908
1.75953
1.71065
1.68133
1.67644
1.62268
1.59824
1.58358
1.55914
1.55914
1.55914
1.55914
1.56891
1.58847
1.59335
1.60802
1.62268
1.63245
1.63734
1.63734
1.63245
1.62268
1.61290
1.59824
1.58358
1.56891
1.58358
1.53959
1.52493
1.52004
1.49560
1.48583
1.47605
1.46139
1.44184
1.43695
1.42717
1.42229
1.41740
1.40762
1.39785
1.38807
1.40762
1.38807
1.39296
1.44673
1.47116
1.53470
1.62268
1.70088
1.79374
1.87683
1.94037
1.98925
2.02835
2.03812
2.03324
2.02835
1.98925
1.95503
1.94037
1.87683
1.84262
1.80841
1.77908
1.74976
1.75464
1.69599
1.66667
1.64712
1.61779
1.59335
1.58358
1.56891
1.56403
1.58358
1.56891
1.57380
1.58847
1.59335
1.59824
1.61290
1.61290
1.61290
1.61290
1.60313
1.59335
1.58358
1.56403
1.54936
1.53470
1.54936
1.50049
1.48583
1.49560
1.46139
1.44673
1.44184
1.42717
1.41740
1.41740
1.40274
1.39296
1.38807
1.37830
1.37341
1.36852
1.36364
1.36364
1.36852
1.43206
1.44673
1.51026
1.60802
1.69110
1.78397
1.89638
1.94037
1.99413
2.03324
2.03812
2.04301
2.01857
1.99413
1.95503
1.92571
1.88661
1.85728
1.81329
1.78886
1.75953
1.73021
1.70577
1.68133
1.65200
1.62757
1.60802
1.62268
1.57380
1.56403
1.59824
1.56891
1.56891
1.58847
1.58358
1.58847
1.60313
1.59824
1.60313
1.60313
1.59824
1.58847
1.57869
1.56403
1.55425
1.53470
1.53959
1.50538
1.49071
1.49071
1.46139
1.45161
1.44184
1.42229
1.41740
1.40762
1.39296
1.38807
1.38319
1.37341
1.36364
1.36364
1.35386
1.34409
1.34897
1.36852
1.35875
1.39296
1.46628
1.52004
1.60313
1.71065
1.79863
1.88172
1.95992
2.00391
2.03324
2.04790
2.03812
2.01857
1.98436
1.95015
1.92082
1.87683
1.84262
1.81329
1.77908
1.75464
1.73021
1.70577
1.68133
1.65200
1.65200
1.60802
1.58847
1.58847
1.56891
1.56891
1.56891
1.57380
1.57869
1.58847
1.59335
1.59824
1.59824
1.59824
1.59824
1.59335
1.58847
1.57380
1.56403
1.55914
1.53470
1.52004
1.52981
1.49071
1.47605
1.48094
1.45161
1.44184
1.43695
1.41251
1.40762
1.39785
1.38319
1.37341
1.37341
1.36364
1.35386
1.35875
1.34897
1.34409
1.34409
1.34897
1.37341
1.41740
1.47116
1.55425
1.64223
1.76931
1.83284
1.91105
1.99902
2.01369
2.03812
2.05767
2.02835
1.99902
1.98436
1.93548
1.90127
1.86217
1.82796
1.79863
1.76931
1.73998
1.72043
1.68622
1.66667
1.64712
1.61779
1.59335
1.58358
1.56891
1.55914
1.55914
1.55425
1.56403
1.57380
1.57869
1.58358
1.59335
1.59824
1.59335
1.59335
1.58847
1.57380
1.56403
1.57380
1.53470
1.52493
1.51515
1.49071
1.48094
1.47116
1.45650
1.44184
1.43206
1.42229
1.41251
1.40762
1.42229
1.38807
1.37830
1.38807
1.36364
1.35875
1.35875
1.34897
1.33920
1.34409
1.34409
1.36364
1.39785
1.45650
1.53470
1.62268
1.74976
1.81329
1.89150
1.96970
2.00880
2.03324
2.04301
2.03324
2.01369
1.98925
1.95015
1.91105
1.88172
1.83773
1.80352
1.79374
1.73998
1.71065
1.69110
1.65200
1.63245
1.61290
1.58358
1.56891
1.56403
1.55425
1.55425
1.55914
1.55914
1.56891
1.57869
1.61290
1.59335
1.59824
1.62268
1.60313
1.59824
1.59335
1.57869
1.56891
1.55914
1.53959
1.52004
1.51515
1.49560
1.48583
1.47605
1.47116
1.45161
1.43695
1.45161
1.42229
1.41251
1.41251
1.39296
1.38807
1.38807
1.37341
1.36364
1.36852
1.35875
1.35386
1.35875
1.40274
1.40274
1.45650
1.54936
1.61779
1.71554
1.80841
1.88661
1.95015
2.00391
2.02346
2.02835
2.02835
1.99902
1.96970
1.93548
1.89150
1.85239
1.81818
1.78397
1.74487
1.72043
1.68133
1.65200
1.62757
1.59824
1.56891
1.55425
1.53470
1.52981
1.53470
1.52981
1.53959
1.54936
1.56403
1.57380
1.58847
1.59824
1.60802
1.60802
1.63734
1.60313
1.59824
1.59824
1.56891
1.55425
1.54936
1.52981
1.51515
1.50538
1.48583
1.47605
1.46628
1.45161
1.44184
1.43695
1.42717
1.42229
1.41740
1.43695
1.39785
1.38807
1.39785
1.37830
1.37341
1.37830
1.37830
1.40274
1.45161
1.51026
1.59335
1.68622
1.77419
1.86217
1.93548
1.98925
2.02835
2.03812
2.07234
2.01857
1.99413
1.96970
1.92082
1.88172
1.85728
1.79863
1.76442
1.73021
1.68622
1.65689
1.62268
1.59335
1.56403
1.54936
1.52493
1.51515
1.52004
1.52004
1.52493
1.54448
1.55425
1.56891
1.58358
1.59335
1.59824
1.60313
1.63245
1.59335
1.58847
1.58847
1.56403
1.54936
1.53959
1.52493
1.51026
1.49560
1.48583
1.47116
1.45650
1.44184
1.43206
1.42717
1.41740
1.40274
1.39785
1.39296
1.38319
1.36852
1.38319
1.35875
1.36364
1.39785
1.41740
1.48583
1.57380
1.65689
1.74976
1.84262
1.92082
1.97947
2.01857
2.03812
2.04301
2.02835
2.02835
1.96970
1.93548
1.92082
1.85239
1.80841
1.77908
1.73509
1.70088
1.70088
1.63734
1.60802
1.57869
1.55425
1.53470
1.52004
1.51026
1.50538
1.54448
1.52493
1.52981
1.57380
1.55425
1.56891
1.59824
1.58358
1.58358
1.59335
1.57869
1.56891
1.56403
1.54936
1.53470
1.52004
1.51515
1.50049
1.48583
1.49560
1.45650
1.44673
1.44184
1.42229
1.41251
1.40762
1.39296
1.38319
1.38319
1.36852
1.36364
1.35875
1.36364
1.38319
1.42717
1.48583
1.56891
1.66178
1.77908
1.85239
1.93548
2.02346
2.04301
2.06745
2.07234
2.05767
2.03812
2.00391
1.96481
1.92571
1.88172
1.84751
1.80841
1.78886
1.73998
1.71065
1.70577
1.65200
1.62268
1.61290
1.57380
1.55914
1.55914
1.54448
1.54448
1.55425
1.55914
1.56891
1.58358
1.58847
1.59824
1.60802
1.60802
1.60313
1.59824
1.62268
1.57869
1.56403
1.58847
1.54448
1.52981
1.52493
1.50049
1.49071
1.48094
1.46139
1.45161
1.44673
1.43206
1.42229
1.41740
1.40762
1.39296
1.38807
1.40762
1.37341
1.37341
1.40762
1.42717
1.48583
1.56891
1.66178
1.75953
1.87683
1.93548
2.00391
2.07722
2.08211
2.08700
2.07722
2.05767
2.03324
1.99413
1.95015
1.92082
1.87683
1.83773
1.80352
1.77419
1.73998
1.71065
1.68133
1.65200
1.65689
1.60313
1.58847
1.58358
1.56891
1.56891
1.57380
1.57869
1.58358
1.59824
1.60313
1.61290
1.61290
1.65200
1.61779
1.60802
1.61779
1.59335
1.57869
1.57869
1.55425
1.53959
1.53470
1.51026
1.50049
1.49071
1.47605
1.46139
1.45650
1.44184
1.43206
1.41740
1.42717
1.40274
1.39785
1.41251
1.38319
1.37341
1.38319
1.38319
1.41251
1.46139
1.52493
1.61290
1.71554
1.80841
1.90127
1.97458
2.06256
2.06745
2.08211
2.11144
2.06745
2.04301
2.02835
1.96970
1.93060
1.89150
1.85728
1.83284
1.78397
1.75464
1.73021
1.69110
1.66667
1.64223
1.61290
1.59335
1.58358
1.57380
1.56891
1.57380
1.57380
1.58358
1.59335
1.63245
1.60802
1.61290
1.65200
1.61779
1.61779
1.62268
1.60313
1.58847
1.58358
1.55914
1.53959
1.53470
1.51515
1.50049
1.49071
1.47605
1.46628
1.45650
1.44184
1.43206
1.42717
1.43206
1.40274
1.39296
1.41251
1.38319
1.37341
1.38319
1.36852
1.36852
1.38319
1.41251
1.46628
1.54936
1.62757
1.73021
1.83773
1.91593
1.98925
2.04301
2.07234
2.08211
2.07722
2.05767
2.02835
1.99413
1.95015
1.91593
1.87195
1.83284
1.80841
1.77419
1.73998
1.71065
1.68133
1.65200
1.62268
1.59824
1.58358
1.57380
1.58358
1.56403
1.56403
1.60802
1.58358
1.58847
1.61779
1.60802
1.61290
1.62268
1.61779
1.61779
1.60802
1.59824
1.58847
1.57380
1.55425
1.53959
1.52493
1.53470
1.49560
1.48583
1.50538
1.46139
1.45161
1.45161
1.43206
1.42229
1.41740
1.40274
1.39785
1.39296
1.38319
1.37830
1.37341
1.38807
1.36364
1.36852
1.41740
1.42229
1.47605
1.58358
1.65200
1.74976
1.86217
1.93060
1.99413
2.04790
2.06745
2.07234
2.06256
2.03812
2.00391
1.99902
1.93060
1.89150
1.87683
1.81818
1.77908
1.78397
1.72043
1.68622
1.67644
1.62757
1.60313
1.59335
1.56891
1.56403
1.55914
1.55914
1.56891
1.57869
1.58847
1.59824
1.60802
1.61290
1.61779
1.62757
1.61779
1.60802
1.62757
1.59335
1.57869
1.57380
1.54936
1.52981
1.52493
1.50538
1.49071
1.48583
1.47116
1.46139
1.45650
1.44184
1.43695
1.42717
1.41740
1.40762
1.39785
1.42717
1.38807
1.37830
1.40274
1.36852
1.36852
1.38319
1.40274
1.44673
1.54448
1.59824
1.69110
1.81329
1.87683
1.95503
2.02346
2.05279
2.07234
2.07234
2.05767
2.03812
1.99902
1.96481
1.92082
1.88172
1.84262
1.79863
1.76442
1.73021
1.69599
1.66178
1.64223
1.64223
1.59335
1.57380
1.58847
1.55914
1.56403
1.57869
1.57869
1.58358
1.60802
1.61290
1.62268
1.64712
1.63734
1.64223
1.64223
1.63734
1.62268
1.62757
1.60313
1.58358
1.57869
1.55914
1.54936
1.53470
1.52004
1.51026
1.50049
1.49071
1.48094
1.46628
1.45650
1.45161
1.44673
1.43695
1.42717
1.42229
1.43206
1.40762
1.40274
1.39296
1.40274
1.42717
1.46139
1.52004
1.60313
1.69110
1.78397
1.87683
1.97947
2.00880
2.04790
2.08211
2.06745
2.05279
2.02835
1.98925
1.95503
1.91105
1.86706
1.83284
1.79374
1.75464
1.72043
1.68622
1.65200
1.62268
1.61779
1.56403
1.55425
1.57380
1.53959
1.54448
1.55425
1.56891
1.58847
1.60313
1.61779
1.63245
1.63734
1.64223
1.64223
1.67644
1.63734
1.62757
1.62757
1.59824
1.58358
1.57869
1.55425
1.53959
1.53470
1.51515
1.50538
1.52981
1.48094
1.47116
1.47605
1.46139
1.44673
1.44673
1.43206
1.42229
1.41740
1.40762
1.40762
1.41740
1.45161
1.49071
1.55425
1.66667
1.73509
1.82796
1.92082
1.97947
2.02835
2.06256
2.07234
2.06256
2.07722
2.01857
1.97947
1.95992
1.90127
1.86706
1.82307
1.78397
1.74976
1.71065
1.67644
1.64223
1.64223
1.58358
1.56403
1.57380
1.53959
1.54448
1.55425
1.54936
1.56403
1.58358
1.59335
1.60313
1.61779
1.62268
1.62268
1.62268
1.61779
1.61290
1.60313
1.60313
1.57380
1.55914
1.56891
1.53470
1.52493
1.52004
1.50049
1.48583
1.47605
1.46628
1.45650
1.44673
1.43695
1.42717
1.42229
1.40762
1.39785
1.39785
1.40274
1.42717
1.47605
1.57869
1.63245
1.72532
1.83773
1.91105
1.98925
2.04301
2.08211
2.10166
2.09677
2.08211
2.06745
2.01857
1.98436
1.94526
1.90127
1.86706
1.82796
1.79374
1.76442
1.73021
1.69599
1.67155
1.63734
1.61779
1.60313
1.58358
1.57869
1.57869
1.58358
1.59824
1.60802
1.61779
1.62757
1.64223
1.64223
1.64712
1.64712
1.64223
1.63245
1.62268
1.61779
1.59824
1.58358
1.59335
1.55914
1.54448
1.53470
1.51515
1.50049
1.49071
1.48094
1.47116
1.46628
1.45161
1.44673
1.43695
1.42717
1.41740
1.41740
1.45161
1.44184
1.48583
1.57380
1.63245
1.72532
1.83284
1.91593
1.99413
2.06745
2.08700
2.11144
2.13587
2.10166
2.07722
2.07722
2.00880
1.97458
1.93060
1.89638
1.86217
1.82796
1.79374
1.77419
1.73998
1.71554
1.69110
1.66667
1.64712
1.63734
1.62268
1.62268
1.62757
1.62757
1.63734
1.64712
1.65689
1.66178
1.67155
1.70577
1.67155
1.66667
1.67644
1.64223
1.63245
1.62757
1.60313
1.58847
1.58358
1.55914
1.54448
1.55425
1.51515
1.50538
1.50049
1.48094
1.47116
1.46139
1.45650
1.44673
1.43695
1.43206
1.42717
1.45161
1.42717
1.45161
1.52981
1.57380
1.65689
1.76442
1.84751
1.94037
2.01369
2.06745
2.09677
2.11144
2.10655
2.09189
2.06745
2.02835
1.99902
1.96970
1.92082
1.89638
1.86217
1.83284
1.80352
1.77419
1.74487
1.71554
1.69110
1.67155
1.64712
1.63734
1.62757
1.62268
1.62757
1.63734
1.63734
1.65200
1.66178
1.66667
1.67155
1.67155
1.69599
1.66178
1.65200
1.64712
1.62757
1.60802
1.59824
1.57869
1.56403
1.54936
1.53470
1.52004
1.51026
1.52004
1.48583
1.47116
1.46628
1.45161
1.44184
1.43695
1.43206
1.42229
1.41740
1.40762
1.40762
1.41740
1.44184
1.49071
1.55425
1.65689
1.73021
1.82307
1.92082
1.98436
2.03812
2.07722
2.09677
2.09189
2.08211
2.05279
2.02346
1.98436
1.95503
1.92571
1.88172
1.85239
1.83773
1.79374
1.77419
1.77419
1.71554
1.69599
1.68622
1.64712
1.63734
1.63734
1.62268
1.62268
1.63734
1.63245
1.64223
1.65200
1.65200
1.65689
1.65689
1.65200
1.64223
1.63734
1.64712
1.60802
1.60313
1.61290
1.56891
1.55425
1.56891
1.52004
1.51026
1.52004
1.48094
1.47116
1.48094
1.44673
1.44184
1.43695
1.42229
1.41740
1.41251
1.40274
1.39296
1.39296
1.38807
1.39296
1.41740
1.48583
1.52493
1.61290
1.72532
1.79374
1.88172
1.96970
2.01369
2.04790
2.07722
2.07234
2.05767
2.03812
2.00391
1.96970
1.93060
1.89638
1.86217
1.82796
1.79863
1.77419
1.74487
1.72043
1.69599
1.68622
1.64223
1.62268
1.62757
1.59824
1.59335
1.61290
1.59824
1.60802
1.62268
1.62757
1.63245
1.64223
1.64223
1.63734
1.63245
1.61779
1.60802
1.59824
1.58358
1.56403
1.54936
1.53470
1.52004
1.50538
1.49071
1.48094
1.46628
1.45650
1.44673
1.43695
1.45650
1.42229
1.41251
1.41740
1.39296
1.38807
1.38807
1.37830
1.36852
1.37341
1.36852
1.37830
1.40762
1.45161
1.52004
1.60313
1.70088
1.79374
1.88172
1.95015
2.00880
2.04790
2.06256
2.06256
2.05279
2.02346
1.98925
1.98436
1.91105
1.87683
1.83773
1.80841
1.78397
1.74976
1.72532
1.70088
1.67155
1.64712
1.62757
1.60802
1.59335
1.58358
1.59824
1.58358
1.58358
1.61290
1.60313
1.61290
1.64712
1.62757
1.62757
1.63245
1.62268
1.61290
1.60313
1.58358
1.56891
1.55914
1.53470
1.52004
1.51026
1.50049
1.48094
1.47605
1.45650
1.44673
1.43695
1.44184
1.41740
1.40762
1.43695
1.39785
1.39296
1.38807
1.37830
1.37341
1.36852
1.35875
1.35875
1.35875
1.36364
1.38807
1.43206
1.49560
1.57869
1.67155
1.76931
1.85728
1.96481
1.99413
2.03324
2.07722
2.05279
2.06256
2.01369
1.97947
1.95992
1.90616
1.87195
1.83284
1.79863
1.78397
1.73509
1.70577
1.68133
1.65200
1.62268
1.60802
1.58358
1.57380
1.56403
1.56403
1.56891
1.57380
1.58847
1.59824
1.60802
1.61779
1.62268
1.62757
1.62757
1.62268
1.61290
1.60802
1.59335
1.58358
1.56403
1.55425
1.54448
1.52493
1.51026
1.49560
1.48583
1.47605
1.47605
1.45161
1.44673
1.44184
1.42717
1.41740
1.41740
1.40762
1.40274
1.39785
1.38319
1.37830
1.37830
1.37341
1.37830
1.41251
1.44673
1.51026
1.58847
1.68133
1.77419
1.86217
1.93548
1.99413
2.03324
2.06256
2.04301
2.03324
2.00880
1.97458
1.93060
1.89150
1.86217
1.81329
1.77908
1.73998
1.70577
1.67644
1.67155
1.61290
1.58358
1.57380
1.54448
1.53470
1.55914
1.53959
1.54448
1.58847
1.56891
1.58358
1.61290
1.61290
1.61779
1.62757
1.62268
1.62268
1.61779
1.60313
1.58847
1.57380
1.55914
1.54448
1.52981
1.51515
1.50049
1.48583
1.48094
1.46628
1.45650
1.44673
1.43695
1.42717
1.43206
1.41251
1.40762
1.39785
1.38807
1.38807
1.40762
1.37830
1.39296
1.43206
1.47116
1.54448
1.65200
1.72532
1.81818
1.91593
1.96970
2.02346
2.05767
2.06256
2.05279
2.03324
1.99902
1.98436
1.92571
1.88172
1.84751
1.80841
1.79863
1.73509
1.70088
1.69599
1.64223
1.60802
1.59824
1.55914
1.53959
1.54448
1.53470
1.53959
1.55425
1.55914
1.56891
1.60313
1.59335
1.60313
1.62268
1.60802
1.60802
1.60802
1.59335
1.57869
1.56891
1.55425
1.53959
1.52493
1.53470
1.49071
1.48094
1.46139
1.45161
1.43695
1.42717
1.41740
1.41251
1.39785
1.39296
1.38807
1.37341
1.36364
1.35875
1.36364
1.36364
1.37830
1.45161
1.49560
1.57380
1.68622
1.76931
1.86706
1.97458
2.00391
2.04301
2.07722
2.07234
2.06256
2.03324
1.99902
1.96481
1.92082
1.88172
1.84262
1.80841
1.76931
1.73998
1.71065
1.71065
1.65200
1.62268
1.59824
1.57380
1.56403
1.54936
1.54448
1.54936
1.54936
1.55914
1.57380
1.58358
1.58847
1.59824
1.59824
1.59824
1.59824
1.61290
1.57869
1.56891
1.57869
1.54448
1.52493
1.52981
1.50049
1.48583
1.47116
1.46139
1.44673
1.43695
1.41740
1.41251
1.40274
1.39296
1.38319
1.37830
1.40274
1.36364
1.35386
1.37341
1.34897
1.37341
1.44184
1.47605
1.56403
1.66178
1.76442
1.85728
1.94037
2.00391
2.05767
2.07234
2.07722
2.06745
2.04790
2.01857
1.97458
1.93548
1.89638
1.86217
1.84262
1.79374
1.75464
1.74976
1.69599
1.66667
1.64712
1.60802
1.58847
1.58847
1.55425
1.55425
1.55425
1.55425
1.55425
1.56891
1.57380
1.58358
1.58847
1.59335
1.60313
1.59824
1.59335
1.58358
1.57380
1.56403
1.54936
1.52981
1.51515
1.49560
1.48094
1.47116
1.45650
1.44673
1.43695
1.41740
1.41251
1.39785
1.38807
1.40762
1.37341
1.36852
1.37341
1.35386
1.34897
1.36364
1.35875
1.38319
1.45161
1.51026
1.59824
1.70577
1.79863
1.89150
1.97458
2.02835
2.06256
2.10166
2.08211
2.06256
2.03324
1.99413
1.95992
1.91593
1.88661
1.84262
1.81818
1.76931
1.74487
1.71554
1.68133
1.65200
1.62757
1.59824
1.57869
1.56891
1.54936
1.54448
1.57380
1.55425
1.55914
1.57380
1.57380
1.58358
1.59335
1.59335
1.59335
1.59335
1.58847
1.57869
1.56891
1.55425
1.53959
1.52981
1.51026
1.49560
1.48094
1.46628
1.45650
1.44673
1.42717
1.41740
1.42229
1.39785
1.38807
1.39296
1.37341
1.35875
1.35386
1.33920
1.33920
1.34897
1.36852
1.41251
1.50538
1.56891
1.66667
1.77419
1.86217
1.94526
2.01369
2.04301
2.06745
2.07722
2.05279
2.03324
1.98925
1.95503
1.92571
1.87683
1.83773
1.81329
1.77419
1.73998
1.72043
1.68133
1.64712
1.62268
1.59335
1.56891
1.55914
1.53959
1.52981
1.55914
1.53959
1.54448
1.57380
1.56403
1.56891
1.59824
1.58358
1.58358
1.59335
1.57869
1.56891
1.56891
1.55425
1.53470
1.52004
1.50538
1.49560
1.51026
1.46139
1.45161
1.44184
1.42717
1.41740
1.43206
1.39785
1.38807
1.40274
1.36364
1.35875
1.35875
1.34409
1.33431
1.34897
1.35875
1.39296
1.45161
1.52981
1.61779
1.72532
1.81818
1.90616
1.98436
2.03324
2.06256
2.07722
2.07234
2.04790
2.05279
1.97947
1.94526
1.89638
1.85728
1.81818
1.78397
1.76931
1.71554
1.69110
1.66667
1.62757
1.59824
1.58358
1.55914
1.54448
1.53959
1.53959
1.53959
1.54936
1.56403
1.57380
1.58358
1.59335
1.59824
1.60313
1.59824
1.59824
1.58847
1.60313
1.56891
1.54936
1.56403
1.52493
1.51026
1.50538
1.48094
1.47116
1.46139
1.44184
1.43695
1.42717
1.41251
1.40762
1.40274
1.38807
1.37830
1.38319
1.36364
1.35386
1.35386
1.35386
1.37830
1.41740
1.47605
1.55914
1.67644
1.75953
1.85239
1.94037
2.00391
2.04790
2.07234
2.07722
2.06745
2.04301
2.01369
1.97947
1.93060
1.88661
1.84751
1.80841
1.76931
1.73021
1.70088
1.70088
1.63245
1.60313
1.60313
1.55914
1.54448
1.53470
1.53470
1.53959
1.57869
1.55914
1.57380
1.60313
1.59824
1.60802
1.64712
1.61779
1.61779
1.63734
1.60313
1.59335
1.59335
1.56891
1.55425
1.56403
1.52981
1.51515
1.51026
1.49071
1.48094
1.50049
1.45650
1.44673
1.46628
1.42717
1.41251
1.43695
1.40274
1.39785
1.39785
1.37830
1.37830
1.43695
1.44184
1.50538
1.61779
1.68133
1.77908
1.89638
1.95015
2.01369
2.06745
2.06745
2.07722
2.05767
2.05767
1.99413
1.96970
1.91593
1.87195
1.83284
1.78886
1.76931
1.71554
1.67644
1.64712
1.60802
1.57869
1.56403
1.53470
1.52981
1.52981
1.52981
1.53959
1.55425
1.56891
1.58847
1.60313
1.61290
1.62757
1.63734
1.63245
1.62757
1.62268
1.61290
1.59824
1.58847
1.57380
1.56403
1.54936
1.53470
1.52004
1.51026
1.49071
1.48094
1.48094
1.46139
1.45161
1.46139
1.43206
1.42229
1.44673
1.40274
1.39785
1.42717
1.41251
1.44184
1.51026
1.57869
1.67155
1.79374
1.86706
1.95015
2.02346
2.06256
2.09189
2.09677
2.08211
2.05767
2.02346
1.98436
1.94526
1.90127
1.85728
1.81329
1.77419
1.73998
1.70088
1.66667
1.63245
1.60313
1.57380
1.56403
1.53959
1.53959
1.53959
1.54448
1.54936
1.57380
1.57869
1.59335
1.60802
1.61779
1.62268
1.62268
1.61779
1.61779
1.60313
1.59335
1.57869
1.56403
1.55914
1.53959
1.52493
1.53470
1.49560
1.48094
1.48583
1.45161
1.44673
1.44184
1.42229
1.41251
1.40762
1.39296
1.38807
1.39296
1.39785
1.43206
1.50049
1.56403
1.66178
1.75464
1.85239
1.94526
2.01369
2.06256
2.09189
2.10655
2.09677
2.07722
2.04790
2.00880
1.97458
1.94526
1.88661
1.84262
1.80841
1.77419
1.75464
1.70088
1.67155
1.65200
1.61290
1.58847
1.59335
1.55914
1.55425
1.55914
1.56403
1.57380
1.61779
1.59824
1.60802
1.61779
1.62757
1.62268
1.64712
1.61779
1.60802
1.61290
1.58358
1.57380
1.56891
1.54448
1.52981
1.54936
1.50049
1.48583
1.50538
1.46139
1.44673
1.45161
1.42717
1.41740
1.41251
1.39785
1.39296
1.39296
1.39296
1.41251
1.45650
1.52004
1.60313
1.70088
1.82796
1.89150
1.97458
2.03324
2.07234
2.10166
2.09677
2.09189
2.05767
2.02346
1.98436
1.94526
1.91105
1.86217
1.82796
1.80352
1.75953
1.73021
1.70577
1.66667
1.63734
1.62268
1.59335
1.58358
1.56891
1.56891
1.56891
1.57380
1.58358
1.59335
1.60313
1.60802
1.62268
1.62268
1.62268
1.63734
1.61290
1.60313
1.62268
1.57869
1.56403
1.56891
1.53470
1.51515
1.53470
1.49071
1.47605
1.48583
1.45161
1.43695
1.43206
1.41740
1.41251
1.40274
1.38807
1.38319
1.37830
1.37830
1.38807
1.45650
1.48094
1.56403
1.66667
1.75953
1.85728
1.94037
2.00880
2.05767
2.08211
2.09189
2.08211
2.06256
2.02835
1.99413
1.95015
1.91593
1.88661
1.83773
1.80352
1.76931
1.73998
1.71065
1.70088
1.65200
1.63245
1.60802
1.58358
1.57869
1.56891
1.56891
1.57380
1.57869
1.58358
1.61779
1.60313
1.60802
1.62757
1.61290
1.60802
1.61779
1.59824
1.58358
1.58847
1.55425
1.53959
1.53470
1.51515
1.50049
1.49071
1.47116
1.45650
1.46139
1.43695
1.42717
1.43206
1.40274
1.39296
1.39785
1.38319
1.37341
1.37341
1.37341
1.38807
1.42717
1.48583
1.56891
1.68622
1.75464
1.85239
1.93548
1.99902
2.04790
2.06745
2.07722
2.06256
2.04301
2.00880
1.97458
1.94037
1.89638
1.86706
1.82307
1.79374
1.75953
1.72532
1.69110
1.69110
1.63245
1.60313
1.60802
1.56403
1.55914
1.57380
1.55425
1.55425
1.59824
1.57380
1.58358
1.61290
1.59824
1.60313
1.60313
1.59824
1.59824
1.58358
1.57380
1.56403
1.54936
1.52981
1.51515
1.50049
1.49071
1.47605
1.46139
1.45161
1.43695
1.45650
1.41740
1.40762
1.40274
1.39296
1.38319
1.37341
1.36364
1.35875
1.34897
1.36364
1.39296
1.44184
1.51026
1.60313
1.72532
1.79863
1.88661
1.96481
2.00880
2.04301
2.09189
2.05767
2.03812
2.04301
1.97947
1.96970
1.89638
1.86217
1.82307
1.79374
1.75464
1.72532
1.69599
1.65689
1.63245
1.62268
1.58358
1.56403
1.55425
1.54936
1.55425
1.55425
1.56403
1.57380
1.57869
1.58847
1.60802
1.60313
1.60313
1.60802
1.59824
1.59335
1.58358
1.56891
1.55914
1.55425
1.52981
1.51026
1.52004
1.48583
1.47116
1.48583
1.44673
1.43206
1.44184
1.41251
1.40762
1.40762
1.39296
1.38319
1.40762
1.36852
1.36852
1.36364
1.37830
1.40762
1.45650
1.52981
1.61779
1.74487
1.80352
1.89638
1.97458
2.01369
2.04301
2.06256
2.05279
2.03324
1.99902
1.96481
1.94037
1.88661
1.86217
1.80841
1.77908
1.73509
1.70577
1.69110
1.63734
1.60802
1.60802
1.55914
1.54936
1.54448
1.53470
1.53959
1.56891
1.55425
1.56891
1.59824
1.59824
1.60313
1.62268
1.61779
1.62268
1.61290
1.60802
1.59824
1.58358
1.56891
1.56891
1.53959
1.52981
1.51026
1.50049
1.49071
1.47116
1.46139
1.45650
1.44184
1.42717
1.42229
1.41251
1.40762
1.39296
1.38807
1.38319
1.37341
1.37830
1.39785
1.42717
1.48583
1.56403
1.65200
1.74487
1.84262
1.91105
1.97458
2.02346
2.04301
2.04790
2.03812
2.03324
1.97947
1.95015
1.90127
1.86217
1.81818
1.80352
1.73998
1.70088
1.68622
1.62268
1.58847
1.55425
1.52981
1.51515
1.50538
1.50538
1.51026
1.52004
1.53470
1.55914
1.56403
1.57869
1.59824
1.60313
1.60802
1.63245
1.60802
1.60313
1.58847
1.57869
1.56891
1.55425
1.53959
1.55425
1.51026
1.50049
1.50538
1.47116
1.46628
1.45161
1.44184
1.43695
1.42229
1.40762
1.40762
1.39296
1.38319
1.38319
1.38319
1.40274
1.44184
1.49560
1.56891
1.67155
1.75953
1.84751
1.92571
1.98925
2.03324
2.05279
2.06256
2.04301
2.02346
1.98925
1.95503
1.90616
1.88172
1.82307
1.80352
1.74487
1.71065
1.68622
1.63245
1.59824
1.56891
1.53959
1.52493
1.51026
1.50538
1.51026
1.51515
1.52981
1.54448
1.55914
1.57380
1.58847
1.59335
1.59824
1.60313
1.59824
1.59335
1.58358
1.57380
1.55914
1.55425
1.52981
1.52004
1.50049
1.49071
1.47605
1.46139
1.45161
1.43695
1.42717
1.42229
1.40762
1.40274
1.39785
1.38319
1.38319
1.39785
1.41251
1.45650
1.56403
1.61779
1.71554
1.80841
1.90127
1.98436
2.02835
2.06256
2.08211
2.07722
2.06256
2.04301
2.00391
1.96481
1.92082
1.88172
1.83773
1.79863
1.79863
1.72532
1.69599
1.67644
1.62757
1.60313
1.60802
1.55914
1.54448
1.54936
1.53470
1.54448
1.58358
1.55914
1.56891
1.59824
1.59335
1.60313
1.62757
1.60802
1.60313
1.61779
1.58358
1.57380
1.55914
1.54448
1.53470
1.51515
1.50538
1.52493
1.48094
1.48583
1.45161
1.44184
1.43206
1.42229
1.42717
1.40274
1.38807
1.40274
1.37830
1.38319
1.40762
1.45161
1.52493
1.60313
1.70088
1.80352
1.89638
1.97458
2.03324
2.06745
2.09189
2.09189
2.07722
2.07722
2.01857
1.98436
1.94037
1.89638
1.85728
1.82307
1.78397
1.76931
1.71554
1.68622
1.66667
1.62757
1.60313
1.59824
1.56891
1.55914
1.57869
1.55914
1.56403
1.60313
1.58358
1.59335
1.60802
1.61290
1.61779
1.61779
1.61290
1.60802
1.59824
1.58847
1.57869
1.55914
1.53959
1.56403
1.51515
1.50538
1.50538
1.47605
1.46139
1.45161
1.43695
1.42717
1.41740
1.40762
1.40274
1.38807
1.38319
1.41251
1.39785
1.42717
1.48094
1.55914
1.68133
1.74487
1.84262
1.95015
1.99413
2.04790
2.10166
2.08700
2.10655
2.06256
2.03324
1.99902
1.96481
1.93060
1.88661
1.84751
1.81329
1.77419
1.74976
1.71554
1.68622
1.65689
1.62757
1.60313
1.58847
1.57380
1.56403
1.58847
1.56403
1.56891
1.59824
1.59335
1.60313
1.61779
1.61779
1.61779
1.64223
1.60802
1.59824
1.61290
1.57869
1.56403
1.56891
1.53470
1.52004
1.50538
1.49071
1.48583
1.46139
1.45161
1.46139
1.43206
1.41740
1.41740
1.40762
1.40274
1.38807
1.38319
1.39296
1.41251
1.45161
1.51515
1.59335
1.69110
1.77908
1.87195
1.94526
2.00391
2.04790
2.08211
2.06745
2.06256
2.03812
2.00880
1.96481
1.93060
1.92082
1.85239
1.83773
1.77908
1.74976
1.73998
1.68133
1.65689
1.63245
1.60313
1.58847
1.57380
1.56403
1.56403
1.55914
1.56891
1.58358
1.58358
1.59335
1.62757
1.60802
1.61290
1.61290
1.61290
1.60313
1.59335
1.58358
1.56403
1.58358
1.53959
1.52981
1.51515
1.50049
1.48583
1.48094
1.46628
1.45161
1.44184
1.43206
1.45650
1.41251
1.40762
1.39296
1.38319
1.38319
1.40762
1.40274
1.44184
1.53959
1.58847
1.68133
1.79863
1.86217
1.94037
1.99902
2.03812
2.06256
2.06256
2.04790
2.02346
1.99902
1.95992
1.92082
1.88172
1.83773
1.81818
1.76931
1.73021
1.71065
1.66667
1.63734
1.62757
1.57869
1.56403
1.58358
1.54448
1.54448
1.54936
1.56403
1.57380
1.58358
1.59824
1.61779
1.61779
1.61779
1.65200
1.61779
1.61290
1.59824
1.58847
1.57869
1.55914
1.54936
1.54448
1.52004
1.50538
1.50538
1.48094
1.47116
1.49071
1.45161
1.43695
1.42717
1.42229
1.41740
1.40274
1.39296
1.39296
1.39296
1.40762
1.43695
1.49071
1.56403
1.64712
1.73998
1.83284
1.91105
1.96970
2.01369
2.03812
2.06745
2.03324
2.02346
1.97947
1.94526
1.90127
1.86217
1.81818
1.79863
1.73509
1.70088
1.69110
1.62757
1.59824
1.56403
1.54448
1.52004
1.51515
1.51515
1.51515
1.52004
1.53959
1.55425
1.56891
1.58847
1.59824
1.60802
1.64712
1.61779
1.61290
1.62268
1.59824
1.58847
1.57380
1.56403
1.54936
1.53470
1.52493
1.50538
1.49560
1.49071
1.47116
1.45650
1.46139
1.44184
1.42717
1.42229
1.40274
1.39785
1.40762
1.38807
1.39785
1.43206
1.47605
1.54936
1.66178
1.73021
1.82796
1.90616
1.97458
2.03324
2.05279
2.09189
2.05767
2.03324
1.99902
1.96481
1.92082
1.88172
1.83284
1.79863
1.75953
1.72532
1.67644
1.64223
1.60802
1.57380
1.54936
1.52493
1.51515
1.51026
1.53470
1.52004
1.53470
1.57380
1.56891
1.58358
1.62268
1.60313
1.60802
1.62757
1.60313
1.59824
1.58847
1.57869
1.56891
1.54936
1.52981
1.52981
1.50538
1.49071
1.48094
1.46628
1.45650
1.44673
1.43695
1.44673
1.41740
1.40762
1.39785
1.39296
1.39296
1.43695
1.43695
1.49560
1.56403
1.65689
1.75953
1.84751
1.93548
1.99413
2.04301
2.09189
2.07722
2.06745
2.04301
2.00880
1.97458
1.94037
1.89150
1.84751
1.80841
1.77419
1.73509
1.70088
1.66178
1.63245
1.60313
1.57380
1.57869
1.53959
1.53470
1.53470
1.53959
1.57380
1.55914
1.56403
1.60313
1.58847
1.59824
1.60313
1.60313
1.62757
1.59335
1.58847
1.57869
1.56403
1.55914
1.53959
1.52493
1.51026
1.49560
1.48094
1.46628
1.45161
1.44184
1.42717
1.41740
1.41251
1.39785
1.39296
1.38807
1.38319
1.38807
1.42229
1.46139
1.52981
1.63245
1.71554
1.81329
1.91105
1.97458
2.03324
2.06745
2.08211
2.08211
2.06256
2.03324
1.99902
1.95992
1.91593
1.87683
1.83284
1.79863
1.77419
1.73021
1.69599
1.67155
1.63245
1.61290
1.58358
1.56403
1.57869
1.54448
1.54448
1.54448
1.54936
1.55914
1.56891
1.59824
1.58847
1.59824
1.62268
1.60313
1.59824
1.58847
1.57869
1.56891
1.55425
1.53959
1.52981
1.51026
1.50049
1.49071
1.47605
1.46139
1.46139
1.43695
1.42229
1.44184
1.40274
1.39296
1.41251
1.37830
1.37830
1.38807
1.41251
1.48094
1.53959
1.62757
1.75464
1.82307
1.91105
1.97947
2.02835
2.07722
2.07722
2.07234
2.05279
2.02346
1.99413
1.95015
1.92082
1.87195
1.83773
1.80352
1.76442
1.73509
1.70088
1.67155
1.63734
1.63245
1.58358
1.56403
1.55425
1.54936
1.55425
1.54936
1.54936
1.57380
1.57380
1.58358
1.61290
1.58847
1.59824
1.59335
1.59335
1.57869
1.57380
1.55914
1.54448
1.53470
1.52004
1.50538
1.52004
1.47605
1.46628
1.45650
1.44673
1.43695
1.42229
1.41251
1.42229
1.39296
1.38807
1.37830
1.37341
1.37830
1.39785
1.44184
1.52493
1.59335
1.68622
1.77908
1.87683
1.95015
2.00880
2.07722
2.06256
2.08211
2.05767
2.03324
1.99902
1.95992
1.92571
1.88661
1.84751
1.80841
1.77419
1.73998
1.71065
1.67155
1.64223
1.61290
1.58847
1.57869
1.55914
1.54936
1.57380
1.54936
1.55914
1.56403
1.57380
1.59824
1.59335
1.59824
1.59824
1.59824
1.59824
1.59335
1.58358
1.57380
1.56403
1.56403
1.53470
1.52004
1.50538
1.49071
1.48094
1.46139
1.45161
1.43695
1.44673
1.42229
1.41251
1.40762
1.39296
1.38807
1.37830
1.37830
1.40274
1.42229
1.48094
1.54936
1.63734
1.73509
1.82796
1.91105
1.97947
2.02835
2.05279
2.06256
2.05767
2.03812
2.00391
1.96970
1.92571
1.89150
1.87195
1.81329
1.77419
1.73998
1.70577
1.66667
1.63734
1.60802
1.57869
1.56403
1.54448
1.53470
1.56891
1.53959
1.54448
1.58358
1.56891
1.60802
1.59824
1.60313
1.62757
1.60802
1.61290
1.60313
1.59335
1.58847
1.56891
1.55914
1.55425
1.53470
1.51515
1.50538
1.49560
1.48583
1.46628
1.45161
1.46628
1.43206
1.42229
1.42717
1.40762
1.39785
1.38807
1.38319
1.38807
1.40274
1.43695
1.52493
1.56891
1.66178
1.76442
1.83773
1.91593
1.96970
2.01857
2.03324
2.03812
2.02346
2.00391
1.97458
1.93548
1.89150
1.84751
1.80841
1.79863
1.72532
1.68622
1.67155
1.61290
1.57869
1.56403
1.52004
1.51026
1.53470
1.50538
1.50538
1.52004
1.53470
1.54448
1.56403
1.57869
1.59824
1.60313
1.60802
1.60802
1.60313
1.61779
1.58847
1.57869
1.56403
1.54936
1.53959
1.52493
1.51026
1.51515
1.48094
1.46628
1.46139
1.45161
1.43695
1.43206
1.42229
1.41740
1.40274
1.40274
1.39296
1.39296
1.42229
1.45161
1.51515
1.60313
1.68133
1.77908
1.86217
1.94526
2.00391
2.04301
2.05767
2.07234
2.04301
2.01857
1.99902
1.94037
1.89638
1.85239
1.80841
1.76931
1.73021
1.69110
1.65200
1.61779
1.58358
1.55914
1.52493
1.51515
1.50538
1.50538
1.51026
1.52493
1.53470
1.54936
1.56403
1.57380
1.60313
1.59824
1.60313
1.59824
1.59335
1.59824
1.57869
1.56403
1.56403
1.53959
1.52493
1.51026
1.49560
1.48094
1.47116
1.46139
1.44673
1.43695
1.42229
1.41740
1.42717
1.39785
1.38807
1.40762
1.38807
1.40762
1.45161
1.51515
1.63734
1.69599
1.79374
1.88172
1.95992
2.01857
2.05767
2.07722
2.07722
2.09189
2.03324
2.01369
1.95503
1.91593
1.87195
1.82796
1.78886
1.74976
1.71554
1.68133
1.67155
1.60802
1.58358
1.55425
1.53470
1.52493
1.52004
1.52004
1.52981
1.53959
1.54936
1.56403
1.57869
1.58847
1.60802
1.59824
1.59824
1.59335
1.58358
1.59335
1.56403
1.55425
1.53959
1.52981
1.51026
1.49560
1.48094
1.49560
1.45161
1.45650
1.43206
1.42717
1.40762
1.40274
1.39785
1.38319
1.37830
1.40274
1.40274
1.44673
1.50538
1.59335
1.68133
1.77908
1.87195
1.95503
2.04790
2.05767
2.09189
2.08700
2.07234
2.05279
2.01857
1.97947
1.93548
1.89638
1.85728
1.82307
1.77908
1.76931
1.71065
1.67644
1.64712
1.61290
1.58847
1.56403
1.54936
1.54448
1.53470
1.53959
1.54936
1.55425
1.56891
1.57869
1.58847
1.62757
1.59824
1.60313
1.59824
1.58847
1.58847
1.57380
1.55914
1.56891
1.53470
1.52004
1.50538
1.49071
1.47605
1.46139
1.45650
1.44184
1.42717
1.42229
1.40762
1.40274
1.39785
1.38319
1.37341
1.39296
1.39785
1.44184
1.50049
1.57869
1.70088
1.77908
1.87195
1.95015
2.01857
2.06745
2.08211
2.08700
2.07234
2.04790
2.01857
1.97947
1.96481
1.91105
1.86217
1.82796
1.78886
1.75464
1.72043
1.68622
1.64712
1.64223
1.59335
1.56891
1.54936
1.53959
1.54936
1.53959
1.54448
1.55425
1.56891
1.58358
1.58847
1.58847
1.59824
1.59824
1.59824
1.58847
1.57869
1.56891
1.55425
1.57380
1.52493
1.53470
1.50049
1.49071
1.47116
1.46139
1.45161
1.43695
1.42717
1.44184
1.40762
1.40762
1.38807
1.37830
1.36852
1.36852
1.39296
1.39785
1.45161
1.51515
1.60313
1.73021
1.80352
1.90127
1.96970
2.02835
2.06745
2.07722
2.07722
2.06256
2.02835
1.99902
1.95992
1.92082
1.87683
1.84262
1.80841
1.76442
1.73021
1.69599
1.66667
1.63245
1.60313
1.57869
1.56403
1.56891
1.54448
1.53959
1.54448
1.54936
1.55914
1.56891
1.57869
1.59335
1.59335
1.59824
1.60313
1.58847
1.57869
1.57869
1.55914
1.54936
1.53470
1.52004
1.50538
1.50538
1.47605
1.46628
1.47116
1.44184
1.42717
1.42229
1.41251
1.40274
1.38807
1.38319
1.38319
1.36364
1.35875
1.35875
1.38319
1.41251
1.47605
1.57869
1.64712
1.75953
1.84262
1.92571
1.99413
2.03812
2.06745
2.07722
2.06256
2.04301
2.01369
1.97458
1.93548
1.89638
1.85239
1.81329
1.77419
1.73998
1.70088
1.70088
1.63734
1.61290
1.58358
1.55914
1.54936
1.53959
1.53470
1.53470
1.54448
1.55914
1.56403
1.57380
1.58847
1.59335
1.63734
1.60313
1.60313
1.61779
1.58358
1.58358
1.55914
1.54448
1.53470
1.52493
1.51515
1.49560
1.48094
1.50538
1.45650
1.44673
1.43695
1.42717
1.41740
1.40762
1.39785
1.39296
1.38319
1.37341
1.36364
1.37830
1.39785
1.43695
1.50538
1.58358
1.69110
1.77908
1.86706
1.94526
2.00391
2.04301
2.07234
2.05767
2.04301
2.02346
1.97947
1.94037
1.90127
1.89150
1.82307
1.79863
1.73998
1.71065
1.66667
1.62757
1.59824
1.56403
1.54448
1.52493
1.51515
1.52004
1.52004
1.53470
1.54448
1.55914
1.57380
1.58847
1.60802
1.60802
1.60802
1.64223
1.60802
1.61779
1.59335
1.57869
1.56891
1.55425
1.54936
1.52493
1.51026
1.51026
1.49071
1.48094
1.46628
1.45161
1.47605
1.43206
1.42717
1.41740
1.40762
1.42229
1.39296
1.38807
1.39296
1.41251
1.45161
1.51515
1.59824
1.68622
1.77419
1.87683
1.93548
1.99413
2.04790
2.04790
2.05279
2.03812
2.00880
1.97947
1.96481
1.89638
1.85239
1.80841
1.76931
1.72532
1.70088
1.64712
1.61290
1.57380
1.54448
1.54936
1.51026
1.50538
1.50049
1.51026
1.52493
1.53959
1.56403
1.57869
1.59335
1.61779
1.61290
1.62268
1.61290
1.61290
1.63245
1.59335
1.58358
1.56891
1.55914
1.53959
1.52493
1.52493
1.50049
1.49071
1.47605
1.46628
1.45161
1.44673
1.43206
1.42717
1.41251
1.40762
1.39785
1.39785
1.41251
1.44184
1.49560
1.59335
1.65689
1.75953
1.85728
1.93548
2.00391
2.04790
2.07722
2.10655
2.07234
2.05279
2.01857
1.97947
1.95992
1.89150
1.84262
1.80352
1.76442
1.74487
1.68622
1.64712
1.61290
1.57869
1.57869
1.53470
1.52493
1.51515
1.51515
1.54448
1.53470
1.54936
1.56403
1.57869
1.61779
1.60313
1.60802
1.60313
1.60802
1.59824
1.58847
1.57380
1.56403
1.55425
1.53959
1.52493
1.51026
1.49560
1.48094
1.47116
1.46139
1.47116
1.43695
1.42717
1.44184
1.40274
1.39785
1.39296
1.40274
1.42717
1.47116
1.56403
1.62757
1.72532
1.81818
1.90616
2.00391
2.03812
2.10166
2.08700
2.08700
2.06256
2.03812
2.00391
1.95992
1.92082
1.87683
1.83773
1.79863
1.75953
1.72043
1.68622
1.65689
1.62757
1.60802
1.56891
1.54936
1.57380
1.53959
1.54448
1.54448
1.54936
1.56403
1.57380
1.61779
1.59824
1.60313
1.60802
1.60313
1.62757
1.58847
1.58847
1.56891
1.55425
1.53959
1.52493
1.51515
1.50049
1.49071
1.47116
1.45650
1.44673
1.46628
1.42229
1.41251
1.40274
1.39296
1.41251
1.38319
1.39785
1.42229
1.47116
1.54448
1.63245
1.72532
1.82307
1.91105
1.99902
2.03812
2.07234
2.08700
2.09189
2.08700
2.03812
1.99902
1.99413
1.95015
1.87683
1.83773
1.80841
1.76442
1.73021
1.69599
1.65689
1.64223
1.60313
1.61290
1.55914
1.55914
1.54448
1.54936
1.54936
1.55914
1.56403
1.58847
1.58847
1.59824
1.60313
1.60802
1.60313
1.60313
1.59335
1.58358
1.59335
1.55425
1.55425
1.52981
1.52004
1.50049
1.49071
1.48583
1.46628
1.45161
1.45650
1.42717
1.43206
1.41251
1.39785
1.39296
1.38319
1.38807
1.40274
1.44184
1.49560
1.57869
1.66667
1.76931
1.88172
1.94526
2.01369
2.05279
2.07722
2.08700
2.07234
2.04790
2.02835
1.98436
1.94526
1.90127
1.85728
1.81818
1.78886
1.76931
1.71065
1.68133
1.64712
1.61779
1.59335
1.56891
1.55914
1.54936
1.54448
1.55914
1.55425
1.56403
1.56891
1.57869
1.61779
1.59335
1.61290
1.59824
1.59824
1.59335
1.57869
1.60313
1.55914
1.54936
1.52981
1.53470
1.50538
1.49560
1.48094
1.46139
1.48583
1.44184
1.44184
1.42229
1.41740
1.39785
1.39296
1.41740
1.38319
1.39296
1.40762
1.44673
1.50538
1.59335
1.71554
1.77908
1.89150
1.95015
2.00880
2.04790
2.07234
2.09189
2.06256
2.03324
1.99902
1.96970
1.92082
1.87683
1.84262
1.82307
1.76931
1.75464
1.69599
1.66178
1.62757
1.59824
1.56891
1.55425
1.53470
1.52981
1.53470
1.53470
1.53959
1.54936
1.56403
1.57380
1.57869
1.58847
1.58847
1.58847
1.59335
1.58358
1.56891
1.56891
1.54448
1.53959
1.52004
1.51026
1.49560
1.48094
1.47116
1.45161
1.44673
1.43206
1.42229
1.41251
1.40762
1.39296
1.38319
1.37830
1.40274
1.38807
1.41251
1.48583
1.52493
1.60802
1.70088
1.80352
1.88172
1.96970
2.00880
2.04301
2.06256
2.05767
2.03812
2.00880
1.97947
1.94037
1.90127
1.87195
1.82307
1.80841
1.74487
1.71065
1.70577
1.64223
1.63734
1.58358
1.55914
1.54448
1.52981
1.53470
1.52981
1.53959
1.56403
1.55914
1.57380
1.57869
1.58847
1.59335
1.59824
1.58847
1.58358
1.57869
1.56891
1.57380
1.54448
1.53470
1.52004
1.51026
1.49560
1.48583
1.47116
1.46139
1.46139
1.44184
1.43206
1.42229
1.41251
1.42229
1.39785
1.39296
1.38319
1.38807
1.39296
1.42229
1.47605
1.54448
1.63245
1.74487
1.81818
1.90127
1.96481
2.01857
2.04301
2.08211
2.05279
2.02346
1.98925
1.95503
1.91593
1.87195
1.82796
1.78886
1.74487
1.73509
1.67155
1.63245
1.60313
1.57380
1.54448
1.52493
1.52004
1.51026
1.51515
1.52004
1.54936
1.55425
1.56891
1.58358
1.59335
1.61779
1.61290
1.61779
1.61290
1.60313
1.59824
1.58358
1.57380
1.55914
1.55425
1.53959
1.52004
1.50538
1.49560
1.48094
1.46628
1.45650
1.44673
1.44184
1.42717
1.41740
1.40762
1.40274
1.41251
1.39785
1.41251
1.44184
1.50538
1.56403
1.65200
1.73998
1.83773
1.92082
1.97947
2.02346
2.07722
2.05767
2.04790
2.02346
1.98925
1.95015
1.90616
1.87195
1.82307
1.78886
1.73998
1.70088
1.66178
1.62757
1.58358
1.55914
1.54448
1.51515
1.51515
1.50538
1.52004
1.52493
1.56891
1.55425
1.56891
1.58358
1.59824
1.60802
1.61290
1.61290
1.60802
1.60313
1.59335
1.57869
1.56403
1.55425
1.57380
1.52981
1.51515
1.50049
1.48583
1.51026
1.46139
1.48583
1.44184
1.43206
1.42229
1.41740
1.40762
1.40762
1.40274
1.43206
1.46628
1.52493
1.61290
1.71554
1.79863
1.88661
1.95992
2.01857
2.09189
2.08211
2.08211
2.06745
2.04301
2.02835
1.97947
1.91593
1.87683
1.83284
1.78886
1.74976
1.71065
1.67155
1.63734
1.60802
1.57869
1.55425
1.54448
1.52493
1.52493
1.55914
1.53959
1.55425
1.56403
1.57869
1.59335
1.60313
1.60802
1.62268
1.61290
1.60802
1.61779
1.58847
1.58358
1.56403
1.55914
1.53959
1.52493
1.50538
1.49071
1.48094
1.47116
1.46628
1.44673
1.43695
1.42229
1.41251
1.42717
1.40274
1.40762
1.42229
1.47116
1.53470
1.61290
1.71065
1.80841
1.89638
1.97947
2.03812
2.11144
2.10166
2.10166
2.08700
2.08700
2.02835
1.98436
1.94526
1.90127
1.85728
1.82307
1.78397
1.74976
1.71065
1.68133
1.64712
1.62268
1.62268
1.57380
1.56403
1.55914
1.55914
1.56403
1.57380
1.61290
1.59335
1.61290
1.62268
1.62757
1.64712
1.62757
1.62757
1.61290
1.60313
1.60313
1.57869
1.57380
1.54936
1.53470
1.52004
1.50538
1.49071
1.47605
1.46628
1.45650
1.46628
1.43695
1.42717
1.41251
1.40762
1.41251
1.41740
1.45161
1.49560
1.56891
1.68133
1.75464
1.86217
1.94037
2.03812
2.06256
2.09189
2.10655
2.10166
2.08700
2.05767
2.01857
1.98925
1.93060
1.89150
1.85239
1.81818
1.79374
1.74487
1.71554
1.69110
1.65200
1.62757
1.60313
1.58847
1.57380
1.56891
1.56891
1.59335
1.58358
1.60802
1.60802
1.62268
1.62268
1.62757
1.63245
1.62757
1.62268
1.61290
1.59824
1.58358
1.57380
1.55425
1.54448
1.52981
1.51515
1.50049
1.48583
1.50538
1.46139
1.45161
1.44184
1.43695
1.42229
1.43695
1.40274
1.40274
1.40274
1.42229
1.49071
1.52004
1.61290
1.70088
1.79863
1.88661
1.96970
2.03812
2.10166
2.09189
2.09677
2.08700
2.06256
2.02835
1.99413
1.95015
1.91593
1.87683
1.83284
1.80352
1.76931
1.73509
1.70577
1.67155
1.66178
1.61290
1.59824
1.57869
1.56891
1.58358
1.56891
1.57380
1.58358
1.59335
1.60313
1.60802
1.61290
1.62268
1.61779
1.61779
1.62268
1.59335
1.58358
1.56891
1.58358
1.53959
1.52981
1.51515
1.50049
1.50538
1.47605
1.46628
1.44673
1.44184
1.42717
1.41740
1.40274
1.39785
1.41251
1.38319
1.37830
1.40274
1.40274
1.44184
1.50049
1.58358
1.67644
1.77419
1.86706
1.94526
2.01857
2.05767
2.08211
2.08700
2.07722
2.04790
2.01857
1.97947
1.94037
1.92082
1.85728
1.82307
1.78886
1.75953
1.72532
1.69110
1.66667
1.63734
1.62268
1.58847
1.57380
1.56403
1.56403
1.56403
1.56891
1.57869
1.58358
1.59824
1.64223
1.61779
1.62268
1.61290
1.61290
1.60313
1.59824
1.58358
1.56403
1.54936
1.53959
1.52493
1.51515
1.51515
1.49071
1.48094
1.46628
1.45650
1.47605
1.43206
1.44673
1.41740
1.40762
1.40274
1.39296
1.38319
1.40762
1.38319
1.43695
1.44184
1.50538
1.58358
1.67644
1.76931
1.86217
1.96970
2.00391
2.05767
2.07234
2.07722
2.06256
2.04790
2.00880
1.96481
1.92571
1.91593
1.84262
1.80352
1.76931
1.73509
1.71065
1.66667
1.64223
1.60802
1.58358
1.56891
1.55914
1.54936
1.54936
1.55425
1.56403
1.57380
1.58358
1.59335
1.60313
1.61290
1.61290
1.61290
1.61290
1.60802
1.59335
1.57869
1.57869
1.55914
1.57380
1.52981
1.52493
1.50049
1.49071
1.47605
1.47605
1.45161
1.44184
1.43206
1.45161
1.41740
1.41251
1.39785
1.39296
1.38319
1.37341
1.37341
1.37830
1.41251
1.45161
1.52004
1.60802
1.70577
1.79374
1.88661
1.95992
2.01857
2.04301
2.08700
2.07722
2.03324
2.00391
1.96970
1.93060
1.88661
1.84751
1.82307
1.76931
1.73021
1.69110
1.65689
1.62757
1.59335
1.56891
1.53959
1.52981
1.52493
1.52004
1.55425
1.53959
1.57869
1.56891
1.58358
1.59824
1.60802
1.61779
1.61779
1.64223
1.60802
1.60313
1.58847
1.59335
1.55914
1.57380
1.52981
1.52004
1.50538
1.49071
1.48583
1.47116
1.46628
1.45650
1.44673
1.43206
1.42229
1.44673
1.40274
1.39296
1.38319
1.38807
1.37830
1.38807
1.41740
1.46628
1.53959
1.62757
1.72043
1.81818
1.91105
1.98436
2.04301
2.06256
2.07722
2.07234
2.05279
2.01369
1.97458
1.93060
1.88661
1.84751
1.80841
1.76931
1.73021
1.70577
1.65689
1.62268
1.62268
1.56403
1.56403
1.52493
1.52493
1.51515
1.52493
1.53470
1.54936
1.56403
1.57380
1.60313
1.59335
1.61290
1.60313
1.59824
1.58847
1.59824
1.56891
1.55425
1.54448
1.52981
1.51515
1.52493
1.48583
1.47605
1.49071
1.45161
1.44184
1.42717
1.41740
1.40762
1.40274
1.38807
1.38319
1.36852
1.36364
1.38807
1.37830
1.41251
1.46628
1.54936
1.63734
1.74487
1.83773
1.92082
1.99413
2.03812
2.07234
2.08211
2.07722
2.05279
2.01857
1.98436
1.94037
1.89638
1.85728
1.84262
1.77419
1.73998
1.73998
1.67644
1.66178
1.60802
1.60313
1.55425
1.54936
1.54448
1.52493
1.52493
1.52981
1.53959
1.54448
1.55914
1.56891
1.58847
1.58358
1.58847
1.58358
1.57869
1.56891
1.55914
1.54448
1.52981
1.51515
1.50049
1.48583
1.47116
1.49071
1.44673
1.43206
1.42229
1.41251
1.39785
1.39296
1.37830
1.37341
1.39785
1.35875
1.35386
1.34409
1.34897
1.37341
1.42229
1.49071
1.57869
1.68133
1.77908
1.87683
1.96970
2.02346
2.06256
2.08700
2.08211
2.07234
2.04790
2.01369
1.96970
1.93060
1.88172
1.83773
1.79863
1.75953
1.75953
1.69110
1.66178
1.63245
1.61290
1.57380
1.54936
1.52981
1.52004
1.52004
1.52004
1.52493
1.53470
1.54448
1.55425
1.56891
1.57380
1.58847
1.57869
1.57380
1.56891
1.55425
1.54448
1.52981
1.54936
1.50538
1.49071
1.47605
1.46628
1.45161
1.44184
1.42717
1.41740
1.41740
1.39296
1.38807
1.37830
1.36852
1.35875
1.35875
1.34409
1.36364
1.33431
1.34897
1.37830
1.45650
1.52004
1.61779
1.72532
1.82307
1.91593
1.99413
2.04301
2.08211
2.09189
2.08211
2.06256
2.03324
2.02835
1.95503
1.91105
1.86706
1.82796
1.78397
1.75953
1.71554
1.68133
1.64712
1.62757
1.58847
1.55914
1.53959
1.52493
1.51515
1.54448
1.51515
1.52493
1.53470
1.54448
1.55425
1.56403
1.56891
1.57380
1.56891
1.56891
1.57380
1.55425
1.54936
1.52981
1.51515
1.50049
1.49560
1.47605
1.46628
1.45161
1.43695
1.42229
1.41251
1.42229
1.39296
1.41740
1.37341
1.39296
1.35875
1.34897
1.33920
1.35875
1.33431
1.34897
1.37830
1.44184
1.52004
1.63734
1.72532
1.82796
1.91593
1.99413
2.05767
2.08211
2.09677
2.08700
2.06745
2.02835
1.99413
1.95015
1.90616
1.86706
1.82307
1.78886
1.74976
1.71065
1.70577
1.63734
1.60802
1.57869
1.55425
1.56403
1.52493
1.51026
1.54448
1.51515
1.52004
1.53470
1.54936
1.55914
1.58847
1.57869
1.58358
1.58358
1.57869
1.57380
1.59824
1.55425
1.54448
1.52493
1.51515
1.49560
1.48583
1.50049
1.46139
1.45161
1.44184
1.43206
1.42229
1.40762
1.39785
1.39296
1.37830
1.36852
1.36364
1.36364
1.34409
1.34409
1.35386
1.37341
1.42229
1.49071
1.59824
1.68133
1.80352
1.88172
1.95992
2.02346
2.05767
2.07722
2.09189
2.05767
2.03324
1.99413
1.95015
1.91593
1.86217
1.81818
1.77908
1.73998
1.70577
1.66178
1.63245
1.59824
1.56891
1.53959
1.52493
1.54936
1.51515
1.51026
1.54448
1.52981
1.54936
1.55914
1.56891
1.58358
1.61779
1.60313
1.61290
1.59824
1.58847
1.57869
1.56891
1.55425
1.54936
1.52981
1.52004
1.51515
1.49560
1.48583
1.50538
1.46139
1.45161
1.44184
1.42717
1.41740
1.41251
1.40274
1.38807
1.38319
1.37341
1.36364
1.39785
1.37341
1.39785
1.44673
1.52004
1.60802
1.70577
1.80841
1.89638
1.96970
2.04301
2.06256
2.07722
2.07234
2.05767
2.04301
1.98436
1.95503
1.89638
1.84751
1.80352
1.75464
1.72043
1.67644
1.63245
1.59824
1.56403
1.53470
1.51026
1.50049
1.49071
1.49071
1.49560
1.50538
1.51515
1.53959
1.55425
1.58358
1.57380
1.62268
1.59335
1.59335
1.58847
1.57869
1.57380
1.55914
1.53959
1.55425
1.51515
1.50538
1.49071
1.47605
1.46628
1.45161
1.45650
1.43206
1.42717
1.41251
1.40274
1.39296
1.37830
1.37341
1.38319
1.35875
1.37341
1.39785
1.45161
1.52004
1.61779
1.71554
1.81329
1.90616
1.97947
2.06745
2.07234
2.11144
2.08700
2.06256
2.04301
1.99902
1.95503
1.91105
1.86706
1.82307
1.77908
1.73509
1.69599
1.67155
1.62268
1.58358
1.57869
1.52981
1.51026
1.50049
1.48583
1.49071
1.50049
1.51026
1.52004
1.53959
1.55425
1.56891
1.57869
1.57869
1.58358
1.58358
1.58358
1.56891
1.58847
1.54448
1.53959
1.52004
1.50049
1.49071
1.48583
1.46139
1.46139
1.44184
1.46139
1.42229
1.41740
1.40274
1.39785
1.38319
1.37830
1.36364
1.36852
1.40762
1.42717
1.48583
1.56891
1.68133
1.77908
1.88172
1.96481
2.03324
2.08211
2.11144
2.11144
2.10655
2.07722
2.04790
2.00880
1.96481
1.92082
1.87195
1.83284
1.78886
1.75464
1.71554
1.67644
1.64223
1.60802
1.57869
1.55914
1.53470
1.53470
1.52004
1.52004
1.52981
1.53470
1.55425
1.56403
1.57869
1.58847
1.60313
1.59335
1.59335
1.59335
1.58358
1.57380
1.56403
1.54936
1.53959
1.52493
1.52493
1.50049
1.51026
1.47116
1.49560
1.44673
1.44184
1.42229
1.41740
1.40762
1.40762
1.38807
1.38319
1.37830
1.38807
1.40274
1.44673
1.52004
1.60802
1.73021
1.81818
1.94037
1.99902
2.05767
2.10655
2.12610
2.12610
2.11144
2.09189
2.05279
2.02346
1.96970
1.92571
1.87683
1.83773
1.79374
1.75953
1.72043
1.69110
1.65689
1.64712
1.59335
1.57380
1.55425
1.54448
1.55425
1.54448
1.58358
1.55914
1.57380
1.60313
1.59335
1.60313
1.61290
1.60802
1.62268
1.59824
1.59335
1.58358
1.56891
1.55914
1.54448
1.52981
1.54936
1.50538
1.50049
1.47605
1.46628
1.45161
1.44184
1.43695
1.41740
1.40762
1.39785
1.38807
1.38807
1.37830
1.40762
1.41251
1.47605
1.52981
1.62268
1.73509
1.82307
1.92571
1.99413
2.06256
2.09189
2.11144
2.10655
2.09189
2.06256
2.02835
2.00391
1.95015
1.90127
1.86706
1.83773
1.77908
1.74976
1.71065
1.67155
1.64223
1.61290
1.58358
1.56403
1.55425
1.54448
1.54448
1.53959
1.55425
1.55914
1.56403
1.57869
1.60313
1.59335
1.60313
1.61290
1.59824
1.59335
1.58847
1.57380
1.56403
1.55425
1.56891
1.52493
1.52004
1.50049
1.49071
1.48094
1.46628
1.47116
1.44184
1.44673
1.42229
1.40762
1.43206
1.39296
1.38319
1.37830
1.38807
1.44184
1.46139
1.52493
1.64712
1.71554
1.82307
1.90616
2.01369
2.04790
2.08700
2.11632
2.09677
2.08700
2.09189
2.02346
1.97947
1.96481
1.90127
1.88172
1.81818
1.78397
1.74487
1.70577
1.67644
1.64223
1.61290
1.58847
1.56403
1.55425
1.54448
1.57380
1.55425
1.55914
1.57380
1.58847
1.60313
1.60802
1.61779
1.62757
1.62757
1.62268
1.62757
1.62757
1.59824
1.58358
1.56891
1.56403
1.54448
1.52981
1.51515
1.50538
1.49071
1.51026
1.47116
1.45650
1.45650
1.44184
1.43206
1.42229
1.41251
1.40274
1.39785
1.41251
1.42229
1.46139
1.52004
1.62268
1.69599
1.78886
1.87683
1.95015
2.01857
2.05279
2.10166
2.07234
2.05767
2.02835
1.99413
1.95503
1.91105
1.88661
1.82796
1.78397
1.76931
1.70088
1.66667
1.62268
1.59824
1.55914
1.53959
1.52493
1.52493
1.52004
1.53959
1.53470
1.58358
1.56891
1.61779
1.60313
1.60802
1.61779
1.62268
1.62268
1.61779
1.61290
1.60313
1.59335
1.57869
1.56403
1.56403
1.53959
1.54936
1.51026
1.51515
1.48583
1.47116
1.46139
1.45650
1.44184
1.43695
1.42717
1.41740
1.44184
1.40274
1.41740
1.43206
1.48094
1.53959
1.62757
1.72043
1.81818
1.89638
1.97458
2.06256
2.06745
2.08211
2.08211
2.06745
2.03324
1.99413
1.95503
1.90616
1.86706
1.81329
1.77908
1.73998
1.69599
1.65689
1.61779
1.58358
1.55425
1.53470
1.52004
1.51026
1.51026
1.52004
1.52981
1.54448
1.55914
1.57380
1.59335
1.60313
1.60802
1.60802
1.64223
1.60802
1.59335
1.58847
1.57380
1.56403
1.54936
1.53470
1.52004
1.51515
1.49071
1.48094
1.46628
1.45161
1.44184
1.43206
1.44673
1.40762
1.39296
1.40274
1.38807
1.41251
1.43206
1.49071
1.56403
1.67644
1.75464
1.85239
1.94037
2.00880
2.05767
2.11144
2.10166
2.10655
2.06745
2.03812
1.99902
1.95503
1.90616
1.86706
1.82307
1.78397
1.74487
1.70577
1.67155
1.66178
1.61290
1.57869
1.55914
1.56891
1.53470
1.52981
1.53470
1.54448
1.55425
1.56891
1.58358
1.59335
1.60313
1.60313
1.61290
1.60313
1.59824
1.58847
1.57869
1.56891
1.55425
1.53959
1.52493
1.51026
1.50049
1.48583
1.50538
1.46139
1.44673
1.43695
1.42717
1.41740
1.40762
1.39785
1.39296
1.38807
1.40274
1.43206
1.48583
1.56403
1.65689
1.77908
1.85239
1.94037
2.01369
2.08211
2.09189
2.10166
2.09677
2.07722
2.04790
2.00880
1.96481
1.92082
1.88172
1.84751
1.83284
1.76442
1.73509
1.69110
1.66178
1.63245
1.60313
1.58847
1.55914
1.55425
1.53959
1.53959
1.54936
1.57380
1.57380
1.58847
1.60313
1.60802
1.61290
1.61779
1.61290
1.61290
1.59824
1.61290
1.56891
1.58358
1.54448
1.53470
1.51515
1.52493
1.49071
1.47605
1.46139
1.45650
1.45650
1.43206
1.42229
1.41251
1.41740
1.39785
1.38319
1.38807
1.40762
1.43206
1.49071
1.57380
1.66178
1.76931
1.86706
1.95015
2.01857
2.06745
2.10655
2.10166
2.09677
2.07722
2.04301
2.00880
1.96481
1.92571
1.87683
1.83284
1.82307
1.75953
1.72043
1.71554
1.65689
1.62757
1.59335
1.57380
1.55914
1.54448
1.54448
1.54448
1.55425
1.57380
1.56891
1.58358
1.59335
1.60313
1.62268
1.60802
1.61290
1.59335
1.61290
1.57869
1.56891
1.55425
1.53959
1.52493
1.51515
1.50049
1.51515
1.47116
1.46139
1.45161
1.43695
1.42717
1.41740
1.40762
1.40274
1.38319
1.37830
1.36852
1.37341
1.38807
1.42229
1.48094
1.58847
1.65689
1.75953
1.85728
1.94037
2.00880
2.04790
2.07722
2.07722
2.06256
2.04790
2.01369
1.97947
1.95992
1.89638
1.85239
1.81329
1.78397
1.73998
1.70577
1.67155
1.63734
1.60802
1.57869
1.55914
1.54448
1.55914
1.53470
1.53470
1.56891
1.55425
1.56403
1.57380
1.58358
1.58847
1.60313
1.59824
1.59824
1.58847
1.60802
1.56403
1.55914
1.56891
1.52981
1.51515
1.52493
1.50049
1.47605
1.46628
1.48583
1.44673
1.43695
1.42717
1.41740
1.40274
1.39296
1.38807
1.37830
1.37341
1.36852
1.36852
1.38319
1.41740
1.47116
1.55425
1.64712
1.74976
1.84262
1.93060
2.00391
2.04790
2.09189
2.09189
2.08211
2.06256
2.02835
1.98925
1.94526
1.90616
1.86217
1.82307
1.78397
1.74487
1.71065
1.67644
1.64712
1.61290
1.58358
1.56403
1.54448
1.52981
1.53470
1.53470
1.53959
1.54936
1.55914
1.57380
1.58847
1.59335
1.59824
1.60313
1.59824
1.59335
1.61779
1.57869
1.56403
1.55914
1.53470
1.54448
1.50538
1.49560
1.49071
1.47116
1.46139
1.45161
1.44673
1.43206
1.42717
1.41740
1.40762
1.39785
1.39296
1.38319
1.37341
1.39296
1.36852
1.38319
1.40274
1.44673
1.51515
1.60313
1.69599
1.79374
1.89150
1.95992
2.01857
2.05279
2.09677
2.09677
2.04790
2.03324
1.97947
1.96481
1.89638
1.85239
1.80841
1.76931
1.72532
1.69110
1.65689
1.62268
1.58847
1.55914
1.53959
1.54936
1.51026
1.51026
1.52004
1.52981
1.54448
1.55914
1.56891
1.58358
1.59335
1.60313
1.60313
1.60313
1.59824
1.58847
1.57869
1.57380
1.55914
1.57380
1.52981
1.54936
1.50538
1.49071
1.48583
1.47116
1.45650
1.44673
1.43695
1.44673
1.41740
1.41251
1.40274
1.41740
1.41740
1.38319
1.39785
1.37341
1.38319
1.41251
1.47116
1.53959
1.63245
1.74976
1.82796
1.91593
1.98436
2.02835
2.05279
2.06256
2.06745
2.02835
1.99413
1.96970
1.94037
1.86706
1.82796
1.79374
1.74487
1.70088
1.66178
1.62268
1.58847
1.58358
1.52493
1.50538
1.49560
1.49560
1.52004
1.52004
1.52493
1.56891
1.55914
1.57869
1.58847
1.59824
1.60313
1.60802
1.60802
1.59824
1.58847
1.57869
1.56403
1.54936
1.55914
1.52004
1.50538
1.49560
1.51026
1.47116
1.46139
1.46139
1.44673
1.42717
1.43206
1.40274
1.40274
1.38807
1.38319
1.36852
1.36852
1.36852
1.39296
1.44184
1.52493
1.58847
1.69110
1.78886
1.88661
1.96481
2.01857
2.09189
2.07722
2.07722
2.05767
2.02835
2.00880
1.95015
1.91105
1.86706
1.81818
1.77908
1.73509
1.70088
1.65689
1.62268
1.58847
1.55425
1.52981
1.51026
1.50538
1.49560
1.50049
1.50538
1.51515
1.52981
1.54448
1.55914
1.56891
1.57380
1.57869
1.58358
1.57869
1.56403
1.56403
1.53470
1.54936
1.51026
1.52493
1.49071
1.48094
1.47116
1.46139
1.45161
1.44184
1.43206
1.42717
1.41251
1.40274
1.40274
1.38807
1.38319
1.36852
1.36364
1.39296
1.38807
1.42717
1.49560
1.58358
1.68133
1.78397
1.88172
1.96970
2.03812
2.07722
2.10166
2.10166
2.09189
2.06745
2.02835
1.99413
1.95015
1.92571
1.86706
1.82307
1.77908
1.76442
1.70577
1.66667
1.63245
1.60313
1.57380
1.55425
1.53470
1.52981
1.55425
1.52981
1.52981
1.53959
1.55425
1.56403
1.58847
1.58358
1.58847
1.59335
1.59824
1.58847
1.57869
1.56891
1.56403
1.54448
1.53959
1.52004
1.52493
1.49560
1.48094
1.46628
1.45650
1.44673
1.43695
1.43206
1.41740
1.40274
1.39785
1.38319
1.40762
1.36852
1.36364
1.37341
1.39785
1.45161
1.52981
1.61779
1.72532
1.82796
1.92571
2.00391
2.09189
2.12610
2.11632
2.11632
2.10655
2.08211
2.03324
1.99413
1.96970
1.90616
1.86217
1.82796
1.78886
1.74976
1.71065
1.67644
1.64223
1.61290
1.58358
1.56891
1.54936
1.53959
1.53470
1.53959
1.56403
1.55425
1.56403
1.60313
1.58847
1.59824
1.60313
1.60802
1.60313
1.59335
1.58358
1.57380
1.56403
1.54936
1.53470
1.55425
1.51026
1.49560
1.50538
1.47605
1.46139
1.48094
1.44673
1.43206
1.41740
1.40762
1.39785
1.38319
1.37830
1.36852
1.36852
1.37341
1.40762
1.46628
1.53959
1.63245
1.73509
1.83773
1.96481
2.00880
2.05767
2.09189
2.12121
2.10166
2.08211
2.05767
2.01369
1.99413
1.93060
1.89150
1.84751
1.80841
1.76442
1.75953
1.69599
1.66667
1.62757
1.59824
1.56891
1.54936
1.53959
1.53470
1.52981
1.53470
1.54448
1.55425
1.55914
1.57380
1.58358
1.59335
1.59335
1.59335
1.59335
1.58358
1.57869
1.56403
1.54936
1.53959
1.52493
1.51026
1.52981
1.48583
1.47605
1.46139
1.47605
1.44673
1.42717
1.41251
1.40762
1.39785
1.42229
1.41251
1.37341
1.36852
1.35875
1.36852
1.39785
1.44673
1.52004
1.61290
1.70577
1.80841
1.90616
1.99413
2.04790
2.08211
2.09677
2.13099
2.08211
2.05279
2.01857
1.97947
1.93548
1.89638
1.85239
1.81329
1.77419
1.75953
1.69599
1.66178
1.62757
1.59824
1.56891
1.54936
1.54448
1.53470
1.53959
1.53470
1.55914
1.55914
1.56891
1.58358
1.59335
1.60802
1.60313
1.60313
1.59824
1.59335
1.58358
1.57380
1.56891
1.55425
1.53959
1.52004
1.51515
1.49560
1.49071
1.47605
1.46628
1.45650
1.44673
1.43695
1.42717
1.41740
1.40762
1.39785
1.40274
1.38319
1.37830
1.38807
1.39785
1.43206
1.49071
1.56891
1.69599
1.76442
1.87195
1.93548
2.00391
2.04790
2.07722
2.08211
2.07234
2.07722
2.01369
1.97458
1.93548
1.92082
1.84751
1.80352
1.76442
1.72532
1.69110
1.64712
1.61779
1.58847
1.55914
1.53959
1.56403
1.52493
1.52493
1.53470
1.54448
1.56403
1.59824
1.59335
1.60802
1.62757
1.62757
1.61779
1.62268
1.61779
1.61779
1.60313
1.58358
1.57380
1.58847
1.54936
1.53470
1.52004
1.51026
1.52981
1.49071
1.47605
1.46628
1.49071
1.44673
1.44184
1.43206
1.42229
1.41251
1.40762
1.40274
1.44184
1.45161
1.50538
1.57869
1.66667
1.77419
1.85728
1.94037
2.02346
2.05279
2.08211
2.11632
2.07722
2.05279
2.01857
1.97458
1.93060
1.88661
1.84262
1.79863
1.75953
1.72532
1.67644
1.64223
1.59824
1.56891
1.54448
1.52981
1.52004
1.51515
1.52004
1.52493
1.56403
1.55914
1.57380
1.59335
1.60313
1.61290
1.62268
1.61779
1.61290
1.60802
1.60313
1.59335
1.57869
1.56403
1.54936
1.53470
1.52493
1.51026
1.50049
1.48583
1.47605
1.46139
1.48094
1.44184
1.42717
1.42229
1.41251
1.40274
1.39785
1.40274
1.42717
1.47116
1.53959
1.62757
1.72043
1.81329
1.90616
1.98436
2.04301
2.07722
2.11632
2.09677
2.07722
2.05279
2.01857
1.96970
1.93060
1.88661
1.84262
1.80352
1.76442
1.73021
1.68622
1.65200
1.61779
1.58847
1.58847
1.54936
1.53470
1.52981
1.52981
1.53959
1.54936
1.56403
1.57869
1.59335
1.60313
1.61290
1.61290
1.61290
1.60802
1.59824
1.59335
1.57869
1.56891
1.55425
1.53959
1.52493
1.51515
1.49560
1.48583
1.47605
1.46139
1.44673
1.43695
1.42717
1.42229
1.41251
1.42717
1.39296
1.39296
1.41740
1.44184
1.49560
1.57380
1.66178
1.76931
1.86217
1.95015
2.02346
2.06745
2.12610
2.10655
2.13099
2.08211
2.04790
2.01369
1.96481
1.92571
1.88661
1.84262
1.80841
1.76931
1.73021
1.72043
1.67155
1.64223
1.61779
1.58847
1.58847
1.55914
1.55425
1.55914
1.57869
1.57380
1.59335
1.59335
1.60313
1.61290
1.61779
1.62268
1.62268
1.61779
1.60802
1.59824
1.58358
1.57380
1.55914
1.54448
1.53470
1.51515
1.53959
1.50049
1.48094
1.49071
1.47605
1.44673
1.43695
1.42229
1.42229
1.40274
1.42229
1.39785
1.41251
1.47116
1.49560
1.57380
1.66667
1.76442
1.88172
1.94526
2.04790
2.09189
2.10166
2.11144
2.10655
2.08700
2.05279
2.02835
1.97947
1.93548
1.92571
1.85239
1.81329
1.78397
1.74976
1.71554
1.70088
1.65200
1.62757
1.60313
1.59335
1.58847
1.56891
1.56403
1.59824
1.57869
1.59335
1.62757
1.60313
1.61290
1.62268
1.62757
1.62268
1.61290
1.60802
1.59824
1.58358
1.57380
1.55914
1.54448
1.52981
1.52004
1.52004
1.51515
1.51026
1.47116
1.46628
1.44673
1.44184
1.42229
1.41251
1.40762
1.39785
1.39296
1.39296
1.44184
1.46628
1.52493
1.60802
1.72043
1.80352
1.89638
1.97458
2.03812
2.07722
2.09677
2.10166
2.08700
2.09189
2.02835
1.98925
1.95503
1.91105
1.86706
1.83284
1.80352
1.76442
1.73021
1.71065
1.69599
1.63734
1.61290
1.59335
1.57869
1.56891
1.56403
1.56891
1.57869
1.58847
1.60313
1.60802
1.62268
1.62757
1.62757
1.62757
1.62757
1.61779
1.60802
1.59335
1.57869
1.59824
1.55425
1.53959
1.52981
1.51515
1.50049
1.51515
1.48094
1.47605
1.45650
1.44673
1.43695
1.42717
1.45161
1.40762
1.39785
1.41251
1.41740
1.39785
1.43206
1.48583
1.56403
1.61779
1.71554
1.80841
1.89638
1.96970
2.02835
2.09677
2.08211
2.07722
2.09189
2.04301
1.99413
1.95992
1.91593
1.87683
1.83284
1.79374
1.75464
1.72043
1.70088
1.65200
1.62757
1.59335
1.56891
1.55425
1.54936
1.55425
1.55425
1.56891
1.56891
1.58847
1.60313
1.61779
1.62757
1.62757
1.63245
1.63245
1.64712
1.62268
1.60802
1.59335
1.58358
1.56891
1.55425
1.54448
1.52493
1.51515
1.50538
1.49071
1.48094
1.47116
1.46628
1.45161
1.44184
1.43206
1.42717
1.41251
1.40274
1.40274
1.40274
1.42229
1.45650
1.51515
1.61779
1.70577
1.77419
1.86706
1.95503
2.00880
2.05279
2.07722
2.07722
2.06256
2.03324
1.99902
1.95015
1.91105
1.86217
1.82307
1.78397
1.74976
1.70577
1.67155
1.63734
1.61779
1.60313
1.55425
1.53959
1.52493
1.52493
1.52981
1.55914
1.55914
1.56891
1.58358
1.59824
1.63245
1.61779
1.60313
1.60802
1.59824
1.59335
1.61290
1.56891
1.55914
1.54448
1.53470
1.53959
1.51026
1.49071
1.48094
1.46139
1.45161
1.44184
1.43695
1.42717
1.41740
1.41251
1.40274
1.39296
1.41740
1.39296
1.41251
1.45161
1.51515
1.58847
1.72043
1.81818
1.87683
1.95503
2.01369
2.06256
2.08211
2.07722
2.06256
2.03812
2.00391
1.95992
1.94037
1.87683
1.83773
1.79374
1.75464
1.72043
1.68622
1.64712
1.61779
1.58847
1.58358
1.55914
1.55914
1.52493
1.52493
1.52981
1.53959
1.54936
1.57869
1.57380
1.58847
1.58847
1.59335
1.59824
1.61290
1.58358
1.56891
1.56891
1.55914
1.55425
1.51515
1.50049
1.49071
1.47116
1.46139
1.44673
1.43206
1.42229
1.41251
1.40762
1.39296
1.38319
1.37341
1.35875
1.35386
1.36364
1.37830
1.42229
1.49071
1.57380
1.67155
1.76931
1.88172
1.98436
2.01369
2.05767
2.09677
2.09189
2.07234
2.04790
2.01369
1.97458
1.93548
1.89150
1.84751
1.80352
1.77419
1.73998
1.70577
1.66667
1.64223
1.61290
1.58358
1.58358
1.56891
1.53470
1.52981
1.52981
1.53470
1.54448
1.55425
1.56403
1.57380
1.57869
1.58358
1.59335
1.58358
1.57380
1.57380
1.55914
1.54448
1.52981
1.51515
1.50538
1.52004
1.47116
1.46139
1.44673
1.43206
1.42229
1.41251
1.40274
1.39296
1.38319
1.39296
1.36364
1.35386
1.35386
1.36852
1.39296
1.44184
1.51515
1.60313
1.71065
1.81329
1.90616
1.97947
2.03324
2.07234
2.08700
2.07722
2.08700
2.02835
1.99413
1.95992
1.91105
1.87195
1.82796
1.78886
1.75464
1.72532
1.68622
1.65689
1.63245
1.62757
1.59335
1.54448
1.53470
1.52493
1.52004
1.52004
1.52981
1.53959
1.54936
1.55425
1.55914
1.57869
1.57380
1.57380
1.56891
1.56403
1.55425
1.53959
1.52981
1.51515
1.50049
1.48583
1.49071
1.46139
1.45161
1.43695
1.42717
1.41251
1.40274
1.39296
1.38807
1.37830
1.36852
1.35386
1.34897
1.36364
1.35386
1.37830
1.45650
1.50538
1.58358
1.68622
1.77908
1.87683
1.95992
2.01857
2.05767
2.07722
2.07722
2.06256
2.03812
2.00391
1.95992
1.92082
1.87195
1.83284
1.79863
1.75464
1.72043
1.68622
1.67155
1.63245
1.60802
1.56891
1.53470
1.52004
1.51026
1.51515
1.51515
1.52004
1.53470
1.54936
1.55914
1.56891
1.57380
1.57869
1.57869
1.57380
1.56891
1.58847
1.55914
1.55914
1.55425
1.54936
1.53959
1.52493
1.50049
1.48094
1.49071
1.44184
1.42229
1.40762
1.40762
1.39785
1.40274
1.36364
1.35386
1.35386
1.33920
1.33920
1.35386
1.38807
1.44673
1.52493
1.63734
1.72043
1.83773
1.90616
1.96481
2.01369
2.04301
2.05767
2.04301
2.01369
1.97458
1.94037
1.90127
1.85728
1.81818
1.77419
1.73998
1.69599
1.66178
1.61779
1.58358
1.55425
1.52981
1.51026
1.49560
1.48583
1.48583
1.49071
1.50538
1.51515
1.52493
1.53470
1.54936
1.55914
1.55914
1.56403
1.59335
1.57869
1.54936
1.53470
1.52493
1.51026
1.49560
1.48583
1.47605
1.47605
1.45650
1.47116
1.43695
1.41740
1.44184
1.40274
1.39296
1.37830
1.37341
1.36852
1.35386
1.35386
1.33920
1.34409
1.35875
1.39296
1.48094
1.52981
1.62757
1.74976
1.85728
1.92082
1.98436
2.03324
2.06256
2.06745
2.05767
2.03812
2.00391
1.96481
1.92082
1.87683
1.82796
1.79863
1.73998
1.70088
1.69599
1.62757
1.59335
1.57380
1.53470
1.51515
1.50538
1.52493
1.50049
1.50538
1.51515
1.53470
1.54448
1.55914
1.57380
1.57869
1.58847
1.58847
1.58358
1.57869
1.57380
1.57380
1.54936
1.53959
1.53470
1.52004
1.50538
1.49071
1.47605
1.47116
1.45650
1.44184
1.43206
1.42229
1.41740
1.40762
1.40274
1.39296
1.37830
1.37341
1.36364
1.36852
1.38807
1.46139
1.52004
1.59335
1.68622
1.78397
1.87195
1.95015
2.00880
2.04790
2.06745
2.06256
2.04790
2.04790
1.99413
1.94037
1.92082
1.86706
1.80352
1.75953
1.71554
1.67644
1.63734
1.59824
1.56403
1.54936
1.51515
1.49560
1.49071
1.48583
1.48583
1.52493
1.52004
1.53959
1.54448
1.56403
1.57869
1.58847
1.59335
1.59824
1.61779
1.61290
1.57869
1.56403
1.55914
1.56403
1.52493
1.52493
1.50049
1.50049
1.47605
1.46628
1.45161
1.44673
1.43695
1.43206
1.41740
1.40762
1.39296
1.38807
1.37830
1.38319
1.40274
1.44673
1.51026
1.59824
1.69110
1.78886
1.89638
1.96481
2.04790
2.06256
2.08211
2.08211
2.06745
2.06745
2.00391
1.95992
1.92571
1.87683
1.82796
1.78886
1.76442
1.70088
1.68622
1.62268
1.58847
1.55914
1.53470
1.51515
1.50049
1.49560
1.49560
1.50538
1.51515
1.55425
1.54448
1.55914
1.56891
1.60313
1.58847
1.58358
1.57869
1.57380
1.57869
1.55425
1.53959
1.54936
1.53470
1.50049
1.48583
1.50538
1.46139
1.44673
1.44184
1.43206
1.41740
1.40762
1.39785
1.38319
1.37341
1.36364
1.36364
1.36852
1.39785
1.45650
1.53470
1.63734
1.73509
1.84262
1.95992
2.03812
2.06256
2.11632
2.11632
2.10166
2.08700
2.07722
2.01857
1.98436
1.92571
1.87683
1.86217
1.79374
1.75953
1.71554
1.68133
1.65689
1.60802
1.58358
1.55914
1.53959
1.52981
1.51515
1.52004
1.52493
1.53959
1.54936
1.56403
1.57380
1.59335
1.61290
1.63245
1.59824
1.59824
1.59335
1.57869
1.56891
1.55914
1.54448
1.52493
1.52004
1.53470
1.49071
1.47605
1.49560
1.47605
1.44184
1.45650
1.43206
1.43695
1.39785
1.38807
1.38319
1.37830
1.38319
1.41251
1.45650
1.53959
1.62268
1.73021
1.84751
1.92571
2.00880
2.07234
2.11144
2.13099
2.13099
2.11632
2.08700
2.07722
2.01369
1.96481
1.92082
1.87683
1.83284
1.79374
1.76442
1.72532
1.69110
1.65689
1.62757
1.60313
1.57869
1.56403
1.55425
1.55425
1.55425
1.59335
1.57869
1.59335
1.60313
1.61290
1.61779
1.63245
1.62268
1.62268
1.63734
1.60313
1.59824
1.57869
1.56891
1.55425
1.54448
1.55425
1.51515
1.50049
1.49560
1.47116
1.46139
1.45161
1.44184
1.43206
1.41740
1.41251
1.39785
1.39296
1.39296
1.40762
1.44184
1.50049
1.58358
1.68133
1.78397
1.88172
1.97458
2.04790
2.09189
2.12121
2.14565
2.13099
2.09189
2.05767
2.01857
1.97458
1.92571
1.91593
1.84262
1.83284
1.76931
1.73509
1.70088
1.66667
1.63245
1.60313
1.58358
1.56891
1.55914
1.55425
1.55914
1.56403
1.57380
1.58358
1.59824
1.63734
1.60802
1.61779
1.61290
1.60802
1.60802
1.59824
1.58847
1.57380
1.58358
1.54448
1.53470
1.52004
1.50049
1.49071
1.48094
1.46628
1.45161
1.44673
1.43206
1.42229
1.41251
1.40762
1.39296
1.38319
1.37830
1.37830
1.39296
1.44184
1.46628
1.54448
1.63734
1.73998
1.84262
1.93548
2.00880
2.07234
2.09677
2.10655
2.10655
2.10166
2.05767
2.01857
1.97947
1.93548
1.88661
1.84751
1.80841
1.77419
1.73998
1.70088
1.66178
1.63245
1.59824
1.57380
1.55914
1.54936
1.53959
1.54448
1.54936
1.55914
1.56891
1.58358
1.59335
1.60802
1.61290
1.61779
1.61290
1.60802
1.59824
1.58358
1.58847
1.55914
1.54448
1.52981
1.52004
1.50538
1.49560
1.48583
1.47116
1.47116
1.45161
1.45650
1.42717
1.41740
1.40762
1.39785
1.38807
1.38319
1.37341
1.36364
1.37830
1.40274
1.45161
1.52004
1.61290
1.71554
1.81818
1.92082
2.02346
2.04790
2.09189
2.10166
2.10166
2.08700
2.05767
2.05279
1.98436
1.93548
1.89638
1.85239
1.81329
1.77419
1.76442
1.69599
1.67644
1.63245
1.60313
1.58358
1.56891
1.54936
1.53959
1.53959
1.53959
1.55425
1.56403
1.57380
1.58847
1.59824
1.60313
1.60802
1.60802
1.60802
1.59335
1.58847
1.60313
1.55914
1.54936
1.53470
1.52004
1.51026
1.49560
1.48583
1.47605
1.46139
1.44673
1.43695
1.42717
1.41251
1.40274
1.39785
1.39296
1.37830
1.37341
1.36852
1.36852
1.38319
1.41251
1.49071
1.54936
1.64223
1.74487
1.84751
1.93548
2.01369
2.07722
2.10166
2.11632
2.10166
2.07722
2.04301
2.02835
1.96970
1.92571
1.88172
1.84262
1.80841
1.76442
1.72532
1.68622
1.65200
1.62268
1.59824
1.60313
1.55425
1.54936
1.54448
1.55914
1.55425
1.56403
1.57869
1.58847
1.60313
1.60802
1.61290
1.61290
1.61290
1.60802
1.59824
1.58847
1.57869
1.56891
1.54448
1.53959
1.54936
1.51026
1.52004
1.48583
1.48094
1.46628
1.45161
1.44184
1.43695
1.42229
1.41251
1.40274
1.41251
1.38319
1.37830
1.40274
1.37830
1.39785
1.43695
1.50538
1.58847
1.68622
1.79374
1.90127
1.95992
2.02346
2.08700
2.09189
2.09677
2.08211
2.06745
2.01857
1.97458
1.93548
1.89150
1.84751
1.80841
1.76931
1.72532
1.68622
1.65689
1.61779
1.58847
1.56403
1.55425
1.53470
1.52981
1.53470
1.54448
1.55425
1.56891
1.58847
1.60313
1.64223
1.62757
1.63245
1.63734
1.63245
1.64712
1.61779
1.61290
1.59335
1.57869
1.56403
1.54936
1.52981
1.51515
1.50538
1.49560
1.48583
1.47605
1.47605
1.45161
1.45650
1.45650
1.42229
1.41251
1.39785
1.38807
1.38319
1.38807
1.40274
1.47116
1.51026
1.58847
1.72043
1.80841
1.89150
1.97947
2.01369
2.05767
2.07722
2.08211
2.06745
2.07722
2.00880
1.99413
1.93060
1.88172
1.83773
1.79863
1.75464
1.74487
1.67644
1.63734
1.63245
1.59824
1.54936
1.53959
1.52981
1.52493
1.53470
1.54448
1.55914
1.57380
1.59335
1.60313
1.61779
1.62268
1.62757
1.64223
1.64712
1.61290
1.59824
1.58358
1.60802
1.57380
1.57380
1.54936
1.52493
1.51515
1.50538
1.51515
1.48583
1.46628
1.48094
1.44673
1.43695
1.42717
1.41740
1.40762
1.43206
1.40274
1.41740
1.45161
1.51026
1.59335
1.69599
1.80841
1.88172
1.96481
2.06256
2.08211
2.11144
2.11632
2.10655
2.07722
2.04790
2.01369
1.95992
1.91593
1.90127
1.84262
1.78886
1.74976
1.71554
1.70577
1.64712
1.61290
1.58358
1.56403
1.54936
1.53959
1.53470
1.53959
1.54448
1.55914
1.56891
1.58358
1.59335
1.60313
1.62757
1.61290
1.62757
1.62757
1.59824
1.58358
1.56891
1.55914
1.53959
1.53959
1.51026
1.49560
1.48583
1.47116
1.45650
1.44673
1.43206
1.42717
1.41251
1.43206
1.39296
1.38319
1.36852
1.36852
1.37830
1.41251
1.45650
1.53470
1.62757
1.73021
1.84262
1.95992
2.00391
2.05767
2.09677
2.11144
2.10655
2.08700
2.05767
2.03812
1.97947
1.93060
1.88661
1.84751
1.80841
1.77419
1.73509
1.70088
1.66667
1.64712
1.60802
1.57869
1.55914
1.54448
1.53959
1.53959
1.54448
1.54936
1.56403
1.59824
1.61290
1.61290
1.60802
1.60313
1.60313
1.60313
1.59335
1.58847
1.56891
1.55425
1.53959
1.52493
1.51026
1.52981
1.48094
1.47116
1.45650
1.44673
1.43695
1.42229
1.41251
1.40274
1.39785
1.38807
1.37341
1.36852
1.37341
1.38319
1.41251
1.48094
1.55914
1.65200
1.75464
1.85728
1.95503
2.00880
2.06256
2.09189
2.10166
2.09189
2.07234
2.03324
1.99902
1.97458
1.91593
1.87195
1.83284
1.79374
1.75464
1.73509
1.68622
1.65200
1.61779
1.59824
1.57380
1.55425
1.55425
1.53470
1.53470
1.53959
1.54936
1.55914
1.58847
1.58847
1.58847
1.62757
1.59335
1.60313
1.58847
1.59824
1.56891
1.55914
1.54448
1.52981
1.51515
1.50049
1.48583
1.47605
1.47605
1.48094
1.43695
1.44673
1.41251
1.40274
1.39296
1.39785
1.39785
1.36364
1.35386
1.35386
1.35386
1.37341
1.41740
1.51515
1.56891
1.67644
1.76931
1.86706
1.95015
2.01857
2.06256
2.08211
2.08211
2.07234
2.04790
2.01369
1.97458
1.93060
1.89150
1.84751
1.82307
1.76931
1.73021
1.70577
1.66178
1.63245
1.60802
1.57380
1.54936
1.53959
1.54448
1.52004
1.52004
1.52493
1.53959
1.54936
1.56403
1.56891
1.57380
1.58358
1.57869
1.59824
1.59824
1.56403
1.55425
1.53959
1.55914
1.51026
1.49560
1.48583
1.48094
1.47116
1.45161
1.43695
1.42717
1.44673
1.43206
1.39296
1.38319
1.36852
1.36364
1.35875
1.34409
1.33920
1.34409
1.36852
1.40762
1.47605
1.55914
1.65689
1.75953
1.85239
1.93548
2.00880
2.05279
2.07722
2.08211
2.07234
2.04790
2.01369
1.96970
1.93060
1.88661
1.87683
1.80841
1.76931
1.73021
1.69599
1.67644
1.64712
1.60313
1.57380
1.54936
1.52981
1.53959
1.52004
1.52004
1.52493
1.53959
1.54936
1.56403
1.56891
1.58358
1.58847
1.59335
1.58847
1.58358
1.58358
1.57869
1.57380
1.53959
1.52981
1.51515
1.50538
1.48583
1.48094
1.45650
1.44673
1.43695
1.42717
1.41740
1.40762
1.39296
1.38807
1.37830
1.37341
1.36364
1.35386
1.34897
1.37341
1.38807
1.42717
1.50049
1.57869
1.67644
1.77908
1.87683
1.95992
2.01857
2.09189
2.08211
2.09677
2.06745
2.03812
2.03324
1.96481
1.92082
1.88172
1.82796
1.78886
1.74976
1.71554
1.67155
1.63734
1.61779
1.57380
1.58358
1.52981
1.52493
1.52004
1.52004
1.52493
1.53959
1.55425
1.56891
1.57869
1.59335
1.61779
1.60802
1.60802
1.60802
1.59824
1.58847
1.57380
1.56403
1.54936
1.53959
1.52493
1.51515
1.50049
1.49071
1.47605
1.47116
1.45650
1.44184
1.43206
1.42717
1.41251
1.40274
1.39296
1.37830
1.37341
1.36852
1.36852
1.37830
1.40762
1.45650
1.56403
1.65689
1.72043
1.81329
1.90616
1.96970
2.02835
2.07234
2.07722
2.05767
2.03324
2.00391
1.96481
1.92082
1.87683
1.83284
1.79374
1.74487
1.71065
1.66667
1.62757
1.59335
1.55914
1.53470
1.52004
1.51026
1.49071
1.49560
1.50538
1.52004
1.53470
1.54936
1.56891
1.58847
1.59335
1.60313
1.60802
1.60313
1.59824
1.59335
1.58358
1.56891
1.55425
1.54936
1.53959
1.51515
1.50049
1.49560
1.48094
1.46628
1.45161
1.45161
1.43206
1.43206
1.41251
1.41740
1.39785
1.38807
1.37830
1.37341
1.38319
1.41251
1.46139
1.56403
1.62268
1.72043
1.82307
1.91105
2.01369
2.03812
2.07234
2.10166
2.08211
2.05767
2.02346
1.98436
1.94037
1.90616
1.84751
1.80352
1.75464
1.72043
1.67644
1.67155
1.60313
1.56891
1.54448
1.54448
1.50538
1.49560
1.50049
1.50049
1.51026
1.52493
1.53959
1.55914
1.57380
1.59824
1.59335
1.59335
1.59335
1.59335
1.57869
1.59335
1.55914
1.54448
1.53470
1.51515
1.50538
1.49071
1.49071
1.49071
1.45650
1.44673
1.46139
1.45650
1.41251
1.40762
1.39785
1.38319
1.37341
1.36852
1.38319
1.41251
1.48094
1.54448
1.64223
1.74976
1.84262
1.95015
2.00880
2.05767
2.08700
2.10166
2.09189
2.07234
2.03812
1.99902
1.95992
1.91105
1.87195
1.81818
1.77908
1.73998
1.73021
1.69110
1.63245
1.59824
1.56891
1.54448
1.53470
1.51026
1.51515
1.51515
1.52493
1.54936
1.55914
1.55914
1.57380
1.59335
1.59335
1.59335
1.59335
1.59824
1.57869
1.57380
1.56403
1.54936
1.53470
1.52493
1.51026
1.49560
1.48583
1.47116
1.49071
1.44184
1.43695
1.42717
1.41251
1.41740
1.38807
1.38319
1.36852
1.36852
1.37341
1.40762
1.47116
1.52981
1.62757
1.73021
1.83284
1.92571
2.00880
2.06745
2.13587
2.14565
2.11632
2.11632
2.06745
2.03324
1.98925
1.94526
1.90127
1.86217
1.81818
1.77908
1.74487
1.70577
1.67155
1.63734
1.60802
1.58358
1.58847
1.55425
1.53470
1.53959
1.54448
1.54936
1.55914
1.57380
1.58847
1.59824
1.59824
1.60313
1.60802
1.59824
1.59824
1.58358
1.57869
1.56403
1.55425
1.53470
1.52981
1.51515
1.50049
1.49071
1.46628
1.45650
1.44673
1.44184
1.42717
1.41740
1.40274
1.39296
1.38807
1.37830
1.38807
1.41251
1.46139
1.53959
1.62268
1.72043
1.82307
1.91593
1.99413
2.05279
2.09677
2.11144
2.11144
2.09677
2.06745
2.03324
1.99413
1.95503
1.90127
1.87195
1.82796
1.78886
1.74976
1.71554
1.68133
1.65200
1.61779
1.59335
1.57869
1.56403
1.55425
1.54936
1.55425
1.56891
1.56891
1.58358
1.59824
1.60313
1.63245
1.61290
1.61779
1.63245
1.60802
1.59824
1.58358
1.57380
1.56403
1.54936
1.53470
1.52493
1.50538
1.49560
1.50049
1.47605
1.46628
1.45161
1.43695
1.44184
1.41740
1.40762
1.39785
1.39785
1.40762
1.44673
1.47116
1.54448
1.63245
1.73021
1.82796
1.92082
1.99413
2.05279
2.09189
2.11144
2.11144
2.09677
2.07234
2.03812
1.99413
1.95015
1.91105
1.90127
1.83284
1.79863
1.75464
1.72532
1.69110
1.65689
1.63245
1.62268
1.58358
1.57869
1.56891
1.56891
1.58358
1.59824
1.60313
1.61290
1.62757
1.66178
1.64223
1.64712
1.64712
1.64712
1.63734
1.62757
1.64223
1.60313
1.58847
1.59335
1.56403
1.54448
1.52981
1.52004
1.51026
1.50538
1.49560
1.51026
1.46139
1.45161
1.47605
1.43695
1.42717
1.42229
