HR_time,RR-interval,heart_rate
1.6011173407256496,754,84.31578947368419
2.312725047714827,716,84.69052631578947
3.0149694954015156,716,84.69052631578947
3.726577202390693,707,85.06526315789472
4.428821650077381,716,85.4501280227596
5.12170283846158,707,87.01153153153152
5.795857508240801,698,88.61603857378505
6.460648918717533,679,90.2654594232059
7.116077069891776,669,89.85906672914196
7.799594998973485,660,86.81253437043276
8.539292483870131,688,82.6686190265174
9.297716487371755,745,80.44631973745898
10.0374139722684,764,81.51360821180941
10.749021679257577,745,84.0081027063039
11.441902867641776,716,86.23040199536233
12.125420796723485,698,87.79180550413426
12.799575466502707,688,88.59360730593608
13.473730136281928,679,89.0
14.147884806061148,679,89.41784037558685
14.81267621653788,679,90.2654594232059
15.468104367712122,669,90.2654594232059
16.142259037491343,660,87.56556776556776
16.8725932630855,679,83.42165242165242
17.631017266587122,735,80.45498575498576
18.380078010786256,764,80.10834505391466
19.1197754956829,754,81.84323784143903
19.83138320267208,745,84.8099045081057
20.5055378724513,716,87.85643686681492
21.170329282928034,679,89.01144768152292
21.853847212009743,669,89.01144768152292
22.528001881788963,688,88.18721461187214
23.211519810870673,679,88.18721461187214
23.895037739952382,688,88.605054987459
24.559829150429113,688,90.30130275398668
25.20589404230087,669,92.4527934872663
25.842595674870132,650,92.4527934872663
26.507387085346863,641,91.58077879038939
27.172178495823594,669,89.42928805710977
27.855696424905304,669,88.60505498745898
28.539214353987017,688,87.78082191780821
29.222732283068726,688,87.78082191780821
29.906250212150436,688,88.18721461187214
30.580404881929656,688,88.59360730593608
31.254559551708876,679,89.41784037558685
31.919350962185607,679,89.8356807511737
32.58414237266234,669,90.68329979879275
33.23957052383658,669,92.01055746242157
33.87627215640585,660,91.59271708683472
34.55042682618507,641,88.4630467571644
35.28076105177922,679,84.43589743589743
36.01109527737338,735,81.80720545277508
36.750792762270024,735,82.9025900681597
37.45303720995671,745,83.9979746835443
38.1552816576434,707,86.22027397260273
38.83879958672511,707,86.60513883746759
39.53168077510931,688,86.99000370233247
40.22456196349351,698,86.59459459459458
40.91744315187771,698,87.81423677198325
41.582234562354444,698,89.03387894937191
42.247025972831175,669,87.55362946912243
42.97736019842533,669,83.20406218590504
43.75451072053193,735,79.1683356314564
44.522297983336045,783,78.15409061721138
45.28072198683767,773,80.15941059843499
46.001692953129336,764,83.37090408323284
46.685210882211045,726,87.95705545199291
47.3312757740828,688,91.62856041761552
47.96797740665206,650,93.32480818414322
48.61404229852381,641,91.62856041761552
49.29756022760552,650,87.95705545199291
50.01853119389719,688,83.37090408323284
50.77695519739881,726,79.53920153920154
51.563468978807904,764,77.53388155797794
52.34061950091451,792,77.21229167541244
53.10840676371862,783,78.15409061721138
53.86683076722024,773,78.15409061721138
54.643981289326845,764,76.94251943173208
55.449221589340915,783,75.7015608260676
56.245098630052496,811,76.01540155483633
57.01288589285661,801,78.21616693605506
57.752583377753254,773,81.56675517134917
58.45482782543994,745,84.38283954840917
59.14770901382414,707,86.60513883746759
59.83122694290585,698,85.50975422208299
60.561561168500006,688,82.07346078578955
61.3480749499091,735,76.81318681318682
62.181405027830635,792,74.265780730897
62.986645327844705,839,74.57214906136171
63.76379584995131,811,77.95676444597711
64.49413007554546,783,81.59955514365151
65.19637452323215,735,84.72948024948025
65.88925571161634,707,85.82486486486485
66.59150015930304,698,84.72948024948025
67.32183438489719,707,82.23498575498576
68.08025838839882,735,79.80376624279063
68.84804565120292,764,77.84772228674667
69.63455943261202,773,77.21229167541244
70.41170995471862,792,77.53388155797794
71.17013395822025,783,79.48992551402189
71.9004681838144,764,83.01525972758849
72.58398611289611,735,86.31155602388478
73.25814078267533,688,87.40694063926941
73.96038523036202,679,85.18464135021097
74.70008271525866,707,80.35518398586989
75.50532301527274,745,75.87518398586988
76.33865309319427,811,73.67441860465115
77.14389339320834,839,75.87518398586988
77.88359087810498,811,79.25979937048527
78.61392510369915,745,82.16284980841942
79.3348960699908,735,82.16284980841942
80.07459355488746,726,81.47823442380404
80.82365429908658,745,81.47823442380404
81.54462526537826,754,82.92025974025972
82.24686971306494,726,85.48053371286247
82.93038764214666,707,87.82478101485626
83.59517905262338,688,89.01144768152292
84.2693337224026,669,88.61603857378505
84.9622149107868,679,84.9019019019019
85.72063891428843,698,80.97017499427137
86.49778943639502,764,76.94251943173208
87.3030297364091,783,75.4093583636873
88.10827003642316,811,75.1029900332226
88.89478381783226,811,76.63615110126737
89.65320782133388,792,78.16931216931216
90.41163182483551,764,79.1111111111111
91.17005582833713,764,79.1111111111111
91.92847983183876,764,79.1111111111111
92.68690383534037,764,78.16931216931216
93.47341761674947,764,77.53388155797794
94.25056813885607,792,77.53388155797794
95.0089921423577,783,78.80531012940651
95.75805288655683,764,81.55037037037036
96.46029733424352,754,84.84666666666666
97.13445200402273,707,87.81333333333333
97.80860667380196,679,88.59360730593606
98.49212460288366,679,86.66720037952913
99.21309556917534,688,83.70053371286247
99.96215631337446,726,80.8106301106301
100.7205803168761,754,80.45498575498576
101.45091454247024,764,81.86024891288048
102.16252224945943,735,83.96987854251012
102.86476669714611,716,83.96987854251012
103.59510092274027,707,82.9025900681597
104.33479840763691,735,81.460564751704
105.07449589253356,745,82.18121252498335
105.78610359952273,745,84.40351181404178
106.46962152860445,716,87.03220379716413
107.14377619838366,688,88.59360730593608
107.81793086816289,679,88.19819819819818
108.51081205654708,679,87.01153153153152
109.21305650423378,698,85.4501280227596
109.92466421122295,707,84.69052631578947
110.63627191821213,716,85.4708002883922
111.31978984729385,716,87.03220379716413
111.99394451707306,688,88.18721461187214
112.67746244615478,679,87.79180550413426
113.37034363453897,688,86.23040199536234
114.08195134152815,698,85.07539118065432
114.79355904851732,716,84.31578947368419
115.50516675550651,716,85.4708002883922
116.18868468458821,716,87.03220379716413
116.86283935436744,688,88.59360730593608
117.53699402414665,679,87.81333333333333
118.23923847183335,679,86.62666666666667
118.94148291952003,707,84.34461538461538
119.67181714511419,707,84.34461538461538
120.37406159280087,735,83.96987854251012
121.08566929979006,707,85.4501280227596
121.77855048817425,716,84.71038776301933
122.49952145446592,698,86.68963164737812
123.16431286494266,726,89.23653148839561
123.80101449751191,669,94.35781020967433
124.40962635217372,641,95.22982490655124
125.05569124404546,613,92.68292506553375
125.74857243242967,650,88.3013866039953
126.45081688011635,698,85.0851246051246
127.17178784640802,707,84.32552289815447
127.8833955533972,726,84.71038776301933
128.57627674178138,716,85.07539118065432
129.28788444877057,698,86.63679468942627
129.9620391185498,716,89.18369453044374
130.59874075111907,679,91.16293841480254
131.2635321615958,641,90.7565457207386
131.9470500906775,669,87.82478101485626
132.6492945383642,688,85.48053371286247
133.37026550465586,707,83.25823442380404
134.1099629895525,726,83.25823442380404
134.81220743723918,745,83.9979746835443
135.51445188492588,707,87.04450704225351
136.1792432954026,707,88.23117370892018
136.85339796518184,669,89.01144768152292
137.53691589426353,679,87.40694063926941
138.23916034195022,688,86.60513883746759
138.93204153033443,707,85.82486486486485
139.63428597802113,698,85.82486486486485
140.3365304257078,707,85.44
141.0387748733945,707,86.22027397260273
141.7222928024762,707,87.40694063926941
142.39644747225543,688,88.18721461187214
143.07996540133715,679,87.40694063926941
143.78220984902381,688,86.22027397260274
144.4844542967105,707,85.44
145.1866987443972,707,85.82486486486485
145.8795799327814,707,86.20972972972973
146.5724611211656,698,86.99000370233246
147.2559790502473,698,87.79180550413426
147.93013372002653,688,88.59360730593608
148.60428838980576,679,89.84761904761903
149.25971654097998,679,89.44122635355511
149.9432344700617,660,88.25455968688844
150.6454789177484,688,84.44027397260274
151.39453966194753,707,80.60857142857142
152.1810534433566,754,77.86351118760757
152.9582039654632,792,77.86351118760757
153.70726470966235,783,80.17519949929587
154.42823567595403,754,82.92025974025972
155.1304801236407,726,84.70025974025972
155.8327245713274,707,85.44
156.53496901901408,707,84.34461538461538
157.26530324460825,707,83.96987854251012
157.9769109515974,735,83.23013828276986
158.69788191788908,716,84.71038776301933
159.39076310627328,726,85.86539857772733
160.074281035355,698,86.60513883746759
160.7765254830417,688,85.84553713049746
161.48813319003085,707,83.96987854251012
162.218467415625,716,82.87449392712551
162.94880164121918,735,82.15384615384616
163.67913586681334,735,83.24923076923076
164.3813803145,735,84.72948024948025
165.0742615028842,707,86.20972972972973
165.76714269126842,698,85.83499288762445
166.4787503982576,698,84.71038776301933
167.19972136454925,716,83.5857826384142
167.92069233084092,726,83.5857826384142
168.6323000378301,726,84.32552289815447
169.3345444855168,716,85.4501280227596
170.02742567390098,707,85.82486486486485
170.72967012158767,698,85.4501280227596
171.44127782857686,707,84.32552289815447
172.16224879486853,716,83.9507860560492
172.8738565018577,726,84.32552289815447
173.57610094954438,716,85.4501280227596
174.2689821379286,707,86.20972972972973
174.9618633263128,698,85.46998946998946
175.68283429260444,698,82.03369603369603
176.46934807401354,726,78.90377092786731
177.24649859612015,792,78.20148587115187
177.9861960810168,783,80.87817760047517
178.69780378800596,745,84.40351181404178
179.38132171708767,716,86.23040199536234
180.07420290547188,688,86.23040199536234
180.78581061246106,698,84.35474340737498
181.5161448380552,716,82.87449392712551
182.24647906364936,735,82.50949050949052
182.96745002994103,735,82.50949050949052
183.6977842555352,726,81.82487512487512
184.4468449997343,735,80.78461538461538
185.19590574393345,754,78.23720930232557
186.00114604394753,754,77.90757967269595
186.75957004744916,811,78.94783941295569
187.4805410137408,764,81.49524549524548
188.21087523933497,726,83.23013828276986
188.92248294632415,735,83.23013828276986
189.64345391261583,716,83.23013828276986
190.37378813820996,726,82.86513486513486
191.09475910450163,735,82.86513486513486
191.8157300707933,726,83.96051948051948
192.51797451848,726,83.60487512487512
193.24830874407414,707,81.29318681318682
194.03482252548324,735,77.36491095111785
194.8494260847998,792,74.5320197044335
195.66402964411637,820,74.83838803489822
196.44118016622295,820,77.67127928158257
197.1715143918171,783,81.22481830154626
197.8831220988063,735,83.23013828276986
198.60409306509797,716,82.88349758169878
199.3437905499946,726,81.14860479417442
200.10221455349622,745,78.8369164824861
200.88872833490532,764,77.22751322751323
201.67524211631442,792,76.592082616179
202.452392638421,792,78.9037709278673
203.17336360471268,783,82.34006436416075
203.86624479309688,726,84.34538434538433
204.58721575938856,698,83.3051246051246
205.33627650358767,726,80.17519949929587
206.11342702569428,754,78.16987951807228
206.8905775478009,783,77.51866000587717
207.658364810605,783,78.48372024684102
208.40742555480412,773,80.8540436456996
209.1190332617933,754,83.28526315789472
209.82127770948,716,84.69052631578947
210.53288541646918,707,84.69052631578947
211.24449312345834,716,83.59514170040485
211.9748273490525,716,82.52785322605442
212.71452483394916,735,81.80720545277508
213.44485905954332,745,81.460564751704
214.18455654443994,735,81.460564751704
214.9242540293366,745,81.11392405063292
215.66395151423325,745,81.460564751704
216.3942857398274,745,82.52785322605442
217.10589344681657,735,83.96987854251012
217.80813789450326,716,85.84553713049746
218.49165582358498,707,86.60513883746759
219.18453701196918,688,86.60513883746759
219.88678145965585,698,85.0851246051246
220.60775242594752,707,83.96051948051948
221.3287233922392,726,83.5857826384142
222.04033109922838,726,84.71038776301933
222.7332122876126,716,87.05463506501312
223.3980036980893,698,90.36113661300074
224.03470533065857,669,93.85990811177223
224.65268044462286,641,95.18716577540106
225.28938207719213,622,93.03567504212144
225.97290000627382,641,88.77730183637982
226.684507713263,688,83.73590750086784
227.44293171676463,716,80.21057328730124
228.22008223887124,764,78.15409061721138
228.98786950167533,783,77.83250073464589
229.75565676447945,773,78.46793134598012
230.51408076798108,773,80.52441401606998
231.22568847497027,764,84.14230019493176
231.89984314474947,716,87.43859649122805
232.5739978145287,679,89.0
233.24815248430792,679,87.07359307359306
233.9691234505996,679,84.79154179154179
234.69945767619373,726,82.16284980841942
235.43915516109038,735,81.1225900681597
236.18821590528952,745,81.1225900681597
236.9185501308837,754,81.82487512487512
237.63952109717533,735,82.86513486513486
238.360492063467,726,84.34538434538433
239.0533732518512,726,86.27179127179127
239.72752792163044,698,88.61603857378505
240.39231933210718,679,88.61603857378505
241.08520052049136,669,85.9873465906627
241.824898005388,698,81.3314109769806
242.6114117867971,745,77.01827025004677
243.42601534611364,792,74.25302283922973
244.2499821647327,820,74.87323189846319
245.01776942753682,830,78.80150776053213
245.72001387522351,773,83.39364535266974
246.4128950636077,707,85.82486486486485
247.1151395112944,698,85.4501280227596
247.82674721828357,707,84.69052631578947
248.53835492527276,716,83.9507860560492
249.25932589156443,716,83.23013828276986
249.98966011715856,726,83.23013828276986
250.70126782414775,735,83.59514170040485
251.41287553113693,716,83.24850099933377
252.15257301603359,716,81.84323784143903
252.9016337602327,745,80.7759493670886
253.64133124512935,754,80.4379746835443
254.3903919893285,745,81.84323784143903
255.10199969631768,754,83.28526315789472
255.80424414400434,716,86.25192982456139
256.4783988137836,707,88.23117370892018
257.1431902242603,679,89.41784037558685
257.81734489403954,669,89.41784037558685
258.49149956381876,679,88.19819819819818
259.18438075220297,679,86.63679468942627
259.8959884591921,698,85.83499288762445
260.5888696475763,716,85.4501280227596
261.291114095263,698,86.60513883746759
261.9746320243447,707,87.82478101485626
262.6394234348214,688,89.42928805710977
263.3042148452982,669,89.8356807511737
263.9783695150774,669,89.01144768152292
264.6618874441591,679,88.18721461187214
265.34540537324085,688,88.18721461187214
266.01956004302,688,88.59360730593608
266.69371471279925,679,88.59360730593606
267.377232641881,679,87.40694063926941
268.07947708956766,688,86.22027397260274
268.7817215372543,707,84.70025974025972
269.50269250354603,707,85.88692640692639
270.17684717332526,726,86.66720037952913
270.86036510240694,679,88.59360730593608
271.5345197721862,688,87.40694063926941
272.23676421987284,679,85.53128205128205
272.967098445467,707,82.9025900681597
273.7067959303637,735,80.79296043853006
274.4652199338653,745,81.14860479417442
275.18619090015693,764,82.97549497549497
275.87907208854114,726,85.46998946998946
276.57195327692534,698,86.20972972972973
277.27419772461207,698,85.4501280227596
277.9858054316012,707,84.69052631578947
278.6974131385904,716,82.58089668615983
279.45583714209204,716,82.21589326852484
280.1768081083837,764,83.37090408323284
280.86032603746537,726,87.085040755116
281.52511744794214,688,86.72939639947164
282.2554516735363,669,83.83949279723927
283.0138756770379,735,80.45498575498576
283.76293642123704,764,79.77037037037036
284.5119971654362,754,81.50526315789472
285.22360487242537,754,84.88977020014825
285.8883962829021,716,87.45004417275099
286.57191421198377,669,86.72939639947164
287.30224843757793,688,84.0295047418335
288.0325826631721,735,80.81801125703565
288.8003699259762,735,80.47137055596457
289.54006741087284,773,80.47137055596457
290.270401636467,745,82.9025900681597
290.9726460841537,735,83.96987854251012
291.6842537911429,707,84.32552289815447
292.40522475743455,716,82.54552289815447
293.1542855016337,726,81.47823442380404
293.8939829865303,754,81.1225900681597
294.6243172121245,745,80.47137055596457
295.3921044749286,735,79.1683356314564
296.1692549970352,773,77.51866000587715
296.9464055191418,783,78.16987951807228
297.69546626334096,783,79.81955514365153
298.42580048893507,754,81.46923076923076
299.15613471452923,735,82.15384615384616
299.8864689401234,735,81.80720545277508
300.6261664250201,735,81.460564751704
301.3658639099167,745,81.460564751704
302.09619813551086,745,82.16284980841942
302.8171691018025,735,82.16284980841942
303.5568665866992,726,81.47823442380404
304.30592733089827,745,80.7759493670886
305.04562481579495,754,81.47823442380404
305.7665957820866,745,83.6430992886689
306.4594769704708,726,85.86539857772733
307.1429948995525,698,86.60513883746759
307.8452393472392,688,85.12488935721812
308.5755735728334,707,82.23498575498576
309.333997576335,735,79.80376624279063
310.1017848391391,764,78.78952122854561
310.8602088426407,773,79.80376624279063
311.59054306823487,764,83.01525972758849
312.2740609973166,735,87.15917507150382
312.9294891484908,688,91.65515670181382
313.5568275217576,660,92.06154939587775
314.23098219153684,632,88.58523836513635
314.97067967643346,679,81.83405311491686
315.766556717145,745,77.00459575057576
316.5717970171591,801,76.01540155483633
317.3395842799632,811,77.25636016050082
318.0980082834649,773,78.78952122854561
318.8564322869665,764,79.1111111111111
319.6148562904681,764,78.78952122854561
320.3826435532722,764,78.46793134598012
321.1504308160763,773,78.14634146341463
321.91821807888044,773,78.14634146341463
322.68600534168456,773,77.83250073464589
323.46315586379114,773,77.51866000587715
324.2403063858978,783,77.51866000587717
325.00809364870184,783,77.83250073464589
325.77588091150596,773,78.79756097560974
326.5249416557051,773,80.13339587242027
327.25527588129927,754,81.1225900681597
327.9949733661959,735,80.79296043853006
328.75339736969755,745,78.53775681862055
329.5492744104091,764,76.62919389978212
330.3451514511207,801,76.30760401721665
331.1129387139248,801,77.54856262288112
331.87136271742645,773,79.11915085817523
332.6204234616256,764,80.45498575498576
333.35075768721975,754,82.18987854251012
334.0623653942089,735,84.35474340737498
334.7552465825931,716,85.83499288762445
335.4481277709773,698,86.20972972972973
336.150372218664,698,84.38283954840917
336.89006970356064,707,81.25291444258045
337.6672202256672,745,77.61012374490602
338.4724605256813,783,76.62092954916659
339.2402477884854,811,78.6262495303902
339.96121875477706,773,83.45570689473128
340.6353734245563,726,87.07359307359306
341.3095280943355,679,88.59360730593606
341.99304602341726,679,87.79180550413426
342.6859272118014,688,86.60513883746759
343.38817165948814,698,85.82486486486485
344.0904161071748,707,84.70025974025972
344.8113870734665,707,82.92025974025972
345.5604478176656,726,81.14025974025972
346.30950856186473,754,80.4379746835443
347.0492060467614,754,82.2179746835443
347.7514504944481,745,86.47449642267473
348.3975153863198,707,91.80015810276679
349.0154905002841,650,95.68379446640316
349.6334656142484,622,96.60786974219809
350.2608039875152,622,96.60786974219809
350.8787791014795,632,96.60786974219809
351.49675421544373,622,95.24155844155842
352.152182366618,622,92.1381960505248
352.8357002956997,660,90.73108142601887
353.48176518757145,688,93.59179571173317
354.08101378293077,650,97.70652173913044
354.6802623782901,603,99.61153846153846
355.28887423295185,603,98.11713547646383
355.91621260621866,613,96.15390018234618
356.55291423878793,632,93.80664743509344
357.2083423899621,641,92.01055746242159
357.8731338004389,660,90.68329979879275
358.5379252109156,669,90.68329979879275
359.19335336208985,669,90.2654594232059
359.8675080318691,660,89.44122635355511
360.55102596095077,679,88.59360730593608
361.22518063073,688,88.18721461187214
361.90869855981174,679,88.59360730593608
362.58285322959097,688,89.01144768152292
363.2476446400677,679,90.2654594232059
363.9030727912419,669,90.68329979879275
364.56786420171863,660,89.46365762140408
365.26074539010284,669,87.05463506501312
365.972353097092,698,85.4501280227596
366.6745975447787,716,85.06526315789472
367.3768419924654,707,85.82486486486485
368.0697231808496,707,86.20972972972973
368.7626043692338,698,86.99000370233246
369.4461222983155,698,86.99000370233247
370.1390034866997,688,85.86539857772735
370.85997445299137,698,83.3051246051246
371.6090351971905,726,81.14025974025972
372.35809594138965,754,80.1
373.1071566855888,754,80.1
373.85621742978793,754,81.14025974025972
374.5771883960796,754,83.3051246051246
375.2700695844638,726,85.46998946998946
375.962950772848,698,86.20972972972973
376.66519522053466,698,85.0851246051246
377.38616618682636,707,85.0851246051246
378.0790473752105,726,86.68963164737812
378.7438387856873,698,91.31300827075475
379.36181389965157,669,96.35290531065178
379.95169923570836,622,99.12993672993672
380.5603110903702,594,99.12993672993672
381.1782862043344,613,97.10577184010019
381.80562457760124,622,95.65599808444408
382.4423262101705,632,92.95902838747439
383.11648087994973,641,89.18369453044374
383.82808858693886,679,85.15654520917678
384.558422812533,716,82.87449392712551
385.2887570381272,735,83.24923076923076
385.9910014858139,735,85.12488935721812
386.6745194148956,707,88.69679571173316
387.32058430676733,688,92.09739272665854
387.94792268003414,650,94.24888345993816
388.5846243126034,632,93.80664743509344
389.24005246377766,641,91.1863243927708
389.92357039285935,660,88.63942455175331
390.61645158124355,688,85.86539857772735
391.3374225475352,698,83.98973998973999
392.06775677312936,726,82.86513486513486
392.788727739421,735,83.23013828276986
393.5003354464102,726,84.71038776301933
394.1932166347944,716,86.63679468942627
394.8673713045736,698,87.79180550413426
395.5508892336553,679,86.66720037952913
396.271860199947,688,84.03850839640678
397.01155768484364,726,82.51849416406378
397.73252865113534,745,82.51849416406378
398.453499617427,726,83.2207792207792
399.17447058371863,726,84.34538434538433
399.86735177210284,726,85.86539857772733
400.5508697011846,698,87.38541281007033
401.23438763026627,688,87.38541281007033
401.9272688186505,688,86.23040199536234
402.63887652563966,698,85.07539118065432
403.35048423262884,716,84.31578947368419
404.062091939618,716,84.69052631578947
404.7643363873047,716,85.84553713049746
405.4478543163864,707,87.40694063926941
406.1220089861656,688,89.01144768152292
406.7868003966424,679,89.41784037558685
407.46095506642155,669,88.61603857378505
408.15383625480575,679,86.63679468942627
408.86544396179494,698,84.35474340737498
409.5957781873891,716,82.87449392712551
410.32611241298326,735,82.50949050949052
411.0470833792749,735,83.98973998973999
411.7399645676591,726,86.27179127179127
412.41411923743834,698,89.04581724581723
413.0695473886126,679,89.84761904761905
413.7437020583918,660,89.04581724581723
414.436583246776,679,86.27179127179127
415.15755421306767,698,85.0851246051246
415.8597986607544,726,84.32552289815447
416.5714063677435,707,85.4501280227596
417.2642875561277,716,85.83499288762445
417.95716874451193,698,86.99000370233246
418.6406866735937,698,87.79180550413426
419.31484134337285,688,89.44122635355511
419.9702694945471,679,90.69523809523808
420.62569764572135,660,89.50857142857141
421.32794209340807,660,86.3789010989011
422.0582763190022,707,82.56461538461538
422.8073370632013,735,81.82487512487512
423.528308029493,754,82.54552289815447
424.2399157364822,726,84.71038776301933
424.93279692486635,716,86.23040199536233
425.6163148539481,698,89.08166057659804
426.2623797458198,688,91.62856041761552
426.8990813783891,650,93.32480818414322
427.5451462702609,641,91.62856041761552
428.2286641993426,650,87.95705545199291
428.9496351656342,688,83.37090408323284
429.7080591691359,726,80.8106301106301
430.457119913335,764,81.1756335282651
431.16872762032415,754,83.28526315789472
431.8709720680109,716,86.25192982456139
432.5451267377901,707,88.23117370892018
433.2099181482668,679,89.8356807511737
433.8747095587435,669,91.12553582363748
434.5207744506153,669,91.55531449566966
435.17620260178956,650,91.55531449566966
435.84099401226626,660,90.2654594232059
436.5151486820455,669,89.01144768152292
437.1986666111272,679,88.59360730593608
437.8728212809064,688,88.18721461187214
438.55633920998815,679,89.44122635355511
439.2117673611624,688,92.13819605052481
439.82974247512664,660,96.25292207792207
440.42899107048595,622,99.64339826839826
441.0188764065428,603,99.16035891968727
441.64621477980955,594,96.7418806588177
442.29227967168134,632,92.92162579630933
442.95707108215805,650,89.90589364624881
443.64995227054226,669,88.20964587972112
444.33347019962395,698,88.20964587972112
444.9982616101007,688,89.85906672914196
445.6536897612749,669,90.68329979879275
446.31848117175167,660,90.68329979879275
446.9832725822284,669,91.12553582363748
447.62933747410017,669,93.9025672429224
448.23794932876194,650,97.7228221054308
448.82783466481874,613,100.67106227106225
449.4177200008756,594,100.17316017316016
450.0356951148399,594,98.14899528332363
450.66303348810663,622,94.32874042081525
451.3278248985834,632,92.04961109943241
451.9926163090601,669,88.64901408450703
452.6948607567468,669,90.4451040571789
453.3221991300136,707,91.77236172080772
453.95890076258286,632,96.66736172080772
454.5581493579421,641,97.6483031674208
455.16676121260394,603,100.68815136476427
455.7472832893583,613,115.85860591021881
456.1592666986678,584,109.36743781905072
456.9176907021694,1179,108.29082491582491
457.5169392975287,603,93.65013227513226
458.1068246335855,594,102.29615534738485
458.6779834510374,575,103.93754879000781
459.2491422684892,575,103.4077868852459
459.8483908638485,603,100.75502980625932
460.4663659778128,622,97.61923337856173
461.09370435107957,632,95.20075511769215
461.73976924295135,650,92.50378542072247
462.4139239127306,679,92.03495311167944
463.05062554529985,641,92.03495311167944
463.6966904371716,650,92.03495311167944
464.3708451069508,679,89.88346237839983
465.0543630360325,688,86.66720037952913
465.7753340023242,726,84.38514909747786
466.5056682279183,735,82.86513486513486
467.22663919421,726,83.23013828276986
467.9382469011992,716,83.23013828276986
468.66858112679336,735,81.53865903031499
469.4363683895974,773,78.8619673009917
470.2228821710065,792,76.60676368108219
471.01875921171813,801,75.68739495798319
471.8146362524297,801,75.09603283173735
472.61987655244377,811,75.7015608260676
473.39702707455035,783,77.95676444597711
474.1273613001445,735,80.15752982719583
474.8670587850412,745,81.1225900681597
475.6161195292403,754,80.10834505391466
476.37454353274194,764,78.80531012940651
477.1516940548485,783,78.47568049977687
477.9101180583502,764,80.21057328730123
478.6217257653393,716,84.14230019493176
479.29588043511853,679,88.2862155388471
479.9513085862928,660,90.69523809523808
480.60673673746703,660,91.98509316770185
481.25280162933876,650,93.35140446834151
481.8801400026056,632,95.69865721559427
482.48875185726735,613,96.6227324913892
483.11609023053416,632,94.40880214313049
483.7902449003134,679,89.65252683948677
484.5018526073025,716,85.15654520917678
485.2321868328967,735,82.52785322605442
485.97188431779335,745,82.16284980841942
486.692855284085,726,83.25823442380404
487.39509973177167,707,86.30476678251325
488.05989114224843,669,89.07879275653923
488.7153192934227,660,90.68329979879275
489.3801107038994,669,90.68329979879275
490.0449021143761,669,89.42928805710977
490.72842004345785,688,87.08504075511598
491.4493910097495,726,84.38514909747786
492.17972523534365,735,82.50949050949052
492.9100594609378,735,82.50949050949052
493.63103042722946,726,83.60487512487512
494.3332748749162,707,85.48053371286247
495.0167928039979,688,87.40694063926941
495.6909474737771,679,88.59360730593608
496.3651021435563,679,87.81333333333333
497.067346591243,707,84.51703703703703
497.82577059474465,764,80.58531012940651
498.60292111685123,783,77.84024988844264
499.3800716389578,783,77.84024988844266
500.1384956424595,764,80.21057328730123
500.85010334944866,716,82.9556335282651
501.5523477971353,707,85.06526315789472
502.254592244822,707,85.06526315789472
502.9661999518112,716,84.32552289815447
503.6871709181029,726,83.23013828276986
504.41750514369704,735,82.50949050949052
505.14783936929115,735,82.87449392712551
505.85944707628033,716,84.75015251511286
506.5429650053621,688,85.84553713049746
507.24520945304874,707,86.22027397260274
507.9474539007354,707,84.34461538461538
508.6777881263296,735,82.56461538461538
509.4268488705287,754,81.1225900681597
510.1665463554254,745,81.47823442380404
510.88751732171704,726,83.6430992886689
511.58039851010125,698,85.86539857772733
512.2639164391829,688,86.99000370233247
512.9567976275672,698,86.60513883746759
513.6590420752539,707,84.38283954840917
514.3987395601505,745,82.2179746835443
515.1478003043496,754,80.7759493670886
515.8874977892463,745,80.7759493670886
516.6271952741429,745,82.18121252498335
517.3388029811321,716,82.52785322605442
518.0691372067263,735,83.23013828276986
518.7901081730179,726,82.50949050949052
519.5204423986121,735,83.23013828276986
520.2320501056013,716,83.96987854251012
520.9342945532879,707,85.06526315789472
521.6365390009746,707,85.82486486486485
522.3294201893588,698,87.01153153153152
523.003574859138,679,88.19819819819818
523.6777295289172,679,88.19819819819818
524.3706107173015,698,87.3963963963964
525.0634919056856,698,85.46998946998946
525.7844628719773,726,84.71038776301933
526.4960705789665,716,84.71038776301933
527.1889517673507,698,86.63679468942627
527.8631064371299,679,89.48805327066196
528.5091713290017,650,92.03495311167944
529.145872961571,641,92.88257215929849
529.8013011127451,660,91.59271708683472
530.4754557825244,679,88.66095238095238
531.177700230211,707,85.53128205128205
531.9080344558053,735,83.96987854251012
532.6196421627944,716,82.52785322605442
533.3593396476911,745,80.57180927001048
534.1458534291002,792,77.30375541444131
534.9510937291142,811,75.39519249560288
535.7469707698258,801,76.01540155483633
536.51475803263,773,79.28345541040548
537.226365739619,716,82.25930680359434
537.9379734466082,716,83.9507860560492
538.6589444128999,726,83.23013828276986
539.3892786384941,735,81.49524549524548
540.1477026419957,764,80.79296043853006
540.8874001268923,745,80.79296043853006
541.6177343524865,735,83.28745493302455
542.3106155408707,698,85.50975422208299
542.9941334699524,688,86.99000370233247
543.6870146583366,698,86.23040199536234
544.3986223653258,716,84.35474340737498
545.12895659092,735,83.23013828276986
545.8499275572116,726,83.98973998973999
546.5428087455958,698,85.46998946998946
547.23568993398,698,86.20972972972973
547.9379343816668,707,85.4501280227596
548.649542088656,716,84.32552289815447
549.3705130549475,726,83.5857826384142
550.0914840212392,726,83.5857826384142
550.8030917282284,716,85.1057968707572
551.4866096573102,688,87.45004417275099
552.1514010677869,669,89.42928805710977
552.8161924782636,669,89.42928805710977
553.4997104073453,688,87.82478101485626
554.201954855032,707,86.22027397260274
554.9041993027187,707,84.34461538461538
555.6345335283128,735,84.34461538461538
556.3367779759996,707,85.12488935721812
557.0202959050812,688,87.82478101485626
557.6850873155579,669,88.60505498745898
558.3686052446396,688,88.20964587972111
559.0614864330239,698,86.60513883746759
559.7637308807106,707,85.4501280227596
560.4753385876998,716,85.06526315789472
561.1775830353864,707,85.84553713049746
561.8611009644682,688,87.82478101485626
562.5258923749449,669,89.01144768152292
563.2000470447241,679,89.41784037558685
563.8742017145033,679,87.43859649122805
564.5858094214925,716,85.87719298245614
565.2974171284817,716,84.31578947368419
566.0090248354709,716,84.69052631578947
566.7112692831575,707,86.25192982456139
567.3854239529368,679,87.81333333333333
568.059578622716,679,88.59360730593606
568.7430965517976,688,87.40694063926941
569.4453409994843,707,86.22027397260274
570.1475854471711,707,85.82486486486485
570.8404666355552,698,86.60513883746759
571.523984564637,688,87.79180550413426
572.1981392344162,679,88.59360730593608
572.8722939041954,679,88.19819819819818
573.5651750925796,698,86.63679468942627
574.2767827995688,716,85.07539118065432
574.988390506558,716,84.31578947368419
575.6999982135471,716,84.69052631578947
576.4022426612338,707,85.84553713049746
577.0857605903155,688,87.82478101485626
577.7505520007923,669,88.60505498745898
578.434069929874,688,88.20964587972111
579.1269511182581,698,86.60513883746759
579.8291955659448,707,85.4501280227596
580.540803272934,716,85.4501280227596
581.2336844613183,698,85.83499288762445
581.9265656497024,698,87.3963963963964
582.6007203194816,679,88.61603857378505
583.2655117299583,669,90.2654594232059
583.9209398811327,660,90.68329979879275
584.5857312916094,669,89.46365762140408
585.2786124799935,698,87.05463506501312
585.9902201869827,716,84.71038776301933
586.7111911532744,726,83.9507860560492
587.4227988602636,716,84.71038776301933
588.1156800486477,698,86.63679468942627
588.789834718427,679,88.19819819819818
589.4639893882062,679,88.59360730593606
590.1475073172879,688,87.79180550413426
590.8403885056721,698,86.60513883746759
591.5426329533589,707,85.82486486486485
592.2448774010455,707,85.44
592.9471218487322,707,85.44
593.6493662964189,707,85.82486486486485
594.3422474848031,698,87.42937190711838
595.0070388952798,669,89.03387894937191
595.6718303057565,669,89.8356807511737
596.3459849755358,679,88.61603857378505
597.0388661639199,698,87.01153153153152
597.7411106116067,707,85.4501280227596
598.4527183185959,716,84.69052631578947
599.164326025585,716,84.69052631578947
599.8665704732717,707,85.84553713049746
600.5500884023534,688,87.40694063926941
601.2242430721326,679,88.18721461187214
601.9077610012143,688,87.79180550413426
602.6006421895985,698,86.23040199536234
603.3122498965877,716,85.07539118065432
604.0238576035769,716,83.9507860560492
604.7448285698686,726,84.71038776301933
605.4377097582527,698,85.86539857772733
606.1212276873345,688,88.63942455175331
606.7766558385088,660,89.85906672914197
607.4414472489855,669,89.46365762140408
608.1343284373696,698,87.05463506501312
608.8459361443588,716,84.35474340737498
609.576270369953,735,82.52785322605442
610.3159678548496,745,82.16284980841942
611.0369388211412,726,83.25823442380404
611.739183268828,707,85.48053371286247
612.4227011979096,688,86.22027397260274
613.1249456455964,707,85.84553713049746
613.8365533525855,716,84.32552289815447
614.5575243188772,726,83.23013828276986
615.2878585444714,735,82.50949050949052
616.0181927700655,735,82.50949050949052
616.7391637363572,726,83.98973998973999
617.4320449247414,698,86.27179127179127
618.1061995945206,679,88.61603857378505
618.7709910049973,669,88.61603857378505
619.4638721933816,698,85.9873465906627
620.2035696782782,745,81.95162003621405
620.9713569410823,773,79.13553565915406
621.7391442038864,773,78.46793134598012
622.497568207388,764,79.80376624279063
623.2279024329822,735,81.13960113960114
623.9582366585763,735,82.50949050949052
624.679207624868,726,82.50949050949052
625.4095418504622,735,82.16284980841942
626.1492393353589,745,81.1225900681597
626.898300079558,754,81.1225900681597
627.6286343051521,735,81.82487512487512
628.3496052714438,726,82.86513486513486
629.0705762377354,726,83.5857826384142
629.7821839447246,716,83.5857826384142
630.5031549110163,726,83.5857826384142
631.224125877308,726,83.5857826384142
631.9357335842972,716,85.1057968707572
632.6192515133788,688,87.03220379716413
633.293406183158,679,88.59360730593608
633.9675608529373,679,88.19819819819818
634.6604420413215,698,85.56950621507583
635.4001395262181,745,81.95162003621405
636.1679267890222,773,79.13553565915406
636.9357140518264,773,79.48217636022514
637.6660482774205,735,81.91339587242027
638.3682927251072,707,84.72948024948025
639.0611739134914,698,85.82486486486485
639.7634183611781,707,85.0851246051246
640.4843893274698,726,83.25823442380404
641.2240868123664,745,82.16284980841942
641.9544210379605,735,82.52785322605442
642.6660287449497,716,84.35474340737498
643.358909933334,698,87.05463506501312
644.0237013438107,669,85.9873465906627
644.7633988287073,745,89.98402018733628
645.3720106833691,613,81.25951314508276
646.308336613618,943,75.3700533130236
647.2540258031694,952,76.41327675624704
647.8439111392263,594,89.50488965947285
648.4244332159806,584,104.55976463849618
648.9768655148274,556,106.85839256424275
649.5292978136742,556,108.61016949152541
650.0817301125212,556,108.00677966101694
650.6435256706706,566,105.70815173527036
651.2334110067274,594,100.91652661064424
651.8701126392966,641,95.40103365289777
652.5349040497733,669,91.58077879038939
653.19969546025,669,90.25352112676056
653.8644868707268,669,89.8356807511737
654.538641540506,679,89.41784037558685
655.2127962102852,679,89.0
655.8869508800644,679,88.19819819819818
656.5798320684487,698,86.63679468942627
657.2914397754379,716,85.83499288762445
657.984320963822,698,85.07539118065432
658.6959286708112,716,85.83499288762445
659.3888098591954,698,87.05463506501312
660.0536012696722,669,89.90589364624881
660.6996661615439,650,91.12553582363748
661.3644575720206,669,90.30130275398669
662.0479755011023,688,87.82478101485626
662.750219948789,707,86.60513883746759
663.4431011371732,698,87.01153153153152
664.1172558069525,679,88.61603857378505
664.7820472174292,669,90.70769544805061
665.428112109301,650,92.4527934872663
666.0648137418702,641,92.88257215929849
666.7202418930444,660,92.01055746242159
667.3850333035211,669,88.70405591443395
668.0966410105103,716,86.29503335804299
668.8082487174995,716,83.9507860560492
669.5292196837912,726,83.9507860560492
670.2408273907804,716,84.32552289815447
670.9430718384671,707,85.4501280227596
671.6359530268512,698,85.0851246051246
672.3569239931429,726,84.71038776301933
673.0685317001321,716,83.9507860560492
673.7801394071213,716,85.87719298245614
674.4542940769005,679,88.2862155388471
675.1097222280747,660,91.1374741200828
675.7557871199465,650,93.35140446834151
676.3831254932132,632,92.92162579630933
677.04791690369,669,92.04961109943241
677.7127083141668,669,89.8356807511737
678.386862983946,679,89.41784037558685
679.0610176537251,679,89.0
679.7351723235043,679,89.41784037558685
680.3999637339812,669,89.8356807511737
681.0647551444579,669,89.8356807511737
681.7389098142371,679,89.8356807511737
682.4037012247138,669,89.8356807511737
683.0684926351905,669,91.12553582363748
683.7145575270623,650,91.12553582363748
684.379348937539,669,91.55531449566966
685.0347770887132,660,91.55531449566965
685.680841980585,650,92.88257215929849
686.3175436131543,641,92.4527934872663
686.982335023631,669,91.58077879038939
687.6471264341077,669,89.8356807511737
688.3212811038869,679,89.01144768152292
689.0047990329687,688,89.01144768152292
689.6695904434454,669,89.85906672914196
690.3250185946197,660,91.55531449566965
690.9710834864914,650,92.88257215929849
691.6077851190606,641,92.88257215929849
692.2632132702349,660,92.01055746242159
692.9280046807116,669,90.68329979879275
693.5927960911883,669,89.42928805710977
694.2763140202701,688,88.60505498745898
694.9598319493518,688,87.78082191780821
695.6433498784335,688,87.00054794520547
696.3455943261201,707,86.60513883746759
697.0384755145044,698,86.20972972972973
697.7313567028885,698,87.3963963963964
698.4055113726678,679,88.19819819819818
699.079666042447,679,88.59360730593606
699.7631839715287,688,87.79180550413426
700.4560651599129,698,87.38541281007033
701.1395830889946,688,87.79180550413426
701.8137377587739,679,88.59360730593608
702.4878924285531,679,89.41784037558685
703.1526838390298,669,89.8356807511737
703.8174752495065,669,89.8356807511737
704.4916299192857,679,89.41784037558685
705.165784589065,679,88.59360730593606
705.8493025181467,688,87.79180550413426
706.5421837065309,698,87.38541281007033
707.2257016356126,688,87.38541281007033
707.9092195646944,688,86.6258111031002
708.6208272716835,716,85.84553713049746
709.3230717193702,707,85.06526315789472
710.0253161670569,707,85.82486486486485
710.7181973554411,698,85.82486486486485
711.4204418031278,707,85.82486486486485
712.1226862508145,707,86.22027397260273
712.8062041798962,688,87.00054794520547
713.4897221089778,688,87.78082191780821
714.1732400380596,688,87.38541281007033
714.8661212264437,698,86.99000370233247
715.559002414828,698,85.83499288762445
716.2706101218172,716,84.35474340737498
717.0009443474113,735,82.52785322605442
717.7406418323079,745,81.460564751704
718.4803393172047,745,82.18121252498335
719.1919470241938,716,83.62323784143904
719.8941914718805,707,85.84553713049746
720.5777094009621,688,87.82478101485626
721.242500811439,669,88.20964587972111
721.9353819998231,698,87.05463506501312
722.6469897068123,716,85.07539118065432
723.3585974138015,716,82.91052631578947
724.1076581580006,754,81.50526315789472
724.8567189021998,754,80.78461538461538
725.5870531277939,735,82.18987854251012
726.298660834783,716,84.35474340737498
726.9915420231673,698,86.63679468942627
727.6656966929465,679,90.4121285464569
728.2930350662133,632,97.75065351210051
728.8454673650601,556,120.1815478210436
729.2293609964622,386,112.03428413945156
730.0720543336862,849,107.71149132386844
730.699392706953,632,86.12821606254441
731.3548208581273,660,92.06154939587775
732.0289755279065,679,89.44122635355511
732.7124934569881,688,87.03220379716413
733.4241011639773,716,83.73590750086784
734.182525167479,764,79.90420495683654
734.969038948888,792,78.49894179894179
735.7180996930872,754,80.60857142857142
736.4203441407739,707,84.44027397260272
737.1038620698556,688,88.25455968688844
737.7592902210298,660,90.28884540117416
738.4147183722041,660,91.11307847082495
739.0795097826808,669,89.46365762140408
739.772390971065,698,86.68963164737812
740.4933619373567,726,83.6430992886689
741.2330594222533,745,81.81620910734836
741.9727569071499,745,80.44631973745898
742.7311809106516,764,80.79296043853006
743.4615151362457,735,80.79296043853006
744.2012126211424,745,81.460564751704
744.940910106039,745,81.11392405063292
745.6806075909357,745,80.12472985489349
746.4483948537397,773,79.78675517134917
747.1974555979389,754,79.11915085817523
747.9558796014405,764,78.80531012940651
748.7330301235471,783,78.80531012940651
749.4820908677463,754,78.80531012940651
750.2405148712479,764,80.10834505391466
750.9802123561445,745,81.51360821180941
751.6918200631337,716,83.62323784143904
752.3940645108204,707,85.4501280227596
753.0869456992046,698,87.42937190711838
753.7517371096814,669,89.4636576214041
754.4071652608555,660,90.2654594232059
755.0813199306348,679,88.2862155388471
755.792927637624,716,85.15654520917678
756.5232618632182,735,82.52785322605442
757.2629593481148,745,81.460564751704
758.0026568330114,745,82.5559493670886
758.7049012806981,707,84.38283954840917
759.3977824690824,698,86.20972972972973
760.0906636574665,698,86.99000370233246
760.7741815865483,688,86.99000370233247
761.4670627749324,698,86.60513883746759
762.1693072226191,707,85.4501280227596
762.8809149296083,716,85.06526315789472
763.583159377295,707,85.06526315789472
764.2854038249817,707,85.82486486486485
764.9782850133658,698,86.60513883746759
765.6618029424476,688,87.79180550413426
766.3359576122268,679,89.44122635355511
766.991385763401,660,90.2654594232059
767.6561771738777,669,89.85906672914196
768.3396951029595,688,87.82478101485626
769.0419395506461,707,85.84553713049746
769.7535472576353,716,84.69052631578947
770.4651549646245,716,85.07539118065432
771.1580361530088,698,86.23040199536233
771.8415540820904,688,87.38541281007033
772.5250720111721,688,87.78082191780821
773.2085899402539,688,87.38541281007033
773.901471128638,698,86.23040199536234
774.6130788356272,716,84.0081027063039
775.3527763205238,745,82.52785322605442
776.0831105461181,735,81.80720545277508
776.8134447717122,735,83.24923076923076
777.5156892193988,707,82.56461538461538
778.264749963598,754,86.59176470588234
778.9014515961672,641,89.06828644501277
779.547516488039,650,92.88257215929849
780.2029446392132,660,91.98509316770185
780.8583727903875,660,91.54285714285713
781.5138009415617,660,91.98509316770185
782.1598658334335,650,90.73108142601887
782.8433837625153,688,88.69679571173316
783.5456282102019,707,85.84553713049746
784.2572359171911,716,84.69052631578947
784.9688436241803,716,85.4708002883922
785.6523615532619,688,86.6258111031002
786.3358794823437,688,87.38541281007033
787.0287606707279,698,86.60513883746759
787.7310051184146,707,85.82486486486485
788.4332495661013,707,85.82486486486485
789.1261307544854,698,86.20972972972973
789.8190119428697,698,87.3963963963964
790.4931666126489,679,88.61603857378505
791.1579580231256,669,89.8356807511737
791.8227494336023,669,88.64901408450703
792.524993881289,707,86.30476678251325
793.2459648475807,726,83.96051948051948
793.9669358138724,726,83.2207792207792
794.687906780164,726,83.96051948051948
795.3901512278508,707,84.70025974025972
796.0923956755374,707,85.44
796.7946401232241,707,85.06526315789472
797.5062478302133,716,85.06526315789472
798.2084922779,707,83.62323784143904
798.9481897627966,745,82.2179746835443
799.6972505069957,754,80.4379746835443
800.4463112511949,754,80.4379746835443
801.1860087360915,745,80.7759493670886
801.9257062209882,745,81.11392405063292
802.6654037058848,745,80.7759493670886
803.414464450084,754,81.1225900681597
804.1447986756781,735,81.46923076923076
804.8751329012723,735,82.87449392712551
805.5867406082614,716,83.96987854251012
806.2889850559482,707,85.4501280227596
806.9818662443323,698,85.82486486486485
807.684110692019,707,84.72948024948025
808.4144449176132,735,81.59955514365153
809.1915954397198,783,79.81955514365151
809.9406561839189,754,80.17519949929587
810.6616271502106,726,83.70053371286247
811.3451450792923,688,86.26080768546521
812.028663008374,688,87.38541281007033
812.7215441967581,698,86.60513883746759
813.4237886444449,707,85.4501280227596
814.1353963514341,716,84.32552289815447
814.8563673177257,726,83.5857826384142
815.5773382840174,726,84.34538434538433
816.2702194724015,698,85.46998946998946
816.9631006607858,698,85.83499288762445
817.674708367775,716,85.07539118065432
818.3863160747642,716,83.24850099933377
819.1260135596608,745,82.88349758169878
819.8469845259525,726,83.25823442380404
820.5492289736392,707,85.0851246051246
821.2421101620233,698,86.20972972972973
821.9349913504076,698,85.83499288762445
822.6465990573968,716,84.35474340737498
823.3769332829909,735,82.52785322605442
824.1166307678875,745,81.80720545277508
824.8469649934817,735,82.9025900681597
825.5492094411684,707,85.94912242686891
826.2140008516451,669,89.07879275653923
826.8694290028193,660,90.2654594232059
827.5435836725985,679,87.92121212121211
828.2645546388902,726,83.77729677729677
829.0229786423919,764,79.53920153920154
829.809492423801,792,78.49894179894179
830.5585531680001,754,79.86883116883116
831.2795241342917,726,82.54552289815447
831.9911318412809,716,84.32552289815447
832.6933762889676,707,84.32552289815447
833.4143472552593,726,83.96051948051948
834.135318221551,726,83.5857826384142
834.8469259285401,716,85.51218956482114
835.5210805983194,679,87.03220379716413
836.204598527401,688,88.18721461187214
836.8881164564827,688,87.38541281007033
837.580997644867,698,86.60513883746759
838.2832420925537,707,85.4501280227596
838.9948497995429,716,85.4501280227596
839.687730987927,698,85.83499288762445
840.3806121763113,698,87.3963963963964
841.0547668460904,679,87.79180550413426
841.7382847751721,688,88.18721461187214
842.4218027042539,688,87.00054794520547
843.1240471519405,707,86.22027397260274
843.8262915996272,707,85.06526315789472
844.5378993066164,716,85.84553713049746
845.2214172356981,688,86.6258111031002
845.9049351647799,688,88.18721461187214
846.5790898345591,679,87.79180550413426
847.2719710229433,698,86.63679468942627
847.9835787299324,716,84.71038776301933
848.7045496962241,726,83.5857826384142
849.4255206625157,726,83.2207792207792
850.1464916288074,726,83.96051948051948
850.8487360764941,707,84.70025974025972
851.5509805241808,707,85.06526315789472
852.26258823117,716,84.32552289815447
852.9835591974617,726,83.23013828276986
853.7138934230558,735,83.60487512487512
854.4161378707425,707,85.53128205128205
855.0902925405218,679,88.23117370892018
855.7550839509985,669,89.01144768152292
856.4386018800801,688,88.20964587972111
857.1314830684644,698,85.16311352101191
857.871180553361,745,83.6430992886689
858.5921515196527,726,82.51849416406378
859.3131224859443,726,82.86513486513486
860.0434567115385,735,81.82487512487512
860.7925174557377,754,81.46923076923076
861.5228516813318,735,81.46923076923076
862.253185906926,735,83.63409563409564
862.9460670953101,698,85.91614691614691
863.6202217650894,679,89.04581724581723
864.2756499162637,660,90.2654594232059
864.9404413267404,669,90.68329979879275
865.6052327372171,669,89.42928805710977
866.2887506662988,688,88.20964587972111
866.981631854683,698,87.38541281007033
867.6651497837647,688,88.20964587972112
868.3299411942414,669,90.7565457207386
868.9666428268107,641,90.7565457207386
869.6501607558924,688,82.92203867848508
870.5490336489313,905,74.72766527695056
871.4104535047603,867,70.5968030690537
872.2063305454719,801,75.38477775259801
872.9460280303686,745,79.90764618850991
873.6669989966603,726,82.51849416406378
874.387969962952,726,83.5857826384142
875.0995776699411,716,84.71038776301933
875.7924588583253,698,86.23040199536233
876.475976787407,688,86.99000370233247
877.1688579757912,698,86.60513883746759
877.8711024234779,707,84.38283954840917
878.6107999083746,745,82.2179746835443
879.3598606525736,754,80.4379746835443
880.1089213967728,754,79.77037037037036
880.8673454002744,764,79.77037037037036
881.6164061444736,754,79.44074074074072
882.3748301479752,764,80.10834505391466
883.1145276328718,745,80.10834505391466
883.863588377071,754,81.1225900681597
884.5939226026651,735,81.1225900681597
885.3336200875617,745,81.1225900681597
886.0826808317609,754,80.4379746835443
886.83174157596,754,80.78461538461538
887.5620758015542,735,82.18987854251012
888.2736835085434,716,83.96987854251012
888.9759279562301,707,86.25192982456139
889.6500826260093,679,86.62666666666667
890.352327073696,707,87.01153153153152
891.0452082620801,698,86.20972972972973
891.7380894504644,698,86.99000370233246
892.4216073795461,688,86.60513883746759
893.1238518272328,707,87.00054794520547
893.8073697563145,688,87.00054794520547
894.4908876853962,688,87.00054794520547
895.1931321330828,707,86.22027397260274
895.8953765807696,707,85.44
896.5976210284563,707,86.22027397260273
897.2811389575379,688,87.40694063926941
897.9552936273171,679,89.01144768152292
898.620085037794,669,90.70769544805061
899.2661499296656,650,91.55531449566966
899.9215780808399,660,91.1374741200828
900.5957327506192,679,89.44122635355511
901.2792506797008,688,88.18721461187214
901.9627686087825,688,88.18721461187214
902.6369232785618,679,89.01144768152292
903.3017146890385,669,89.8356807511737
903.9665060995152,669,89.42928805710977
904.6500240285969,688,87.45004417275098
905.3616317355861,716,85.10579687075722
906.0826027018778,726,83.9507860560492
906.794210408867,716,84.32552289815447
907.4964548565537,707,85.84553713049746
908.1799727856354,688,87.00054794520547
908.863490714717,688,87.78082191780821
909.5470086437988,688,87.00054794520547
910.2492530914855,707,85.84553713049746
910.9608607984746,716,83.96987854251012
911.6911950240687,735,83.23013828276986
912.4121659903604,726,81.49524549524548
913.1705899938621,764,81.14860479417442
913.9102874787587,745,81.14860479417442
914.6312584450504,726,83.25823442380404
915.3335028927371,707,83.60487512487512
916.0638371183312,735,83.60487512487512
916.7848080846229,726,82.86513486513486
917.5057790509146,726,83.5857826384142
918.2173867579038,716,83.9507860560492
918.928994464893,716,82.91052631578947
919.6780552090921,754,80.8540436456996
920.4458424718962,773,77.58598979013045
921.2510827719102,811,76.31456121870188
922.0375965533193,792,77.30375541444131
922.777294038216,745,80.57180927001048
923.4889017452051,716,84.0081027063039
924.1817829335894,698,85.07539118065432
924.8933906405786,716,85.07539118065432
925.6049983475677,716,83.9507860560492
926.3259693138594,726,83.9507860560492
927.0375770208485,716,83.9507860560492
927.7491847278377,716,83.59514170040485
928.4795189534319,735,81.53865903031499
929.247306216236,773,79.48217636022514
930.0150934790402,773,79.13553565915406
930.7547909639368,745,80.47137055596457
931.4851251895309,735,82.52785322605442
932.1967328965201,716,82.87449392712551
932.9270671221143,735,82.87449392712551
933.6574013477084,735,81.80720545277508
934.397098832605,745,82.16284980841942
935.1180697988967,726,82.51849416406378
935.8390407651884,726,82.86513486513486
936.5693749907825,735,82.86513486513486
937.2903459570742,726,81.49524549524548
938.0487699605759,764,81.14860479417442
938.7884674454725,745,80.79296043853006
939.5188016710666,735,83.28745493302455
940.2116828594509,698,84.72948024948025
940.9139273071376,707,84.72948024948025
941.6442615327317,735,81.91339587242027
942.4120487955358,773,79.1683356314564
943.1891993176424,783,77.51866000587715
943.966349839749,783,78.16987951807228
944.7154105839481,754,79.13493975903614
945.4644713281473,754,80.4379746835443
946.2041688130439,745,79.16654611211573
946.990682594453,792,79.85116149673112
947.7210168200471,735,80.1978021978022
948.4513510456413,735,82.50949050949052
949.172322011933,726,82.50949050949052
949.9026562375271,735,82.16284980841942
950.6423537224238,745,80.79296043853006
951.4007777259254,764,80.10834505391466
952.1498384701246,754,81.55037037037036
952.8520829178112,707,84.04486486486485
953.5449641061954,698,86.60513883746759
954.2284820352771,688,86.60513883746759
954.9307264829638,707,84.44027397260274
955.6797872271629,754,81.22878048780487
956.4475744899671,773,78.79756097560974
957.2153617527712,773,77.22697274031563
958.0112387934828,801,76.01540155483633
958.8164790934968,811,75.39519249560288
959.6029928749059,792,75.10299003322258
960.40823317492,811,76.965780730897
961.1572939191192,754,79.64247246022032
961.8689016261083,716,82.54552289815447
962.5898725924,726,83.23013828276986
963.3202068179942,735,81.82487512487512
964.0692675621933,754,80.45498575498576
964.8276915656949,764,79.77037037037036
965.576752309894,754,79.77037037037036
966.3258130540931,754,80.78461538461538
967.0561472796874,735,81.1225900681597
967.795844764584,745,80.79296043853006
968.5542687680855,764,80.44631973745898
969.2939662529823,745,81.14860479417442
970.0149372192739,726,82.16284980841942
970.7452714448681,735,80.85981488391127
971.5224219669747,783,78.54812657222296
972.3089357483838,792,77.21229167541244
973.0767230111878,773,79.21761165663605
973.7976939774795,726,82.26904022806461
974.4999384251662,707,85.0851246051246
975.1928196135505,698,85.4501280227596
975.9044273205396,716,83.34049839312996
976.6628513240412,764,79.90420495683654
977.4493651054503,792,77.22751322751323
978.2358788868594,792,77.55714285714285
978.9849396310585,754,80.23383458646616
979.6965473380477,716,82.54552289815447
980.4175183043394,726,83.5857826384142
981.138489270631,726,82.86513486513486
981.8688234962252,735,82.86513486513486
982.5897944625168,726,82.16284980841942
983.3294919474135,745,82.16284980841942
984.0598261730077,735,80.47137055596457
984.8276134358118,773,77.9851200103513
985.6422169951284,820,76.02907605430734
986.4287307765375,792,76.35066593687283
987.187154780039,764,78.49894179894179
987.9362155242382,754,80.8106301106301
988.6571864905299,726,82.92025974025972
989.3594309382165,707,84.70025974025972
990.0616753859032,707,84.70025974025972
990.7826463521949,726,83.96051948051948
991.5036173184866,726,82.51849416406378
992.2433148033832,745,81.47823442380404
992.9923755475824,754,80.10834505391466
993.750799551084,764,80.45498575498576
994.4811337766781,735,81.13960113960114
995.2114680022722,735,82.15384615384616
995.9418022278664,735,81.46923076923076
996.6908629720656,754,80.78461538461538
997.4399237162647,754,80.1
998.1889844604639,754,80.78461538461538
998.919318686058,735,82.18987854251012
999.6309263930472,716,82.87449392712551
1000.3612606186413,735,82.87449392712551
1001.0915948442355,735,81.80720545277508
1001.8312923291321,745,80.79296043853006
1002.5897163326338,764,80.44631973745898
1003.3294138175304,745,80.79296043853006
1004.0597480431245,735,81.80720545277508
1004.7900822687187,735,81.80720545277508
1005.5297797536153,745,80.79296043853006
1006.288203757117,764,78.8369164824861
1007.0747175385261,792,78.16931216931216
1007.8331415420276,764,78.8369164824861
1008.5728390269244,745,81.14860479417442
1009.293809993216,726,82.16284980841942
1010.0241442188102,735,81.49524549524548
1010.7825682223117,764,79.18355718355718
1011.5690820037208,792,77.22751322751323
1012.3555957851299,792,76.592082616179
1013.1327463072365,783,78.20148587115187
1013.8724437921333,745,81.25291444258045
1014.5746882398199,707,84.38283954840917
1015.2675694282041,698,85.4501280227596
1015.9791771351933,716,83.34049839312996
1016.7376011386949,764,79.90420495683654
1017.524114920104,792,76.63615110126737
1018.329355220118,811,76.00072048993314
1019.1065057422246,783,77.95676444597711
1019.8368399678188,735,80.15752982719583
1020.5765374527155,745,81.80720545277508
1021.3068716783096,735,80.79296043853006
1022.0652956818112,764,80.45498575498576
1022.8143564260104,754,79.44074074074072
1023.572780429512,764,80.45498575498576
1024.3031146551061,735,81.13960113960114
1025.0334488807002,735,82.15384615384616
1025.7637831062946,735,81.46923076923076
1026.5128438504937,754,80.78461538461538
1027.2619045946926,754,79.77037037037036
1028.0203285981943,764,79.77037037037036
1028.7693893423934,754,80.45498575498576
1029.4997235679878,735,80.78461538461538
1030.2487843121867,754,79.81955514365153
1031.0259348342934,783,78.16987951807228
1031.8030853564,783,77.84024988844266
1032.5615093599015,764,79.84556986966624
1033.2824803261933,726,81.85088985088984
1034.003451292485,726,82.18051948051948
1034.752512036684,754,96.3226126814362
1035.230038261111,481,109.65927601809952
1035.7169277448404,490,118.55927601809952
1036.2787233029899,566,101.22864721485409
1037.0933268623064,820,95.16811758055397
1037.6644856797582,575,85.30305733959013
1038.4416362018649,783,83.71907513714297
1039.3124193169963,877,71.92007299886784
1040.1738391728254,867,71.31454500453758
1040.969716213537,801,74.71717343942407
1041.7281402170386,764,77.87015250544661
1042.4865642205402,764,79.1111111111111
1043.2449882240417,764,78.78952122854561
1044.0127754868458,773,79.80376624279063
1044.74310971244,735,81.53865903031499
1045.4547174194292,716,84.35474340737498
1046.1475986078135,698,85.4501280227596
1046.8498430555,707,85.4501280227596
1047.5614507624894,716,83.96987854251012
1048.2917849880835,735,81.86024891288048
1049.0502089915851,764,79.18355718355718
1049.836722772994,792,77.53388155797794
1050.6138732951008,783,78.54812657222296
1051.344207520695,735,80.85981488391127
1052.0651784869865,726,82.16284980841942
1052.8048759718831,745,81.47823442380404
1053.5539367160823,754,80.10834505391466
1054.312360719584,764,79.44074074074072
1055.0707847230856,764,79.44074074074072
1055.8198454672847,754,80.8106301106301
1056.5408164335763,726,83.3051246051246
1057.2336976219606,698,85.86539857772733
1057.9172155510423,688,86.99000370233247
1058.6100967394266,698,86.99000370233247
1059.3029779278106,698,86.99000370233246
1059.9864958568924,688,87.38541281007033
1060.670013785974,688,87.38541281007033
1061.3628949743584,698,86.23040199536234
1062.0745026813474,716,84.71038776301933
1062.7954736476393,726,81.89430338595935
1063.5632609104432,773,80.15941059843499
1064.3216849139449,764,79.80376624279063
1065.052019139539,735,81.86024891288048
1065.7636268465283,716,84.35474340737498
1066.4565080349125,698,85.07539118065432
1067.1681157419016,716,84.0081027063039
1067.9078132267982,745,81.19201832924392
1068.6756004896024,773,79.45712554171955
1069.434024493104,764,79.11915085817523
1070.1830852373032,754,79.44074074074072
1070.9415092408046,764,79.11915085817523
1071.7092965036088,773,78.46793134598012
1072.477083766413,773,78.14634146341463
1073.2448710292172,773,78.46793134598012
1074.0032950327186,764,79.45712554171955
1074.7429925176154,745,80.44631973745898
1075.482690002512,745,81.11392405063292
1076.2223874874087,745,81.11392405063292
1076.9620849723053,745,80.12472985489349
1077.7298722351095,773,79.78675517134917
1078.4789329793086,754,79.44878048780487
1079.2279937235078,754,80.78461538461538
1079.9583279491019,735,81.46923076923076
1080.688662174696,735,82.15384615384616
1081.41899640029,735,82.15384615384616
1082.1493306258842,735,82.15384615384616
1082.8796648514785,735,82.15384615384616
1083.6099990770726,735,82.87449392712551
1084.3216067840617,716,82.87449392712551
1085.051941009656,735,81.53865903031499
1085.81972827246,773,78.27060517474584
1086.624968572474,811,76.01540155483633
1087.4208456131857,801,75.7015608260676
1088.1979961352922,783,78.2489669083574
1088.9283303608865,735,79.81955514365151
1089.6773911050857,754,80.45498575498576
1090.4358151085871,764,79.11915085817523
1091.2036023713913,773,78.78952122854561
1091.962026374893,764,79.45712554171955
1092.7017238597896,745,81.51360821180941
1093.4133315667789,716,82.18121252498335
1094.1530290516755,745,81.51360821180941
1094.911453055177,764,78.8369164824861
1095.6979668365861,792,76.07166907166906
1096.5219336552052,830,75.12987012987013
1097.3084474366142,792,76.07166907166906
1098.0668714401158,764,78.16931216931216
1098.8252954436175,764,78.78952122854561
1099.5930827064217,773,78.46793134598012
1100.3608699692259,773,77.83250073464589
1101.1380204913323,783,78.15409061721138
1101.896444494834,764,79.14328481295081
1102.6361419797306,745,79.45712554171955
1103.4039292425348,773,77.63847930928021
1104.2185328018513,820,73.0847151520517
1105.1080424355878,896,70.76926799758016
1105.9507357728119,849,109.04107327141381
1106.2690865890963,820,126.85874953755086
1106.7653393321284,735,130.51003158883293
1107.4956735577225,792,93.11507360563964
1108.2821873391315,415,77.9425985778927
1109.0780643798432,386,75.68739495798319
1109.8739414205547,801,75.99376328844791
1110.6510919426614,783,77.56435152374202
1111.4001526868606,754,80.17519949929587
1112.1211236531522,726,82.54552289815447
1112.8327313601412,716,82.54552289815447
1113.5817921043404,754,80.54020291693087
1114.358942626447,783,77.86351118760757
1115.1454564078563,792,76.592082616179
1115.9319701892653,792,77.22751322751323
1116.690394192767,764,79.18355718355718
1117.420728418361,735,79.80376624279063
1118.1885156811652,773,79.1683356314564
1118.9656662032717,783,76.91313201154689
1119.7615432439834,801,76.59929128277817
1120.5386937660899,783,77.56435152374202
1121.287754510289,754,78.80531012940651
1122.0461785137907,764,78.80531012940651
1122.8233290358974,783,77.84024988844264
1123.6004795580038,783,77.20481927710843
1124.3776300801105,783,78.16987951807228
1125.1266908243097,754,79.81955514365153
1125.8570250499038,735,79.51318681318682
1126.643538831313,792,77.08591408591408
1127.4675056499318,830,74.25302283922973
1128.2821092092486,820,74.25302283922974
1129.0686229906576,792,77.36491095111785
1129.7989572162517,735,80.91844997108154
1130.510564923241,716,83.23013828276986
1131.2315358895326,726,82.88349758169878
1131.9712333744292,745,81.14860479417442
1132.7296573779308,764,79.45712554171955
1133.497444640735,773,80.15941059843499
1134.2184156070266,726,82.65390509292948
1134.9112967954109,698,85.86539857772733
1135.5948147244926,688,86.99000370233247
1136.2876959128766,698,85.50975422208299
1137.018030138471,735,82.29826073728512
1137.785817401275,773,80.81801125703565
1138.5161516268693,735,81.91339587242027
1139.2183960745558,707,83.60487512487512
1139.9393670408474,726,81.95519949929587
1140.716517562954,783,78.02692363722691
1141.5311211222706,820,74.83838803489822
1142.3457246815872,820,74.83838803489822
1143.1228752036939,783,77.32463858051148
1143.8625726885905,745,79.81088912612475
1144.602270173487,745,81.460564751704
1145.3326043990812,735,80.47137055596457
1146.1003916618854,773,79.48217636022514
1146.8681789246896,773,78.46793134598012
1147.626602928191,764,79.11915085817523
1148.3756636723901,754,80.10834505391466
1149.115361157287,745,80.10834505391466
1149.8737851607884,764,79.14328481295081
1150.6509356828951,783,77.53388155797794
1151.437449464304,792,77.53388155797794
1152.1958734678058,764,78.16931216931216
1152.9542974713074,764,79.1111111111111
1153.712721474809,764,78.16931216931216
1154.499235256218,792,75.53227513227512
1155.3419285934422,849,73.7136288998358
1156.1565321527587,820,73.41446923597024
1156.9524091934704,801,75.10970733120834
1157.7389229748794,792,76.29292295231345
1158.516073496986,783,77.53388155797794
1159.2744975004878,764,78.80531012940651
1160.0235582446867,754,80.45498575498576
1160.753892470281,735,82.18987854251012
1161.46550017727,716,81.86024891288048
1162.2239241807717,764,78.20896686159843
1163.0666175179958,849,72.3537037037037
1163.9654904110348,905,91.43014184397163
1164.4055635982518,443,110.41680851063829
1164.8737265633763,471,112.71853264856932
1165.6883301226928,820,92.70029556650246
1166.4748439041018,792,76.02907605430734
1167.242631166906,773,76.60676368108219
1168.0385082076175,801,76.30760401721663
1168.834385248329,801,75.99376328844791
1169.6115357704357,783,77.2347218941124
1170.3699597739374,764,78.80531012940651
1171.1190205181365,754,79.11915085817523
1171.8868077809407,773,78.1773519163763
1172.6733215623497,792,76.31456121870188
1173.4785618623637,811,74.81750486882804
1174.2931654216802,820,74.81750486882805
1175.0796792030894,792,76.35066593687283
1175.838103206591,764,77.22751322751323
1176.624616988,792,76.07166907166906
1177.4485838066191,830,73.97402597402596
1178.2725506252382,830,73.67486631016043
1179.0684276659497,801,75.45091952523802
1179.8362149287539,773,78.56280763712614
1180.566549154348,735,81.91339587242027
1181.2687936020347,707,84.72948024948025
1181.961674790419,698,86.20972972972973
1182.654555978803,698,85.83499288762445
1183.3661636857923,716,85.4501280227596
1184.068408133479,707,85.84553713049746
1184.7519260625606,688,86.60513883746759
1185.444807250945,698,86.60513883746759
1186.1470516986317,707,84.72948024948025
1186.8773859242258,735,82.23498575498576
1187.6358099277275,764,80.45498575498576
1188.3848706719266,754,80.10834505391466
1189.1245681568232,745,82.2179746835443
1189.8268126045098,707,84.38283954840917
1190.519693792894,698,85.82486486486485
1191.2219382405808,707,85.0851246051246
1191.9429092068724,726,82.92025974025972
1192.6919699510715,754,81.14025974025972
1193.4410306952707,754,80.4379746835443
1194.1807281801673,745,81.1225900681597
1194.9110624057614,735,81.80720545277508
1195.6413966313555,735,81.80720545277508
1196.3810941162524,745,80.47137055596457
1197.1488813790563,773,77.92396447367476
1197.9541216790703,811,75.15871706285772
1198.7780884976894,830,74.53850800362429
1199.5646022790986,792,76.07166907166906
1200.3230262826003,764,79.18355718355718
1201.0533605081944,735,81.86024891288048
1201.7649682151834,716,83.23013828276986
1202.4859391814753,726,82.54552289815447
1203.2349999256744,754,79.86883116883116
1204.0215137070834,792,76.68029556650247
1204.8361172664,820,75.4088669950739
1205.6226310478091,792,76.68029556650245
1206.3716917920083,754,79.51318681318682
1207.1020260176024,735,81.46923076923076
1207.8323602431965,735,81.80720545277508
1208.5720577280931,745,80.79296043853006
1209.3304817315948,764,78.8369164824861
1210.116995513004,792,78.16931216931216
1210.8754195165054,764,79.53920153920154
1211.5963904827972,726,81.85088985088984
1212.3173614490888,726,82.18051948051948
1213.066422193288,754,80.48904022806461
1213.8342094560921,773,77.87819225251076
1214.6300864968036,801,76.60676368108219
1215.4166002782129,792,77.59595787682161
1216.1562977631095,745,80.57180927001048
1216.8679054700985,716,84.40351181404178
1217.5514233991803,688,86.6258111031002
1218.234941328262,688,87.78082191780821
1218.9184592573438,688,86.26080768546521
1219.6394302236354,726,84.38514909747786
1220.3697644492295,735,82.86513486513486
1221.0907354155213,726,83.60487512487512
1221.7929798632078,707,84.32552289815447
1222.5045875701971,716,84.32552289815447
1223.2255585364887,726,83.23013828276986
1223.9558927620828,735,82.16284980841942
1224.6955902469795,745,82.16284980841942
1225.4165612132713,726,82.88349758169878
1226.1281689202604,716,85.1057968707572
1226.811686849342,688,87.03220379716413
1227.4858415191213,679,87.79180550413426
1228.1787227075056,698,86.27179127179127
1228.8996936737972,726,83.3051246051246
1229.6487544179963,754,80.8106301106301
1230.407178421498,764,80.45498575498576
1231.137512647092,735,81.49524549524548
1231.8584836133837,726,83.98973998973999
1232.551364801768,698,87.1194103194103
1233.2067929529421,660,91.25974759407595
1233.834131326209,632,92.9091684434968
1234.4895594773832,660,92.9091684434968
1235.1449876285574,660,89.89343629343628
1235.8378688169416,698,87.48441373704532
1236.549476523931,716,83.6701280227596
1237.29853726813,754,79.9346749226006
1238.0944143088416,801,76.10213903743315
1238.9183811274606,830,73.40213903743316
1239.7517112053822,839,74.0076670317634
1240.5288617274887,783,77.84020291693088
1241.240469434478,716,81.94546607482562
1241.952077141467,716,83.9507860560492
1242.6730481077589,726,82.88349758169878
1243.4127455926555,745,80.51317418284019
1244.189896114762,783,77.32463858051148
1245.0044996740785,820,74.83838803489822
1245.819103233395,820,74.53201970443351
1246.6056170148042,792,75.7152353255386
1247.382767536911,783,76.8984509466437
1248.1599180590174,783,76.59929128277817
1248.955795099729,801,75.99376328844791
1249.7516721404406,801,75.99376328844791
1250.528822662547,783,76.29292295231346
1251.3153364439563,792,77.21229167541244
1252.0831237067605,773,78.51532659992061
1252.822821191657,745,80.47137055596457
1253.5531554172512,735,81.1225900681597
1254.3022161614504,754,80.13339587242027
1255.0700034242545,773,77.30050462573591
1255.884606983571,820,74.33383795906923
1256.727300320795,849,73.7136288998358
1257.5138141022042,792,75.53227513227512
1258.2722381057058,764,77.84772228674667
1259.0400253685098,773,78.46793134598012
1259.807812631314,773,77.83250073464589
1260.5849631534206,783,77.83250073464589
1261.3527504162246,773,78.15409061721138
1262.1111744197262,764,79.45712554171955
1262.8508719046229,745,80.44631973745898
1263.5905693895195,745,80.7759493670886
1264.3396301337186,754,79.78675517134917
1265.1074173965228,773,79.11915085817523
1265.8658414000245,764,79.45712554171955
1266.605538884921,745,81.14860479417442
1267.3265098512127,726,83.6430992886689
1268.019391039597,698,85.46998946998946
1268.7122722279812,698,86.20972972972973
1269.4145166756678,707,84.72948024948025
1270.144850901262,735,81.29318681318682
1270.931364682671,792,77.9425985778927
1271.7272417233826,801,77.59595787682161
1272.4669392082794,745,78.53775681862055
1273.2253632117809,764,78.8369164824861
1274.01187699319,792,77.22751322751323
1274.798390774599,792,76.28571428571429
1275.5849045560083,792,76.90592334494774
1276.3526918188124,773,78.51532659992061
1277.092389303709,745,80.12472985489349
1277.8320867886057,745,80.7759493670886
1278.5811475328048,754,80.10834505391466
1279.3395715363065,764,79.77037037037036
1280.0886322805056,754,79.77037037037036
1280.8376930247045,754,80.78461538461538
1281.5680272502989,735,81.82487512487512
1282.2889982165905,726,82.16284980841942
1283.028695701487,745,81.81620910734836
1283.7683931863837,745,81.11392405063292
1284.5080906712803,745,79.81088912612475
1285.285241193387,783,77.61012374490602
1286.090481493401,811,73.29555331668087
1286.970627867835,886,71.0331410301722
1287.8226844643616,858,71.32534349255249
1288.618561505073,801,75.63991392077766
1289.3582589899697,745,79.55200183286557
1290.088593215564,735,81.460564751704
1290.8282907004607,745,81.1225900681597
1291.5773514446598,754,79.78675517134917
1292.3451387074638,773,79.11915085817523
1293.1035627109654,764,78.78952122854561
1293.861986714467,764,79.77871542428504
1294.6016841993637,745,79.77871542428504
1295.3601082028654,764,78.8369164824861
1296.1466219842744,792,76.92835356364768
1296.942499024986,801,75.68739495798319
1297.7383760656976,801,76.30760401721665
1298.5061633285018,773,78.21616693605506
1299.2458608133984,745,79.78675517134917
1299.9949215575975,754,79.47291444258045
1300.7720720797042,783,77.27214906136172
1301.5773123797183,811,75.4093583636873
1302.3825526797323,811,75.1029900332226
1303.1690664611413,792,76.63615110126737
1303.927490464643,764,79.90420495683654
1304.6390981716322,716,81.86024891288048
1305.3694323972263,735,82.18987854251012
1306.1184931414255,754,79.21402714932127
1306.914370182137,801,76.66662106703146
1307.719610482151,811,75.7015608260676
1308.4967610042577,783,76.62092954916659
1309.2645482670619,773,76.62092954916659
1310.0697885670759,811,75.15871706285772
1310.893755385695,830,74.53850800362429
1311.680269167104,792,75.12987012987013
1312.4667829485131,792,77.89511754068717
1313.2064804334098,745,79.85116149673112
1313.9368146590039,735,81.80720545277508
1314.667148884598,735,80.50417052826691
1315.4442994067047,783,79.48992551402189
1316.2027234102063,764,76.37803740213377
1317.0266902288254,830,79.90337161570037
1317.7102081579071,688,79.90337161570037
1318.4686321614088,764,81.67942483077798
1319.2364194242127,773,77.84772228674667
1320.022933205622,792,77.84772228674667
1320.7813572091236,764,77.84772228674667
1321.5491444719275,773,79.11915085817523
1322.2982052161267,754,78.1773519163763
1323.084718997536,792,78.1773519163763
1323.8525062603399,773,78.51532659992061
1324.5922037452367,745,81.19201832924392
1325.3038114522258,716,82.88349758169878
1326.0247824185174,726,82.54552289815447
1326.7738431627165,754,80.48904022806461
1327.5416304255207,773,77.58598979013045
1328.3468707255347,811,76.93477027793533
1329.1146579883389,773,77.58598979013044
1329.863718732538,754,79.44878048780487
1330.6127794767372,754,79.44878048780487
1331.3805667395413,773,77.87819225251076
1332.1764437802528,801,76.60676368108219
1332.9629575616618,792,76.60676368108219
1333.730744824466,773,77.84772228674667
1334.4891688279677,764,80.15941059843499
1335.2101397942592,726,81.85088985088984
1335.931110760551,726,83.2207792207792
1336.6520817268427,726,82.18051948051948
1337.4011424710418,754,79.86883116883116
1338.1876562524508,792,76.68029556650247
1339.0022598117675,820,76.68029556650245
1339.7513205559665,754,79.35698729582577
1340.4629282629558,716,84.06553713049746
1341.1464461920375,688,86.23040199536234
1341.8393273804218,698,86.99000370233247
1342.5322085688058,698,85.46998946998946
1343.2531795350976,726,83.98973998973999
1343.9835137606917,735,83.60487512487512
1344.6857582083783,707,83.24923076923076
1345.4160924339726,735,81.91339587242027
1346.1838796967766,773,78.56280763712614
1346.9797567374883,801,76.60676368108219
1347.7662705188973,792,76.92835356364768
1348.524694522399,764,79.53920153920154
1349.2456654886905,726,81.14860479417442
1349.9853629735871,745,81.81620910734836
1350.725060458484,745,80.7759493670886
1351.474121202683,754,79.78675517134917
1352.241908465487,773,78.79756097560974
1353.0096957282913,773,78.14634146341463
1353.7774829910954,773,79.13553565915406
1354.517180475992,745,81.19201832924392
1355.2287881829811,716,82.88349758169878
1355.949759149273,726,82.88349758169878
1356.6894566341696,745,80.82701491160893
1357.4572438969735,773,78.51532659992061
1358.2437576783827,792,77.21229167541244
1359.0209082004892,783,77.53388155797794
1359.7793322039909,764,78.47568049977687
1360.5377562074925,764,78.47568049977687
1361.3149067295992,783,76.65703426733754
1362.1295102889158,820,74.83838803489822
1362.9441138482323,820,73.94065757818765
1363.7493541482463,811,74.81750486882805
1364.5358679296555,792,76.63615110126737
1365.294291933157,764,78.8369164824861
1366.0339894180536,745,80.10834505391466
1366.7830501622527,754,78.57518398586988
1367.588290462267,811,75.80993657505284
1368.412257280886,830,73.66166071298389
1369.2268608402026,820,73.95386317536419
1370.022737880914,801,75.41607566167306
1370.7998884030208,783,78.2489669083574
1371.5302226286149,735,80.85981488391127
1372.2511935949065,726,82.50949050949052
1372.9815278205006,735,81.49524549524548
1373.7399518240022,764,79.48992551402189
1374.517102346109,783,77.23472189411238
1375.3129793868204,801,76.9131320115469
1376.0807666496246,773,78.21616693605506
1376.8204641345212,745,79.78675517134917
1377.5695248787204,754,80.10834505391466
1378.327948882222,764,78.49894179894179
1379.114462663631,792,76.63615110126737
1379.9197029636452,811,76.00072048993314
1380.6968534857517,783,76.62092954916659
1381.464640748556,773,78.15409061721138
1382.2230647520576,764,78.46793134598012
1382.9908520148615,773,79.11915085817523
1383.7399127590606,754,79.11915085817523
1384.4983367625623,764,79.77037037037036
1385.2473975067614,754,80.8106301106301
1385.9683684730533,726,82.18051948051948
1386.6893394393448,726,81.52929996832435
1387.457126702149,773,79.8378207158695
1388.224913964953,773,76.93477027793533
1389.0301542649672,811,76.31456121870188
1389.8166680463762,792,76.31456121870188
1390.5844553091804,773,76.60676368108219
1391.380332349892,801,76.30760401721663
1392.1762093906034,801,75.38823529411765
1392.9720864313151,801,76.62919389978214
1393.7305104348168,764,78.88439751969163
1394.4608446604109,735,81.86024891288048
1395.1724523674,716,82.87449392712551
1395.902786592994,735,82.52785322605442
1396.642484077891,745,79.85116149673112
1397.4289978593,792,77.89511754068717
1398.215511640709,792,77.22751322751323
1398.9739356442105,764,77.84772228674667
1399.7417229070147,773,77.84772228674667
1400.528236688424,792,76.02907605430734
1401.3428402477405,820,74.5320197044335
1402.157443807057,820,74.23286004056796
1402.9533208477685,801,75.72991639044179
1403.7211081105727,773,77.22697274031563
1404.4888953733766,773,77.52613240418118
1405.2754091547858,792,77.21229167541244
1406.0525596768925,783,76.29292295231345
1406.848436717604,801,75.99376328844791
1407.6443137583155,801,76.62919389978214
1408.4027377618172,764,79.60504529297097
1409.1143454688065,716,83.34049839312996
1409.8072266571905,698,84.71038776301933
1410.5281976234824,726,82.34006436416074
1411.3053481455888,783,77.2085328326292
1412.148041482813,849,73.2016064257028
1412.990734820037,849,71.73939393939392
1413.814701638656,830,73.13547237076648
1414.6105786793676,801,74.23934833975873
1415.4158189793816,811,75.39519249560288
1416.2023327607908,792,76.63615110126737
1416.9607567642922,764,78.49894179894179
1417.7098175084914,754,80.45498575498576
1418.4401517340857,735,80.78461538461538
1419.1892124782848,754,80.45498575498576
1419.9476364817863,764,79.44074074074072
1420.706060485288,764,79.1111111111111
1421.4644844887896,764,80.12535612535612
1422.1948187143837,735,81.49524549524548
1422.9157896806755,726,82.16284980841942
1423.6554871655721,745,80.51317418284019
1424.4326376876786,783,77.90232620728632
1425.2285147283903,801,75.7015608260676
1426.0337550284044,811,76.66662106703146
1426.7828157726035,754,79.64247246022032
1427.4944234795926,716,83.28526315789472
1428.1966679272793,707,84.32552289815447
1428.917638893571,726,84.32552289815447
1429.6292466005602,716,84.32552289815447
1430.3314910482468,707,85.4501280227596
1431.024372236631,698,86.60513883746759
1431.7078901657128,688,87.79180550413426
1432.382044835492,679,87.40694063926941
1433.0842892831788,707,84.84666666666666
1433.8333500273777,754,81.22878048780487
1434.601137290182,773,79.11915085817523
1435.3595612936836,764,79.45712554171955
1436.0992587785802,745,81.14860479417442
1436.8202297448718,726,82.51849416406378
1437.5412007111636,726,82.51849416406378
1438.2808981960602,745,81.47823442380404
1439.0299589402593,754,79.78675517134917
1439.7977462030635,773,79.11915085817523
1440.556170206565,764,79.80376624279063
1441.2865044321593,735,81.86024891288048
1441.9981121391484,716,83.23013828276986
1442.71908310544,726,83.9507860560492
1443.4306908124292,716,82.88349758169878
1444.1703882973259,745,81.84323784143903
1444.919449041525,754,81.84323784143903
1445.631056748514,716,83.28526315789472
1446.3333011962009,707,84.69052631578947
1447.0449089031902,716,84.69052631578947
1447.7565166101792,716,83.59514170040485
1448.4868508357733,735,82.18987854251012
1449.2359115799725,754,80.78461538461538
1449.9849723241716,754,81.14025974025972
1450.7059432904634,726,83.70053371286247
1451.389461219545,688,87.085040755116
1452.0542526300217,669,89.85906672914196
1452.709680781196,660,91.11307847082493
1453.3651089323703,660,90.69523809523808
1454.0392636021495,679,88.66095238095238
1454.741508049836,707,87.01153153153152
1455.4343892382203,698,85.82486486486485
1456.136633685907,707,85.4501280227596
1456.8482413928962,716,83.62323784143904
1457.5879388777928,745,82.18121252498335
1458.3276363626894,745,82.18121252498335
1459.0392440696787,716,85.22774488369257
1459.7040354801554,669,89.60153490603061
1460.3407371127246,641,92.90803645401822
1460.977438745294,641,93.33781512605042
1461.6328668964682,660,90.79091528503292
1462.3257480848524,698,87.85915057915057
1463.0279925325392,707,84.04486486486485
1463.7770532767381,754,82.56461538461538
1464.5073875023324,735,81.82487512487512
1465.228358468624,726,82.16284980841942
1465.9680559535207,745,81.81620910734836
1466.7077534384173,745,80.44631973745898
1467.466177441919,764,79.77871542428504
1468.2246014454206,764,79.77871542428504
1468.9642989303172,745,80.44631973745898
1469.7039964152139,745,82.5559493670886
1470.4062408629006,707,84.38283954840917
1471.0991220512847,698,85.82486486486485
1471.8013664989714,707,85.0851246051246
1472.522337465263,726,84.32552289815447
1473.2339451722523,716,84.32552289815447
1473.936189619939,707,84.69052631578947
1474.6477973269282,716,85.84553713049746
1475.33131525601,688,85.47080028839221
1476.042922962999,716,84.75015251511286
1476.773257188593,735,80.619290307216
1477.5691342293048,801,77.0657512872523
1478.3837377886214,820,74.5183452049625
1479.1889780886354,811,74.81750486882805
1479.9754918700446,792,76.63615110126737
1480.733915873546,764,76.92835356364768
1481.5297929142578,801,78.53775681862055
1482.2694903991544,745,78.86738644825019
1483.0185511433535,754,79.47291444258045
1483.79570166546,783,78.48372024684102
1484.5634889282642,773,78.15409061721138
1485.3219129317658,764,79.80376624279063
1486.05224715736,735,81.13960113960114
1486.782581382954,735,81.46923076923076
1487.5316421271532,754,80.78461538461538
1488.2807028713523,754,78.52941176470587
1489.076579912064,801,76.38113590263691
1489.8911834713806,820,75.41607566167306
1490.668333993487,783,77.32463858051148
1491.4080314783837,745,79.81088912612475
1492.1477289632805,745,81.460564751704
1492.8780631888746,735,81.460564751704
1493.6177606737713,745,80.47137055596457
1494.3855479365754,773,80.12472985489349
1495.125245421472,745,80.12472985489349
1495.8649429063687,745,81.81620910734836
1496.5859138726603,726,80.20680585237548
1497.3724276540695,792,77.44155844155844
1498.1963944726886,830,73.97402597402596
1499.0203612913074,830,74.28039430449068
1499.797511813414,783,77.3922824163788
1500.5278460390082,735,81.22481830154626
1501.2394537459975,716,82.87449392712551
1501.9697879715916,735,82.87449392712551
1502.7001221971857,735,80.50417052826691
1503.4772727192924,783,78.54812657222296
1504.2637865007014,792,77.21229167541244
1505.0315737635055,773,77.52613240418118
1505.7993610263097,773,76.93477027793533
1506.6046013263237,811,76.01540155483633
1507.4004783670352,801,75.39519249560288
1508.1869921484445,792,75.98655462184874
1508.9735059298534,792,78.5974025974026
1509.6944768961453,726,80.20680585237548
1510.4341743810419,745,80.82701491160893
1511.2019616438458,773,78.21616693605506
1511.9978386845576,801,76.01540155483633
1512.8030789845716,811,75.39519249560288
1513.5895927659806,792,76.63615110126737
1514.3480167694822,764,79.18355718355718
1515.0783509950763,735,80.12535612535612
1515.836774998578,764,78.59219505731133
1516.642015298592,811,74.94091300602926
1517.484708635816,849,72.30387596899223
1518.3274019730402,849,71.73939393939392
1519.1513687916593,830,74.37643097643097
1519.909792795161,764,77.34309764309762
1520.65885353936,754,80.45498575498576
1521.3891877649542,735,78.63633952254642
1522.2037913242707,820,82.89286126167684
1522.8498562161424,650,82.20824587706147
1523.5989169603415,754,88.17080745341613
1524.254345111516,660,88.17080745341613
1524.9004100033876,650,92.88257215929849
1525.5371116359568,641,95.22982490655124
1526.1457234906186,613,97.6483031674208
1526.744972085978,603,99.09807692307692
1527.3535839406397,613,97.1930602006689
1527.9996488325114,650,94.3323459149546
1528.6550769836858,660,91.1374741200828
1529.329231653465,679,89.84761904761905
1530.0033863232443,679,90.28985507246375
1530.649451215116,650,93.48472686733555
1531.2580630697778,613,97.7228221054308
1531.8479484058346,594,100.67106227106225
1532.4378337418914,594,101.1845238095238
1533.0370823372507,603,97.36426894701542
1533.7018737477274,669,92.71978101485625
1534.3853916768091,688,87.08504075511598
1535.1063626431007,726,85.10579687075722
1535.81797035009,716,84.32552289815447
1536.5202147977766,707,87.09954887218043
1537.1756429489508,660,88.25455968688844
1537.8591608780325,688,89.03483365949118
1538.5426788071143,688,85.55852262874978
1539.282376292011,745,81.42766042085292
1540.0782533327226,801,74.41738644825018
1540.9771262257616,905,68.73941176470588
1541.9134521560104,943,65.18575757575758
1542.840414826957,462,63.87693404634581
1543.7954672758108,471,64.76693404634581
1544.6943401688497,962,64.98709483793516
1545.6119395804938,905,67.0136603028308
1546.4827226956252,924,68.49699363616413
1547.3254160328493,877,71.53828457114278
1548.1306563328633,849,73.99911406423034
1548.9171701142723,811,76.00072048993314
1549.694320636379,792,76.8984509466437
1550.4714711584854,783,77.20481927710843
1551.2486216805921,783,76.89845094664372
1552.035135462001,783,76.00072048993314
1552.8403757620154,792,75.69435215946844
1553.6268895434243,811,75.69435215946844
1554.4134033248336,792,78.24175824175825
1555.1437375504277,792,81.67805167805167
1555.836618738812,735,85.50975422208299
1556.5201366678934,698,86.99000370233247
1557.2130178562777,688,85.16311352101191
1557.9527153411743,698,81.95162003621405
1558.7205026039785,745,79.13553565915406
1559.4882898667827,773,79.48217636022514
1560.2186240923768,773,81.53865903031499
1560.9302317993659,735,83.96987854251012
1561.6324762470526,716,84.69052631578947
1562.3440839540417,707,85.06526315789472
1563.0463284017285,716,84.69052631578947
1563.7579361087176,707,85.06526315789472
1564.4601805564043,716,84.69052631578947
1565.1717882633936,707,85.4501280227596
1565.8646694517777,716,85.83499288762445
1566.557550640162,698,89.14149443561207
1567.194252272731,698,91.23315130987766
1567.840317164603,641,94.24888345993816
1568.4676555378696,650,93.79364049318625
1569.1137204297415,632,94.71771576898118
1569.7410588030082,650,93.35140446834151
1570.3964869541826,632,92.06154939587775
1571.0706416239618,660,88.2862155388471
1571.782249330951,679,85.51218956482114
1572.5032202972425,716,84.32552289815447
1573.2054647449293,726,85.88692640692639
1573.8796194147085,707,87.4069406392694
1574.5631373437902,679,88.18721461187214
1575.246655272872,688,87.78082191780821
1575.9301732019535,688,87.00054794520547
1576.6324176496403,688,86.60513883746759
1577.3252988380245,707,85.0851246051246
1578.0462698043161,698,84.71038776301933
1578.7578775113054,726,83.23013828276986
1579.4882117368995,716,83.23013828276986
1580.2091827031911,735,83.23013828276986
1580.9207904101804,726,85.1057968707572
1581.604308339262,716,85.84553713049746
1582.3065527869487,688,85.84553713049746
1583.018160493938,707,84.32552289815447
1583.7391314602296,716,83.9507860560492
1584.4507391672187,726,84.32552289815447
1585.1529836149055,716,85.4501280227596
1585.8458648032897,707,87.01153153153152
1586.520019473069,698,87.01153153153152
1587.2222639207555,679,86.62666666666667
1587.9245083684423,707,84.70025974025972
1588.6454793347339,707,84.32552289815447
1589.3570870417232,726,83.9507860560492
1590.0686947487122,716,84.69052631578947
1590.770939196399,716,85.84553713049746
1591.4544571254808,707,86.22027397260274
1592.1567015731673,688,86.22027397260274
1592.858946020854,707,85.06526315789472
1593.5705537278432,707,84.32552289815447
1594.291524694135,716,83.5857826384142
1595.0124956604266,726,83.5857826384142
1595.7241033674156,726,84.71038776301933
1596.4169845558,716,84.71038776301933
1597.1379555220915,698,83.6430992886689
1597.8776530069883,726,81.81620910734836
1598.617350491885,745,81.81620910734836
1599.3383214581766,745,83.25823442380404
1600.0405659058633,726,85.0851246051246
1600.7334470942474,707,86.60513883746759
1601.416965023329,698,86.99000370233247
1602.1098462117134,688,86.99000370233247
1602.8027274000976,698,84.76770441327403
1603.5424248849943,698,82.94081423195348
1604.2821223698909,745,80.7759493670886
1605.03118311409,745,81.47823442380404
1605.7521540803816,754,82.18051948051948
1606.4731250466732,726,83.2207792207792
1607.194096012965,726,84.74079345312221
1607.8776139420468,726,86.26080768546521
1608.5611318711283,688,88.605054987459
1609.2259232816052,688,89.42928805710977
1609.890714692082,669,90.25352112676056
1610.5555061025586,669,81.74477166026462
1611.482468773505,669,91.21582017356666
1611.9880847758395,933,88.51592851592852
1612.7184190014336,509,93.97814562371525
1613.4581164863303,735,82.16284980841942
1614.1790874526218,745,83.25823442380404
1614.8813319003086,726,84.70025974025972
1615.5835763479952,707,84.34461538461538
1616.3139105735895,707,83.24923076923076
1617.0442447991836,735,81.80720545277508
1617.7839422840802,735,82.16284980841942
1618.5049132503718,745,82.16284980841942
1619.2352474759662,726,81.49524549524548
1619.9936714794676,735,80.79296043853006
1620.7333689643642,764,75.89255558023046
1621.622878598101,745,79.60669225211362
1622.2876700085776,896,78.61749805637419
1623.0554572713816,669,81.86822728909453
1623.8326077934883,773,77.21229167541244
1624.6191215748972,783,76.29292295231345
1625.414998615609,792,76.60676368108219
1626.182785878413,801,78.21616693605506
1626.9224833633098,773,79.13553565915406
1627.6902706261137,745,78.21616693605506
1628.4861476668254,773,75.17819225251075
1629.3194777447468,801,74.25882352941176
1630.1153547854585,839,75.82941176470587
1630.8644155296577,801,78.86738644825019
1631.6041130145543,754,80.7759493670886
1632.343810499451,745,81.11392405063292
1633.0835079843475,745,80.44631973745898
1633.8419319878492,745,79.14328481295081
1634.6190825099557,764,78.80531012940651
1635.3681432541548,783,76.16827309236947
1636.210836591379,754,73.15673758865248
1637.0909829658128,849,68.4773561453535
1637.9992191181543,886,67.71176474750405
1638.870002233286,915,70.72330025122105
1639.6471527553924,877,74.43762145355615
1640.4243032774991,783,77.20481927710843
1641.2014537996056,783,76.02160365600332
1642.0160573589221,783,75.12387319929276
1642.8212976589364,820,74.2261427425822
1643.6265379589504,811,75.72319909245604
1644.3943252217546,811,78.6262495303902
1645.1152961880462,773,81.89430338595935
1645.8269038950352,726,82.88349758169878
1646.5666013799319,716,81.19201832924392
1647.334388642736,745,77.63847930928021
1648.1489922020526,773,74.87323189846317
1648.9729590206716,820,73.09717868338558
1649.7969258392907,830,73.09717868338558
1650.6115293986072,830,74.55939116969445
1651.388679920714,820,77.67127928158257
1652.119014146308,783,80.50417052826691
1652.8493483719021,735,81.46923076923076
1653.5984091161013,735,80.13339587242027
1654.3661963789054,754,77.87819225251076
1655.162073419617,773,75.45091952523802
1655.986040238236,801,73.95386317536419
1656.8006437975525,830,74.25302283922974
1657.5871575789618,820,77.36491095111785
1658.3174918045559,792,81.67805167805167
1659.0103729929401,735,84.72948024948025
1659.7126174406267,698,85.0851246051246
1660.4335884069185,707,82.5906301106301
1661.1920124104201,726,78.94783941295569
1661.9972527104342,764,76.33699143740182
1662.7931297511457,811,76.01540155483633
1663.5609170139498,801,75.17819225251075
1664.3942470918714,773,73.2661717921527
1665.2556669477003,839,70.68991877687529
1666.107723544227,867,70.42325211020862
1666.9504168814508,858,72.63443223443223
1667.73693066286,849,75.53227513227512
1668.4953546663617,792,78.8369164824861
1669.2350521512583,764,80.44631973745898
1669.974749636155,745,79.81088912612475
1670.7519001582616,745,78.50785420161658
1671.529050680368,783,76.30708882039787
1672.334290980382,783,75.4093583636873
1673.1395312803963,811,75.1029900332226
1673.9260450618053,811,77.6503961155124
1674.6563792873994,792,80.1978021978022
1675.3867135129938,735,81.46923076923076
1676.1357742571927,735,80.13339587242027
1676.9035615199969,754,77.87819225251076
1677.6994385607086,773,76.91313201154689
1678.476589082815,801,77.56435152374202
1679.2256498270142,783,79.81955514365153
1679.9559840526083,754,81.46923076923076
1680.6863182782026,735,81.46923076923076
1681.4353790224018,735,79.51318681318682
1682.2218928038108,754,77.25798319327731
1683.0177698445223,792,76.60676368108219
1683.7855571073264,801,78.21616693605506
1684.525254592223,773,80.12472985489349
1685.2649520771197,745,80.7759493670886
1686.0140128213188,745,79.78675517134917
1686.781800084123,754,79.11915085817523
1687.5402240876247,773,79.11915085817523
1688.2892848318238,764,80.8106301106301
1689.0102557981154,754,83.70053371286247
1689.6937737271971,726,85.48053371286247
1690.396018174884,688,85.84553713049746
1691.107625881873,707,83.96987854251012
1691.837960107467,716,81.53865903031499
1692.6057473702713,735,80.47137055596457
1693.345444855168,773,80.82701491160893
1694.0664158214595,745,81.81620910734836
1694.806113306356,726,80.82701491160893
1695.5739005691603,745,77.92396447367476
1696.3791408691743,773,74.88598979013045
1697.2124709470959,811,75.53720930232558
1697.961531691295,839,77.73797468354431
1698.7012291761916,754,81.1225900681597
1699.4315634017858,745,81.80720545277508
1700.16189762738,735,81.13960113960114
1700.9203216308817,735,79.48992551402189
1701.6974721529882,764,77.84024988844264
1702.474622675095,783,77.84024988844266
1703.2330466785966,783,78.47568049977687
1703.991470682098,764,78.47568049977687
1704.7686212042047,764,76.37803740213377
1705.5925880228237,783,74.28039430449068
1706.4165548414428,830,73.97402597402598
1707.2030686228518,830,76.07166907166906
1707.9614926263534,792,77.22751322751323
1708.7480064077627,764,75.7989417989418
1709.5813364856842,792,72.90109890109889
1710.4333930822106,839,71.74525474525474
1711.2573599008297,858,73.17382617382617
1712.0438736822389,830,76.739273384843
1712.7835711671355,792,79.85116149673112
1713.5139053927296,745,81.80720545277508
1714.2442396183237,735,81.13960113960114
1715.0026636218254,735,78.30670989291679
1715.817267181142,764,75.47381864623243
1716.6318707404585,820,74.83838803489822
1717.4090212625651,820,76.98666389696717
1718.1580820067643,783,77.27214906136172
1718.9633223067783,754,75.53720930232558
1719.7966523846999,811,72.57054263565891
1720.6393457219237,839,72.57054263565891
1721.444586021938,849,75.2705426356589
1722.1936467661371,811,78.92182468694097
1722.9239809917312,754,81.1225900681597
1723.6636784766279,735,79.55200183286557
1724.4595555173394,745,76.71911058618122
1725.274159076656,801,75.10970733120834
1726.0606728580651,820,76.68029556650245
1726.8097336022643,792,78.1773519163763
1727.5775208650684,754,77.30050462573591
1728.392124424385,773,73.81789593008374
1729.2535442802139,820,70.01911544227886
1730.1524171732528,867,67.9516018306636
1731.0419268069893,905,69.86362229102167
1731.8378038477008,896,74.31362229102166
1732.5868645919,801,78.52941176470588
1733.335925336099,754,78.82857142857142
1734.1224391175083,754,76.12857142857143
1734.9557691954299,792,73.7012987012987
1735.779736014049,839,74.0076670317634
1736.5568865361554,830,77.74792677202315
1737.2778575024472,783,81.21545923955563
1737.9988284687388,726,81.21545923955561
1738.7759789908455,726,76.69259080364371
1739.6373988466744,783,70.97294962008499
1740.5456349990159,867,67.0339282283958
1741.4632344106599,915,67.0339282283958
1742.3246542664888,924,70.14272143640065
1743.1205313072003,867,73.47621483375958
1743.916408347912,801,75.09603283173735
1744.721648647926,801,73.69995440036479
1745.5643419851501,811,71.78793394000674
1746.425761840979,849,71.5024487756122
1747.2403654002956,867,72.04184271500613
1748.0643322189146,820,72.04184271500614
1748.9257520747437,830,70.96264604960257
1749.7778086712701,867,69.90731008122313
1750.6392285270992,858,71.52712807920088
1751.4444688271133,867,74.10338109447828
1752.2122560899174,811,76.62092954916659
1752.989406612024,773,75.51705358017435
1753.832099949248,783,71.71827309236947
1754.730972842287,849,68.00395189003436
1755.6392089946285,905,66.99402281202018
1756.5193553690624,915,68.4773561453535
1757.3620487062865,886,70.72946486137974
1758.1860155249055,849,72.0060606060606
1759.019345602827,830,73.10993657505284
1759.8245859028411,839,74.265780730897
1760.6110996842501,811,76.965780730897
1761.3601604284493,792,78.1773519163763
1762.1279476912534,754,79.44878048780487
1762.8770084354526,773,79.44878048780487
1763.6260691796517,754,80.78461538461538
1764.3564034052458,754,81.46923076923076
1765.08673763084,735,83.24923076923076
1765.7889820785267,735,82.23498575498576
1766.5474060820284,707,79.97978213507625
1767.3432831227399,764,75.49978213507625
1768.1766132006614,801,72.8627450980392
1769.0193065378855,839,72.57054263565891
1769.8245468378996,849,74.61932312346379
1770.5923341007035,811,78.6262495303902
1771.3133050669953,773,80.82701491160893
1772.053002551892,726,81.81620910734836
1772.7927000367886,745,80.7759493670886
1773.5417607809877,745,79.47291444258045
1774.3189113030944,754,79.47291444258045
1775.058608787991,783,81.25291444258045
1775.7608532356776,745,84.77824865614704
1776.4443711647593,707,85.84553713049746
1777.1559788717486,688,84.75015251511286
1777.8863130973427,716,81.53865903031499
1778.654100360147,735,79.48217636022514
1779.4218876229509,773,79.13553565915406
1780.1615851078475,773,81.56675517134917
1780.8638295555343,745,83.9979746835443
1781.566074003221,707,84.70025974025972
1782.2870449695126,707,83.25823442380404
1783.0267424544093,726,81.81620910734836
1783.7664399393059,745,81.460564751704
1784.4967741649,745,82.52785322605442
1785.2083818718893,735,83.96987854251012
1785.9106263195758,716,85.06526315789472
1786.6128707672626,707,85.44
1787.3151152149494,707,83.9979746835443
1788.054812699846,707,82.9025900681597
1788.7851469254401,745,81.80720545277508
1789.5154811510342,735,81.46923076923076
1790.2645418952334,735,79.51318681318682
1791.0510556766424,754,77.55714285714285
1791.8375694580516,792,76.28571428571429
1792.6240832394606,792,76.592082616179
1793.4012337615673,792,78.20148587115187
1794.1409312464639,783,80.87817760047517
1794.8525389534532,745,82.88349758169878
1795.5735099197448,716,83.5857826384142
1796.2944808860364,726,82.86513486513486
1797.0248151116305,726,80.85981488391127
1797.8019656337372,735,78.54812657222296
1798.5884794151464,783,76.592082616179
1799.3749931965554,792,76.28571428571429
1800.1615069779643,792,77.22751322751323
1800.919930981466,792,76.92835356364768
1801.7158080221777,764,75.77250940780351
1802.5397748407968,801,73.13547237076648
1803.3824681780206,830,71.22345191040843
1804.2438880338498,849,70.42325211020862
1805.0959446303762,867,72.42485853591144
1805.8730951524828,858,76.94772697182336
1806.5940661187744,783,81.58046265719062
1807.3056738257637,726,84.32552289815447
1808.0079182734503,716,83.28526315789472
1808.7569790176494,707,80.60857142857142
1809.5434927990586,754,77.55714285714285
1810.3300065804676,792,76.592082616179
1811.1071571025743,792,77.53388155797794
1811.865581106076,783,77.53388155797794
1812.652094887485,764,75.7989417989418
1813.4854249654065,792,73.42857142857143
1814.318755043328,839,73.12941176470588
1815.1146320840396,839,75.82941176470587
1815.8636928282388,801,79.21402714932127
1816.5940270538329,754,81.82487512487512
1817.3149980201247,735,81.82487512487512
1818.0640587643238,726,80.48904022806461
1818.8318460271278,754,79.44878048780487
1819.580906771327,773,80.48904022806461
1820.3018777376187,754,80.8106301106301
1821.0603017411204,726,79.84556986966625
1821.8374522632269,764,77.53388155797794
1822.623966044636,783,76.592082616179
1823.410479826045,792,77.22751322751323
1824.1689038295467,792,78.49894179894179
1824.9179645737458,764,78.49894179894179
1825.7044783551548,754,76.96578073089701
1826.509718655169,792,74.53850800362427
1827.3336854737881,811,74.53850800362429
1828.1201992551971,830,76.40129870129869
1828.8692599993963,792,79.86883116883116
1829.5902309656879,754,81.82487512487512
1830.3205651912822,726,82.16284980841942
1831.0602626761788,735,80.79296043853006
1831.8186866796805,745,79.77871542428504
1832.577110683182,764,79.77871542428504
1833.3168081680785,764,80.44631973745898
1834.0565056529754,745,80.12472985489349
1834.8242929157793,745,78.21616693605506
1835.620169956491,773,75.45091952523802
1836.44413677511,801,74.53155080213904
1837.2400138158216,830,76.44011372097745
1837.9797113007182,801,80.27264960614491
1838.6913190077073,745,83.62323784143904
1839.393563455394,716,84.32552289815447
1840.1145344216857,707,81.95519949929587
1840.8916849437924,726,78.60461126400176
1841.6875619845039,783,76.29292295231346
1842.474075765913,801,76.92835356364768
1843.2324997694147,792,70.87037037037037
1844.2811848112935,764,88.16179894179893
1844.7493477764178,1056,86.3431527093596
1845.5639513357344,471,93.00666389696717
1846.341101857841,820,76.65703426733754
1847.0995258613427,783,79.48992551402189
1847.8298600869368,764,80.45498575498576
1848.578920831136,735,80.78461538461538
1849.3279815753351,754,79.44878048780487
1850.0957688381393,754,77.58598979013045
1850.9010091381533,773,77.25636016050082
1851.659433141655,811,78.24555435624025
1852.3991306265516,764,80.79296043853006
1853.1294648521457,745,81.460564751704
1853.8691623370423,735,80.15752982719583
1854.646312859149,745,78.20148587115187
1855.432826640558,783,76.8984509466437
1856.2099771626647,792,77.86351118760757
1856.9590379068638,783,79.81955514365153
1857.689372132458,754,81.46923076923076
1858.419706358052,735,82.15384615384616
1859.1500405836462,735,82.15384615384616
1859.8803748092405,735,82.15384615384616
1860.6107090348346,735,82.15384615384616
1861.3410432604287,735,81.13960113960114
1862.0994672639304,735,79.18355718355718
1862.8859810453393,764,77.53388155797794
1863.663131567446,792,77.21229167541244
1864.4309188302502,783,77.51866000587715
1865.2080693523567,773,79.1683356314564
1865.938403577951,783,81.59955514365151
1866.6406480256376,735,84.34461538461538
1867.3428924733244,707,84.34461538461538
1868.0732266989185,707,81.29318681318682
1868.8597404803274,735,76.54652014652015
1869.7024338175515,792,73.7136288998358
1870.517037376868,849,73.41446923597024
1871.3129144175798,820,74.8105476673428
1872.1087914582913,801,75.38823529411765
1872.9046684990028,801,75.09603283173735
1873.7099087990168,801,75.39519249560288
1874.496422580426,811,76.31456121870188
1875.2642098432302,792,78.1773519163763
1876.0132705874294,773,79.44878048780487
1876.7623313316285,754,80.1
1877.5113920758276,754,79.77037037037036
1878.269816079329,754,79.44074074074072
1879.0282400828307,764,78.78952122854561
1879.796027345635,764,74.66915085817524
1880.6949002386739,773,70.3193990445059
1881.6031363910154,905,66.29123711340206
1882.5113725433569,915,67.00897904888593
1883.3821556584883,915,69.82556979451049
1884.1873959585023,877,75.18956662242483
1884.9177301840964,811,80.70182468694097
1885.6199746317832,735,85.12488935721812
1886.303492560865,707,85.48053371286247
1887.0244635271565,688,82.42910514143391
1887.8109773085657,726,76.64135864135864
1888.663033905092,792,72.11849020544673
1889.5244537609212,858,67.63109524746352
1890.479506209775,867,64.30951117116247
1891.472011695839,962,62.45211986681464
1892.4083376260878,999,63.53156195292744
1893.3165737784293,943,66.10402281202018
1894.1967201528632,915,68.21655028454765
1895.0487767493898,886,70.19593172784661
1895.8821068273114,858,72.60193923723335
1896.677983868023,839,75.82941176470587
1897.427044612222,801,79.9346749226006
1898.1386523192111,754,82.54552289815447
1898.859623285503,716,83.23013828276986
1899.589957511097,726,80.85981488391127
1900.3671080332035,735,78.2489669083574
1901.1629850739153,783,110.19768485707536
1901.5000624088048,801,128.9627450980392
1901.9494988553242,339,131.57359307359306
1902.670469821616,452,101.10512460512462
1903.36335101,726,87.56164634425502
1904.009415901872,698,90.77790834312572
1904.6554807937437,650,94.77458193979932
1905.2640926484055,650,96.67959866220735
1905.8727045030673,613,97.60367393800229
1906.500042876334,613,94.82664251871735
1907.1648342868107,632,91.22537802978162
1907.8483522158924,669,88.20964587972111
1908.5412334042767,688,86.99000370233247
1909.234114592661,698,85.11434511434511
1909.964448818255,698,82.94948024948025
1910.7135095624542,735,80.45498575498576
1911.4719335659559,754,79.44074074074072
1912.2303575694575,764,79.44074074074072
1912.9794183136567,764,80.45498575498576
1913.7097525392508,754,82.18987854251012
1914.4213602462398,735,84.75015251511286
1915.1048781753216,716,87.87982284478318
1915.7603063264958,688,88.63942455175331
1916.45318751488,660,87.11941031941032
1917.1741584811716,698,82.03369603369603
1917.9606722625808,726,77.72055530676221
1918.7752758218974,792,73.71362889983578
1919.6179691591215,820,72.55778474399163
1920.4419359777405,849,72.84326990838618
1921.2471762777545,830,74.53850800362429
1922.0336900591635,811,77.6503961155124
1922.7640242847579,792,81.29318681318682
1923.4662687324444,735,84.34461538461538
1924.1685131801312,707,83.9979746835443
1924.9082106650278,707,80.94654611211573
1925.6947244464368,745,77.89511754068717
1926.481238227846,792,76.28571428571429
1927.267752009255,792,77.89511754068717
1928.0074494941516,792,81.72682008471847
1928.6909674232334,745,85.55852262874977
1929.374485352315,688,87.78082191780821
1930.0580032813969,688,87.00054794520547
1930.7602477290834,688,85.48053371286247
1931.4812186953752,707,84.70025974025972
1932.1834631430618,726,84.70025974025972
1932.8857075907486,707,85.44
1933.5879520384353,707,83.9979746835443
1934.327649523332,707,81.88834505391466
1935.0860735268336,745,79.14328481295081
1935.86322404894,764,77.53388155797794
1936.6497378303493,783,76.8984509466437
1937.4268883524558,792,78.54812657222296
1938.1572225780499,783,80.85981488391127
1938.8781935443417,735,82.86513486513486
1939.5991645106333,726,83.96051948051948
1940.30140895832,726,85.48053371286247
1940.9849268874018,707,88.25455968688844
1941.640355038576,688,91.1863243927708
1942.2770566711451,660,93.33781512605042
1942.9137583037145,641,93.33781512605042
1943.5691864548887,641,91.59271708683472
1944.243341124668,660,89.04581724581723
1944.9362223130522,679,87.01153153153152
1945.6384667607388,698,85.82486486486485
1946.3407112084255,707,86.62666666666667
1947.0148658782048,707,86.25192982456139
1947.7264735851938,679,85.15654520917678
1948.456807810788,716,82.18987854251012
1949.205868554987,735,81.46923076923076
1949.9362027805814,754,83.34488935721812
1950.619720709663,735,86.72939639947164
1951.2845121201399,688,89.85906672914196
1951.939940271314,669,90.2654594232059
1952.6140949410933,660,88.2862155388471
1953.3257026480824,679,87.03220379716413
1954.0092205771641,716,86.23040199536234
1954.7021017655484,688,87.38541281007033
1955.3856196946301,698,87.38541281007033
1956.0691376237116,688,87.38541281007033
1956.762018812096,688,85.50975422208299
1957.49235303769,698,83.28745493302455
1958.2320505225869,735,81.1225900681597
1958.9811112667858,745,81.1225900681597
1959.71144549238,754,81.82487512487512
1960.4324164586717,735,85.20938216712864
1961.0972078691484,726,87.90927382476679
1961.7619992796251,669,89.8356807511737
1962.4361539494043,669,89.01144768152292
1963.119671878486,679,87.40694063926941
1963.8219163261729,688,86.60513883746759
1964.514797514557,707,86.20972972972973
1965.2076787029412,698,86.20972972972973
1965.909923150628,698,85.82486486486485
1966.6121675983145,707,83.9979746835443
1967.3518650832111,707,82.2179746835443
1968.1009258274103,745,80.7759493670886
1968.840623312307,754,80.7759493670886
1969.5803207972037,745,81.11392405063292
1970.3200182821004,745,80.7759493670886
1971.0690790262995,745,80.10834505391466
1971.827503029801,754,79.77037037037036
1972.576563774,764,79.77037037037036
1973.3256245181992,754,81.50526315789472
1974.0372322251885,754,83.28526315789472
1974.739476672875,716,85.06526315789472
1975.4417211205619,707,84.70025974025972
1976.1626920868534,707,83.25823442380404
1976.90238957175,726,80.82701491160893
1977.6701768345542,745,79.13553565915406
1978.4379640973584,773,78.79756097560974
1979.1870248415576,773,79.44878048780487
1979.9360855857567,754,79.77037037037036
1980.6945095892584,754,79.11915085817523
1981.4622968520623,764,77.84772228674667
1982.2488106334715,773,77.84772228674667
1983.0072346369732,792,79.90420495683654
1983.7188423439623,764,83.34049839312996
1984.4117235323465,716,85.83499288762445
1985.1046047207308,698,86.59459459459458
1985.7974859091148,698,85.11434511434511
1986.5278201347091,698,83.28745493302455
1987.2675176196058,735,81.1225900681597
1988.016578363805,745,81.84323784143903
1988.728186070794,754,82.18987854251012
1989.458520296388,716,82.18987854251012
1990.2075810405872,735,80.13339587242027
1990.9753683033914,754,77.87819225251076
1991.771245344103,773,76.91313201154689
1992.5483958662096,801,77.56435152374202
1993.2974566104087,783,79.81955514365153
1994.0277908360029,754,81.82487512487512
1994.7487618022944,735,82.86513486513486
1995.4697327685863,726,82.51849416406378
1996.2094302534829,726,81.81620910734836
1996.9491277383795,745,82.5559493670886
1997.6513721860663,745,83.25823442380404
1998.3723431523579,707,83.60487512487512
1999.102677377952,726,81.82487512487512
1999.8517381221511,735,80.45498575498576
2000.6101621256528,754,79.44074074074072
2001.3685861291544,764,80.12535612535612
2002.0989203547485,764,81.13960113960114
2002.8292545803426,735,81.80720545277508
2003.5689520652393,735,80.47137055596457
2004.3367393280434,745,79.78675517134917
2005.0858000722426,773,80.13339587242027
2005.8161342978367,754,82.56461538461538
2006.5183787455235,735,83.96987854251012
2007.2299864525125,707,83.96987854251012
2007.9603206781069,716,81.86024891288048
2008.7187446816083,735,78.88439751969163
2009.51462172232,764,76.92835356364768
2010.301135503729,801,76.92835356364768
2011.0595595072307,792,78.16931216931216
2011.8179835107323,764,78.47568049977687
2012.5951340328388,764,77.84024988844264
2013.3722845549455,783,77.84024988844266
2014.1307085584472,783,79.14328481295081
2014.8704060433438,764,81.14860479417442
2015.5913770096354,745,83.25823442380404
2016.2936214573222,726,83.25823442380404
2017.0333189422188,707,81.25291444258045
2017.8104694643255,745,77.61012374490602
2018.6157097643395,783,74.57214906136173
2019.449039842261,811,73.96662106703145
2020.2449168829726,839,75.49978213507625
2021.0033408864742,801,77.54856262288112
2021.7711281492784,764,78.78952122854561
2022.5295521527798,773,78.46793134598012
2023.297339415584,764,76.69187813090251
2024.121306234203,773,74.87323189846317
2024.9359097935196,830,74.55939116969445
2025.7130603156263,820,76.02160365600332
2026.4902108377328,783,76.59929128277817
2027.2860878784445,783,75.41607566167306
2028.100691437761,801,73.68113590263692
2028.9340215156826,820,73.98029556650246
2029.7205352970916,839,76.46654611211574
2030.4602327819882,792,80.94654611211573
2031.162477229675,745,83.62323784143904
2031.874084936664,707,82.6340436456996
2032.6418721994683,716,77.88737697903294
2033.4845655366923,773,72.99950512548602
2034.3459853925212,849,70.95072463768116
2035.1793154704428,867,69.7016018306636
2036.0688251041793,839,69.45195246179966
2036.9396082193107,896,68.66934376614748
2037.8010280751398,877,71.02234254215728
2038.6062683751538,867,72.89180990899898
2039.4115086751679,811,75.4093583636873
2040.1886591972745,811,77.95676444597711
2040.9189934228687,783,80.15752982719583
2041.6586909077653,735,79.85116149673112
2042.4452046891745,745,76.46654611211574
2043.278534767096,792,72.64596273291926
2044.139954622925,839,70.95072463768116
2044.982647960149,867,72.37929606625258
2045.769161741558,849,75.86190476190475
2046.5182224857572,792,78.49894179894179
2047.2766464892588,754,79.44074074074072
2048.0350704927605,764,78.16931216931216
2048.8215842741697,764,76.92835356364768
2049.617461314881,792,76.60676368108219
2050.385248577685,801,78.21616693605506
2051.124946062582,773,80.82701491160893
2051.8459170288734,745,82.88349758169878
2052.557524735863,726,84.71038776301933
2053.250405924247,716,86.63679468942627
2053.924560594026,698,88.61603857378505
2054.589352004503,679,90.70769544805061
2055.2354168963748,669,90.70769544805061
2055.9095715661538,650,88.36344814605684
2056.6305425324454,679,83.77729677729677
2057.388966535947,726,80.48100048100048
2058.1473905394487,764,78.78952122854561
2058.915177802253,764,80.52441401606998
2059.626785509242,773,82.6340436456996
2060.329029956929,716,85.4501280227596
2061.021911145313,707,86.20972972972973
2061.714792333697,698,85.83499288762445
2062.4264000406865,698,84.0081027063039
2063.166097525583,716,82.52785322605442
2063.8964317511773,745,81.460564751704
2064.636129236074,735,80.47137055596457
2065.403916498878,745,78.21616693605506
2066.1997935395893,773,76.01540155483633
2067.0050338396036,801,74.80383036935704
2067.810274139618,811,76.37441860465115
2068.5593348838165,811,77.27214906136172
2069.336485405923,754,78.80531012940651
2070.094909409425,783,77.53388155797794
2070.881423190834,764,77.53388155797794
2071.658573712941,792,85.61512409083338
2072.239095789695,783,101.26347573918501
2072.7259852734246,584,113.67139312300601
2073.250327794364,490,105.26856070758508
2074.018115057168,528,90.89163763066202
2074.767175801367,773,78.79756097560974
2075.5349630641713,754,78.1773519163763
2076.3214768455805,773,74.94987938890378
2077.173533442107,792,72.63443223443223
2078.0162267793307,858,70.42325211020862
2078.8776466351596,849,71.22345191040843
2079.701613453779,867,73.86048894744546
2080.4600374572806,830,76.69187813090251
2081.2278247200848,764,78.15409061721138
2082.004975242191,773,101.45813885149218
2082.4075953921983,783,122.87602503035396
2082.8289420608103,405,121.14108527131782
2083.6622721387316,424,96.30387596899223
2084.467512438746,839,73.67441860465115
2085.27275273876,811,74.51162790697674
2086.077993038774,811,73.94714587737843
2086.901959857393,811,72.84326990838618
2087.744653194617,830,71.73939393939392
2088.587346531841,849,71.19999999999999
2089.4300398690652,849,72.59607843137253
2090.2259169097765,849,75.23311546840958
2090.984340913278,801,78.19978213507625
2091.7334016574773,764,79.11915085817523
2092.5011889202815,754,77.30050462573591
2093.3157924795983,773,74.87323189846317
2094.139759298217,820,73.09717868338558
2094.9637261168364,830,74.28039430449068
2095.7408766389426,830,77.3922824163788
2096.471210864537,783,79.81955514365151
2097.2202716087363,735,81.1225900681597
2097.959969093633,754,79.78675517134917
2098.7277563564367,745,78.51532659992061
2099.514270137846,773,76.31456121870188
2100.31951043786,792,76.00072048993314
2101.096660959967,811,77.95676444597711
2101.826995185561,783,79.81955514365151
2102.57605592976,735,80.13339587242027
2103.3438431925642,754,77.87819225251076
2104.1397202332755,773,75.45091952523802
2104.963687051895,801,74.23934833975873
2105.7689273519086,830,75.48030694542322
2106.5273513554102,811,77.57795004306631
2107.285775358912,764,79.44074074074072
2108.034836103111,764,80.10834505391466
2108.7745335880077,754,82.60283954840916
2109.467414776392,745,85.56950621507583
2110.141569446171,698,88.61603857378505
2110.806360856648,679,89.41784037558685
2111.480515526427,669,88.23117370892018
2112.1827599741137,679,84.19544715447154
2112.950547236918,707,79.9573519163763
2113.737061018327,773,77.21229167541244
2114.5142115404337,792,78.20148587115187
2115.2539090253304,783,80.87817760047517
2115.9655167323194,745,82.52785322605442
2116.6958509579135,716,82.18987854251012
2117.4449117021127,735,80.45498575498576
2118.2033357056143,754,79.44074074074072
2118.961759709116,764,78.78952122854561
2119.72954697192,764,79.45712554171955
2120.469244456817,773,80.82701491160893
2121.1902154231084,745,83.25823442380404
2121.892459870795,726,83.96051948051948
2122.613430837087,707,83.60487512487512
2123.343765062681,726,82.16284980841942
2124.0834625475777,735,81.460564751704
2124.8231600324743,745,82.18121252498335
2125.5347677394634,745,84.40351181404178
2126.218285668545,716,86.6258111031002
2126.901803597627,688,88.18721461187214
2127.575958267406,688,87.03220379716413
2128.2875659743954,679,85.15654520917678
2129.0179001999895,716,82.52785322605442
2129.757597684886,735,82.16284980841942
2130.4785686511777,745,83.25823442380404
2131.1808130988643,726,84.70025974025972
2131.883057546551,707,85.44
2132.585301994238,707,85.44
2133.2875464419244,707,85.44
2133.989790889611,707,85.44
2134.692035337298,707,85.82486486486485
2135.384916525682,707,85.82486486486485
2136.0871609733686,698,84.72948024948025
2136.8174951989627,707,82.9025900681597
2137.5571926838593,735,80.15752982719583
2138.334343205966,745,78.50785420161658
2139.1114937280727,783,77.84024988844266
2139.8699177315743,783,77.84024988844264
2140.647068253681,764,77.53388155797794
2141.4335820350902,783,76.8984509466437
2142.2107325571965,792,77.21229167541244
2142.9785198200007,783,78.48372024684102
2143.7275805642,773,79.44878048780487
2144.476641308399,754,80.1
2145.225702052598,754,80.4379746835443
2145.9653995374947,754,81.47823442380404
2146.6863705037863,745,82.16284980841942
2147.4167047293804,726,81.82487512487512
2148.1657654735795,735,80.13339587242027
2148.9335527363837,754,77.87819225251076
2149.7294297770954,773,76.91313201154689
2150.506580299202,801,77.90232620728634
2151.2462777840988,783,79.81088912612475
2151.9859752689954,745,81.460564751704
2152.7163094945895,745,80.79296043853006
2153.474733498091,735,79.80376624279063
2154.2425207608953,764,79.80376624279063
2154.9728549864894,773,81.91339587242027
2155.675099434176,735,83.96987854251012
2156.386707141165,707,84.69052631578947
2157.0983148481546,716,83.24850099933377
2157.838012333051,716,82.18121252498335
2158.577709817948,745,80.44631973745898
2159.3361338214495,745,80.44631973745898
2160.075831306346,764,80.10834505391466
2160.8248920505453,745,79.78675517134917
2161.5926793133494,754,79.11915085817523
2162.3511033168506,773,79.45712554171955
2163.0908008017473,764,81.51360821180941
2163.802408508737,745,83.24850099933377
2164.514016215726,716,84.31578947368419
2165.225623922715,716,83.24850099933377
2165.9653214076116,716,82.18121252498335
2166.705018892508,745,81.11392405063292
2167.444716377405,745,81.81620910734836
2168.165687343697,745,83.6430992886689
2168.858568532081,726,85.46998946998946
2169.551449720465,698,84.76770441327403
2170.2911472053615,698,81.95162003621405
2171.0589344681657,745,78.21616693605506
2171.8548115088774,773,76.91313201154689
2172.631962030984,801,77.2347218941124
2173.390386034486,783,77.84024988844264
2174.167536556592,764,77.53388155797794
2174.9540503380013,783,76.8984509466437
2175.731200860108,792,77.53388155797794
2176.4896248636096,783,79.84556986966624
2177.210595829901,764,82.5906301106301
