99.09807692307692
99.09807692307692
99.61153846153846
100.14130036630036
100.14130036630036
99.12993672993672
98.08671328671328
98.08671328671328
98.58461538461538
98.58461538461538
97.60367393800229
96.15390018234618
93.80664743509344
92.01055746242159
92.01055746242157
92.45279348726629
92.88257215929849
91.55531449566966
90.2654594232059
88.61603857378505
87.79180550413426
89.08166057659804
92.09739272665854
94.24888345993816
94.70412642669008
92.90803645401823
90.36113661300072
88.20964587972112
88.20964587972112
91.22537802978162
94.32874042081525
97.10577184010019
97.10577184010019
96.15390018234618
93.80664743509344
92.44033613445377
91.54285714285713
92.9091684434968
95.25642119074953
97.60367393800229
99.09807692307692
98.60017482517482
96.69515810276678
93.40466514502032
89.90589364624881
87.42937190711838
87.42937190711838
89.52102878138395
93.9025672429224
97.1930602006689
99.09807692307692
97.6483031674208
95.22982490655124
92.88257215929849
91.1374741200828
90.2654594232059
91.16293841480254
93.85990811177223
96.63693953105717
97.58881118881118
98.08671328671328
97.10577184010019
96.6227324913892
95.1729587357331
95.6559980844441
97.15040106951871
99.64339826839826
101.1845238095238
100.67106227106225
99.12993672993672
97.10577184010019
95.65599808444408
94.24888345993816
94.24888345993816
95.20075511769217
98.14899528332363
100.72001117162407
102.2611367127496
102.2611367127496
100.67106227106225
99.12993672993672
96.63693953105717
94.73192280864913
93.78005115089513
94.73192280864914
96.63693953105717
98.60017482517482
99.09807692307692
98.11713547646383
96.6227324913892
94.71771576898118
93.79364049318625
92.42732919254657
93.35140446834151
94.75851909284745
97.61923337856173
98.60017482517482
99.09807692307692
98.08671328671328
97.10577184010019
96.1248303934871
96.12483039348712
97.10577184010019
98.08671328671328
98.08671328671328
96.63693953105717
94.73192280864913
92.88257215929849
91.98509316770185
92.9091684434968
94.27547974413646
96.6227324913892
97.10577184010019
97.58881118881118
96.60786974219809
97.10577184010019
98.11713547646383
99.09807692307692
98.11713547646383
95.69865721559427
93.35140446834151
91.55531449566966
91.55531449566965
91.99755052051438
92.86956521739128
92.86956521739128
93.32480818414321
94.73192280864914
96.63693953105717
98.08671328671328
98.08671328671328
97.58881118881118
97.09090909090908
98.10227272727272
99.11363636363636
100.6547619047619
100.14130036630036
99.12993672993672
97.58881118881118
98.10227272727272
99.11363636363636
100.125
99.11363636363636
97.15040106951871
95.65599808444408
96.15390018234618
97.10577184010019
98.08671328671328
97.10577184010019
96.6227324913892
95.1729587357331
95.6559980844441
96.63693953105717
98.08671328671328
98.08671328671328
97.10577184010019
94.75851909284744
92.47938977146461
91.11307847082493
91.55531449566965
91.98509316770185
90.33567231828101
87.11941031941032
83.98973998973999
83.98973998973999
87.20600198861068
91.23315130987764
94.24888345993816
95.6559980844441
96.1248303934871
96.1248303934871
96.6227324913892
96.6227324913892
96.15390018234618
94.24888345993816
92.03495311167944
90.70769544805061
90.70769544805061
91.99755052051438
92.42732919254657
92.42732919254658
92.42732919254658
92.86956521739128
94.27667984189722
95.68379446640316
97.09090909090908
94.81177976952624
92.11481007255654
89.01144768152292
88.59360730593608
89.44122635355511
91.59271708683472
93.33781512605042
93.78005115089513
92.88257215929849
92.88257215929849
93.80664743509344
96.15390018234618
96.6227324913892
96.6227324913892
95.1729587357331
95.6559980844441
96.63693953105717
98.08671328671328
97.60367393800229
96.15390018234618
94.24888345993816
94.24888345993816
95.20075511769217
96.60786974219809
97.09090909090908
96.13903743315507
94.73192280864913
94.24888345993816
95.69865721559427
97.60367393800229
97.60367393800229
95.69865721559427
93.79364049318625
92.86956521739128
94.27667984189722
94.73192280864914
95.18716577540106
93.78005115089513
94.24888345993816
95.69865721559427
97.10577184010019
97.58881118881118
96.13903743315507
94.73192280864913
93.78005115089513
94.24888345993816
94.24888345993816
92.09739272665854
89.08166057659804
86.60513883746759
87.01153153153152
88.66095238095237
91.59271708683472
93.33781512605042
93.33781512605042
91.1863243927708
88.63942455175331
86.99000370233247
86.59459459459458
87.3963963963964
88.61603857378505
90.70769544805061
91.12553582363748
90.70769544805061
88.61603857378505
87.01153153153152
86.60513883746759
87.82478101485626
90.30130275398668
93.40466514502032
96.18169656430524
96.63693953105717
93.53357714002354
86.72081916628997
81.04399421944375
76.33544438477205
75.7152353255386
76.68029556650245
80.60857142857142
85.26450704225351
90.4451040571789
94.32874042081525
95.20075511769215
92.18502296763165
87.20600198861068
82.94948024948025
81.1225900681597
82.2179746835443
86.03226039783002
90.40605042016806
94.28968678380443
95.65599808444408
95.20075511769215
93.79364049318625
91.57971014492753
90.70769544805061
90.70769544805061
93.40466514502032
96.18169656430524
98.08671328671328
98.08671328671328
97.10577184010019
94.75851909284744
92.9091684434968
90.69523809523808
90.2654594232059
90.70769544805061
93.40466514502032
96.18169656430524
98.08671328671328
99.09807692307692
98.11713547646383
95.76988272921108
91.65515670181382
87.87982284478318
85.10579687075722
84.32552289815447
85.88692640692639
89.55843137254901
93.44206773618538
95.65599808444408
96.1248303934871
94.27547974413646
91.25974759407595
86.41712526269488
83.6430992886689
84.03850839640678
87.085040755116
91.22537802978162
94.32874042081525
96.60786974219809
96.13903743315507
94.73192280864913
92.4527934872663
90.30130275398669
88.20964587972111
88.63942455175331
91.25974759407595
94.75851909284745
96.1248303934871
95.65599808444408
95.1729587357331
95.1729587357331
95.64179104477613
96.6227324913892
98.64689738122573
100.14130036630036
100.6547619047619
99.11363636363636
97.15040106951871
94.73192280864913
93.32480818414322
92.86956521739128
93.79364049318623
95.69865721559427
96.6227324913892
96.6227324913892
94.71771576898118
94.24888345993816
94.24888345993816
95.6559980844441
96.60786974219809
96.60786974219809
96.1248303934871
95.1729587357331
94.70412642669008
95.68506787330315
97.6483031674208
99.61153846153846
100.125
99.11363636363636
98.60017482517482
98.08671328671328
99.62783882783881
100.14130036630036
100.14130036630036
99.09807692307692
97.60367393800229
97.10577184010019
97.10577184010019
98.08671328671328
97.60367393800229
96.6227324913892
95.1729587357331
95.6559980844441
96.63693953105717
98.60017482517482
99.09807692307692
99.09807692307692
98.08671328671328
98.08671328671328
98.60017482517482
99.61153846153846
99.61153846153846
98.11713547646383
97.10577184010019
96.60786974219809
97.58881118881118
96.63693953105717
94.78758888170651
91.1863243927708
87.51481942714818
85.48053371286247
85.48053371286247
88.25455968688844
90.28884540117416
91.54285714285713
90.69523809523808
89.84761904761905
89.0
88.59360730593606
89.01144768152292
90.30130275398668
91.55531449566966
91.1374741200828
88.2862155388471
82.32365396249243
79.02735766619614
79.02735766619614
83.34049839312996
86.23040199536233
87.79180550413426
88.18721461187214
88.18721461187214
87.38541281007033
87.79180550413426
89.04581724581723
91.1374741200828
92.42732919254658
91.99755052051438
90.30130275398669
88.20964587972111
87.79180550413426
89.04581724581723
90.69523809523808
89.50857142857141
86.73454545454544
84.32552289815447
83.9507860560492
85.4708002883922
87.87982284478318
90.73108142601887
91.98509316770185
91.1374741200828
89.04581724581723
88.61603857378505
89.90589364624881
91.99755052051438
91.99755052051438
89.52102878138395
87.04450704225351
86.22027397260273
88.25455968688844
89.85906672914197
91.11307847082493
89.46365762140408
88.63942455175331
88.63942455175331
91.65515670181382
93.80664743509344
93.80664743509344
90.79091528503292
87.11941031941032
85.0851246051246
84.70025974025972
87.04450704225351
89.97627174813587
92.90803645401822
93.78005115089513
92.03495311167944
88.72845156369183
86.25192982456139
86.25192982456139
88.23117370892018
89.01144768152292
86.72939639947164
83.01525972758849
79.18355718355718
78.49894179894179
80.60857142857142
86.13652173913042
90.84828644501277
92.88257215929849
90.79091528503292
87.11941031941032
83.3051246051246
81.47823442380404
82.60283954840916
85.16311352101191
86.60513883746759
84.1106443429731
81.88834505391466
81.51360821180941
84.8099045081057
88.2862155388471
90.69523809523808
91.11307847082495
91.11307847082493
92.01055746242157
92.88257215929849
92.03495311167944
89.88346237839983
89.44122635355511
91.65515670181382
94.27547974413646
94.71771576898118
93.79364049318625
92.42732919254657
92.42732919254658
93.35140446834151
95.20075511769217
97.10577184010019
96.18169656430524
94.3323459149546
90.33567231828101
88.63942455175331
89.08166057659804
92.09739272665854
94.24888345993816
93.80664743509344
92.01055746242159
90.2654594232059
89.41784037558685
89.41784037558685
90.70769544805061
93.40466514502032
96.18169656430524
97.58881118881118
96.63693953105717
93.85990811177223
90.7565457207386
88.60505498745898
89.4770696843359
91.1733174508636
92.42732919254657
91.55531449566966
90.2654594232059
89.41784037558685
90.74509803921568
93.44206773618538
96.63693953105717
98.08671328671328
97.60367393800229
95.69865721559427
92.92162579630933
90.70769544805061
91.16293841480254
92.49019607843137
94.23529411764706
93.33781512605042
92.44033613445377
91.54285714285713
92.9091684434968
94.75851909284745
95.65599808444408
94.73192280864913
93.32480818414322
93.32480818414321
94.24888345993816
94.70412642669008
93.80664743509344
91.59271708683472
89.84761904761905
89.0
90.28985507246375
92.50378542072247
94.71771576898118
95.64179104477613
94.27547974413646
92.9091684434968
91.98509316770185
92.88257215929849
93.78005115089513
93.78005115089513
92.03495311167944
89.48805327066196
87.3963963963964
87.3963963963964
89.04581724581723
91.1374741200828
92.88257215929849
93.32480818414322
90.84828644501277
87.17678147939017
85.48053371286247
87.95705545199291
91.1733174508636
92.86956521739128
92.42732919254657
90.33567231828101
88.63942455175331
88.63942455175331
90.73108142601887
91.98509316770185
91.98509316770185
91.11307847082495
90.2654594232059
90.70769544805061
92.03495311167944
93.78005115089513
93.78005115089513
93.32480818414322
92.86956521739128
93.79364049318623
95.20075511769217
96.60786974219809
96.60786974219809
96.1248303934871
96.12483039348712
97.10577184010019
98.08671328671328
98.08671328671328
97.10577184010019
95.20075511769215
95.20075511769217
96.18169656430524
98.08671328671328
98.08671328671328
97.10577184010019
96.1248303934871
96.12483039348712
97.10577184010019
97.10577184010019
95.69865721559427
93.79364049318625
93.79364049318623
95.20075511769217
96.60786974219809
97.09090909090908
96.13903743315507
95.18716577540106
95.18716577540107
96.13903743315507
97.58881118881118
96.63693953105717
95.22982490655124
93.32480818414322
93.79364049318623
95.69865721559427
97.10577184010019
96.63693953105717
95.18716577540106
93.78005115089513
93.78005115089513
94.24888345993816
94.70412642669008
94.24888345993816
92.4527934872663
91.99755052051438
92.92162579630933
94.71771576898118
95.1729587357331
94.24888345993816
93.32480818414322
93.32480818414321
93.78005115089513
93.78005115089513
92.88257215929849
92.88257215929849
93.33781512605042
94.23529411764706
93.78005115089513
92.88257215929849
91.98509316770185
91.98509316770185
93.35140446834151
94.71771576898118
94.71771576898118
92.50378542072247
90.28985507246375
88.59360730593606
89.01144768152292
90.30130275398668
92.92162579630933
95.20075511769217
96.1248303934871
95.20075511769215
92.09739272665854
87.60141109634856
84.38514909747786
84.38514909747786
87.51481942714818
89.85906672914197
90.68329979879275
90.25352112676056
90.25352112676056
91.58077879038939
93.85990811177223
96.13903743315507
97.09090909090908
96.60786974219809
95.20075511769215
94.24888345993816
94.24888345993816
94.24888345993816
93.35140446834151
91.1374741200828
90.2654594232059
90.70769544805061
92.4527934872663
92.88257215929849
92.44033613445377
91.98509316770185
92.88257215929849
94.24888345993816
94.70412642669008
94.24888345993816
92.4527934872663
90.70769544805061
90.70769544805061
92.50378542072247
93.79364049318625
93.79364049318625
92.42732919254657
91.98509316770185
91.98509316770185
93.8344438170525
95.20075511769217
96.1248303934871
95.1729587357331
93.80664743509344
92.88257215929849
92.88257215929849
94.24888345993816
95.1729587357331
94.71771576898118
92.92162579630933
91.12553582363748
90.25352112676056
92.04961109943241
94.32874042081525
95.65599808444408
94.73192280864913
91.62856041761552
87.95705545199291
84.74079345312222
83.96051948051948
86.30476678251325
89.07879275653923
90.68329979879275
89.85906672914196
88.20964587972111
86.99000370233247
87.3963963963964
89.04581724581723
92.06154939587775
94.27547974413646
95.1729587357331
94.24888345993816
93.32480818414322
92.86956521739128
93.79364049318623
94.71771576898118
96.12483039348712
96.1248303934871
95.65599808444408
94.24888345993816
93.78005115089513
94.24888345993816
95.1729587357331
95.64179104477613
94.71771576898118
93.35140446834151
92.42732919254658
93.8344438170525
95.20075511769217
96.60786974219809
96.1248303934871
96.1248303934871
96.12483039348712
97.61923337856173
98.60017482517482
98.11713547646383
95.25642119074953
93.35140446834151
93.8344438170525
95.20075511769217
96.1248303934871
94.71771576898118
94.71771576898118
94.71771576898118
96.6227324913892
96.6227324913892
95.69865721559427
93.79364049318625
92.42732919254657
93.8344438170525
94.75851909284744
95.65599808444408
94.70412642669008
94.23529411764706
94.23529411764706
95.18716577540107
96.13903743315507
97.58881118881118
97.10577184010019
96.15390018234618
95.1729587357331
96.15390018234618
96.6227324913892
96.6227324913892
94.27547974413646
91.25974759407595
88.24401544401545
87.81423677198325
89.90589364624881
91.99755052051438
92.86956521739128
91.99755052051438
91.55531449566966
91.55531449566965
93.8344438170525
94.73192280864914
94.28968678380441
92.01055746242159
89.85906672914196
87.45004417275098
86.6258111031002
87.87982284478318
90.73108142601887
92.88257215929849
92.4527934872663
92.01055746242157
90.2654594232059
89.84761904761905
89.84761904761903
91.1374741200828
91.55531449566966
89.90589364624881
86.33398729173376
83.63409563409564
82.87449392712551
85.15654520917678
88.2862155388471
90.69523809523808
91.11307847082495
90.68329979879275
90.68329979879275
91.55531449566965
92.88257215929849
93.78005115089513
93.33781512605042
90.79091528503292
85.74952094952094
82.61985061985061
81.86024891288048
83.59514170040485
84.69052631578947
84.32552289815447
84.70025974025972
85.48053371286247
88.25455968688844
89.85906672914197
91.11307847082493
88.70405591443395
84.35448863121658
78.96961468163676
76.9131320115469
79.28345541040548
83.82071031236627
86.25192982456139
85.53128205128205
83.24923076923076
82.50949050949052
84.38514909747786
87.95705545199291
91.1733174508636
92.86956521739128
90.77790834312572
87.92664976189002
86.63679468942627
88.72845156369183
92.03495311167944
93.32480818414322
92.88257215929849
91.55531449566966
91.11307847082493
92.4793897714646
94.27547974413646
95.1729587357331
93.80664743509344
92.01055746242159
91.55531449566965
93.40466514502032
95.20075511769217
96.60786974219809
96.1248303934871
95.20075511769215
94.24888345993816
94.24888345993816
94.70412642669008
93.80664743509344
91.1863243927708
87.51481942714818
85.10579687075722
110.61475366738524
118.47449392712551
137.83589743589744
114.478431372549
109.39271708683471
92.44033613445377
90.28884540117416
89.85906672914197
90.30130275398668
90.30130275398669
86.58716608210354
80.18236848090413
76.05150627300728
76.38113590263691
80.69427662957074
85.23153153153152
87.3963963963964
87.79180550413426
86.23040199536234
86.23040199536234
87.05463506501312
87.81423677198325
87.81423677198325
85.46998946998946
83.6430992886689
82.88349758169878
84.40351181404178
87.45004417275099
89.01144768152292
88.61603857378505
87.01153153153152
85.4501280227596
85.84553713049746
86.23040199536234
86.23040199536234
84.0081027063039
82.88349758169878
83.25823442380404
85.0851246051246
87.42937190711838
89.4636576214041
90.2654594232059
88.66095238095238
86.25192982456139
85.06526315789472
86.25192982456139
89.10318840579708
91.1374741200828
91.1374741200828
88.66095238095238
85.88692640692639
85.0851246051246
87.1194103194103
90.79091528503292
92.44033613445377
91.59271708683472
89.04581724581723
87.79180550413426
89.08166057659804
90.30130275398669
89.52102878138395
86.30476678251325
83.25823442380404
83.6430992886689
86.41712526269488
90.33567231828101
91.55531449566966
90.30130275398669
86.72939639947164
84.38514909747786
84.38514909747786
86.26080768546521
86.6258111031002
84.06553713049746
81.50526315789472
80.1
81.14025974025972
84.95454545454544
88.76883116883116
91.11307847082495
89.85906672914196
87.08504075511598
85.48053371286247
85.48053371286247
84.44027397260274
81.69521373163887
77.86351118760757
77.53388155797794
79.90420495683654
84.56014057051863
88.27427724240178
89.42928805710977
86.72939639947164
83.68286404076242
82.16284980841942
82.88349758169878
83.9507860560492
82.91052631578947
81.1756335282651
80.10834505391466
81.51360821180941
84.40351181404178
85.47080028839221
84.75015251511286
82.52785322605442
82.52785322605442
84.0081027063039
85.83499288762445
86.59459459459458
85.83499288762445
86.23040199536233
88.32205886962791
90.73108142601887
91.55531449566966
89.85906672914196
87.45004417275098
86.6258111031002
86.23040199536234
86.60513883746759
85.4501280227596
83.96987854251012
84.75015251511286
87.15917507150382
88.63942455175331
87.48441373704532
84.71038776301933
83.9507860560492
85.1057968707572
87.03220379716413
88.18721461187214
87.03220379716413
86.23040199536234
86.23040199536233
87.38541281007033
87.38541281007033
84.49550920783797
81.28401572304011
78.78952122854561
80.15941059843499
82.97549497549497
85.46998946998946
87.3963963963964
87.3963963963964
87.01153153153152
85.82486486486485
86.22027397260273
88.69679571173316
91.1733174508636
91.99755052051438
89.52102878138395
85.60248172579782
81.88834505391466
79.14328481295081
78.80531012940651
81.69521373163887
86.04478101485626
89.42928805710977
89.8356807511737
87.85643686681492
85.51218956482114
83.9507860560492
85.51218956482114
89.18369453044374
92.03495311167944
93.32480818414322
91.17331745086359
89.08166057659804
87.79180550413426
89.48805327066196
92.03495311167944
92.88257215929849
91.59271708683472
89.44122635355511
88.18721461187214
89.4770696843359
92.58043207536953
95.20075511769217
95.65599808444408
93.37686876306125
90.7565457207386
88.60505498745898
88.605054987459
89.85906672914196
90.68329979879275
89.85906672914196
88.60505498745898
88.18721461187214
89.88346237839983
92.03495311167944
93.32480818414322
91.62856041761552
89.08166057659804
87.79180550413426
89.04581724581723
91.1374741200828
91.1374741200828
89.88346237839983
87.03220379716413
87.03220379716413
88.72845156369183
91.57971014492753
92.42732919254657
91.1374741200828
90.2654594232059
91.16293841480254
93.37686876306124
94.70412642669008
93.80664743509344
92.01055746242159
90.68329979879275
91.12553582363748
92.4527934872663
93.32480818414322
92.4527934872663
89.52102878138395
86.30476678251325
85.0851246051246
86.68963164737812
89.90589364624881
91.12553582363748
90.70769544805061
88.61603857378505
87.01153153153152
86.60513883746759
88.25455968688844
89.44122635355511
89.04581724581723
85.56950621507583
81.95162003621405
79.78675517134917
81.22878048780487
85.6942857142857
89.95080745341613
91.55531449566966
90.30130275398669
87.08504075511598
85.48053371286247
85.0851246051246
85.82486486486485
85.0851246051246
83.60487512487512
83.60487512487512
85.94912242686891
88.64901408450703
89.8356807511737
89.41784037558685
88.59360730593606
89.44122635355511
90.28884540117416
91.11307847082495
90.2654594232059
87.85643686681492
86.25192982456139
86.66977020014825
88.64901408450703
89.42928805710977
88.20964587972111
87.38541281007033
88.63942455175331
91.1863243927708
92.88257215929849
92.03495311167944
89.88346237839983
89.01144768152292
89.85906672914196
90.68329979879275
89.07879275653923
87.04450704225351
86.62666666666667
89.10318840579708
92.50378542072247
94.71771576898118
96.6227324913892
98.64689738122573
99.62783882783881
99.62783882783881
98.08671328671328
97.10577184010019
97.10577184010019
97.60367393800229
97.60367393800229
95.69865721559427
92.09739272665854
89.4770696843359
89.4770696843359
92.09739272665854
93.79364049318625
93.79364049318625
91.99755052051438
91.55531449566966
92.01055746242157
93.33781512605042
93.78005115089513
92.4527934872663
91.12553582363748
90.68329979879275
91.55531449566965
91.98509316770185
91.1374741200828
89.44122635355511
89.01144768152292
91.22537802978162
93.37686876306124
94.70412642669008
92.90803645401823
92.01055746242157
91.55531449566965
92.88257215929849
93.78005115089513
93.78005115089513
92.4527934872663
91.55531449566966
91.55531449566965
92.42732919254658
92.86956521739128
91.57971014492753
91.1374741200828
91.1374741200828
92.88257215929849
92.88257215929849
92.01055746242159
90.68329979879275
90.25352112676056
91.12553582363748
91.55531449566966
91.1374741200828
89.84761904761905
89.41784037558685
91.16293841480254
92.01055746242157
92.44033613445377
91.11307847082495
90.2654594232059
90.70769544805061
92.03495311167944
92.88257215929849
92.01055746242159
90.68329979879275
90.25352112676056
91.58077879038939
92.45279348726629
92.88257215929849
91.1374741200828
90.2654594232059
90.70769544805061
92.92162579630933
94.24888345993816
94.70412642669008
93.33781512605042
92.88257215929849
93.35140446834151
93.79364049318625
92.50378542072247
90.28985507246375
89.41784037558685
90.2654594232059
91.55531449566965
91.98509316770185
91.55531449566966
91.55531449566965
92.92162579630933
95.20075511769217
96.1248303934871
95.65599808444408
93.37686876306125
92.45279348726629
92.4527934872663
93.78005115089513
93.33781512605042
92.01055746242159
90.68329979879275
91.12553582363748
91.99755052051438
91.99755052051438
90.70769544805061
88.61603857378505
88.61603857378505
89.90589364624881
91.55531449566966
91.55531449566966
89.85906672914196
87.82478101485626
87.82478101485626
88.64901408450703
89.8356807511737
88.61603857378505
87.01153153153152
86.20972972972973
87.42937190711838
88.61603857378505
89.01144768152292
87.79180550413426
87.79180550413426
88.61603857378505
90.70769544805061
90.70769544805061
88.72845156369183
84.8099045081057
82.52785322605442
83.28745493302455
84.35474340737498
84.35474340737498
82.18987854251012
81.82487512487512
83.70053371286247
87.085040755116
88.60505498745898
87.45004417275098
84.75015251511286
81.86024891288048
78.88439751969163
76.92835356364768
76.60676368108219
76.60676368108219
76.30760401721663
75.38823529411765
76.62919389978214
79.24004187533598
82.21589326852484
83.9507860560492
83.9507860560492
82.88349758169878
82.16284980841942
83.28745493302455
83.98973998973999
83.6430992886689
81.14860479417442
79.14328481295081
78.15409061721138
78.82169493038532
81.56675517134917
82.9025900681597
83.24923076923076
81.13960113960114
80.12535612535612
79.1111111111111
80.12535612535612
80.12535612535612
79.48992551402189
77.84024988844264
77.20481927710843
77.84024988844266
78.47568049977687
79.1111111111111
78.78952122854561
78.78952122854561
79.80376624279063
81.49524549524548
82.50949050949052
82.16284980841942
81.1225900681597
81.1225900681597
82.56461538461538
84.34461538461538
85.06526315789472
83.62323784143904
81.51360821180941
80.44631973745898
80.79296043853006
81.460564751704
81.1225900681597
81.84323784143903
84.47192982456139
88.2862155388471
92.06154939587775
92.9091684434968
92.47938977146461
89.07879275653923
85.26450704225351
82.56461538461538
82.94948024948025
85.50975422208299
85.86539857772735
84.74079345312222
82.86513486513486
82.86513486513486
84.38514909747786
88.41229841874483
92.08380338436744
93.78005115089513
92.88257215929849
90.73108142601887
88.63942455175331
87.79180550413426
89.48805327066196
90.70769544805061
89.52102878138395
85.94912242686891
83.96987854251012
85.15654520917678
87.85643686681492
89.01144768152292
87.45004417275098
85.47080028839221
84.69052631578947
85.84553713049746
87.40694063926941
87.79180550413426
87.01153153153152
85.4501280227596
86.66977020014825
90.07036721507363
93.37686876306124
94.24888345993816
91.23315130987766
87.92664976189002
84.71038776301933
84.32552289815447
85.0851246051246
85.4501280227596
84.35474340737498
82.52785322605442
82.16284980841942
84.44490109047071
87.92121212121211
90.69523809523808
91.54285714285713
90.28884540117416
88.25455968688844
86.60513883746759
87.42937190711838
89.03387894937191
89.8356807511737
88.61603857378505
87.3963963963964
87.3963963963964
88.61603857378505
89.8356807511737
89.42928805710977
89.42928805710977
90.30130275398668
92.4527934872663
94.24888345993816
94.24888345993816
92.50378542072247
90.70769544805061
90.70769544805061
91.55531449566966
91.1374741200828
87.92121212121211
86.27179127179127
87.1194103194103
89.4636576214041
91.11307847082493
90.2654594232059
91.1374741200828
92.50378542072247
95.20075511769217
95.65599808444408
95.18716577540106
93.78005115089513
93.32480818414322
91.57971014492753
89.10318840579708
87.01153153153152
87.01153153153152
89.94329623741388
92.49019607843137
94.23529411764706
93.78005115089513
92.88257215929849
91.98509316770185
91.98509316770185
91.55531449566966
89.90589364624881
87.81423677198325
87.3963963963964
89.94329623741388
92.49019607843137
93.78005115089513
92.88257215929849
91.55531449566966
92.01055746242157
93.37686876306124
94.70412642669008
93.80664743509344
92.01055746242159
89.07879275653923
87.42937190711838
85.82486486486485
87.01153153153152
89.10318840579708
91.1374741200828
91.1374741200828
90.2654594232059
90.2654594232059
89.85906672914196
87.15917507150382
83.34488935721811
82.18987854251012
84.47192982456139
87.03220379716413
87.40694063926941
85.84553713049746
83.96987854251012
83.96987854251012
86.82113712374581
91.80015810276679
95.20075511769217
95.65599808444408
93.37686876306125
90.36113661300072
89.03387894937191
89.90589364624881
91.12553582363748
89.52102878138395
86.30476678251325
85.48053371286247
87.51481942714818
91.1863243927708
92.88257215929849
92.88257215929849
91.55531449566966
91.55531449566965
91.99755052051438
91.99755052051438
89.90589364624881
87.42937190711838
86.60513883746759
87.82478101485626
87.45004417275098
84.23855068795314
80.8540436456996
80.8540436456996
85.31954887218043
88.2862155388471
90.2654594232059
88.61603857378505
87.05463506501312
86.23040199536233
87.87982284478318
91.65515670181382
93.35140446834151
92.09739272665854
86.91679571173316
83.70053371286247
83.3051246051246
85.0851246051246
85.0851246051246
82.5906301106301
80.8106301106301
81.55037037037036
85.26450704225351
88.64901408450703
90.25352112676056
90.25352112676056
89.8356807511737
89.8356807511737
91.63177072384556
93.84570107210426
94.27547974413646
91.65515670181382
88.25455968688844
87.00054794520547
86.22027397260274
85.84553713049746
83.96987854251012
82.87449392712551
84.0295047418335
86.72939639947164
89.85906672914196
90.2654594232059
89.44122635355511
89.01144768152292
89.85906672914196
90.68329979879275
88.70405591443395
85.93002994040799
85.1057968707572
86.66720037952913
88.59360730593608
88.19819819819818
87.3963963963964
87.81423677198325
89.90589364624881
92.4527934872663
92.88257215929849
92.01055746242159
91.55531449566965
92.4527934872663
93.32480818414322
92.4527934872663
89.90589364624881
88.61603857378505
89.94329623741388
91.59271708683472
92.88257215929849
92.42732919254658
92.86956521739128
94.77458193979932
96.18169656430524
96.63693953105717
93.85990811177223
91.16293841480254
90.2654594232059
90.69523809523808
90.28884540117416
88.25455968688844
87.00054794520547
88.25455968688844
92.13819605052481
96.25292207792207
99.64339826839826
100.14130036630036
99.12993672993672
97.10577184010019
94.32874042081525
92.92162579630931
91.99755052051438
91.99755052051438
90.30130275398669
87.82478101485626
86.60513883746759
87.42937190711838
89.03387894937191
89.42928805710977
89.01144768152292
89.44122635355511
91.1374741200828
91.98509316770185
91.1374741200828
89.84761904761905
89.41784037558685
90.70769544805061
91.12553582363748
90.70769544805061
88.61603857378505
88.19819819819818
88.61603857378505
89.8356807511737
89.03387894937191
88.20964587972112
88.20964587972112
89.42928805710977
89.8356807511737
89.01144768152292
87.79180550413426
87.79180550413426
88.19819819819818
89.0
89.0
88.59360730593606
89.01144768152292
89.42928805710977
90.68329979879275
90.68329979879275
90.2654594232059
90.2654594232059
90.69523809523808
91.54285714285713
91.11307847082495
90.2654594232059
89.8356807511737
90.70769544805061
91.55531449566966
91.55531449566966
91.11307847082493
91.11307847082493
92.44033613445377
93.33781512605042
92.90803645401823
91.16293841480254
89.41784037558685
90.28985507246375
91.57971014492753
91.99755052051438
91.12553582363748
90.25352112676056
91.12553582363748
92.4527934872663
93.32480818414322
92.88257215929849
91.1374741200828
90.2654594232059
90.70769544805061
91.99755052051438
92.42732919254657
91.55531449566966
90.68329979879275
91.12553582363748
92.92162579630933
94.24888345993816
94.24888345993816
92.4527934872663
91.55531449566966
92.01055746242157
92.88257215929849
92.88257215929849
91.1374741200828
89.04581724581723
88.61603857378505
90.82996892204376
93.84570107210426
95.1729587357331
93.37686876306125
89.97627174813587
87.42937190711838
87.85915057915057
88.63942455175331
88.63942455175331
85.86539857772735
85.86539857772733
87.51481942714818
90.28884540117416
91.54285714285713
90.69523809523808
91.1374741200828
92.03495311167944
93.32480818414322
92.88257215929849
90.33567231828101
89.04581724581723
89.04581724581723
89.84761904761905
89.44122635355511
87.79180550413426
88.20964587972112
89.4636576214041
90.68329979879275
89.46365762140408
87.81423677198325
86.59459459459458
88.24401544401543
89.4636576214041
90.2654594232059
89.01144768152292
88.59360730593608
89.44122635355511
90.69523809523808
91.54285714285713
90.28884540117416
88.25455968688844
87.00054794520547
87.00054794520547
87.78082191780821
87.78082191780821
87.78082191780821
89.03483365949118
90.28884540117416
91.54285714285713
90.69523809523808
89.44122635355511
88.18721461187214
87.78082191780821
88.18721461187214
87.40694063926941
84.51703703703703
80.58531012940651
77.53388155797794
77.21229167541244
78.51532659992061
81.56675517134917
83.9979746835443
85.82486486486485
85.4501280227596
85.83499288762445
86.23040199536233
87.79180550413426
86.66720037952913
83.77729677729677
79.84556986966625
77.84024988844264
77.84024988844266
80.58531012940651
83.33037037037036
85.82486486486485
86.20972972972973
86.59459459459458
87.3963963963964
88.61603857378505
89.41784037558685
87.85643686681492
84.8099045081057
81.84323784143903
81.1225900681597
80.78461538461538
80.78461538461538
80.1
81.88
85.26450704225351
88.23117370892018
88.61603857378505
86.27179127179127
85.0851246051246
85.88692640692639
88.23117370892018
89.8356807511737
89.03387894937191
87.42937190711838
86.60513883746759
88.25455968688844
90.28884540117416
90.69523809523808
89.04581724581723
87.79180550413426
88.63942455175331
89.85906672914197
89.46365762140408
86.68963164737812
85.0851246051246
86.30476678251325
89.07879275653923
90.2654594232059
89.04581724581723
87.79180550413426
89.08166057659804
91.1733174508636
91.99755052051438
90.70769544805061
89.01144768152292
89.44122635355511
90.73108142601887
91.55531449566966
90.70769544805061
87.85643686681492
87.03220379716413
87.87982284478318
89.85906672914197
89.46365762140408
87.81423677198325
86.99000370233246
88.63942455175331
90.28884540117416
90.69523809523808
89.84761904761905
89.41784037558685
90.70769544805061
92.4527934872663
92.88257215929849
92.01055746242159
90.2654594232059
90.70769544805061
91.57971014492753
91.57971014492753
89.88346237839983
88.59360730593608
89.44122635355511
91.59271708683472
92.44033613445377
92.44033613445377
91.11307847082495
92.01055746242157
93.37686876306124
94.70412642669008
94.24888345993816
92.88257215929849
91.98509316770185
92.44033613445377
92.44033613445377
91.59271708683472
89.44122635355511
89.01144768152292
90.7565457207386
92.45279348726629
93.32480818414322
91.99755052051438
91.12553582363748
91.58077879038939
92.90803645401822
93.78005115089513
91.62856041761552
87.95705545199291
85.86539857772735
85.86539857772733
87.38541281007033
87.38541281007033
86.60513883746759
87.01153153153152
88.66095238095237
89.84761904761905
89.44122635355511
87.79180550413426
88.20964587972112
89.90589364624881
91.99755052051438
91.99755052051438
91.12553582363748
90.25352112676056
91.58077879038939
92.90803645401822
93.78005115089513
92.03495311167944
89.48805327066196
88.61603857378505
89.90589364624881
91.55531449566966
91.55531449566966
90.68329979879275
90.25352112676056
92.04961109943241
93.37686876306124
94.70412642669008
93.33781512605042
92.88257215929849
93.35140446834151
94.24888345993816
93.80664743509344
90.79091528503292
87.85915057915057
86.60513883746759
87.82478101485626
88.60505498745898
87.45004417275098
84.75015251511286
82.52785322605442
82.52785322605442
85.22774488369257
89.14629193927868
91.55531449566966
91.55531449566966
89.46365762140408
87.81423677198325
86.99000370233246
86.60513883746759
85.12488935721812
82.23498575498576
79.80376624279063
79.11915085817523
80.48904022806461
82.92025974025972
84.32552289815447
84.32552289815447
83.23013828276986
82.86513486513486
83.60487512487512
85.48053371286247
85.84553713049746
85.47080028839221
83.59514170040485
82.87449392712551
82.50949050949052
82.86513486513486
83.5857826384142
85.1057968707572
87.87982284478318
89.85906672914197
89.85906672914196
87.45004417275098
84.06553713049746
81.84323784143903
81.84323784143903
81.84323784143903
82.54552289815447
81.82487512487512
83.23013828276986
84.75015251511286
85.84553713049746
86.60513883746759
86.20972972972973
86.20972972972973
86.20972972972973
87.01153153153152
89.48805327066196
90.70769544805061
90.70769544805061
88.23117370892018
86.25192982456139
85.84553713049746
87.45004417275099
88.20964587972111
88.20964587972112
86.60513883746759
87.82478101485626
89.97627174813587
93.37686876306124
94.70412642669008
94.24888345993816
92.4527934872663
91.12553582363748
91.58077879038939
92.90803645401822
93.78005115089513
92.03495311167944
88.72845156369183
86.25192982456139
86.25192982456139
88.66095238095237
90.69523809523808
90.28884540117416
88.25455968688844
85.84553713049746
85.84553713049746
86.6258111031002
86.26080768546521
83.37090408323284
81.14860479417442
81.51360821180941
83.24850099933377
83.24850099933377
81.84323784143903
80.10834505391466
80.8106301106301
82.97549497549497
84.71038776301933
85.07539118065432
83.59514170040485
83.96987854251012
84.72948024948025
85.4501280227596
84.71038776301933
82.88349758169878
82.51849416406378
82.51849416406378
82.86513486513486
82.16284980841942
82.16284980841942
84.03850839640678
86.26080768546521
87.78082191780821
87.38541281007033
87.38541281007033
88.20964587972112
88.60505498745898
87.82478101485626
84.44027397260274
82.56461538461538
83.34488935721812
86.31155602388478
87.40694063926941
85.88692640692639
85.0851246051246
86.68963164737812
88.61603857378505
89.01144768152292
87.40694063926941
87.00054794520547
88.69679571173316
92.09739272665854
93.35140446834151
92.06154939587775
89.04581724581723
88.19819819819818
89.48805327066196
91.1374741200828
90.73108142601887
87.87982284478318
85.84553713049746
86.66977020014825
89.97627174813587
92.01055746242157
91.59271708683472
89.84761904761905
89.41784037558685
90.2654594232059
89.46365762140408
85.11409033818671
79.15152876183204
76.02160365600332
78.02692363722691
82.34006436416075
85.86539857772733
87.38541281007033
88.18721461187214
89.01144768152292
89.01144768152292
87.82478101485626
84.77824865614704
83.25823442380404
83.25823442380404
83.60487512487512
82.56461538461538
80.78461538461538
81.14025974025972
84.10692640692639
87.07359307359306
89.0
88.59360730593606
89.01144768152292
89.42928805710977
89.42928805710977
86.38275569840056
83.33622333969134
82.18121252498335
83.62323784143904
84.69052631578947
83.96987854251012
83.96987854251012
85.53128205128205
89.10318840579708
91.1374741200828
91.1374741200828
89.04581724581723
88.61603857378505
89.90589364624881
91.12553582363748
89.90589364624881
86.68963164737812
84.34538434538433
84.34538434538433
85.86539857772733
86.99000370233247
85.86539857772735
83.98973998973999
83.23013828276986
84.75015251511286
87.87982284478318
89.85906672914197
89.46365762140408
87.05463506501312
85.07539118065432
83.9507860560492
82.54552289815447
80.48904022806461
80.13339587242027
80.81801125703565
81.80720545277508
81.460564751704
81.81620910734836
83.6430992886689
85.0851246051246
85.4501280227596
84.69052631578947
84.69052631578947
85.84553713049746
85.48053371286247
83.70053371286247
80.8106301106301
80.45498575498576
81.49524549524548
82.50949050949052
82.50949050949052
83.63409563409564
86.33398729173376
87.81423677198325
85.31974227748876
80.07244453756081
76.63615110126737
77.30375541444131
78.8369164824861
78.8369164824861
77.22751322751323
78.5974025974026
82.03369603369603
85.86539857772733
86.99000370233247
86.99000370233247
86.99000370233246
88.63942455175331
89.85906672914197
89.46365762140408
85.31974227748876
80.97017499427137
78.80531012940651
79.13493975903614
79.77037037037036
79.11915085817523
78.46793134598012
79.8378207158695
83.87354727031814
88.78128852164369
91.12553582363748
88.78128852164369
83.87354727031814
80.15941059843499
79.11915085817523
80.45498575498576
80.13339587242027
78.56280763712614
77.87819225251076
79.21402714932127
81.46923076923076
81.80720545277508
81.1225900681597
80.10834505391466
80.8106301106301
83.37090408323284
85.86539857772735
85.86539857772735
83.98973998973999
82.86513486513486
82.50949050949052
80.55344655344655
77.6503961155124
76.00072048993314
77.95676444597711
81.59955514365151
84.72948024948025
85.0851246051246
82.65390509292948
79.52397998710076
79.1683356314564
82.37982911625426
85.12488935721811
85.84553713049746
83.62323784143904
81.51360821180941
80.44631973745898
81.14860479417442
82.16284980841942
81.82487512487512
80.13339587242027
79.44878048780487
81.22878048780487
84.84666666666666
87.81333333333333
87.43859649122805
85.15654520917678
82.87449392712551
83.63409563409564
85.11434511434511
84.76770441327403
82.27320991877954
80.44631973745898
81.14860479417442
84.03850839640678
85.10579687075722
83.10047688953361
78.67741221925645
76.00072048993314
77.6503961155124
79.85116149673112
81.1225900681597
80.7759493670886
81.47823442380404
83.6430992886689
85.86539857772733
86.60513883746759
85.12488935721812
82.56461538461538
81.46923076923076
81.82487512487512
80.55344655344655
77.16883116883116
73.7012987012987
74.32150776053214
77.02150776053213
78.48372024684102
78.48372024684102
78.82169493038532
81.56675517134917
84.77824865614704
86.22027397260274
85.84553713049746
83.28526315789472
82.18987854251012
82.94948024948025
84.35474340737498
84.0081027063039
82.52785322605442
82.9025900681597
83.96987854251012
82.6340436456996
79.58261507427105
77.84772228674667
80.27894179894179
84.1106443429731
86.60513883746759
85.50975422208299
83.63409563409564
83.24923076923076
84.72948024948025
84.72948024948025
81.08668955180583
77.05903398926654
76.71239328819547
80.35518398586987
83.9979746835443
85.06526315789472
83.28526315789472
82.91052631578947
84.47192982456139
87.85643686681492
88.23117370892018
84.93487741262388
80.58531012940651
78.15409061721138
77.83250073464589
77.52613240418118
77.52613240418118
78.8619673009917
83.51790291467378
87.98340814115461
92.01055746242157
92.44033613445377
91.1863243927708
88.25455968688844
87.82478101485626
89.97627174813587
93.37686876306124
93.37686876306125
91.22537802978162
86.38275569840056
84.03850839640677
84.03850839640678
87.085040755116
89.42928805710977
89.03387894937191
86.68963164737812
85.0851246051246
85.0851246051246
85.0851246051246
83.98973998973999
81.82487512487512
81.1225900681597
82.60283954840916
86.41712526269488
89.4636576214041
89.07879275653923
85.26450704225351
80.30941176470587
77.87819225251076
77.87819225251076
78.1773519163763
76.96578073089701
75.10299003322258
76.71239328819547
80.35518398586987
84.77824865614704
84.77824865614704
82.34702914395191
79.78675517134917
80.48904022806461
82.92025974025972
83.60487512487512
80.99402714932127
77.9425985778927
77.25798319327731
78.82857142857142
79.77037037037036
78.49894179894179
77.84772228674667
78.8619673009917
81.91339587242027
83.96987854251012
83.96987854251012
81.86024891288048
80.12535612535612
79.77871542428504
79.45712554171955
79.13553565915406
77.83250073464589
78.48372024684102
79.47291444258045
79.47291444258045
78.50785420161658
77.84024988844266
80.21057328730123
83.73590750086784
86.6258111031002
87.00054794520547
84.77824865614704
82.9025900681597
81.460564751704
79.55200183286557
77.29679821295606
75.38823529411765
78.3640866873065
81.33993808049536
84.69052631578947
84.69052631578947
84.32552289815447
85.1057968707572
87.95705545199291
90.30130275398669
89.52102878138395
86.30476678251325
84.32552289815447
84.32552289815447
86.25192982456139
87.01153153153152
85.56950621507583
82.27320991877954
80.10834505391466
80.8106301106301
81.47823442380404
81.14860479417442
79.45712554171955
80.52441401606998
83.41431761830235
84.75015251511286
84.75015251511286
84.35474340737498
86.63679468942627
89.94329623741388
92.03495311167944
91.23315130987766
84.09411387672256
77.4103194103194
73.97402597402598
74.25302283922973
72.94803750198633
70.24287032873406
70.5283554931286
74.59858824118903
78.91315866941419
81.81620910734836
83.25823442380404
85.0851246051246
87.42937190711838
88.61603857378505
88.61603857378505
85.56950621507583
83.28745493302455
82.9025900681597
85.53128205128205
86.62666666666667
86.62666666666667
85.06526315789472
85.4501280227596
86.23040199536233
88.20964587972112
87.82478101485626
85.60248172579782
81.56675517134917
80.82701491160893
83.04931420066735
84.38514909747786
83.68286404076242
81.80720545277508
83.28745493302455
88.13007726440563
92.15722658567259
93.80664743509344
90.0313135780628
85.65752355572475
82.52785322605442
82.52785322605442
85.57438558476363
86.29503335804299
84.88977020014825
80.54020291693087
77.86351118760757
77.53388155797794
79.90420495683654
81.86024891288048
83.23013828276986
82.86513486513486
84.34538434538433
86.68963164737812
89.90589364624881
90.70769544805061
86.67196889360197
79.71544715447155
74.60050462573591
74.9220945083014
77.62209450830139
80.10834505391466
79.47291444258045
78.50785420161658
91.02543507362785
84.88682558982106
84.2812975954908
70.46068179897138
77.56435152374202
80.91493975903614
83.28526315789472
83.96987854251012
81.86024891288048
79.48992551402189
79.14328481295081
80.51317418284017
81.47823442380404
80.17519949929587
78.16987951807228
78.85449490268766
81.59955514365151
84.72948024948025
85.0851246051246
82.65390509292948
78.9184519927705
79.28345541040548
79.9346749226006
79.35698729582576
75.5244514106583
73.09717868338558
74.59423503325942
78.42677091842688
83.41431761830235
85.84553713049746
84.77824865614704
81.56675517134917
78.82169493038532
79.1683356314564
80.50417052826691
80.50417052826691
77.39228241637879
73.74100036509674
72.55778474399163
75.32303215480867
80.45456368634021
84.76770441327403
86.99000370233246
86.23040199536234
85.10579687075722
83.5857826384142
84.34538434538433
86.68963164737812
89.03387894937191
89.03387894937191
86.68963164737812
82.34006436416074
79.21013925833202
77.84024988844266
80.58531012940651
84.1106443429731
87.40694063926941
87.03220379716413
84.14230019493176
81.86024891288048
83.42165242165242
87.13578909353558
88.23117370892018
85.26450704225351
81.22878048780487
79.78675517134917
81.56675517134917
83.9979746835443
84.70025974025972
83.25823442380404
81.14860479417442
80.10834505391466
81.93523523523523
83.3051246051246
83.3051246051246
79.56967150496561
78.19978213507625
79.60504529297097
83.34049839312996
82.09953978746547
85.4060413354531
85.02117647058823
89.97627174813587
88.23117370892018
87.85643686681492
83.82071031236627
80.8540436456996
81.61364535266974
83.6701280227596
84.35474340737498
81.86024891288048
81.49524549524548
83.37090408323284
85.86539857772735
86.23040199536234
83.01890851056447
80.8540436456996
79.78675517134917
80.7759493670886
80.44631973745898
78.8369164824861
78.49894179894179
79.86883116883116
81.47823442380404
81.47823442380404
80.4379746835443
81.14025974025972
83.3051246051246
83.98973998973999
82.29826073728512
78.56280763712614
77.54856262288112
79.24004187533598
82.5906301106301
85.0851246051246
85.0851246051246
84.34538434538433
83.96051948051948
83.96051948051948
83.60487512487512
82.16284980841942
81.80720545277508
82.52785322605442
84.35474340737498
84.0081027063039
81.3314109769806
77.01827025004677
75.7152353255386
76.02160365600332
77.20481927710843
77.20481927710843
78.16987951807228
81.69521373163887
86.47455968688844
89.44122635355511
87.92121212121211
83.45570689473128
79.8378207158695
79.13553565915406
78.82169493038532
76.2454419151079
72.94080056489693
72.04307010818637
76.31080237591866
83.09175475687103
89.21106719367589
92.42732919254658
90.39304347826086
87.54178489702517
85.06526315789472
83.28526315789472
81.55037037037036
78.49894179894179
76.92835356364768
77.25798319327731
80.30941176470589
85.26450704225351
87.82478101485626
87.82478101485626
85.48053371286247
83.25823442380404
80.20680585237548
75.93907358464321
72.37362637362637
70.94505494505493
72.30973677485305
73.67441860465115
73.67441860465115
73.67441860465115
74.57214906136171
77.95676444597711
80.85981488391127
83.23013828276986
84.71038776301933
86.23040199536233
87.79180550413426
85.29731100963977
80.58876117496807
75.47381864623243
73.94065757818765
75.75930381062699
79.68757967269593
82.9556335282651
84.69052631578947
83.59514170040485
83.96987854251012
85.12488935721812
85.84553713049746
81.9172612684285
75.8743786001736
71.76911544227886
73.2661717921527
78.91364535266973
84.5803120193364
87.3963963963964
85.56950621507583
83.6430992886689
83.25823442380404
86.30476678251325
88.23117370892018
88.61603857378505
86.27179127179127
84.34538434538433
83.2207792207792
80.60993124522535
77.14239877769289
72.36988097291703
71.79219334614217
72.94803750198633
71.55605314226004
75.86919386919388
76.17556219965859
81.9844200085164
82.78622181031818
87.56556776556776
90.2654594232059
87.98340814115461
83.20406218590504
79.48992551402189
79.84556986966624
84.19513715288363
87.90927382476679
89.03387894937191
85.9873465906627
82.27320991877954
79.14328481295081
75.32270143375433
71.92007299886784
68.90853749515085
70.5283554931286
74.59858824118903
79.61544372612963
82.16284980841942
81.82487512487512
81.1225900681597
82.2179746835443
84.38283954840917
85.0851246051246
82.97549497549497
81.49524549524548
81.86024891288048
80.3270878448357
79.31284283059068
76.94251943173208
78.80531012940651
80.54020291693087
82.91052631578947
82.58089668615983
81.86024891288048
81.86024891288048
85.57438558476363
88.70405591443397
90.2654594232059
87.92121212121211
84.10692640692639
81.82487512487512
81.46923076923076
79.3209549071618
74.4205500488622
70.76926799758016
71.34695562435499
76.96800825593394
81.71467492260061
84.69052631578947
82.9556335282651
80.21057328730124
79.48992551402189
82.37982911625426
85.12488935721811
85.84553713049746
84.32552289815447
83.9507860560492
84.71038776301933
84.0081027063039
79.37536702093664
75.34771145839736
74.68010714522342
77.25636016050082
79.45712554171955
78.21616693605506
80.27264960614491
82.09953978746549
85.4501280227596
85.4501280227596
83.96987854251012
82.52785322605442
82.52785322605442
83.62323784143904
83.62323784143904
82.5559493670886
79.50452079566004
78.8369164824861
79.90420495683654
83.73590750086784
88.32205886962791
89.08166057659804
86.19175697436566
80.97017499427137
78.80531012940651
66.58063512327455
67.88367004778272
68.22164473132702
79.81088912612475
78.50785420161658
78.5078542016166
78.82169493038532
80.12472985489349
79.78675517134917
81.84323784143903
84.88977020014825
86.66977020014825
84.61328753005839
79.08050462573591
75.43771392806148
76.08893344025661
80.01720930232557
83.66
84.70025974025972
82.92025974025972
80.8106301106301
80.10834505391466
81.51360821180941
84.0081027063039
84.0081027063039
81.03225131311505
76.44011372097745
76.10213903743315
78.71298701298701
82.18051948051948
82.18051948051948
80.48904022806461
77.30050462573591
75.43771392806148
75.4377139280615
77.92396447367476
79.45712554171955
79.45712554171955
78.15409061721138
78.48372024684102
79.47291444258045
79.78675517134917
78.21616693605506
76.01540155483633
75.39519249560288
76.63615110126737
79.90420495683654
82.21589326852484
82.54552289815447
80.8106301106301
78.19978213507625
78.19978213507625
79.9346749226006
81.84323784143903
81.19201832924392
78.21616693605506
76.60676368108219
76.92835356364768
78.16931216931216
79.1111111111111
78.47568049977687
77.53388155797794
77.21229167541244
76.02907605430734
75.43771392806148
74.5183452049625
76.66662106703146
80.30941176470589
83.28526315789472
84.32552289815447
82.21589326852484
79.84556986966625
77.23472189411238
74.33687899626949
71.32534349255249
69.92926506117993
71.8853090172239
77.26716791979949
82.01383458646616
85.06526315789472
83.9979746835443
82.9025900681597
81.1225900681597
79.51318681318682
76.96578073089701
74.81750486882804
75.4377139280615
78.70576778363065
81.89430338595935
82.21589326852484
79.53920153920154
76.63615110126737
75.69435215946844
75.69435215946844
75.98655462184874
75.39519249560288
75.39519249560288
77.30375541444131
79.85116149673112
80.15752982719583
79.48992551402189
78.47568049977687
79.77871542428504
81.14860479417442
81.81620910734836
80.51317418284019
77.61012374490602
74.844876334089
74.23934833975873
74.23934833975873
75.7015608260676
77.27214906136172
80.54020291693087
83.6701280227596
84.35474340737498
81.9844200085164
77.39228241637879
74.844876334089
75.15871706285773
76.31456121870188
76.31456121870188
76.63615110126737
76.63615110126737
75.53227513227512
72.37929606625258
70.16811594202898
72.1697223677318
77.81719592824882
83.46466948876588
85.83499288762445
84.0081027063039
79.98044714376462
76.71239328819546
76.71239328819547
75.87518398586988
77.08675517134918
76.74878048780488
79.44878048780487
79.44878048780487
77.58598979013045
75.72319909245603
75.4093583636873
77.61012374490602
80.51317418284017
80.20680585237548
78.90377092786731
74.8968445209409
73.74100036509674
74.05484109386548
79.18637262539701
82.65390509292948
83.3051246051246
80.17519949929587
77.27214906136172
76.62092954916659
76.62092954916659
77.51866000587715
76.89845094664372
77.53388155797794
79.90420495683654
84.14230019493176
86.25192982456139
86.62666666666667
83.9979746835443
83.9979746835443
81.88834505391466
80.58531012940651
76.1053101294065
72.70268169452001
70.1851332398317
71.61370466840313
75.01633310328963
80.27894179894179
84.1106443429731
86.60513883746759
71.90578399875793
66.91823729888245
60.776776689336735
70.21352283239425
69.41332303219444
71.81933054158118
73.43914853955893
73.18401237137928
72.0546006066734
71.76911544227886
73.68113590263691
77.78639906053165
81.71467492260061
82.9556335282651
78.85037037037037
85.97037037037036
86.98461538461538
87.25734265734265
79.39760239760238
66.95004995004994
71.54218754218755
73.88643484418132
89.90589364624881
89.90589364624881
84.95079836870117
79.42284805814218
74.55798319327731
74.85714285714286
76.46654611211574
79.50452079566004
78.91315866941419
76.71239328819546
75.1029900332226
77.30375541444131
79.85116149673112
81.460564751704
81.1225900681597
80.7759493670886
83.40464135021097
86.37130801687763
87.81333333333333
85.88692640692639
83.25823442380404
82.51849416406378
84.03850839640678
85.48053371286247
83.47521373163887
78.48766703176341
72.4918775580792
71.02966507177032
72.18550922761449
74.25302283922973
75.10970733120834
76.05150627300728
79.24004187533598
82.97549497549497
84.71038776301933
85.07539118065432
83.9507860560492
84.32552289815447
84.70025974025972
83.33037037037036
79.97978213507625
76.33699143740182
75.7015608260676
78.67741221925645
81.94546607482562
85.07539118065432
84.0081027063039
81.3314109769806
77.59595787682161
77.59595787682161
78.86738644825019
80.7759493670886
81.1225900681597
82.9025900681597
85.12488935721812
85.48053371286247
83.70053371286247
80.8106301106301
79.77037037037036
79.77037037037036
78.52941176470587
76.10213903743315
72.61953034178097
72.32732787940067
75.09257529021771
77.30375541444131
91.30290974847937
83.86126534016441
84.16763367062913
66.90702761002308
63.998197334793716
63.100466878083154
64.49245123780945
72.93436300251533
73.52572512876118
75.68739495798319
75.68739495798319
77.29679821295608
80.64738644825019
85.60248172579782
87.82478101485626
85.07972077389239
78.46774120416634
72.17520916704748
70.99199354594238
72.35667537574048
73.94065757818765
74.5183452049625
75.72991639044179
78.21616693605506
81.95162003621405
84.76770441327403
87.3963963963964
85.23153153153152
81.49607843137254
75.56274509803922
73.41446923597024
73.7136288998358
74.5320197044335
74.25302283922973
85.65203761755487
125.82758620689654
132.5113806732997
125.76830150865668
89.14629193927868
85.22774488369257
82.88349758169878
83.6430992886689
85.0851246051246
84.04486486486485
80.91493975903613
78.16987951807228
78.16987951807228
78.80531012940651
79.11915085817523
78.78952122854561
81.28401572304011
85.31974227748876
89.4636576214041
89.46365762140408
87.11941031941032
85.46998946998946
86.27179127179127
87.3963963963964
86.27179127179127
82.97549497549497
67.71572565203138
70.93198765090207
73.42648214539656
87.56164634425502
85.0851246051246
85.48053371286247
89.62087098752811
80.91864876530589
84.51991325424162
73.37718031698614
78.43661184153393
69.84780065272275
75.80993657505284
75.80993657505284
71.49982612475549
85.10171291720832
81.00236769255262
87.08853135792761
88.66899750665124
98.88765516811176
99.20924505067727
80.29463404498466
71.82232283217002
61.04319333771207
73.67545140222819
82.60300558179475
91.01176470588234
78.88429217840982
71.47252747252747
85.61538461538461
86.69458128078817
91.55944614565303
86.7915890027959
88.93986486486486
109.74941860465115
111.97441860465115
110.70299003322258
80.62490170380079
77.88644016533925
75.67526004111565
86.59321548017199
71.23987373994501
70.0431009922982
69.19548194467916
76.81669698807357
82.53633817163228
83.38395721925133
89.21106719367589
91.98509316770185
89.95080745341613
86.03226039783002
81.88834505391466
80.44631973745898
82.6686190265174
85.1631135210119
86.99000370233247
84.76770441327403
81.95162003621405
79.78675517134917
81.61364535266974
86.07915057915056
89.04581724581723
87.92121212121211
83.14186616596254
79.52397998710076
77.51866000587715
78.48372024684102
80.91493975903614
82.92025974025972
83.96051948051948
81.85088985088984
79.84556986966625
77.84024988844264
78.16987951807228
79.13493975903614
79.13493975903613
77.56435152374202
75.7015608260676
75.7015608260676
77.95676444597711
80.50417052826691
82.15384615384616
82.50949050949052
82.86513486513486
83.96051948051948
85.48053371286247
88.25455968688844
90.28884540117416
89.89343629343628
86.76376596376596
84.72948024948025
85.94912242686891
88.64901408450703
89.42928805710977
88.20964587972111
86.60513883746759
87.01153153153152
89.55843137254901
92.49019607843137
94.23529411764706
93.78005115089513
92.88257215929849
91.98509316770185
93.39220779220778
94.75851909284744
95.20075511769215
92.92162579630933
91.12553582363748
