HR_time,RR-interval,heart_rate
1.4981214884897167,6716,99.09807692307692
2.0973700838856035,632,99.09807692307692
2.705981938584551,641,99.61153846153846
3.3052305339804375,660,100.14130036630036
3.8951158700732638,669,100.14130036630036
4.503727724772211,641,99.12993672993672
5.121702838774219,650,98.08671328671328
5.730314693473167,660,98.08671328671328
6.338926548172114,669,98.58461538461538
6.947538402871062,679,98.58461538461538
7.556150257570009,698,97.60367393800229
8.183488630875077,688,96.15390018234618
8.820190263483207,650,93.80664743509344
9.47561841469746,632,92.01055746242159
10.140409825214771,641,92.01055746242157
10.7771114578229,641,92.45279348726629
11.42317634973409,669,92.88257215929849
12.078604500948341,698,91.55531449566966
12.743395911465653,688,90.2654594232059
13.417550581286026,669,88.61603857378505
14.11043176971252,1867,87.79180550413426
14.793949698835952,632,89.08166057659804
15.440014590747143,641,92.09739272665854
16.067352964052212,660,94.24888345993816
16.70405459666034,660,94.70412642669008
17.34075622926847,660,92.90803645401823
18.00554763978578,1245,90.36113661300072
18.69842882821228,2490,88.20964587972112
19.38194675733571,669,88.20964587972112
20.04673816785302,698,91.22537802978162
20.67407654115809,707,94.32874042081525
21.2920516551601,669,97.10577184010019
21.900663509859047,2481,97.10577184010019
22.528001883164116,641,96.15390018234618
23.164703515772246,650,93.80664743509344
23.820131666986498,660,92.44033613445377
24.475559818200747,679,91.54285714285713
25.130987969415,669,92.9091684434968
25.758326342720068,2499,95.25642119074953
26.366938197419014,1245,97.60367393800229
26.975550052117963,632,99.09807692307692
27.57479864751385,641,98.60017482517482
28.19277376151586,622,96.69515810276678
28.838838653427047,1792,93.40466514502032
29.50363006394436,1235,89.90589364624881
30.196511252370854,632,87.42937190711838
30.89875570010041,641,87.42937190711838
31.56354711061772,650,89.52102878138395
32.209612002528914,632,93.9025672429224
32.818223857227856,1216,97.1930602006689
33.41747245262374,2386,99.09807692307692
34.02608430732269,1264,97.6483031674208
34.66278593993082,650,95.22982490655124
35.308850831842015,641,92.88257215929849
35.96427898305626,2452,91.1374741200828
36.638433652876635,632,90.2654594232059
37.303225063393946,632,91.16293841480254
37.939926696002075,650,93.85990811177223
38.55790181000408,650,96.63693953105717
39.16651366470303,660,97.58881118881118
39.78448877870504,2471,98.08671328671328
40.39310063340399,1235,97.10577184010019
41.020439006709054,632,96.6227324913892
41.647777380014126,3103,95.1729587357331
42.284479012622256,641,95.6559980844441
42.902454126624264,650,97.15040106951871
43.50170272202015,660,99.64339826839826
44.091588058112976,660,101.1845238095238
44.6814733942058,632,100.67106227106225
45.29008524890475,1867,99.12993672993672
45.90806036290676,1254,97.10577184010019
46.535398736211825,1830,95.65599808444408
47.172100368819954,632,94.24888345993816
47.81816526073115,650,94.24888345993816
48.445503634036214,660,95.20075511769217
49.06347874803822,669,98.14899528332363
49.65336408413105,650,100.72001117162407
50.23388616092082,650,102.2611367127496
50.82377149701364,650,102.2611367127496
51.413656833106465,650,100.67106227106225
52.022268687805415,2490,99.12993672993672
52.64024380180742,4283,96.63693953105717
53.27694543441555,622,94.73192280864913
53.92301032632674,2433,93.78005115089513
54.55971195893487,622,94.73192280864914
55.177687072936884,641,96.63693953105717
55.786298927635826,632,98.60017482517482
56.38554752303172,1849,99.09807692307692
56.99415937773066,632,98.11713547646383
57.62149775103573,632,96.6227324913892
58.2488361243408,641,94.71771576898118
58.89490101625199,1849,93.79364049318625
59.54096590816318,1254,92.42732919254657
60.19639405937743,660,93.35140446834151
60.8237324326825,669,94.75851909284745
61.44170754668451,660,97.61923337856173
62.0409561420804,650,98.60017482517482
62.649567996779346,660,99.09807692307692
63.25817985147829,698,98.08671328671328
63.876154965480296,726,97.10577184010019
64.50349333878536,735,96.1248303934871
65.13083171209044,698,96.12483039348712
65.74880682609245,650,97.10577184010019
66.3574186807914,641,98.08671328671328
66.96603053549033,632,98.08671328671328
67.58400564949235,622,96.63693953105717
68.22070728210048,632,94.73192280864913
68.86677217401167,1245,92.88257215929849
69.52220032522592,632,91.98509316770185
70.17762847644018,641,92.9091684434968
70.80496684974524,650,94.27547974413646
71.4323052230503,679,96.6227324913892
72.04091707774926,669,97.10577184010019
72.65889219175126,650,97.58881118881118
73.27686730575327,650,96.60786974219809
73.90420567905834,660,97.10577184010019
74.51281753375729,650,98.11713547646383
75.11206612915318,650,99.09807692307692
75.72067798385213,650,98.11713547646383
76.34801635715719,1245,95.69865721559427
76.99408124906839,1292,93.35140446834151
77.64950940028264,679,91.55531449566966
78.31430081079995,688,91.55531449566965
78.96036570271113,679,91.99755052051438
79.60643059462232,660,92.86956521739128
80.25249548653352,641,92.86956521739128
80.8985603784447,641,93.32480818414321
81.53526201105284,650,94.73192280864914
82.15323712505484,660,96.63693953105717
82.7618489797538,1886,98.08671328671328
83.37046083445274,632,98.08671328671328
83.98843594845475,632,97.58881118881118
84.60641106245676,641,97.09090909090908
85.22438617645876,1849,98.10227272727272
85.82363477185464,632,99.11363636363636
86.42288336725053,641,100.6547619047619
87.01276870334337,650,100.14130036630036
87.6213805580423,1877,99.12993672993672
88.23935567204431,622,97.58881118881118
88.85733078604632,641,98.10227272727272
89.45657938144221,650,99.11363636363636
90.0558279768381,1858,100.125
90.65507657223398,632,99.11363636363636
91.27305168623599,650,97.15040106951871
91.90975331884412,650,95.65599808444408
92.53709169214919,1273,96.15390018234618
93.14570354684814,641,97.10577184010019
93.76367866085015,641,98.08671328671328
94.3722905155491,650,97.10577184010019
94.99962888885416,1867,96.6227324913892
95.62696726215923,1264,95.1729587357331
96.26366889476736,650,95.6559980844441
96.88164400876937,641,96.63693953105717
97.49025586346832,632,98.08671328671328
98.09886771816727,650,98.08671328671328
98.71684283216928,688,97.10577184010019
99.34418120547434,698,94.75851909284744
99.9996093566886,707,92.47938977146461
100.6644007672059,679,91.11307847082493
101.31982891842016,660,91.55531449566965
101.96589381033135,641,91.98509316770185
102.6213219615456,641,90.33567231828101
103.31420314997209,660,87.11941031941032
104.03517411630777,688,83.98973998973999
104.7655083419465,698,83.98973998973999
105.458389530373,698,87.20600198861068
106.10445442228419,698,91.23315130987764
106.74115605489231,679,94.24888345993816
107.3684944281974,669,95.6559980844441
107.9864695421994,650,96.1248303934871
108.61380791550447,669,96.1248303934871
109.24114628880953,679,96.6227324913892
109.84975814350848,698,96.6227324913892
110.47709651681355,707,96.15390018234618
111.11379814942168,688,94.24888345993816
111.75986304133288,669,92.03495311167944
112.43401771115325,1273,90.70769544805061
113.09880912167056,1254,90.70769544805061
113.74487401358175,688,91.99755052051438
114.39093890549293,773,92.42732919254657
115.04636705670718,783,92.42732919254658
115.69243194861838,820,92.42732919254658
116.33849684052957,792,92.86956521739128
116.98456173244075,754,94.27667984189722
117.60253684644276,707,95.68379446640316
118.22051196044477,669,97.09090909090908
118.83848707444679,1254,94.81177976952624
119.5032784849641,650,92.11481007255654
120.17743315478447,698,89.01144768152292
120.8609510839079,735,88.59360730593608
121.53510575372827,754,89.44122635355511
122.19053390494253,745,91.59271708683472
122.82723553755065,707,93.33781512605042
123.46393717015879,660,93.78005115089513
124.11000206206997,1264,92.88257215929849
124.76543021328422,632,92.88257215929849
125.40213184589236,650,93.80664743509344
126.02947021919742,650,96.15390018234618
126.63808207389637,679,96.6227324913892
127.26542044720144,669,96.6227324913892
127.89275882050651,2499,95.1729587357331
128.52946045311464,622,95.6559980844441
129.14743556711664,632,96.63693953105717
129.7560474218156,660,98.08671328671328
130.36465927651454,660,97.60367393800229
130.9919976498196,679,96.15390018234618
131.62869928242773,669,94.24888345993816
132.27476417433894,650,94.24888345993816
132.902102547644,2452,95.20075511769217
133.520077661646,632,96.60786974219809
134.13805277564802,660,97.09090909090908
134.75602788965003,688,96.13903743315507
135.39272952225815,716,94.73192280864913
136.03879441416933,726,94.24888345993816
136.66613278747442,707,95.69865721559427
137.27474464217335,679,97.60367393800229
137.8833564968723,641,97.60367393800229
138.5106948701774,622,95.69865721559427
139.15675976208857,632,93.79364049318625
139.80282465399975,632,92.86956521739128
140.44888954591096,660,94.27667984189722
141.06686465991297,698,94.73192280864914
141.7035662925211,745,95.18716577540106
142.3402679251292,726,93.78005115089513
142.9863328170404,688,94.24888345993816
143.61367119034549,669,95.69865721559427
144.22228304504443,1254,97.10577184010019
144.84025815904644,622,97.58881118881118
145.45823327304845,641,96.13903743315507
146.09493490565657,650,94.73192280864913
146.74099979756775,669,93.78005115089513
147.37770143017588,688,94.24888345993816
148.00503980348097,698,94.24888345993816
148.65110469539215,660,92.09739272665854
149.3346226245156,632,89.08166057659804
150.0275038129421,622,86.60513883746759
150.72974826067164,632,87.01153153153152
151.403902930492,641,88.66095238095237
152.05933108170626,632,91.59271708683472
152.69603271431438,632,93.33781512605042
153.3327343469225,632,93.33781512605042
153.98816249813677,1207,91.1863243927708
154.67168042726018,3122,88.63942455175331
155.36456161568668,650,86.99000370233247
156.05744280411318,650,86.59459459459458
156.75032399253968,1245,87.3963963963964
157.42447866236006,632,88.61603857378505
158.08927007287735,632,90.70769544805061
158.73533496478856,650,91.12553582363748
159.40012637530586,641,90.70769544805061
160.07428104512624,1877,88.61603857378505
160.76716223355274,632,87.01153153153152
161.4694066812823,632,86.60513883746759
162.1529246104057,641,87.82478101485626
162.81771602092303,641,90.30130275398668
163.4637809128342,3047,93.40466514502032
164.08175602683622,1226,96.18169656430524
164.69036788153517,2424,96.63693953105717
165.32706951414332,632,93.53357714002354
166.01058744326673,1849,86.72081916628997
166.77837470611772,632,81.04399421944375
167.55552522827176,632,76.33544438477205
168.37012878763804,641,75.7152353255386
169.15664256909514,2452,76.68029556650245
169.90570331334,3669,80.60857142857142
170.60794776106957,632,85.26450704225351
171.27273917158686,1858,90.4451040571789
171.90007754489193,641,94.32874042081525
172.51805265889394,660,95.20075511769215
173.16411755080514,688,92.18502296763165
173.85699873923164,726,87.20600198861068
174.58733296487037,707,82.94948024948025
175.3363937091152,688,81.1225900681597
176.07609119405703,660,82.2179746835443
176.77833564178658,660,86.03226039783002
177.43376379300082,660,90.40605042016806
178.07046542560897,679,94.28968678380443
178.68844053961098,679,95.65599808444408
179.31577891291604,679,95.20075511769215
179.96184380482723,688,93.79364049318625
180.6079086967384,669,91.57971014492753
181.2820633665588,650,90.70769544805061
181.9468547770761,660,90.70769544805061
182.5929196689873,679,93.40466514502032
183.2108947829893,716,96.18169656430524
183.81950663768825,820,98.08671328671328
184.4281184923872,764,98.08671328671328
185.0460936063892,716,97.10577184010019
185.67343197969427,698,94.75851909284744
186.3288601309085,688,92.9091684434968
186.98428828212278,679,90.69523809523808
187.65844295194316,688,90.2654594232059
188.32323436246045,688,90.70769544805061
188.96929925437166,698,93.40466514502032
189.58727436837367,679,96.18169656430524
190.1958862230726,660,98.08671328671328
190.80449807777154,650,99.09807692307692
191.40374667316743,650,98.11713547646383
192.0310850464725,669,95.76988272921108
192.68651319768676,688,91.65515670181382
193.3700311268102,698,87.87982284478318
194.08163883384282,679,85.10579687075722
194.8026098001785,660,84.32552289815447
195.50485424790804,660,85.88692640692639
196.17900891772842,707,89.55843137254901
196.81571055033655,726,93.44206773618538
197.43368566433855,716,95.65599808444408
198.06102403764362,716,96.1248303934871
198.68836241094868,688,94.27547974413646
199.34379056216295,660,91.25974759407595
200.03667175058942,650,86.41712526269488
200.77636923553123,660,83.6430992886689
201.4973402018669,679,84.03850839640678
202.18085813099034,698,87.085040755116
202.84564954150764,669,91.22537802978162
203.4729879148127,650,94.32874042081525
204.09096302881474,650,96.60786974219809
204.70893814281675,669,96.13903743315507
205.34563977542487,707,94.73192280864913
205.99170466733605,707,92.4527934872663
206.65649607785338,688,90.30130275398669
207.3400140069768,660,88.20964587972111
208.03289519540328,669,88.63942455175331
208.68832334661755,660,91.25974759407595
209.31566171992262,698,94.75851909284745
209.93363683392462,688,96.1248303934871
210.5609752072297,660,95.65599808444408
211.1976768398378,632,95.1729587357331
211.82501521314288,641,95.1729587357331
212.45235358644797,660,95.64179104477613
213.07969195975303,698,96.6227324913892
213.68830381445198,726,98.64689738122573
214.2781891505448,707,100.14130036630036
214.87743774594068,707,100.6547619047619
215.47668634133657,669,99.11363636363636
216.09466145533858,641,97.15040106951871
216.7313630879467,641,94.73192280864913
217.3774279798579,650,93.32480818414322
218.0234928717691,679,92.86956521739128
218.66955776368027,716,93.79364049318623
219.29689613698534,707,95.69865721559427
219.9055079916843,679,96.6227324913892
220.53284636498938,669,96.6227324913892
221.16018473829445,688,94.71771576898118
221.80624963020563,735,94.24888345993816
222.44295126281375,764,94.24888345993816
223.07028963611882,792,95.6559980844441
223.68826475012082,754,96.60786974219809
224.30623986412283,707,96.60786974219809
224.93357823742792,650,96.1248303934871
225.560916610733,641,95.1729587357331
226.1976182433411,660,94.70412642669008
226.83431987594923,698,95.68506787330315
227.44293173064818,726,97.6483031674208
228.04218032604408,754,99.61153846153846
228.64142892143997,745,100.125
229.24067751683586,698,99.11363636363636
229.85865263083787,688,98.60017482517482
230.46726448553682,707,98.08671328671328
231.07587634023574,764,99.62783882783881
231.66576167632857,745,100.14130036630036
232.26501027172446,716,100.14130036630036
232.8736221264234,679,99.09807692307692
233.48223398112236,660,97.60367393800229
234.10957235442743,660,97.10577184010019
234.72754746842944,669,97.10577184010019
235.33615932312838,660,98.08671328671328
235.94477117782733,641,97.60367393800229
236.5721095511324,650,96.6227324913892
237.19944792443746,679,95.1729587357331
237.8361495570456,688,95.6559980844441
238.4541246710476,660,96.63693953105717
239.06273652574654,632,98.60017482517482
239.66198512114244,632,99.09807692307692
240.27059697584139,650,99.09807692307692
240.87920883054034,650,98.08671328671328
241.49718394454234,660,98.08671328671328
242.1057957992413,650,98.60017482517482
242.70504439463718,1867,99.61153846153846
243.30429299003308,650,99.61153846153846
243.912904844732,660,98.11713547646383
244.5402432180371,698,97.10577184010019
245.1582183320391,688,96.60786974219809
245.7761934460411,650,97.58881118881118
246.38480530074006,632,96.63693953105717
247.02150693334818,641,94.78758888170651
247.67693508456242,660,91.1863243927708
248.36045301368586,669,87.51481942714818
249.08142398002153,679,85.48053371286247
249.78366842775108,679,85.48053371286247
250.46718635687452,669,88.25455968688844
251.1226145080888,650,90.28884540117416
251.77804265930303,1235,91.54285714285713
252.43347081051726,1264,90.69523809523808
253.10762548033765,669,89.84761904761905
253.78178015015803,688,89.0
254.45593481997838,688,88.59360730593606
255.13945274910182,650,89.01144768152292
255.80424415961915,650,90.30130275398668
256.4503090515303,660,91.55531449566966
257.1057372027446,669,91.1374741200828
257.779891872565,679,88.2862155388471
258.4914995795976,679,82.32365396249243
259.30610313896386,2490,79.02735766619614
260.0645271425118,632,79.02735766619614
260.7761348495444,650,83.34049839312996
261.4690160379709,669,86.23040199536233
262.1525339670943,679,87.79180550413426
262.8266886369147,641,88.18721461187214
263.5102065660381,641,88.18721461187214
264.1937244951616,641,87.38541281007033
264.8866056835881,660,87.79180550413426
265.5607603534084,660,89.04581724581723
266.21618850462266,660,91.1374741200828
266.86225339653384,1254,92.42732919254658
267.508318288445,641,91.99755052051438
268.1731096989624,650,90.30130275398669
268.8566276280858,650,88.20964587972111
269.5495088165123,641,87.79180550413426
270.22366348633267,632,89.04581724581723
270.87909163754694,641,90.69523809523808
271.53451978876114,660,89.50857142857141
272.2367642364907,679,86.73454545454544
272.95773520282637,679,84.32552289815447
273.669342909859,679,83.9507860560492
274.38095061689165,650,85.4708002883922
275.06446854601506,632,87.87982284478318
275.71989669722933,632,90.73108142601887
276.3659615891405,632,91.98509316770185
277.0213897403548,660,91.1374741200828
277.6955444101751,660,89.04581724581723
278.3884255986016,650,88.61603857378505
279.05321700911895,641,89.90589364624881
279.69928190103013,641,91.99755052051438
280.3453467929413,650,91.99755052051438
281.0101382034586,679,89.52102878138395
281.7123826511882,698,87.04450704225351
282.4146270989177,698,86.22027397260273
283.0981450280412,679,88.25455968688844
283.7535731792554,660,89.85906672914197
284.41836458977275,650,91.11307847082493
285.07379274098696,641,89.46365762140408
285.76667392941346,650,88.63942455175331
286.4501918585369,707,88.63942455175331
287.10562000975114,726,91.65515670181382
287.7329583830562,688,93.80664743509344
288.36966001566435,650,93.80664743509344
289.0250881668786,650,90.79091528503292
289.7179693553051,650,87.11941031941032
290.43894032164076,660,85.0851246051246
291.14118476937034,698,84.70025974025972
291.84342921709987,688,87.04450704225351
292.5082206276172,660,89.97627174813587
293.1449222602253,650,92.90803645401822
293.78162389283347,660,93.78005115089513
294.42768878474465,660,92.03495311167944
295.101843454565,669,88.72845156369183
295.81345116159764,679,86.25192982456139
296.51569560932717,650,86.25192982456139
297.18985027914755,641,88.23117370892018
297.8546416896649,641,89.01144768152292
298.5381596187883,650,86.72939639947164
299.26849384442704,650,83.01525972758849
300.02691784797497,650,79.18355718355718
300.81343162943205,1254,78.49894179894179
301.56249237367695,622,80.60857142857142
302.2647368214065,632,86.13652173913042
302.91080171331765,632,90.84828644501277
303.5475033459258,2471,92.88257215929849
304.20293149714007,632,90.79091528503292
304.89581268556657,650,87.11941031941032
305.6167836519022,1849,83.3051246051246
306.36584439614705,622,81.47823442380404
307.10554188108887,632,82.60283954840916
307.79842306951537,1867,85.16311352101191
308.4819409986388,632,86.60513883746759
309.18418544636836,650,84.1106443429731
309.9426094499163,650,81.88834505391466
310.68230693485805,1877,81.51360821180941
311.3939146418907,622,84.8099045081057
312.06806931171104,641,88.2862155388471
312.7234974629253,641,90.69523809523808
313.3789256141396,1858,91.11307847082495
314.04371702465687,641,91.11307847082493
314.69914517587114,650,92.01055746242157
315.33584680847923,650,92.88257215929849
315.98191170039047,1245,92.03495311167944
316.6560663702108,622,89.88346237839983
317.33958429933426,641,89.44122635355511
317.99501245054853,641,91.65515670181382
318.6223508238536,650,94.27547974413646
319.24968919715866,641,94.71771576898118
319.89575408906984,632,93.79364049318625
320.541818980981,641,92.42732919254657
321.1972471321953,650,92.42732919254658
321.84331202410647,669,93.35140446834151
322.47065039741153,650,95.20075511769217
323.08862551141357,632,97.10577184010019
323.6972373661125,632,96.18169656430524
324.3433022580237,641,94.3323459149546
324.9987304092379,650,90.33567231828101
325.6916115976644,650,88.63942455175331
326.3751295267879,641,89.08166057659804
327.02119441869905,641,92.09739272665854
327.6485327920041,650,94.24888345993816
328.28523442461227,660,93.80664743509344
328.9406625758265,641,92.01055746242159
329.60545398634383,641,90.2654594232059
330.27960865616416,641,89.41784037558685
330.95376332598454,650,89.41784037558685
331.6185547365019,660,90.70769544805061
332.2646196284131,660,93.40466514502032
332.88259474241505,650,96.18169656430524
333.491206597114,632,97.58881118881118
334.10918171111604,632,96.63693953105717
334.74588334372413,650,93.85990811177223
335.4106747542415,679,90.7565457207386
336.0941926833649,679,88.60505498745898
336.7777106124883,688,89.4770696843359
337.42377550439954,669,91.1733174508636
338.0698403963107,650,92.42732919254657
338.72526854752493,632,91.55531449566966
339.3900599580423,1254,90.2654594232059
340.06421462786267,650,89.41784037558685
340.738369297683,688,90.74509803921568
341.37507093029114,735,93.44206773618538
341.9930460442932,726,96.63693953105717
342.60165789899213,688,98.08671328671328
343.210269753691,660,97.60367393800229
343.83760812699614,669,95.69865721559427
344.4836730189073,669,92.92162579630933
345.1484644294246,669,90.70769544805061
345.822619099245,669,91.16293841480254
346.4593207318531,1886,92.49019607843137
347.09602236446125,622,94.23529411764706
347.7327239970694,632,93.33781512605042
348.3881521482836,650,92.44033613445377
349.0435802994979,641,91.54285714285713
349.69900845071214,632,92.9091684434968
350.3263468240172,650,94.75851909284745
350.9443219380192,660,95.65599808444408
351.58102357062734,679,94.73192280864913
352.2270884625385,669,93.32480818414322
352.8731533544497,650,93.32480818414321
353.50985498705785,641,94.24888345993816
354.1371933603629,660,94.70412642669008
354.77389499297107,660,93.80664743509344
355.4293231441853,650,91.59271708683472
356.10347781400566,641,89.84761904761905
356.77763248382604,632,89.0
357.4517871536464,641,90.28985507246375
358.0978520455576,650,92.50378542072247
358.72519041886267,669,94.71771576898118
359.35252879216773,679,95.64179104477613
359.9798671654728,650,94.27547974413646
360.63529531668706,632,92.9091684434968
361.29072346790133,650,91.98509316770185
361.9367883598125,650,92.88257215929849
362.57348999242066,660,93.78005115089513
363.21019162502876,660,93.78005115089513
363.85625651693994,1273,92.03495311167944
364.5304111867603,632,89.48805327066196
365.2232923751868,632,87.3963963963964
365.9161735636133,641,87.3963963963964
366.5903282334337,660,89.04581724581723
367.24575638464796,650,91.1374741200828
367.89182127655914,641,92.88257215929849
368.52852290916724,632,93.32480818414322
369.1745878010785,632,90.84828644501277
369.876832248808,650,87.17678147939017
370.5978032151437,669,85.48053371286247
371.2813211442671,669,87.95705545199291
371.9273860361783,669,91.1733174508636
372.57345092808947,1254,92.86956521739128
373.2195158200007,641,92.42732919254657
373.8749439712149,650,90.33567231828101
374.5678251596414,688,88.63942455175331
375.2513430887649,726,88.63942455175331
375.9067712399791,726,90.73108142601887
376.55283613189033,707,91.98509316770185
377.20826428310454,669,91.98509316770185
377.8636924343188,660,91.11307847082495
378.5284838448361,669,90.2654594232059
379.2026385146565,688,90.70769544805061
379.84870340656767,698,92.03495311167944
380.4854050391758,698,93.78005115089513
381.12210667178397,679,93.78005115089513
381.76817156369515,1292,93.32480818414322
382.41423645560633,632,92.86956521739128
383.0603013475175,641,93.79364049318623
383.6876397208226,650,95.20075511769217
384.3056148348246,650,96.60786974219809
384.9235899488266,650,96.60786974219809
385.55092832213165,632,96.1248303934871
386.1782666954367,632,96.12483039348712
386.79624180943875,622,97.10577184010019
387.4048536641377,632,98.08671328671328
388.01346551883665,641,98.08671328671328
388.63144063283863,650,97.10577184010019
389.2587790061437,641,95.20075511769215
389.90484389805493,632,95.20075511769217
390.5228190120569,632,96.18169656430524
391.13143086675586,632,98.08671328671328
391.7400427214548,650,98.08671328671328
392.35801783545685,660,97.10577184010019
392.9853562087619,650,96.1248303934871
393.612694582067,622,96.12483039348712
394.23066969606896,632,97.10577184010019
394.8392815507679,622,97.10577184010019
395.466619924073,632,95.69865721559427
396.11268481598415,2471,93.79364049318625
396.7587497078954,632,93.79364049318623
397.38608808120046,660,95.20075511769217
398.00406319520243,1273,96.60786974219809
398.62203830920447,632,97.09090909090908
399.24001342320645,632,96.13903743315507
399.8767150558146,650,95.18716577540106
400.5134166884227,2509,95.18716577540107
401.13139180242473,650,96.13903743315507
401.7493669164267,650,97.58881118881118
402.35797877112566,660,96.63693953105717
402.9946804037338,1254,95.22982490655124
403.640745295645,641,93.32480818414322
404.28681018755617,641,93.79364049318623
404.91414856086124,641,95.69865721559427
405.5227604155602,1886,97.10577184010019
406.1407355295622,3132,96.63693953105717
406.7774371621704,632,95.18716577540106
407.41413879477847,632,93.78005115089513
408.06020368668965,660,93.78005115089513
408.6969053192978,698,94.24888345993816
409.32424369260286,698,94.70412642669008
409.960945325211,669,94.24888345993816
410.6070102171222,650,92.4527934872663
411.2718016276395,650,91.99755052051438
411.91786651955067,650,92.92162579630933
412.54520489285574,669,94.71771576898118
413.1725432661608,660,95.1729587357331
413.80924489876895,650,94.24888345993816
414.45530979068013,622,93.32480818414322
415.1013746825913,641,93.32480818414321
415.73807631519946,660,93.78005115089513
416.3747779478076,669,93.78005115089513
417.0208428397188,688,92.88257215929849
417.67627099093306,716,92.88257215929849
418.31297262354116,688,93.33781512605042
418.9496742561493,660,94.23529411764706
419.5863758887574,650,93.78005115089513
420.23244078066864,641,92.88257215929849
420.88786893188285,669,91.98509316770185
421.5432970830971,660,91.98509316770185
422.1893619750083,679,93.35140446834151
422.81670034831336,679,94.71771576898118
423.4440387216184,660,94.71771576898118
424.0901036135296,650,92.50378542072247
424.76425828335,669,90.28985507246375
425.43841295317037,698,88.59360730593606
426.12193088229384,735,89.01144768152292
426.78672229281113,735,90.30130275398668
427.4327871847223,716,92.92162579630933
428.0601255580274,679,95.20075511769217
428.6781006720294,660,96.1248303934871
429.3054390453345,660,95.20075511769215
429.95150393724566,669,92.09739272665854
430.6350218663691,669,87.60141109634856
431.3653560920078,660,84.38514909747786
432.0863270583435,650,84.38514909747786
432.7698449874669,641,87.51481942714818
433.4252731386812,641,89.85906672914197
434.0900645491985,660,90.68329979879275
434.7548559597158,698,90.25352112676056
435.4196473702331,764,90.25352112676056
436.0844387807504,735,91.58077879038939
436.72114041335857,716,93.85990811177223
437.33911552736055,716,96.13903743315507
437.9570906413626,707,97.09090909090908
438.57506575536456,726,96.60786974219809
439.2024041286696,707,95.20075511769215
439.84846902058086,688,94.24888345993816
440.48517065318896,660,94.24888345993816
441.112509026494,669,94.24888345993816
441.7585739184052,660,93.35140446834151
442.41400206961947,716,91.1374741200828
443.08815673943985,783,90.2654594232059
443.75294814995715,801,90.70769544805061
444.3990130418684,773,92.4527934872663
445.0357146744765,716,92.88257215929849
445.69114282569075,679,92.44033613445377
446.346570976905,707,91.98509316770185
446.9926358688162,735,92.88257215929849
447.6293375014243,735,94.24888345993816
448.25667587472935,726,94.70412642669008
448.8933775073375,688,94.24888345993816
449.5394423992487,650,92.4527934872663
450.20423380976604,650,90.70769544805061
450.87838847958636,650,90.70769544805061
451.5244533714976,698,92.50378542072247
452.15179174480267,716,93.79364049318625
452.79785663671385,679,93.79364049318625
453.443921528625,650,92.42732919254657
454.0993496798393,641,91.98509316770185
454.7547778310535,650,91.98509316770185
455.40084272296474,660,93.8344438170525
456.0188178369667,669,95.20075511769217
456.6461562102718,660,96.1248303934871
457.27349458357685,632,95.1729587357331
457.910196216185,632,93.80664743509344
458.56562436739927,641,92.88257215929849
459.21168925931045,660,92.88257215929849
459.84839089191854,669,94.24888345993816
460.4757292652236,650,95.1729587357331
461.1030676385287,622,94.71771576898118
461.7491325304399,632,92.92162579630933
462.4139239409572,622,91.12553582363748
463.0787153514745,632,90.25352112676056
463.74350676199185,650,92.04961109943241
464.3708451352969,641,94.32874042081525
464.9888202492989,632,95.65599808444408
465.62552188190705,641,94.73192280864913
466.2715867738182,660,91.62856041761552
466.95510470294164,688,87.95705545199291
467.67607566927734,726,84.74079345312222
468.397046635613,716,83.96051948051948
469.09929108334256,933,86.30476678251325
469.76408249385986,1066,89.07879275653923
470.4195106450741,660,90.68329979879275
471.0843020555914,660,89.85906672914196
471.7678199847149,688,88.20964587972111
472.4607011731414,669,86.99000370233247
473.1535823615679,650,87.3963963963964
473.8277370313882,688,89.04581724581723
474.4831651826025,764,92.06154939587775
475.11050355590754,820,94.27547974413646
475.7378419292126,801,95.1729587357331
476.37454356182076,754,94.24888345993816
477.02060845373194,698,93.32480818414322
477.6666733456431,679,92.86956521739128
478.3127382375543,698,93.79364049318623
478.94007661085936,688,94.71771576898118
479.5674149841645,716,96.12483039348712
480.18539009816647,698,96.1248303934871
480.81272847147153,669,95.65599808444408
481.4494301040797,698,94.24888345993816
482.09549499599086,698,93.78005115089513
482.732196628599,726,94.24888345993816
483.3595350019041,745,95.1729587357331
483.98687337520914,716,95.64179104477613
484.6142117485142,688,94.71771576898118
485.2602766404254,669,93.35140446834151
485.91570479163966,679,92.42732919254658
486.56176968355084,698,93.8344438170525
487.1797447975528,707,95.20075511769217
487.8070831708579,716,96.60786974219809
488.4250582848599,688,96.1248303934871
489.052396658165,698,96.1248303934871
489.67973503147005,716,96.12483039348712
490.2977101454721,745,97.61923337856173
490.89695874086794,726,98.60017482517482
491.5055705955669,707,98.11713547646383
492.13290896887196,698,95.25642119074953
492.7883371200862,669,93.35140446834151
493.4344020119974,660,93.8344438170525
494.0523771259994,679,95.20075511769217
494.67971549930445,707,96.1248303934871
495.3070538726096,716,94.71771576898118
495.95311876452075,707,94.71771576898118
496.5804571378258,679,94.71771576898118
497.2077955111309,650,96.6227324913892
497.81640736582983,660,96.6227324913892
498.4437457391349,679,95.69865721559427
499.0898106310461,707,93.79364049318625
499.73587552295726,726,92.42732919254657
500.3913036741715,698,93.8344438170525
501.0092787881735,660,94.75851909284744
501.6366171614786,641,95.65599808444408
502.2733187940867,660,94.70412642669008
502.91002042669487,679,94.23529411764706
503.54672205930297,698,94.23529411764706
504.1834236919111,688,95.18716577540107
504.80139880591315,650,96.13903743315507
505.41937391991513,669,97.58881118881118
506.0279857746141,707,97.10577184010019
506.65532414791915,726,96.15390018234618
507.2920257805273,745,95.1729587357331
507.91936415383236,698,96.15390018234618
508.5279760085313,660,96.6227324913892
509.1553143818364,650,96.6227324913892
509.78265275514144,669,94.27547974413646
510.4380809063557,688,91.25974759407595
511.1309620947822,735,88.24401544401545
511.82384328320865,726,87.81423677198325
512.488634693726,688,89.90589364624881
513.1346995856371,688,91.99755052051438
513.7807644775484,716,92.86956521739128
514.4268293694596,754,91.99755052051438
515.0916207799769,754,91.55531449566966
515.7470489311911,754,91.55531449566965
516.3931138231023,726,93.8344438170525
517.0110889371043,660,94.73192280864914
517.6477905697125,660,94.28968678380441
518.3032187209267,669,92.01055746242159
518.968010131444,688,89.85906672914196
519.6515280605674,726,87.45004417275098
520.3631357676,707,86.6258111031002
521.0466536967235,688,87.87982284478318
521.7020818479377,754,90.73108142601887
522.348146739849,783,92.88257215929849
522.984848372457,792,92.4527934872663
523.6496397829744,764,92.01055746242157
524.3050679341886,716,90.2654594232059
524.979222604009,669,89.84761904761905
525.6533772738294,669,89.84761904761903
526.3088054250436,688,91.1374741200828
526.9548703169548,735,91.55531449566966
527.6196617274721,745,89.90589364624881
528.3125429158986,726,86.33398729173376
529.0428771415374,716,83.63409563409564
529.7732113671761,716,82.87449392712551
530.4848190742088,754,85.15654520917678
531.158973744029,764,88.2862155388471
531.8144018952433,745,90.69523809523808
532.4698300464576,716,91.11307847082495
533.1346214569749,688,90.68329979879275
533.7994128674922,716,90.68329979879275
534.4548410187065,735,91.55531449566965
535.1009059106176,745,92.88257215929849
535.7376075432257,716,93.78005115089513
536.3743091758339,698,93.33781512605042
537.0297373270481,698,90.79091528503292
537.7226185154747,698,85.74952094952094
538.4810425190226,716,82.61985061985061
539.2113767446613,688,81.86024891288048
539.9229844516939,650,83.59514170040485
540.6345921587265,660,84.69052631578947
541.3368366064561,669,84.32552289815447
542.0578075727917,688,84.70025974025972
542.7600520205214,716,85.48053371286247
543.4435699496447,688,88.25455968688844
544.098998100859,698,89.85906672914197
544.7637895113763,707,91.11307847082493
545.4192176625905,716,88.70405591443395
546.1308253696232,735,84.35448863121658
546.9079758917773,688,78.96961468163676
547.7038529325374,660,76.9131320115469
548.4716401953883,698,79.28345541040548
549.1832479024209,716,83.82071031236627
549.8574025722413,726,86.25192982456139
550.559647019971,716,85.53128205128205
551.2899812456096,688,83.24923076923076
552.0203154712484,679,82.50949050949052
552.7412864375841,688,84.38514909747786
553.4248043667075,716,87.95705545199291
554.0708692586187,698,91.1733174508636
554.7169341505298,688,92.86956521739128
555.3629990424411,688,90.77790834312572
556.0558802308676,698,87.92664976189002
556.7674879379002,764,86.63679468942627
557.4416426077205,773,88.72845156369183
558.0877074996317,764,92.03495311167944
558.7244091322399,726,93.32480818414322
559.370474024151,698,92.88257215929849
560.0259021753653,698,91.55531449566966
560.6906935858826,679,91.11307847082493
561.3461217370968,698,92.4793897714646
561.9734601104019,707,94.27547974413646
562.600798483707,707,95.1729587357331
563.2375001163151,688,93.80664743509344
563.8929282675294,650,92.01055746242159
564.5577196780467,650,91.55531449566965
565.2037845699579,669,93.40466514502032
565.82175968396,707,95.20075511769217
566.449098057265,745,96.60786974219809
567.067073171267,764,96.1248303934871
567.6944115445721,783,95.20075511769215
568.3404764364832,754,94.24888345993816
568.9771780690913,688,94.24888345993816
569.6045164423964,669,94.70412642669008
570.2412180750046,669,93.80664743509344
570.8966462262188,679,91.1863243927708
571.5801641553422,716,87.51481942714818
572.3011351216779,726,85.10579687075722
573.0127428287105,716,110.61475366738524
573.3779099415299,679,118.47449392712551
573.9397054997136,641,137.83589743589744
574.3610521683513,650,114.478431372549
574.9977538009595,650,109.39271708683471
575.6531819521737,688,92.44033613445377
576.3086101033879,698,90.28884540117416
576.9921280325113,679,89.85906672914197
577.6569194430286,650,90.30130275398668
578.3029843349399,641,90.30130275398669
578.9865022640632,660,86.58716608210354
579.7449262676112,679,80.18236848090413
580.5595298269775,688,76.05150627300728
581.3554068677377,688,76.38113590263691
582.1044676119825,1273,80.69427662957074
582.797348800409,632,85.23153153153152
583.4715034702293,641,87.3963963963964
584.1643846586559,669,87.79180550413426
584.8479025877793,688,86.23040199536234
585.559510294812,688,86.23040199536234
586.2523914832384,669,87.05463506501312
586.9171828937557,660,87.81423677198325
587.6100640821822,669,87.81423677198325
588.3029452706087,688,85.46998946998946
589.0239162369444,688,83.6430992886689
589.7636137218861,679,82.88349758169878
590.4752214289188,650,84.40351181404178
591.1587393580422,641,87.45004417275099
591.8235307685595,650,89.01144768152292
592.4976854383799,688,88.61603857378505
593.1905666268065,698,87.01153153153152
593.892811074536,679,85.4501280227596
594.6044187815686,660,85.84553713049746
595.2879367106921,650,86.23040199536234
595.9808178991185,679,86.23040199536234
596.6924256061511,688,84.0081027063039
597.4321230910929,716,82.88349758169878
598.1530940574286,679,83.25823442380404
598.8553385051581,650,85.0851246051246
599.5482196935847,650,87.42937190711838
600.213011104102,660,89.4636576214041
600.8684392553162,679,90.2654594232059
601.5425939251365,669,88.66095238095238
602.2448383728662,641,86.25192982456139
602.9564460798988,632,85.06526315789472
603.6586905276283,641,86.25192982456139
604.3328451974487,660,89.10318840579708
604.9789100893598,669,91.1374741200828
605.6343382405742,669,91.1374741200828
606.3084929103945,650,88.66095238095238
607.0107373581241,641,85.88692640692639
607.7317083244598,650,85.0851246051246
608.4245895128862,669,87.1194103194103
609.0800176641005,707,90.79091528503292
609.7167192967086,726,92.44033613445377
610.3721474479229,698,91.59271708683472
611.0463021177433,669,89.04581724581723
611.7391833061697,650,87.79180550413426
612.4227012352932,669,89.08166057659804
613.0687661272043,679,90.30130275398669
613.7335575377217,698,89.52102878138395
614.4358019854512,707,86.30476678251325
615.1567729517869,688,83.25823442380404
615.8964704367287,660,83.6430992886689
616.5893516251551,679,86.41712526269488
617.2447797763695,698,90.33567231828101
617.8908446682806,745,91.55531449566966
618.555636078798,773,90.30130275398669
619.2391540079213,754,86.72939639947164
619.9694882335601,707,84.38514909747786
620.6904591998958,660,84.38514909747786
621.3739771290192,650,86.26080768546521
622.0574950581426,669,86.6258111031002
622.7691027651753,688,84.06553713049746
623.5181635094201,726,81.50526315789472
624.267224253665,707,80.1
625.0162849979098,698,81.14025974025972
625.7372559642455,707,84.95454545454544
626.3926841154598,726,88.76883116883116
627.048112266674,735,91.11307847082495
627.7129036771913,707,89.85906672914196
628.3964216063148,669,87.08504075511598
629.1173925726505,669,85.48053371286247
629.81963702038,679,85.48053371286247
630.5031549495034,679,84.44027397260274
631.2522156937483,688,81.69521373163887
632.0293662159023,660,77.86351118760757
632.8158799973594,660,77.53388155797794
633.5743040009073,669,79.90420495683654
634.2859117079399,679,84.56014057051863
634.9507031184572,716,88.27427724240178
635.6154945289746,707,89.42928805710977
636.299012458098,669,86.72939639947164
637.0293466837368,669,83.68286404076242
637.7690441686785,688,82.16284980841942
638.4900151350142,698,82.88349758169878
639.2016228420468,688,83.9507860560492
639.9132305490795,660,82.91052631578947
640.6622912933243,641,81.1756335282651
641.4207152968722,650,80.10834505391466
642.160412781814,679,81.51360821180941
642.8720204888466,688,84.40351181404178
643.5555384179701,669,85.47080028839221
644.2671461250027,660,84.75015251511286
644.9974803506415,669,82.52785322605442
645.7371778355832,707,82.52785322605442
646.4487855426158,707,84.0081027063039
647.1416667310424,679,85.83499288762445
647.8345479194688,650,86.59459459459458
648.5274291078953,632,85.83499288762445
649.239036814928,632,86.23040199536233
649.9225547440514,1207,88.32205886962791
650.5686196359626,3094,90.73108142601887
651.2240477871768,1245,91.55531449566966
651.8888391976941,650,89.85906672914196
652.5723571268176,688,87.45004417275098
653.2839648338502,688,86.6258111031002
653.9674827629736,650,86.23040199536234
654.6603639514001,632,86.60513883746759
655.3626083991296,650,85.4501280227596
656.0742161061622,650,83.96987854251012
656.804550331801,669,84.75015251511286
657.4880682609245,660,87.15917507150382
658.1434964121387,641,88.63942455175331
658.8363776005652,641,87.48441373704532
659.5479853075979,650,84.71038776301933
660.2689562739334,669,83.9507860560492
660.980563980966,669,85.1057968707572
661.6640819100895,660,87.03220379716413
662.3382365799099,650,88.18721461187214
663.0217545090334,660,87.03220379716413
663.733362216066,679,86.23040199536234
664.4262434044924,688,86.23040199536233
665.1097613336159,669,87.38541281007033
665.7932792627394,632,87.38541281007033
666.4861604511658,641,84.49550920783797
667.2445844547137,641,81.28401572304011
668.0123717175647,669,78.78952122854561
668.7707957211127,660,80.15941059843499
669.4917666874483,650,82.97549497549497
670.1846478758748,641,85.46998946998946
670.8775290643013,641,87.3963963963964
671.5516837341216,650,87.3963963963964
672.2445649225482,669,87.01153153153152
672.9468093702777,660,85.82486486486485
673.6490538180072,650,86.22027397260273
674.3325717471307,650,88.69679571173316
674.9786366390418,650,91.1733174508636
675.6247015309531,679,91.99755052051438
676.2894929414704,660,89.52102878138395
676.9917373891999,650,85.60248172579782
677.7314348741418,641,81.88834505391466
678.4898588776897,660,79.14328481295081
679.2670093998437,669,78.80531012940651
680.0160701440885,669,81.69521373163887
680.699588073212,669,86.04478101485626
681.3643794837293,650,89.42928805710977
682.0291708942466,660,89.8356807511737
682.703325564067,679,87.85643686681492
683.4149332710996,679,85.51218956482114
684.1359042374353,669,83.9507860560492
684.8475119444679,641,85.51218956482114
685.5216666142883,660,89.18369453044374
686.1583682468964,660,92.03495311167944
686.8044331388076,669,93.32480818414322
687.4504980307188,679,91.17331745086359
688.1340159598423,650,89.08166057659804
688.8268971482687,641,87.79180550413426
689.5010518180891,660,89.48805327066196
690.1471167100003,669,92.03495311167944
690.7838183426084,669,92.88257215929849
691.4392464938227,669,91.59271708683472
692.1134011636431,641,89.44122635355511
692.7969190927664,650,88.18721461187214
693.4804370218899,660,89.4770696843359
694.1265019138011,679,92.58043207536953
694.7444770278031,669,95.20075511769217
695.3718154011082,650,95.65599808444408
696.0085170337163,632,93.37686876306125
696.6733084442336,641,90.7565457207386
697.3568263733571,641,88.60505498745898
698.0403443024804,660,88.605054987459
698.7051357129977,650,89.85906672914196
699.360563864212,632,90.68329979879275
700.0253552747293,650,89.85906672914196
700.7088732038528,679,88.60505498745898
701.3923911329762,679,88.18721461187214
702.0665458027966,669,89.88346237839983
702.7126106947078,660,92.03495311167944
703.3493123273159,650,93.32480818414322
703.9953772192271,660,91.62856041761552
704.6788951483505,669,89.08166057659804
705.371776336777,1905,87.79180550413426
706.0459310065974,632,89.04581724581723
706.7013591578117,641,91.1374741200828
707.3474240497228,669,91.1374741200828
708.0215787195432,650,89.88346237839983
708.7050966486667,641,87.03220379716413
709.4167043556993,641,87.03220379716413
710.0908590255196,660,88.72845156369183
710.7369239174308,669,91.57971014492753
711.382988809342,669,92.42732919254657
712.0384169605562,650,91.1374741200828
712.7125716303766,650,90.2654594232059
713.3773630408939,669,91.16293841480254
714.014064673502,679,93.37686876306124
714.6414030468071,698,94.70412642669008
715.2781046794153,669,93.80664743509344
715.9335328306295,650,92.01055746242159
716.5983242411469,660,90.68329979879275
717.2631156516642,669,91.12553582363748
717.9091805435753,688,92.4527934872663
718.5458821761835,707,93.32480818414322
719.1919470680947,669,92.4527934872663
719.856738478612,669,89.52102878138395
720.5589829263415,679,86.30476678251325
721.2799538926772,698,85.0851246051246
721.9728350811037,707,86.68963164737812
722.637626491621,698,89.90589364624881
723.2836913835322,669,91.12553582363748
723.9484827940495,679,90.70769544805061
724.6226374638699,688,88.61603857378505
725.3155186522964,698,87.01153153153152
726.017763100026,679,86.60513883746759
726.7012810291494,669,88.25455968688844
727.3567091803636,650,89.44122635355511
728.030863850184,679,89.04581724581723
728.7237450386104,716,85.56950621507583
729.4634425235523,745,81.95162003621405
730.2312297864032,735,79.78675517134917
730.9802905306481,698,81.22878048780487
731.6825349783777,716,85.6942857142857
732.3379631295919,735,89.95080745341613
732.9840280215031,754,91.55531449566966
733.6488194320204,726,90.30130275398669
734.3323373611438,688,87.08504075511598
735.0533083274795,669,85.48053371286247
735.7555527752091,688,85.0851246051246
736.4484339636356,716,85.82486486486485
737.1506784113651,735,85.0851246051246
737.8716493777008,764,83.60487512487512
738.6019836033396,801,83.60487512487512
739.3042280510691,792,85.94912242686891
739.9690194615864,773,88.64901408450703
740.6338108721037,801,89.8356807511737
741.3079655419241,801,89.41784037558685
741.9821202117445,801,88.59360730593606
742.6656381408679,764,89.44122635355511
743.3210662920822,726,90.28884540117416
743.9764944432964,716,91.11307847082495
744.6412858538138,716,90.2654594232059
745.315440523634,726,87.85643686681492
746.0270482306667,745,86.25192982456139
746.7292926783963,735,86.66977020014825
747.3940840889136,698,88.64901408450703
748.0588754994309,726,89.42928805710977
748.7423934285544,745,88.20964587972111
749.4352746169808,764,87.38541281007033
750.1187925461043,783,88.63942455175331
750.7742206973185,773,91.1863243927708
751.4109223299266,745,92.88257215929849
752.0569872218379,707,92.03495311167944
752.7311418916582,735,89.88346237839983
753.4146598207816,735,89.01144768152292
754.0794512312989,764,89.85906672914196
754.7348793825132,764,90.68329979879275
755.3996707930305,764,89.07879275653923
756.10191524076,735,87.04450704225351
756.8041596884896,764,86.62666666666667
757.47831435831,783,89.10318840579708
758.1243792502212,783,92.50378542072247
758.7517176235262,783,94.71771576898118
759.3790559968313,764,96.6227324913892
759.9876678515302,764,98.64689738122573
760.577553187623,764,99.62783882783881
761.186165042322,773,99.62783882783881
761.7947768970209,764,98.08671328671328
762.412752011023,735,97.10577184010019
763.0400903843281,726,97.10577184010019
763.648702239027,735,97.60367393800229
764.257314093726,745,97.60367393800229
764.8846524670311,754,95.69865721559427
765.5307173589422,735,92.09739272665854
766.2142352880657,707,89.4770696843359
766.8977532171891,707,89.4770696843359
767.5438181091002,716,92.09739272665854
768.1711564824053,745,93.79364049318625
768.8172213743165,764,93.79364049318625
769.4632862662277,745,91.99755052051438
770.1280776767451,735,91.55531449566966
770.7835058279593,745,92.01055746242157
771.4202074605674,754,93.33781512605042
772.0569090931756,716,93.78005115089513
772.7029739850867,679,92.4527934872663
773.367765395604,660,91.12553582363748
774.0325568061213,632,90.68329979879275
774.6879849573356,660,91.55531449566965
775.3340498492468,669,91.98509316770185
775.9894780004611,707,91.1374741200828
776.6636326702815,754,89.44122635355511
777.3471505994048,735,89.01144768152292
778.0119420099221,698,91.22537802978162
778.6392803832272,688,93.37686876306124
779.2759820158353,726,94.70412642669008
779.9126836484435,726,92.90803645401823
780.5774750589608,735,92.01055746242157
781.2329032101751,726,91.55531449566965
781.8789681020862,688,92.88257215929849
782.5156697346944,641,93.78005115089513
783.1523713673025,641,93.78005115089513
783.7984362592136,650,92.4527934872663
784.463227669731,660,91.55531449566966
785.1186558209453,688,91.55531449566965
785.7647207128565,698,92.42732919254658
786.4107856047676,679,92.86956521739128
787.0568504966789,650,91.57971014492753
787.7310051664992,669,91.1374741200828
788.3864333177135,707,91.1374741200828
789.0324982096247,735,92.88257215929849
789.6691998422327,716,92.88257215929849
790.324627993447,679,92.01055746242159
790.9894194039643,669,90.68329979879275
791.6542108144816,688,90.25352112676056
792.3190022249989,716,91.12553582363748
792.9650671169102,716,91.55531449566966
793.6204952681244,707,91.1374741200828
794.2946499379448,688,89.84761904761905
794.9688046077652,679,89.41784037558685
795.6335960182824,698,91.16293841480254
796.2702976508906,707,92.01055746242157
796.9257258021048,716,92.44033613445377
797.5811539533191,669,91.11307847082495
798.2459453638364,632,90.2654594232059
798.9201000336568,641,90.70769544805061
799.5661649255679,650,92.03495311167944
800.2028665581761,698,92.88257215929849
800.8582947093903,716,92.01055746242159
801.5230861199077,726,90.68329979879275
802.187877530425,707,90.25352112676056
802.8526689409423,698,91.58077879038939
803.4893705735504,716,92.45279348726629
804.1354354654616,735,92.88257215929849
804.7908636166759,745,91.1374741200828
805.4650182864963,726,90.2654594232059
806.1298096970136,679,90.70769544805061
806.7758745889247,660,92.92162579630933
807.4032129622298,660,94.24888345993816
808.0399145948379,660,94.70412642669008
808.6766162274461,688,93.33781512605042
809.3320443786603,707,92.88257215929849
809.9781092705715,698,93.35140446834151
810.6054476438766,669,93.79364049318625
811.2515125357877,669,92.50378542072247
811.9256672056081,679,90.28985507246375
812.5998218754285,698,89.41784037558685
813.2646132859458,698,90.2654594232059
813.9200414371601,679,91.55531449566965
814.5661063290712,669,91.98509316770185
815.2215344802855,669,91.55531449566966
815.8863258908028,688,91.55531449566965
816.532390782714,669,92.92162579630933
817.1597291560191,650,95.20075511769217
817.7777042700211,641,96.1248303934871
818.4050426433262,632,95.65599808444408
819.0417442759343,650,93.37686876306125
819.7065356864516,679,92.45279348726629
820.3526005783627,669,92.4527934872663
820.9893022109709,650,93.78005115089513
821.626003843579,660,93.33781512605042
822.2814319947933,679,92.01055746242159
822.9462234053105,726,90.68329979879275
823.611014815828,698,91.12553582363748
824.2570797077391,660,91.99755052051438
824.9031445996503,669,91.99755052051438
825.5679360101676,660,90.70769544805061
826.242090679988,679,88.61603857378505
826.9349718684144,650,88.61603857378505
827.5997632789317,1254,89.90589364624881
828.245828170843,641,91.55531449566966
828.9012563220572,641,91.55531449566966
829.5660477325746,650,89.85906672914196
830.2495656616979,650,87.82478101485626
830.9518101094276,679,87.82478101485626
831.6166015199449,707,88.64901408450703
832.2813929304622,698,89.8356807511737
832.9555476002826,679,88.61603857378505
833.648428788709,641,87.01153153153152
834.3506732364385,641,86.20972972972973
835.0435544248651,1292,87.42937190711838
835.7083458353824,660,88.61603857378505
836.3825005052028,660,89.01144768152292
837.0660184343262,650,87.79180550413426
837.7588996227527,669,87.79180550413426
838.433054292573,698,88.61603857378505
839.0978457030903,698,90.70769544805061
839.7439105950016,679,90.70769544805061
840.418065264822,641,88.72845156369183
841.1296729718546,641,84.8099045081057
841.8693704567963,650,82.52785322605442
842.5997046824351,660,83.28745493302455
843.2925858708616,669,84.35474340737498
844.0041935778942,641,84.35474340737498
844.734527803533,632,82.18987854251012
845.4835885477778,641,81.82487512487512
846.2045595141135,660,83.70053371286247
846.8880774432369,669,87.085040755116
847.5528688537541,707,88.60505498745898
848.2363867828776,698,87.45004417275098
848.9479944899102,707,84.75015251511286
849.678328715549,679,81.86024891288048
850.436752719097,650,78.88439751969163
851.2326297598571,660,76.92835356364768
852.0191435413142,679,76.60676368108219
852.7869308041652,669,76.60676368108219
853.5828078449254,660,76.30760401721663
854.3786848856855,688,75.38823529411765
855.1745619264457,735,76.62919389978214
855.9329859299936,754,79.24004187533598
856.6539568963292,716,82.21589326852484
857.3655646033618,679,83.9507860560492
858.0771723103944,688,83.9507860560492
858.7981432767301,707,82.88349758169878
859.537840761672,716,82.16284980841942
860.2681749873107,735,83.28745493302455
860.9610561757372,707,83.98973998973999
861.6820271420728,1273,83.6430992886689
862.4217246270147,632,81.14860479417442
863.1801486305626,641,79.14328481295081
863.9572991527166,669,78.15409061721138
864.7250864155676,698,78.82169493038532
865.4647839005094,669,81.56675517134917
866.1670283482389,650,82.9025900681597
866.8973625738777,669,83.24923076923076
867.6276967995165,707,81.13960113960114
868.3861208030643,726,80.12535612535612
869.1445448066122,688,79.1111111111111
869.9029688101601,660,80.12535612535612
870.6333030357989,641,80.12535612535612
871.3917270393468,650,79.48992551402189
872.1688775615008,660,77.84024988844264
872.9460280836549,669,77.20481927710843
873.7231786058089,650,77.84024988844266
874.4816026093569,650,78.47568049977687
875.2400266129048,669,79.1111111111111
875.9984506164527,698,78.78952122854561
876.7662378793037,707,78.78952122854561
877.5246618828515,688,79.80376624279063
878.2549961084903,669,81.49524549524548
878.975967074826,716,82.50949050949052
879.7063013004647,773,82.16284980841942
880.4459987854066,754,81.1225900681597
881.1950595296514,716,81.1225900681597
881.9253937552901,660,82.56461538461538
882.6276382030197,679,84.34461538461538
883.3298826507493,669,85.06526315789472
884.0414903577819,698,83.62323784143904
884.7811878427236,716,81.51360821180941
885.5396118462716,688,80.44631973745898
886.2793093312134,660,80.79296043853006
887.0096435568521,632,81.460564751704
887.749341041794,650,81.1225900681597
888.4984017860388,688,81.84323784143903
889.2100094930714,754,84.47192982456139
889.8841641628918,726,88.2862155388471
890.539592314106,698,92.06154939587775
891.1669306874111,707,92.9091684434968
891.8223588386253,726,92.47938977146461
892.4871502491426,764,89.07879275653923
893.1893946968722,754,85.26450704225351
893.9384554411171,707,82.56461538461538
894.6687896667557,669,82.94948024948025
895.3616708551823,669,85.50975422208299
896.0451887843058,669,85.86539857772735
896.7661597506414,669,84.74079345312222
897.487130716977,679,82.86513486513486
898.2174649426158,669,82.86513486513486
898.9384359089515,632,84.38514909747786
899.6219538380749,632,88.41229841874483
900.258655470683,660,92.08380338436744
900.8953571032912,688,93.78005115089513
901.5414219952023,707,92.88257215929849
902.1968501464166,688,90.73108142601887
902.8803680755401,707,88.63942455175331
903.5732492639665,716,87.79180550413426
904.2474039337869,735,89.48805327066196
904.8934688256982,735,90.70769544805061
905.5582602362155,688,89.52102878138395
906.260504683945,669,85.94912242686891
906.9908389095837,660,83.96987854251012
907.7024466166164,679,85.15654520917678
908.3766012864367,688,87.85643686681492
909.0413926969541,669,89.01144768152292
909.7249106260774,660,87.45004417275098
910.43651833311,669,85.47080028839221
911.1481260401426,716,84.69052631578947
911.8503704878723,726,85.84553713049746
912.5338884169956,688,87.40694063926941
913.208043086816,679,87.79180550413426
913.9009242752426,679,87.01153153153152
914.6031687229721,698,85.4501280227596
915.3147764300047,698,86.66977020014825
915.979567840522,669,90.07036721507363
916.6069062138271,650,93.37686876306124
917.2436078464352,641,94.24888345993816
917.8896727383463,660,91.23315130987766
918.5825539267729,669,87.92664976189002
919.2941616338055,650,84.71038776301933
920.0151326001412,641,84.32552289815447
920.7173770478707,650,85.0851246051246
921.4102582362972,669,85.4501280227596
922.1218659433299,698,84.35474340737498
922.8522001689686,679,82.52785322605442
923.5918976539103,641,82.16284980841942
924.312868620246,660,84.44490109047071
924.9870232900664,650,87.92121212121211
925.6424514412807,650,90.69523809523808
926.297879592495,650,91.54285714285713
926.9533077437092,1235,90.28884540117416
927.6368256728326,641,88.25455968688844
928.3390701205622,669,86.60513883746759
929.0319513089887,679,87.42937190711838
929.696742719506,1320,89.03387894937191
930.3615341300233,688,89.8356807511737
931.0356887998437,707,88.61603857378505
931.7285699882701,688,87.3963963963964
932.4214511766967,1283,87.3963963963964
933.0956058465171,3735,88.61603857378505
933.7603972570344,650,89.8356807511737
934.4251886675517,650,89.42928805710977
935.1087065966751,669,89.42928805710977
935.7734980071924,688,90.30130275398668
936.4195628991035,707,92.4527934872663
937.0562645317117,698,94.24888345993816
937.6836029050168,669,94.24888345993816
938.329667796928,669,92.50378542072247
939.0038224667484,688,90.70769544805061
939.6686138772657,679,90.70769544805061
940.3146787691769,660,91.55531449566966
940.9701069203911,650,91.1374741200828
941.6442615902115,660,87.92121212121211
942.3652325565472,679,86.27179127179127
943.0581137449736,679,87.1194103194103
943.7135418961878,669,89.4636576214041
944.3783333067053,650,91.11307847082493
945.0337614579195,669,90.2654594232059
945.7079161277398,679,91.1374741200828
946.353981019651,698,92.50378542072247
946.981319392956,679,95.20075511769217
947.5992945069581,669,95.65599808444408
948.2359961395663,669,95.18716577540106
948.8726977721743,698,93.78005115089513
949.5187626640856,688,93.32480818414322
950.1648275559968,669,91.57971014492753
950.8389822258171,669,89.10318840579708
951.5412266735467,679,87.01153153153152
952.2341078619731,688,87.01153153153152
952.9082625317935,698,89.94329623741388
953.5449641644017,679,92.49019607843137
954.1816657970098,679,94.23529411764706
954.8183674296179,679,93.78005115089513
955.4644323215291,679,92.88257215929849
956.1198604727433,688,91.98509316770185
956.7752886239576,669,91.98509316770185
957.4213535158688,669,91.55531449566966
958.0861449263862,660,89.90589364624881
958.7790261148126,669,87.81423677198325
959.471907303239,679,87.3963963963964
960.1460619730594,660,89.94329623741388
960.7827636056676,660,92.49019607843137
961.4194652382757,660,93.78005115089513
962.065530130187,669,92.88257215929849
962.7209582814012,679,91.55531449566966
963.3857496919185,669,92.01055746242157
964.0224513245266,650,93.37686876306124
964.6497896978317,660,94.70412642669008
965.2864913304398,669,93.80664743509344
965.941919481654,660,92.01055746242159
966.6067108921713,660,89.07879275653923
967.308955339901,641,87.42937190711838
968.0018365283274,641,85.82486486486485
968.704080976057,669,87.01153153153152
969.3782356458773,679,89.10318840579708
970.0243005377886,679,91.1374741200828
970.6797286890028,650,91.1374741200828
971.3538833588232,650,90.2654594232059
972.0186747693405,669,90.2654594232059
972.6741029205548,669,89.85906672914196
973.3576208496781,669,87.15917507150382
974.0879550753169,650,83.34488935721811
974.8370158195618,641,82.18987854251012
975.5486235265944,650,84.47192982456139
976.2227781964148,660,87.03220379716413
976.9062961255382,679,87.40694063926941
977.6085405732678,669,85.84553713049746
978.3201482803004,650,83.96987854251012
979.050482505939,650,83.96987854251012
979.7527269536687,660,86.82113712374581
980.3987918455798,669,91.80015810276679
981.0167669595818,669,95.20075511769217
981.644105332887,650,95.65599808444408
982.280806965495,632,93.37686876306125
982.9455983760123,641,90.36113661300072
983.6384795644389,650,89.03387894937191
984.3032709749561,669,89.90589364624881
984.9493358668674,660,91.12553582363748
985.6141272773847,641,89.52102878138395
986.3163717251142,650,86.30476678251325
987.0373426914499,660,85.48053371286247
987.7208606205734,679,87.51481942714818
988.3762887717876,698,91.1863243927708
989.0129904043957,669,92.88257215929849
989.6590552963069,632,92.88257215929849
990.3144834475212,632,91.55531449566966
990.9792748580385,641,91.55531449566965
991.6253397499496,669,91.99755052051438
992.2714046418608,707,91.99755052051438
992.9361960523781,698,89.90589364624881
993.6290772408047,660,87.42937190711838
994.3313216885342,688,86.60513883746759
995.0148396176577,698,87.82478101485626
995.679631028175,726,87.45004417275098
996.3912387352076,688,84.23855068795314
997.1590259980585,660,80.8540436456996
997.9080867423035,660,80.8540436456996
998.6196944493361,660,85.31954887218043
999.2751226005503,679,88.2862155388471
999.9492772703707,650,90.2654594232059
1000.614068680888,641,88.61603857378505
1001.3069498693144,650,87.05463506501312
1002.018557576347,660,86.23040199536233
1002.7020755054705,698,87.87982284478318
1003.3575036566848,679,91.65515670181382
1003.9848420299899,660,93.35140446834151
1004.630906921901,679,92.09739272665854
1005.3144248510245,688,86.91679571173316
1006.0634855952693,698,83.70053371286247
1006.784456561605,669,83.3051246051246
1007.4773377500314,660,85.0851246051246
1008.179582197761,669,85.0851246051246
1008.9005531640967,698,82.5906301106301
1009.6589771676446,698,80.8106301106301
1010.4080379118894,698,81.55037037037036
1011.1102823596191,660,85.26450704225351
1011.7750737701364,669,88.64901408450703
1012.4398651806537,679,90.25352112676056
1013.104656591171,688,90.25352112676056
1013.7694480016883,679,89.8356807511737
1014.4436026715086,660,89.8356807511737
1015.1083940820259,660,91.63177072384556
1015.735732455331,660,93.84570107210426
1016.3630708286361,688,94.27547974413646
1017.0184989798504,707,91.65515670181382
1017.7020169089737,688,88.25455968688844
1018.4042613567034,688,87.00054794520547
1019.0877792858267,688,86.22027397260274
1019.7900237335564,688,85.84553713049746
1020.501631440589,688,83.96987854251012
1021.2319656662277,660,82.87449392712551
1021.9622998918665,660,84.0295047418335
1022.6458178209898,660,86.72939639947164
1023.3106092315072,679,89.85906672914196
1023.9660373827214,688,90.2654594232059
1024.6401920525418,688,89.44122635355511
1025.3237099816652,688,89.01144768152292
1025.9885013921826,679,89.85906672914196
1026.6439295433968,707,90.68329979879275
1027.3087209539142,764,88.70405591443395
1028.0203286609467,783,85.93002994040799
1028.7412996272824,792,85.1057968707572
1029.4248175564057,773,86.66720037952913
1030.0989722262261,745,88.59360730593608
1030.7731268960465,707,88.19819819819818
1031.466008084473,707,87.3963963963964
1032.1588892728996,698,87.81423677198325
1032.8236806834168,716,89.90589364624881
1033.469745575328,698,92.4527934872663
1034.106447207936,688,92.88257215929849
1034.7618753591505,679,92.01055746242159
1035.4266667696677,726,91.55531449566965
1036.072731661579,764,92.4527934872663
1036.709433294187,783,93.32480818414322
1037.3554981860982,783,92.4527934872663
1038.0202895966156,764,89.90589364624881
1038.7131707850422,707,88.61603857378505
1039.3873254548623,707,89.94329623741388
1040.0240270874706,698,91.59271708683472
1040.6794552386848,698,92.88257215929849
1041.325520130596,698,92.42732919254658
1041.9715850225073,679,92.86956521739128
1042.6176499144183,669,94.77458193979932
1043.2262617691174,679,96.18169656430524
1043.8442368831193,716,96.63693953105717
1044.4809385157275,745,93.85990811177223
1045.1457299262447,754,91.16293841480254
1045.819884596065,735,90.2654594232059
1046.4753127472793,754,90.69523809523808
1047.1307408984937,754,90.28884540117416
1047.814258827617,754,88.25455968688844
1048.5165032753466,707,87.00054794520547
1049.20002120447,669,88.25455968688844
1049.8554493556844,679,92.13819605052481
1050.4734244696863,698,96.25292207792207
1051.0726730650822,726,99.64339826839826
1051.6625584011751,707,100.14130036630036
1052.271170255874,679,99.12993672993672
1052.889145369876,669,97.10577184010019
1053.516483743181,669,94.32874042081525
1054.1812751536984,698,92.92162579630931
1054.8273400456096,707,91.99755052051438
1055.4734049375209,688,91.99755052051438
1056.138196348038,660,90.30130275398669
1056.8217142771616,660,87.82478101485626
1057.5239587248911,679,86.60513883746759
1058.2168399133175,698,87.42937190711838
1058.8816313238349,688,89.03387894937191
1059.5464227343523,660,89.42928805710977
1060.2299406634756,669,89.01144768152292
1060.904095333296,698,89.44122635355511
1061.5595234845102,726,91.1374741200828
1062.2055883764215,707,91.98509316770185
1062.8610165276357,669,91.1374741200828
1063.535171197456,660,89.84761904761905
1064.2093258672764,679,89.41784037558685
1064.8741172777936,698,90.70769544805061
1065.5201821697049,688,91.12553582363748
1066.1849735802223,650,90.70769544805061
1066.8591282500427,650,88.61603857378505
1067.5520094384692,669,88.19819819819818
1068.2261641082894,679,88.61603857378505
1068.8909555188068,688,89.8356807511737
1069.5557469293242,660,89.03387894937191
1070.2486281177505,650,88.20964587972112
1070.932146046874,669,88.20964587972112
1071.5969374573913,679,89.42928805710977
1072.2617288679087,716,89.8356807511737
1072.935883537729,688,89.01144768152292
1073.6194014668524,660,87.79180550413426
1074.312282655279,669,87.79180550413426
1074.9864373250994,698,88.19819819819818
1075.6605919949197,698,89.0
1076.3347466647401,688,89.0
1077.0089013345605,660,88.59360730593606
1077.6924192636839,660,89.01144768152292
1078.3572106742013,679,89.42928805710977
1079.0220020847185,679,90.68329979879275
1079.6774302359327,669,90.68329979879275
1080.34222164645,650,90.2654594232059
1081.0163763162705,641,90.2654594232059
1081.6718044674847,660,90.69523809523808
1082.3272326186989,669,91.54285714285713
1082.982660769913,679,91.11307847082495
1083.6474521804305,650,90.2654594232059
1084.3216068502509,650,89.8356807511737
1084.9863982607683,679,90.70769544805061
1085.6324631526793,688,91.55531449566966
1086.2878913038937,679,91.55531449566966
1086.952682714411,660,91.11307847082493
1087.6081108656251,641,91.11307847082493
1088.2635390168393,660,92.44033613445377
1088.9002406494476,660,93.33781512605042
1089.5369422820556,669,92.90803645401823
1090.201733692573,641,91.16293841480254
1090.8758883623934,632,89.41784037558685
1091.5500430322138,641,90.28985507246375
1092.196107924125,650,91.57971014492753
1092.842172816036,660,91.99755052051438
1093.5069642265535,660,91.12553582363748
1094.1717556370709,641,90.25352112676056
1094.836547047588,660,91.12553582363748
1095.4826119394993,679,92.4527934872663
1096.1193135721073,688,93.32480818414322
1096.7653784640186,669,92.88257215929849
1097.4208066152328,641,91.1374741200828
1098.0949612850532,650,90.2654594232059
1098.7597526955706,650,90.70769544805061
1099.4058175874818,669,91.99755052051438
1100.0518824793928,669,92.42732919254657
1100.7073106306073,641,91.55531449566966
1101.3721020411244,641,90.68329979879275
1102.0368934516418,650,91.12553582363748
1102.6829583435529,688,92.92162579630933
1103.3102967168581,726,94.24888345993816
1103.9469983494662,698,94.24888345993816
1104.5930632413774,688,92.4527934872663
1105.2578546518946,688,91.55531449566966
1105.9132828031088,698,92.01055746242157
1106.549984435717,707,92.88257215929849
1107.1960493276283,679,92.88257215929849
1107.8514774788425,660,91.1374741200828
1108.525632148663,679,89.04581724581723
1109.2185133370895,688,88.61603857378505
1109.8833047476066,698,90.82996892204376
1110.5106431209117,669,93.84570107210426
1111.1379814942168,650,95.1729587357331
1111.774683126825,650,93.37686876306125
1112.4394745373422,669,89.97627174813587
1113.1417189850717,669,87.42937190711838
1113.8346001734983,669,87.85915057915057
1114.4900283247125,641,88.63942455175331
1115.173546253836,641,88.63942455175331
1115.8664274422624,650,85.86539857772735
1116.5873984085981,679,85.86539857772733
1117.2709163377215,698,87.51481942714818
1117.926344488936,669,90.28884540117416
1118.5817726401501,650,91.54285714285713
1119.2372007913643,660,90.69523809523808
1119.9113554611847,669,91.1374741200828
1120.557420353096,669,92.03495311167944
1121.194121985704,669,93.32480818414322
1121.8401868776152,632,92.88257215929849
1122.4956150288294,641,90.33567231828101
1123.188496217256,641,89.04581724581723
1123.8626508870764,660,89.04581724581723
1124.5180790382906,650,89.84761904761905
1125.192233708111,632,89.44122635355511
1125.8757516372343,641,87.79180550413426
1126.5686328256609,660,88.20964587972112
1127.2334242361783,698,89.4636576214041
1127.8888523873925,707,90.68329979879275
1128.5536437979097,688,89.46365762140408
1129.2465249863362,669,87.81423677198325
1129.9394061747628,688,86.59459459459458
1130.6322873631893,716,88.24401544401543
1131.2877155144035,735,89.4636576214041
1131.9525069249207,745,90.2654594232059
1132.626661594741,716,89.01144768152292
1133.3101795238647,669,88.59360730593608
1133.984334193685,650,89.44122635355511
1134.6397623448993,660,90.69523809523808
1135.2951904961135,669,91.54285714285713
1135.9506186473277,698,90.28884540117416
1136.6341365764513,698,88.25455968688844
1137.3363810241808,688,87.00054794520547
1138.0198989533042,707,87.00054794520547
1138.7034168824275,735,87.78082191780821
1139.386934811551,764,87.78082191780821
1140.0704527406745,773,87.78082191780821
1140.7539706697978,754,89.03483365949118
1141.4093988210122,726,90.28884540117416
1142.0648269722265,707,91.54285714285713
1142.7202551234407,716,90.69523809523808
1143.394409793261,726,89.44122635355511
1144.0779277223844,735,88.18721461187214
1144.761445651508,726,87.78082191780821
1145.4449635806313,707,88.18721461187214
1146.1191182504517,688,87.40694063926941
1146.8213626981812,716,84.51703703703703
1147.579786701729,716,80.58531012940651
1148.3569372238833,735,77.53388155797794
1149.1434510053402,735,77.21229167541244
1149.9112382681913,726,78.51532659992061
1150.6509357531331,726,81.56675517134917
1151.3531802008627,716,83.9979746835443
1152.0554246485922,688,85.82486486486485
1152.7483058370187,660,85.4501280227596
1153.4599135440512,669,85.83499288762445
1154.1527947324778,688,86.23040199536233
1154.8363126616011,716,87.79180550413426
1155.5104673314215,754,86.66720037952913
1156.2314382977572,745,83.77729677729677
1156.9898623013053,716,79.84556986966625
1157.7670128234593,754,77.84024988844264
1158.5441633456132,726,77.84024988844266
1159.3025873491613,735,80.58531012940651
1160.0048317968908,716,83.33037037037036
1160.7070762446203,688,85.82486486486485
1161.399957433047,707,86.20972972972973
1162.0928386214732,698,86.59459459459458
1162.7857198098998,698,87.3963963963964
1163.4598744797202,707,88.61603857378505
1164.1246658902376,698,89.41784037558685
1164.798820560058,679,87.85643686681492
1165.5104282670904,650,84.8099045081057
1166.2501257520323,669,81.84323784143903
1166.9991864962772,679,81.1225900681597
1167.7295207219158,707,80.78461538461538
1168.4785814661607,716,80.78461538461538
1169.2276422104055,688,80.1
1169.9767029546504,669,81.88
1170.67894740238,698,85.26450704225351
1171.3437388128973,688,88.23117370892018
1172.0178934827177,707,88.61603857378505
1172.7107746711442,669,86.27179127179127
1173.43174563748,1273,85.0851246051246
1174.1339900852095,641,85.88692640692639
1174.8081447550298,650,88.23117370892018
1175.472936165547,669,89.8356807511737
1176.1377275760644,669,89.03387894937191
1176.830608764491,641,87.42937190711838
1177.5328532122205,641,86.60513883746759
1178.2163711413439,650,88.25455968688844
1178.871799292558,679,90.28884540117416
1179.5272274437723,716,90.69523809523808
1180.2013821135927,707,89.04581724581723
1180.8942633020192,679,87.79180550413426
1181.5777812311426,660,88.63942455175331
1182.233209382357,660,89.85906672914197
1182.8980007928742,688,89.46365762140408
1183.5908819813008,707,86.68963164737812
1184.3118529476365,716,85.0851246051246
1185.014097395366,688,86.30476678251325
1185.6788888058834,688,89.07879275653923
1186.3343169570976,726,90.2654594232059
1187.008471626918,764,89.04581724581723
1187.7013528153443,745,87.79180550413426
1188.384870744468,716,89.08166057659804
1189.0309356363791,716,91.1733174508636
1189.6770005282901,745,91.99755052051438
1190.3417919388075,754,90.70769544805061
1191.015946608628,764,89.01144768152292
1191.6994645377513,726,89.44122635355511
1192.3548926889655,698,90.73108142601887
1193.0009575808767,716,91.55531449566966
1193.6657489913941,716,90.70769544805061
1194.3399036612145,735,87.85643686681492
1195.051511368247,707,87.03220379716413
1195.7350292973706,698,87.87982284478318
1196.3904574485848,716,89.85906672914197
1197.055248859102,726,89.46365762140408
1197.7481300475285,745,87.81423677198325
1198.441011235955,726,86.99000370233246
1199.1245291650785,726,88.63942455175331
1199.7799573162927,735,90.28884540117416
1200.4353854675069,745,90.69523809523808
1201.1095401373273,726,89.84761904761905
1201.7836948071476,688,89.41784037558685
1202.448486217665,688,90.70769544805061
1203.0945511095763,688,92.4527934872663
1203.7312527421843,698,92.88257215929849
1204.3866808933985,688,92.01055746242159
1205.051472303916,669,90.2654594232059
1205.7256269737363,688,90.70769544805061
1206.3716918656476,707,91.57971014492753
1207.0177567575586,754,91.57971014492753
1207.691911427379,735,89.88346237839983
1208.3754293565025,688,88.59360730593608
1209.049584026323,679,89.44122635355511
1209.7050121775371,707,91.59271708683472
1210.3417138101452,726,92.44033613445377
1210.9971419613594,698,92.44033613445377
1211.6525701125738,669,91.11307847082495
1212.317361523091,679,92.01055746242157
1212.9540631556993,688,93.37686876306124
1213.5814015290043,707,94.70412642669008
1214.2181031616124,688,94.24888345993816
1214.8641680535236,650,92.88257215929849
1215.5195962047378,632,91.98509316770185
1216.175024355952,660,92.44033613445377
1216.8117259885603,679,92.44033613445377
1217.4671541397745,698,91.59271708683472
1218.1413088095949,679,89.44122635355511
1218.8248267387182,650,89.01144768152292
1219.4896181492356,660,90.7565457207386
1220.1263197818437,688,92.45279348726629
1220.772384673755,716,93.32480818414322
1221.4184495656662,707,91.99755052051438
1222.0832409761833,669,91.12553582363748
1222.7480323867007,641,91.58077879038939
1223.3847340193088,660,92.90803645401822
1224.021435651917,679,93.78005115089513
1224.667500543828,679,91.62856041761552
1225.3510184729516,669,87.95705545199291
1226.0719894392873,660,85.86539857772735
1226.7648706277137,698,85.86539857772733
1227.4483885568372,783,87.38541281007033
1228.1319064859606,820,87.38541281007033
1228.8247876743872,783,86.60513883746759
1229.5270321221167,726,87.01153153153152
1230.201186791937,698,88.66095238095237
1230.8566149431513,688,89.84761904761905
1231.5307696129717,688,89.44122635355511
1232.214287542095,679,87.79180550413426
1232.9071687305216,669,88.20964587972112
1233.571960141039,688,89.90589364624881
1234.2180250329502,707,91.99755052051438
1234.8640899248612,745,91.99755052051438
1235.5288813353786,726,91.12553582363748
1236.1936727458958,707,90.25352112676056
1236.8584641564132,735,91.58077879038939
1237.4951657890213,754,92.90803645401822
1238.1318674216295,754,93.78005115089513
1238.7779323135408,726,92.03495311167944
1239.4520869833611,679,89.48805327066196
1240.1449681717875,679,88.61603857378505
1240.8097595823049,679,89.90589364624881
1241.4558244742161,688,91.55531449566966
1242.1112526254303,669,91.55531449566966
1242.7760440359475,669,90.68329979879275
1243.440835446465,688,90.25352112676056
1244.1056268569823,745,92.04961109943241
1244.7329652302874,745,93.37686876306124
1245.3696668628954,716,94.70412642669008
1246.0063684955035,707,93.33781512605042
1246.661796646718,716,92.88257215929849
1247.307861538629,735,93.35140446834151
1247.935199911934,707,94.24888345993816
1248.5719015445422,679,93.80664743509344
1249.2273296957565,650,90.79091528503292
1249.920210884183,660,87.85915057915057
1250.6224553319125,679,86.60513883746759
1251.305973261036,698,87.82478101485626
1251.9707646715533,669,88.60505498745898
1252.6542826006767,650,87.45004417275098
1253.3658903077094,669,84.75015251511286
1254.096224533348,698,82.52785322605442
1254.83592201829,726,82.52785322605442
1255.5475297253224,726,85.22774488369257
1256.2123211358398,698,89.14629193927868
1256.8583860277508,688,91.55531449566966
1257.5138141789653,698,91.55531449566966
1258.1786055894825,726,89.46365762140408
1258.871486777909,735,87.81423677198325
1259.5643679663356,716,86.99000370233246
1260.247885895459,688,86.60513883746759
1260.9501303431884,660,85.12488935721812
1261.6804645688271,669,82.23498575498576
1262.4388885723752,698,79.80376624279063
1263.2066758352262,716,79.11915085817523
1263.955736579471,716,80.48904022806461
1264.6767075458067,726,82.92025974025972
1265.3789519935362,754,84.32552289815447
1266.0905597005687,773,84.32552289815447
1266.8115306669044,735,83.23013828276986
1267.5418648925433,735,82.86513486513486
1268.2628358588788,745,83.60487512487512
1268.9650803066086,745,85.48053371286247
1269.648598235732,726,85.84553713049746
1270.3602059427644,698,85.47080028839221
1271.0718136497971,707,83.59514170040485
1271.8021478754358,716,82.87449392712551
1272.5324821010745,716,82.50949050949052
1273.2534530674102,707,82.86513486513486
1273.974424033746,688,83.5857826384142
1274.6860317407786,726,85.1057968707572
1275.369549669902,754,87.87982284478318
1276.0249778211162,764,89.85906672914197
1276.6897692316336,735,89.85906672914196
1277.373287160757,726,87.45004417275098
1278.0848948677897,735,84.06553713049746
1278.8339556120345,735,81.84323784143903
1279.5736530969764,698,81.84323784143903
1280.2852608040089,669,81.84323784143903
1281.0343215482537,698,82.54552289815447
1281.7552925145894,764,81.82487512487512
1282.485626740228,811,83.23013828276986
1283.1972344472608,792,84.75015251511286
1283.8807523763842,745,85.84553713049746
1284.5829968241137,764,86.60513883746759
1285.2758780125403,792,86.20972972972973
1285.9687592009668,792,86.20972972972973
1286.6710036486963,726,86.20972972972973
1287.363884837123,698,87.01153153153152
1288.0380395069433,688,89.48805327066196
1288.6841043988543,698,90.70769544805061
1289.3488958093717,698,90.70769544805061
1290.023050479192,688,88.23117370892018
1290.7252949269216,660,86.25192982456139
1291.436902633954,669,85.84553713049746
1292.1204205630777,698,87.45004417275099
1292.7852119735949,764,88.20964587972111
1293.4780931620214,783,88.20964587972112
1294.1616110911448,754,86.60513883746759
1294.8638555388745,754,87.82478101485626
1295.5286469493917,764,89.97627174813587
1296.165348582,773,93.37686876306124
1296.792686955305,773,94.70412642669008
1297.429388587913,726,94.24888345993816
1298.0754534798243,669,92.4527934872663
1298.7402448903415,650,91.12553582363748
1299.405036300859,669,91.58077879038939
1300.041737933467,726,92.90803645401822
1300.6784395660752,773,93.78005115089513
1301.3245044579864,764,92.03495311167944
1301.9986591278068,754,88.72845156369183
1302.7102668348393,735,86.25192982456139
1303.4125112825689,773,86.25192982456139
1304.0866659523892,801,88.66095238095237
1304.7420941036034,754,90.69523809523808
1305.3975222548177,735,90.28884540117416
1306.0810401839412,735,88.25455968688844
1306.7832846316708,745,85.84553713049746
1307.4948923387033,754,85.84553713049746
1308.1784102678268,764,86.6258111031002
1308.8619281969502,726,86.26080768546521
1309.582899163286,688,83.37090408323284
1310.341323166834,698,81.14860479417442
1311.0810206517756,726,81.51360821180941
1311.7926283588083,735,83.24850099933377
1312.5042360658408,726,83.24850099933377
1313.2439335507827,735,81.84323784143903
1313.9929942950275,792,80.10834505391466
1314.7514182985753,811,80.8106301106301
1315.472389264911,783,82.97549497549497
1316.1652704533376,735,84.71038776301933
1316.8768781603703,707,85.07539118065432
1317.5884858674028,698,83.59514170040485
1318.3188200930415,726,83.96987854251012
1319.021064540771,773,84.72948024948025
1319.7139457291976,783,85.4501280227596
1320.4255534362303,735,84.71038776301933
1321.146524402566,688,82.88349758169878
1321.8862218875076,707,82.51849416406378
1322.6071928538433,716,82.51849416406378
1323.328163820179,745,82.86513486513486
1324.0584980458177,764,82.16284980841942
1324.7981955307596,745,82.16284980841942
1325.5191664970953,726,84.03850839640678
1326.2026844262186,735,86.26080768546521
1326.8862023553422,754,87.78082191780821
1327.5697202844656,773,87.38541281007033
1328.2626014728921,754,87.38541281007033
1328.9461194020155,707,88.20964587972112
1329.610910812533,679,88.60505498745898
1330.2944287416562,679,87.82478101485626
1330.9966731893858,716,84.44027397260274
1331.7457339336306,735,82.56461538461538
1332.4760681592693,735,83.34488935721812
1333.1595860883929,698,86.31155602388478
1333.8337407582133,698,87.40694063926941
1334.5359852059428,745,85.88692640692639
1335.2569561722785,764,85.0851246051246
1335.949837360705,745,86.68963164737812
1336.6146287712222,726,88.61603857378505
1337.2887834410426,688,89.01144768152292
1337.972301370166,716,87.40694063926941
1338.6745458178957,783,87.00054794520547
1339.358063747019,811,88.69679571173316
1340.0041286389303,792,92.09739272665854
1340.6314670122354,735,93.35140446834151
1341.2868951634496,745,92.06154939587775
1341.96104983327,754,89.04581724581723
1342.6539310216965,745,88.19819819819818
1343.328085691517,726,89.48805327066196
1343.974150583428,698,91.1374741200828
1344.6295787346423,688,90.73108142601887
1345.3130966637657,707,87.87982284478318
1346.0247043707982,735,85.84553713049746
1346.7269488185277,754,86.66977020014825
1347.3917402290451,735,89.97627174813587
1348.0284418616532,726,92.01055746242157
1348.6838700128676,792,91.59271708683472
1349.358024682688,839,89.84761904761905
1350.0321793525084,830,89.41784037558685
1350.6969707630255,773,90.2654594232059
1351.3523989142398,754,89.46365762140408
1352.0452801026663,783,85.11409033818671
1352.8224306248203,773,79.15152876183204
1353.6370341841866,745,76.02160365600332
1354.4141847063406,707,78.02692363722691
1355.1351556726763,688,82.34006436416075
1355.8280368611029,707,85.86539857772733
1356.5115547902262,716,87.38541281007033
1357.1950727193498,754,88.18721461187214
1357.8692273891702,735,89.01144768152292
1358.5340187996874,698,89.01144768152292
1359.2175367288107,716,87.82478101485626
1359.9197811765405,745,84.77824865614704
1360.6594786614821,735,83.25823442380404
1361.3804496278178,707,83.25823442380404
1362.0826940755474,716,83.60487512487512
1362.8130283011863,773,82.56461538461538
1363.562089045431,792,80.78461538461538
1364.311149789676,764,81.14025974025972
1365.0321207560116,707,84.10692640692639
1365.706275425832,688,87.07359307359306
1366.3804300956524,698,89.0
1367.0545847654728,735,88.59360730593606
1367.7381026945961,735,89.01144768152292
1368.4028941051133,707,89.42928805710977
1369.0676855156307,698,89.42928805710977
1369.751203444754,735,86.38275569840056
1370.490900929696,811,83.33622333969134
1371.2305984146378,811,82.18121252498335
1371.9422061216703,745,83.62323784143904
1372.6444505693999,707,84.69052631578947
1373.3560582764326,707,83.96987854251012
1374.0863925020712,716,83.96987854251012
1374.7886369498008,754,85.53128205128205
1375.4627916196212,716,89.10318840579708
1376.1088565115324,679,91.1374741200828
1376.7642846627466,669,91.1374741200828
1377.438439332567,707,89.04581724581723
1378.1313205209935,764,88.61603857378505
1378.7961119315107,783,89.90589364624881
1379.442176823422,773,91.12553582363748
1380.1069682339394,773,89.90589364624881
1380.799849422366,792,86.68963164737812
1381.5208203887014,773,84.34538434538433
1382.241791355037,735,84.34538434538433
1382.9346725434636,669,85.86539857772733
1383.618190472587,660,86.99000370233247
1384.3110716610136,641,85.86539857772735
1385.0320426273493,660,83.98973998973999
1385.762376852988,688,83.23013828276986
1386.4739845600207,707,84.75015251511286
1387.157502489144,669,87.87982284478318
1387.8129306403582,641,89.85906672914197
1388.4777220508756,632,89.46365762140408
1389.1706032393022,669,87.05463506501312
1389.8822109463347,688,85.07539118065432
1390.5938186533674,745,83.9507860560492
1391.314789619703,726,82.54552289815447
1392.063850363948,688,80.48904022806461
1392.831637626799,669,80.13339587242027
1393.5619718524376,669,80.81801125703565
1394.2923060780763,698,81.80720545277508
1395.0320035630182,726,81.460564751704
1395.7717010479598,707,81.81620910734836
1396.4926720142955,698,83.6430992886689
1397.185553202722,726,85.0851246051246
1397.8877976504516,735,85.4501280227596
1398.5994053574843,754,84.69052631578947
1399.3110130645168,745,84.69052631578947
1400.0132575122464,698,85.84553713049746
1400.69677544137,660,85.48053371286247
1401.4177464077056,669,83.70053371286247
1402.1668071519505,707,80.8106301106301
1402.9252311554983,754,80.45498575498576
1403.655565381137,801,81.49524549524548
1404.3765363474727,773,82.50949050949052
1405.1068705731116,754,82.50949050949052
1405.8372047987502,792,83.63409563409564
1406.5300859871768,811,86.33398729173376
1407.194877397694,811,87.81423677198325
1407.8877585861205,745,85.31974227748876
1408.6461825896683,707,80.07244453756081
1409.4514228897317,688,76.63615110126737
1410.2379366711887,745,77.30375541444131
1410.9776341561305,773,78.8369164824861
1411.7360581596786,754,78.8369164824861
1412.5225719411355,726,77.22751322751323
1413.3090857225927,707,78.5974025974026
1414.0300566889284,735,82.03369603369603
1414.7229378773548,801,85.86539857772733
1415.4064558064783,792,86.99000370233247
1416.099336994905,754,86.99000370233247
1416.7922181833312,754,86.99000370233246
1417.4757361124548,764,88.63942455175331
1418.131164263669,792,89.85906672914197
1418.7959556741862,773,89.46365762140408
1419.4888368626127,735,85.31974227748876
1420.2472608661608,707,80.97017499427137
1421.0244113883148,716,78.80531012940651
1421.7734721325596,735,79.13493975903614
1422.5225328768045,764,79.77037037037036
1423.2809568803523,764,79.11915085817523
1424.0487441432033,745,78.46793134598012
1424.8165314060543,773,79.8378207158695
1425.53750237239,773,83.87354727031814
1426.2022937829072,783,88.78128852164369
1426.8483586748184,754,91.12553582363748
1427.5131500853358,745,88.78128852164369
1428.2341210516715,783,83.87354727031814
1429.0019083145226,783,80.15941059843499
1429.7603323180704,764,79.11915085817523
1430.5093930623152,716,80.45498575498576
1431.2397272879539,688,80.13339587242027
1432.007514550805,688,78.56280763712614
1432.803391591565,707,77.87819225251076
1433.55245233581,745,79.21402714932127
1434.2827865614488,735,81.46923076923076
1435.0131207870875,745,81.80720545277508
1435.7528182720293,801,81.1225900681597
1436.5018790162742,801,80.10834505391466
1437.260303019822,801,80.8106301106301
1437.9812739861577,716,83.37090408323284
1438.664791915281,716,85.86539857772735
1439.3576731037076,707,85.86539857772735
1440.0786440700433,716,83.98973998973999
1440.808978295682,726,82.86513486513486
1441.5299492620177,688,82.50949050949052
1442.2602834876564,650,80.55344655344655
1443.0467972691135,669,77.6503961155124
1443.8520375691767,707,76.00072048993314
1444.629188091331,726,77.95676444597711
1445.3595223169696,716,81.59955514365151
1446.061766764699,707,84.72948024948025
1446.7546479531256,679,85.0851246051246
1447.4756189194613,698,82.65390509292948
1448.2434061823124,745,79.52397998710076
1449.0205567044663,764,79.1683356314564
1449.750890930105,754,82.37982911625426
1450.4344088592284,726,85.12488935721811
1451.1366533069581,745,85.84553713049746
1451.8482610139906,764,83.62323784143904
1452.5879584989325,773,81.51360821180941
1453.3463825024803,716,80.44631973745898
1454.0860799874222,688,81.14860479417442
1454.8070509537579,735,82.16284980841942
1455.5373851793966,716,81.82487512487512
1456.2864459236414,698,80.13339587242027
1457.0542331864924,679,79.44878048780487
1457.8032939307373,1990,81.22878048780487
1458.5055383784668,830,84.84666666666666
1459.1796930482872,830,87.81333333333333
1459.8538477181075,792,87.43859649122805
1460.5654554251403,820,85.15654520917678
1461.295789650779,877,82.87449392712551
1462.0261238764176,886,83.63409563409564
1462.7190050648442,811,85.11434511434511
1463.4118862532707,745,84.76770441327403
1464.1515837382124,745,82.27320991877954
1464.9100077417604,726,80.44631973745898
1465.649705226702,707,81.14860479417442
1466.3706761930378,698,84.03850839640678
1467.0541941221613,669,85.10579687075722
1467.7658018291938,679,83.10047688953361
1468.5429523513478,698,78.67741221925645
1469.3481926514112,745,76.00072048993314
1470.1347064328681,735,77.6503961155124
1470.865040658507,707,79.85116149673112
1471.6047381434487,679,81.1225900681597
1472.3537988876935,707,80.7759493670886
1473.0934963726354,707,81.47823442380404
1473.814467338971,716,83.6430992886689
1474.5073485273977,698,85.86539857772733
1475.190866456521,688,86.60513883746759
1475.8931109042505,669,85.12488935721812
1476.6234451298894,707,82.56461538461538
1477.3725058741343,745,81.46923076923076
1478.102840099773,773,81.82487512487512
1478.8238110661086,726,80.55344655344655
1479.6103248475656,688,77.16883116883116
1480.443654925538,735,73.7012987012987
1481.2676217442074,745,74.32150776053214
1482.0354090070584,735,77.02150776053213
1482.7844697513033,698,78.48372024684102
1483.5616202734573,632,78.48372024684102
1484.3294075363083,641,78.82169493038532
1485.0691050212502,660,81.56675517134917
1485.7713494689797,716,84.77824865614704
1486.454867398103,745,86.22027397260274
1487.1571118458326,735,85.84553713049746
1487.8687195528653,716,83.28526315789472
1488.6177802971101,669,82.18987854251012
1489.3481145227488,716,82.94948024948025
1490.0409957111754,754,84.35474340737498
1490.752603418208,783,84.0081027063039
1491.4923009031497,792,82.52785322605442
1492.2226351287884,764,82.9025900681597
1492.9248795765182,716,83.96987854251012
1493.6364872835507,735,82.6340436456996
1494.4042745464017,726,79.58261507427105
1495.1907883278589,726,77.84772228674667
1495.9492123314067,698,80.27894179894179
1496.6514567791362,669,84.1106443429731
1497.3349747082598,650,86.60513883746759
1498.027855896686,679,85.50975422208299
1498.758190122325,773,83.63409563409564
1499.4885243479637,839,83.24923076923076
1500.1907687956932,820,84.72948024948025
1500.8836499841198,764,84.72948024948025
1501.6139842097584,754,81.08668955180583
1502.4192245098216,745,77.05903398926654
1503.224464809885,783,76.71239328819547
1503.9641622948266,1292,80.35518398586987
1504.6664067425563,1028,83.9979746835443
1505.3686511902858,801,85.06526315789472
1506.0802588973183,783,83.28526315789472
1506.8293196415632,754,82.91052631578947
1507.540927348596,707,84.47192982456139
1508.2150820184163,716,87.85643686681492
1508.8798734289335,735,88.23117370892018
1509.582117876663,764,84.93487741262388
1510.340541880211,783,80.58531012940651
1511.117692402365,745,78.15409061721138
1511.885479665216,726,77.83250073464589
1512.653266928067,754,77.52613240418118
1513.439780709524,783,77.52613240418118
1514.207567972375,783,78.8619673009917
1514.937902198014,735,83.51790291467378
1515.6026936085311,707,87.98340814115461
1516.2581217597453,698,92.01055746242157
1516.8948233923536,726,92.44033613445377
1517.5502515435678,773,91.1863243927708
1518.2337694726912,801,88.25455968688844
1518.9360139204207,716,87.82478101485626
1519.600805330938,754,89.97627174813587
1520.2375069635461,820,93.37686876306124
1520.8648453368512,830,93.37686876306125
1521.5296367473686,830,91.22537802978162
1522.213154676492,773,86.38275569840056
1522.9528521614338,716,84.03850839640677
1523.6738231277695,688,84.03850839640678
1524.357341056893,707,87.085040755116
1525.0221324674103,745,89.42928805710977
1525.6869238779275,773,89.03387894937191
1526.379805066354,783,86.68963164737812
1527.1007760326897,735,85.0851246051246
1527.8030204804193,735,85.0851246051246
1528.4959016688458,783,85.0851246051246
1529.2168726351815,830,83.98973998973999
1529.9472068608202,849,81.82487512487512
1530.696267605065,820,81.1225900681597
1531.435965090007,745,82.60283954840916
1532.1288462784332,698,86.41712526269488
1532.7842744296477,698,89.4636576214041
1533.4490658401648,688,89.07879275653923
1534.1513102878944,716,85.26450704225351
1534.9003710321392,726,80.30941176470587
1535.6962480728994,726,77.87819225251076
1536.4640353357504,698,77.87819225251076
1537.2130960799952,669,78.1773519163763
1537.9996098614524,669,76.96578073089701
1538.8048501615156,698,75.10299003322258
1539.610090461579,726,76.71239328819547
1540.3497879465206,783,80.35518398586987
1541.0520323942503,783,84.77824865614704
1541.7355503233737,764,84.77824865614704
1542.4752478083155,707,82.34702914395191
1543.2430350711663,688,79.78675517134917
1543.9920958154112,679,80.48904022806461
1544.7130667817469,716,82.92025974025972
1545.4153112294764,764,83.60487512487512
1546.1456454551153,735,80.99402714932127
1546.9415224958755,679,77.9425985778927
1547.7280362773324,669,77.25798319327731
1548.4770970215773,707,78.82857142857142
1549.2261577658223,754,79.77037037037036
1549.9845817693702,773,78.49894179894179
1550.7710955508273,745,77.84772228674667
1551.5388828136781,707,78.8619673009917
1552.269217039317,707,81.91339587242027
1552.9714614870466,726,83.96987854251012
1553.683069194079,745,83.96987854251012
1554.413403419718,764,81.86024891288048
1555.1718274232658,754,80.12535612535612
1555.9302514268138,698,79.77871542428504
1556.6699489117555,726,79.45712554171955
1557.4377361746065,754,79.13553565915406
1558.2055234374575,801,77.83250073464589
1558.9826739596115,764,78.48372024684102
1559.7317347038563,716,79.47291444258045
1560.4714321887982,698,79.47291444258045
1561.2485827109522,1443,78.50785420161658
1562.0257332331062,707,77.84024988844266
1562.7841572366542,669,80.21057328730123
1563.4957649436867,679,83.73590750086784
1564.1792828728103,716,86.6258111031002
1564.8628008019336,773,87.00054794520547
1565.5650452496632,754,84.77824865614704
1566.304742734605,698,82.9025900681597
1567.0350769602437,716,81.460564751704
1567.7747744451856,735,79.55200183286557
1568.5706514859457,764,77.29679821295606
1569.366528526706,726,75.38823529411765
1570.162405567466,688,78.3640866873065
1570.8740132744986,698,81.33993808049536
1571.5856209815313,716,84.69052631578947
1572.2878654292608,773,84.69052631578947
1572.9994731362933,754,84.32552289815447
1573.720444102629,745,85.1057968707572
1574.4039620317526,745,87.95705545199291
1575.0500269236638,764,90.30130275398669
1575.714818334181,792,89.52102878138395
1576.4170627819105,754,86.30476678251325
1577.1380337482462,726,84.32552289815447
1577.849641455279,745,84.32552289815447
1578.5518859030085,754,86.25192982456139
1579.2260405728289,754,87.01153153153152
1579.9189217612552,726,85.56950621507583
1580.658619246197,698,82.27320991877954
1581.4170432497451,735,80.10834505391466
1582.16610399399,773,80.8106301106301
1582.8870749603257,801,81.47823442380404
1583.6267724452673,764,81.14860479417442
1584.3851964488153,726,79.45712554171955
1585.1529837116661,707,80.52441401606998
1585.8645914186989,698,83.41431761830235
1586.5481093478222,726,84.75015251511286
1587.2784435734611,726,84.75015251511286
1587.9900512804936,707,84.35474340737498
1588.6829324689202,726,86.63679468942627
1589.3570871387406,735,89.94329623741388
1589.9937887713486,745,92.03495311167944
1590.6398536632598,735,91.23315130987766
1591.3327348516864,716,84.09411387672256
1592.1567016703557,698,77.4103194103194
1592.980668489025,745,73.97402597402598
1593.7671822704822,792,74.25302283922973
1594.5817858298485,820,72.94803750198633
1595.4525689450331,783,70.24287032873406
1596.3327153195207,783,70.5283554931286
1597.137955619584,783,74.59858824118903
1597.8776531045257,783,78.91315866941419
1598.6173505894676,754,81.81620910734836
1599.3383215558033,688,83.25823442380404
1600.0405660035328,660,85.0851246051246
1600.7334471919594,679,87.42937190711838
1601.3982386024766,726,88.61603857378505
1602.072393272297,773,88.61603857378505
1602.7652744607235,773,85.56950621507583
1603.5049719456654,745,83.28745493302455
1604.235306171304,783,82.9025900681597
1604.9375506190336,858,85.53128205128205
1605.611705288854,849,86.62666666666667
1606.3139497365835,811,86.62666666666667
1607.016194184313,726,85.06526315789472
1607.7278018913457,660,85.4501280227596
1608.420683079772,650,86.23040199536233
1609.1042010088956,650,88.20964587972112
1609.7689924194128,707,87.82478101485626
1610.4712368671424,716,85.60248172579782
1611.2109343520842,707,81.56675517134917
1611.9787216149352,754,80.82701491160893
1612.699692581271,764,83.04931420066735
1613.3832105103943,792,84.38514909747786
1614.1135447360332,801,83.68286404076242
1614.8532422209748,754,81.80720545277508
1615.5835764466137,707,83.28745493302455
1616.27645763504,669,88.13007726440563
1616.9037960083451,688,92.15722658567259
1617.5404976409534,707,93.80664743509344
1618.1959257921676,726,90.0313135780628
1618.9075334992,745,85.65752355572475
1619.647230984142,792,82.52785322605442
1620.3775652097806,858,82.52785322605442
1621.0891729168134,858,85.57438558476363
1621.7539643273306,839,86.29503335804299
1622.4655720343633,811,84.88977020014825
1623.2146327786081,811,80.54020291693087
1623.991783300762,839,77.86351118760757
1624.7782970822193,811,77.53388155797794
1625.536721085767,783,79.90420495683654
1626.2483287927998,735,81.86024891288048
1626.9786630184385,726,83.23013828276986
1627.6996339847742,716,82.86513486513486
1628.42060495111,698,84.34538434538433
1629.1134861395365,688,86.68963164737812
1629.7782775500536,679,89.90589364624881
1630.4243424419649,764,90.70769544805061
1631.0984971117853,820,86.67196889360197
1631.8662843746363,820,79.71544715447155
1632.6996144526086,811,74.60050462573591
1633.514218011975,764,74.9220945083014
1634.272642015523,707,77.62209450830139
1635.0217027597678,716,80.10834505391466
1635.7614002447094,716,79.47291444258045
1636.5385507668636,735,78.50785420161658
1637.3157012890176,707,91.02543507362785
1637.821317291383,688,84.88682558982106
1638.8419125554165,716,84.2812975954908
1639.6377895961766,820,70.46068179897138
1640.4149401183306,867,77.56435152374202
1641.1640008625754,839,80.91493975903614
1641.8662453103052,773,83.28526315789472
1642.5778530173377,698,83.96987854251012
1643.3081872429764,679,81.86024891288048
1644.0666112465244,698,79.48992551402189
1644.8437617686784,745,79.14328481295081
1645.5834592536203,726,80.51317418284017
1646.304430219956,707,81.47823442380404
1647.0534909642008,669,80.17519949929587
1647.8306414863548,679,78.16987951807228
1648.6077920085088,698,78.85449490268766
1649.3381262341475,726,81.59955514365151
1650.0403706818772,726,84.72948024948025
1650.7332518703035,726,85.0851246051246
1651.4542228366392,801,82.65390509292948
1652.2220100994903,830,78.9184519927705
1653.0178871402504,877,79.28345541040548
1653.7294948472831,820,79.9346749226006
1654.478555591528,792,79.35698729582576
1655.293159150894,933,75.5244514106583
1656.1171259695636,698,73.09717868338558
1656.941092788233,783,74.59423503325942
1657.708880051084,735,78.42677091842688
1658.4204877581165,679,83.41431761830235
1659.1040056872398,660,85.84553713049746
1659.8062501349696,669,84.77824865614704
1660.5459476199112,735,81.56675517134917
1661.3137348827622,783,78.82169493038532
1662.0908854049162,764,79.1683356314564
1662.821219630555,726,80.50417052826691
1663.5515538561938,669,80.50417052826691
1664.3287043783478,669,77.39228241637879
1665.152671197017,698,73.74100036509674
1665.9953645342925,745,72.55778474399163
1666.8099680936589,764,75.32303215480867
1667.5496655786008,783,80.45456368634021
1668.242546767027,867,84.76770441327403
1668.9354279554536,877,86.99000370233246
1669.618945884577,886,86.23040199536234
1670.3305535916097,811,85.10579687075722
1671.0515245579454,745,83.5857826384142
1671.772495524281,726,84.34538434538433
1672.4653767127077,735,86.68963164737812
1673.1301681232248,754,89.03387894937191
1673.7949595337423,745,89.03387894937191
1674.4878407221686,707,86.68963164737812
1675.2088116885043,698,82.34006436416074
1675.9859622106585,726,79.21013925833202
1676.7631127328125,764,77.84024988844266
1677.5215367363603,735,80.58531012940651
1678.2237811840898,716,84.1106443429731
1678.9072991132134,811,87.40694063926941
1679.5814537830338,764,87.03220379716413
1680.2930614900663,783,84.14230019493176
1681.0514854936143,754,81.86024891288048
1681.781819719253,716,83.42165242165242
1682.4559743890734,716,87.13578909353558
1683.1207657995906,764,88.23117370892018
1683.8230102473203,735,85.26450704225351
1684.5720709915652,716,81.22878048780487
1685.339858254416,669,79.78675517134917
1686.0795557393578,660,81.56675517134917
1686.7818001870874,679,83.9979746835443
1687.4840446348169,726,84.70025974025972
1688.2050156011526,754,83.25823442380404
1688.9447130860945,735,81.14860479417442
1689.7031370896423,735,80.10834505391466
1690.452197833887,1066,81.93523523523523
1691.1450790223137,650,83.3051246051246
1691.8660499886494,849,83.3051246051246
1692.6151107328942,801,79.56967150496561
1693.4109877736544,716,78.19978213507625
1694.1694117772024,707,79.60504529297097
1694.881019484235,716,83.34049839312996
1695.5739006726615,764,82.09953978746547
1696.3697777134216,783,85.4060413354531
1697.0064793460297,735,85.02117647058823
1697.7087237937592,688,89.97627174813587
1698.3735152042766,707,88.23117370892018
1699.047669874097,716,87.85643686681492
1699.7592775811295,726,83.82071031236627
1700.5270648439805,716,80.8540436456996
1701.2761255882253,698,81.61364535266974
1701.969006776652,745,83.6701280227596
1702.6806144836846,839,84.35474340737498
1703.4109487093233,877,81.86024891288048
1704.169372712871,858,81.49524549524548
1704.8903436792068,811,83.37090408323284
1705.5738616083304,764,85.86539857772735
1706.2667427967567,773,86.23040199536234
1706.9783505037894,745,83.01890851056447
1707.7461377666405,801,80.8540436456996
1708.4951985108853,716,79.78675517134917
1709.234895995827,698,80.7759493670886
1709.9745934807688,707,80.44631973745898
1710.7330174843169,716,78.8369164824861
1711.5195312657738,735,78.49894179894179
1712.2685920100187,745,79.86883116883116
1712.9895629763544,716,81.47823442380404
1713.7292604612962,707,81.47823442380404
1714.478321205541,745,80.4379746835443
1715.227381949786,745,81.14025974025972
1715.9483529161216,792,83.3051246051246
1716.6412341045482,764,83.98973998973999
1717.3715683301868,716,82.29826073728512
1718.1393555930379,688,78.56280763712614
1718.935232633798,650,77.54856262288112
1719.6936566373458,698,79.24004187533598
1720.4146276036815,764,82.5906301106301
1721.116872051411,783,85.0851246051246
1721.8097532398376,754,85.0851246051246
1722.5307242061733,707,84.34538434538433
1723.251695172509,716,83.96051948051948
1723.9539396202385,745,83.96051948051948
1724.6749105865742,801,83.60487512487512
1725.405244812213,811,82.16284980841942
1726.1449422971548,820,81.80720545277508
1726.8752765227935,735,82.52785322605442
1727.5868842298262,698,84.35474340737498
1728.2797654182525,688,84.0081027063039
1729.0194629031944,745,81.3314109769806
1729.8059766846516,783,77.01827025004677
1730.6205802440177,783,75.7152353255386
1731.397730766172,745,76.02160365600332
1732.1748812883259,773,77.20481927710843
1732.9520318104799,745,77.20481927710843
1733.7291823326339,754,78.16987951807228
1734.4782430768787,716,81.69521373163887
1735.1617610060023,669,86.47455968688844
1735.8171891572165,707,89.44122635355511
1736.4913438270369,773,87.92121212121211
1737.2123147933726,820,83.45570689473128
1737.9801020562236,811,79.8378207158695
1738.7478893190744,754,79.13553565915406
1739.4875868040162,707,78.82169493038532
1740.2647373261702,707,76.2454419151079
1741.116793922749,726,72.94080056489693
1741.9594872600244,754,72.04307010818637
1742.7647275600875,764,76.31080237591866
1743.4856985264232,745,83.09175475687103
1744.1411266776374,716,89.21106719367589
1744.7871915695487,698,92.42732919254658
1745.43325646146,745,90.39304347826086
1746.1355009091894,801,87.54178489702517
1746.847108616222,830,85.06526315789472
1747.5493530639515,754,83.28526315789472
1748.2984138081963,726,81.55037037037036
1749.0568378117443,726,78.49894179894179
1749.8433515932015,754,76.92835356364768
1750.6392286339617,773,77.25798319327731
1751.3882893782065,820,80.30941176470589
1752.090533825936,811,85.26450704225351
1752.7553252364532,773,87.82478101485626
1753.4388431655768,745,87.82478101485626
1754.1410876133064,764,85.48053371286247
1754.862058579642,773,83.25823442380404
1755.6017560645837,783,80.20680585237548
1756.3882698460409,754,75.93907358464321
1757.2403264426193,745,72.37362637362637
1758.092383039198,773,70.94505494505493
1758.9257131171703,801,72.30973677485305
1759.7309534172336,811,73.67441860465115
1760.5361937172968,792,73.67441860465115
1761.3695237952693,764,73.67441860465115
1762.1747640953324,716,74.57214906136171
1762.9519146174864,726,77.95676444597711
1763.682248843125,754,80.85981488391127
1764.4032198094608,764,83.23013828276986
1765.1148275164935,801,84.71038776301933
1765.80770870492,754,86.23040199536233
1766.4912266340434,716,87.79180550413426
1767.1653813038638,745,85.29731100963977
1767.9238053074116,773,80.58876117496807
1768.738408866778,801,75.47381864623243
1769.5530124261443,792,73.94065757818765
1770.3582527262074,764,75.75930381062699
1771.1166767297555,764,79.68757967269593
1771.818921177485,764,82.9556335282651
1772.5305288845175,783,84.69052631578947
1773.2421365915502,792,83.59514170040485
1773.9724708171889,773,83.96987854251012
1774.6747152649184,820,85.12488935721812
1775.358233194042,811,85.84553713049746
1776.0698409010745,801,81.9172612684285
1776.8844444604408,754,75.8743786001736
1777.7458643163225,707,71.76911544227886
1778.5791943942947,716,73.2661717921527
1779.3469816571458,726,78.91364535266973
1780.0398628455723,764,84.5803120193364
1780.7140175153927,783,87.3963963963964
1781.4068987038193,801,85.56950621507583
1782.146596188761,858,83.6430992886689
1782.8675671550966,886,83.25823442380404
1783.5698116028261,849,86.30476678251325
1784.2346030133435,792,88.23117370892018
1784.908757683164,716,88.61603857378505
1785.6016388715905,707,86.27179127179127
1786.322609837926,707,84.34538434538433
1787.0435808042616,745,83.2207792207792
1787.7645517705973,735,80.60993124522535
1788.5604288113575,754,77.14239877769289
1789.3843956300268,792,72.36988097291703
1790.2551787452117,811,71.79219334614217
1791.0697823045778,820,72.94803750198633
1791.856296086035,773,71.55605314226004
1792.7832587570379,716,75.86919386919388
1793.4761399454644,726,76.17556219965859
1794.2532904676184,764,81.9844200085164
1794.9836246932573,792,82.78622181031818
1795.6577793630777,811,87.56556776556776
1796.313207514292,792,90.2654594232059
1796.977998924809,792,87.98340814115461
1797.708333150448,801,83.20406218590504
1798.485483672602,811,79.48992551402189
1799.2439076761498,792,79.84556986966624
1799.9648786424855,745,84.19513715288363
1800.6296700530029,735,87.90927382476679
1801.29446146352,783,89.03387894937191
1801.9873426519466,764,85.9873465906627
1802.7270401368885,764,82.27320991877954
1803.4854641404363,745,79.14328481295081
1804.2626146625903,726,75.32270143375433
1805.124034518472,745,71.92007299886784
1805.9948176336566,783,68.90853749515085
1806.8749640081444,811,70.5283554931286
1807.6802043082075,830,74.59858824118903
1808.4199017931494,801,79.61544372612963
1809.140872759485,811,82.16284980841942
1809.8712069851238,783,81.82487512487512
1810.6202677293686,754,81.1225900681597
1811.3599652143105,716,82.2179746835443
1812.06220966204,698,84.38283954840917
1812.7550908504666,735,85.0851246051246
1813.4760618168023,783,82.97549497549497
1814.23448582035,830,81.49524549524548
1814.9648200459887,811,81.86024891288048
1815.6764277530215,773,80.3270878448357
1816.4816680530846,792,79.31284283059068
1817.2400920566326,811,76.94251943173208
1818.0172425787866,764,78.80531012940651
1818.7663033230315,792,80.54020291693087
1819.477911030064,849,82.91052631578947
1820.1895187370967,867,82.58089668615983
1820.9479427406445,867,81.86024891288048
1821.6782769662834,783,81.86024891288048
1822.389884673316,698,85.57438558476363
1823.0546760838333,698,88.70405591443397
1823.7101042350475,716,90.2654594232059
1824.384258904868,745,87.92121212121211
1825.1052298712036,811,84.10692640692639
1825.8542906154485,773,81.82487512487512
1826.5846248410871,858,81.46923076923076
1827.3149590667258,811,79.3209549071618
1828.1295626260921,839,74.4205500488622
1829.019072259883,1207,70.76926799758016
1829.8617655971584,1113,71.34695562435499
1830.6576426379186,688,76.96800825593394
1831.3692503449513,830,81.71467492260061
1832.0714947926808,849,84.69052631578947
1832.7831024997133,792,82.9556335282651
1833.5415265032614,839,80.21057328730124
1834.3186770254154,1018,79.48992551402189
1835.049011251054,1443,82.37982911625426
1835.7325291801776,735,85.12488935721811
1836.4347736279071,745,85.84553713049746
1837.1463813349396,669,84.32552289815447
1837.8673523012753,650,83.9507860560492
1838.578960008308,698,84.71038776301933
1839.2718411967344,754,84.0081027063039
1840.0115386816763,811,79.37536702093664
1842.5677084714118,745,75.34771145839736
1843.372948771475,839,74.68010714522342
1844.131372775023,867,77.25636016050082
1844.899160037874,915,79.45712554171955
1845.6388575228157,849,78.21616693605506
1846.4347345635758,811,80.27264960614491
1847.1463422706086,773,82.09953978746549
1847.839223459035,754,85.4501280227596
1848.5414679067646,754,85.4501280227596
1849.2530756137971,773,83.96987854251012
1849.983409839436,764,82.52785322605442
1850.7231073243777,1452,82.52785322605442
1851.4347150314104,773,83.62323784143904
1852.13695947914,792,83.62323784143904
1852.8766569640818,735,82.5559493670886
1853.6163544490234,849,79.50452079566004
1854.4028682304806,792,78.8369164824861
1855.1612922340285,735,79.90420495683654
1855.8728999410612,726,83.73590750086784
1856.5564178701845,792,88.32205886962791
1857.2024827620958,754,89.08166057659804
1857.8953639505223,726,86.19175697436566
1858.6537879540701,726,80.97017499427137
1859.4309384762241,707,78.80531012940651
1860.179999220469,745,66.58063512327455
1861.5938513752312,716,67.88367004778272
1862.333548860173,650,68.22164473132702
1867.5957005884932,669,79.81088912612475
1868.3728511106472,688,78.50785420161658
1869.1500016328011,679,78.5078542016166
1869.889699117743,801,78.82169493038532
1870.657486380594,820,80.12472985489349
1871.397183865536,811,79.78675517134917
1872.1462446097808,792,81.84323784143903
1872.8578523168133,820,84.88977020014825
1873.5226437273307,811,86.66977020014825
1874.2248881750602,801,84.61328753005839
1874.9926754379112,745,79.08050462573591
1875.8072789972775,735,75.43771392806148
1876.6125192973407,745,76.08893344025661
1877.3615800415855,811,80.01720930232557
1878.063824489315,811,83.66
1878.7660689370446,783,84.70025974025972
1879.4870399033803,745,82.92025974025972
1880.236100647625,726,80.8106301106301
1880.9945246511732,792,80.10834505391466
1881.7342221361148,783,81.51360821180941
1882.4458298431475,849,84.0081027063039
1883.138711031574,830,84.0081027063039
1883.8784085165157,773,81.03225131311505
1884.6742855572759,698,76.44011372097745
1885.4982523759452,726,76.10213903743315
1886.24731312019,754,78.71298701298701
1886.9682840865257,783,82.18051948051948
1887.6892550528614,811,82.18051948051948
1888.4383157971063,773,80.48904022806461
1889.2061030599573,783,77.30050462573591
1890.0207066193236,783,75.43771392806148
1890.8259469193868,792,75.4377139280615
1891.5937341822378,764,77.92396447367476
1892.3334316671796,716,79.45712554171955
1893.0918556707275,679,79.45712554171955
1893.8596429335785,707,78.15409061721138
1894.6367934557325,783,78.48372024684102
1895.3858541999773,773,79.47291444258045
1896.1255516849192,792,79.78675517134917
1896.8933389477702,698,78.21616693605506
1897.6892159885303,1122,76.01540155483633
1898.4944562885935,1415,75.39519249560288
1899.2809700700507,792,76.63615110126737
1900.0393940735985,745,79.90420495683654
1900.7510017806312,773,82.21589326852484
1901.471972746967,669,82.54552289815447
1902.2210334912118,688,80.8106301106301
1902.9794574947596,660,78.19978213507625
1903.7753345355197,1594,78.19978213507625
1904.5243952797646,2037,79.9346749226006
1905.2360029867973,773,81.84323784143903
1905.9757004717392,735,81.19201832924392
1906.7434877345902,839,78.21616693605506
1907.5393647753504,820,76.60676368108219
1908.3258785568073,830,76.92835356364768
1909.0843025603554,783,78.16931216931216
1909.8427265639032,688,79.1111111111111
1910.601150567451,707,78.47568049977687
1911.3783010896052,745,77.53388155797794
1912.1648148710622,754,77.21229167541244
1912.9326021339132,698,76.02907605430734
1913.7472056932795,716,75.43771392806148
1914.5524459933426,641,74.5183452049625
1915.3483230341028,707,76.66662106703146
1916.0973837783476,764,80.30941176470589
1916.7996282260774,783,83.28526315789472
1917.51123593311,792,84.32552289815447
1918.2322068994456,764,82.21589326852484
1918.9906309029934,754,79.84556986966625
1919.7677814251476,839,77.23472189411238
1920.5636584659078,877,74.33687899626949
1921.4157150624862,867,71.32534349255249
1922.2958614369738,792,69.92926506117993
1923.1385547742493,764,71.8853090172239
1923.9250685557065,707,77.26716791979949
1924.6366762627392,688,82.01383458646616
1925.3389207104688,698,85.06526315789472
1926.0411651581983,716,83.9979746835443
1926.78086264314,745,82.9025900681597
1927.5111968687788,830,81.1225900681597
1928.2602576130237,886,79.51318681318682
1929.0467713944806,867,76.96578073089701
1929.852011694544,858,74.81750486882804
1930.6666152539103,801,75.4377139280615
1931.434402516761,811,78.70576778363065
1932.1460102237938,867,81.89430338595935
1932.8669811901295,839,82.21589326852484
1933.6254051936774,820,79.53920153920154
1934.4119189751345,801,76.63615110126737
1935.2171592751977,716,75.69435215946844
1936.0036730566549,707,75.69435215946844
1936.790186838112,764,75.98655462184874
1937.5860638788722,839,75.39519249560288
1938.3913041789353,2188,75.39519249560288
1939.1778179603925,735,77.30375541444131
1939.9175154453342,830,79.85116149673112
1940.647849670973,2075,80.15752982719583
1941.425000193127,698,79.48992551402189
1942.1834241966749,669,78.47568049977687
1942.941848200223,650,79.77871542428504
1943.6815456851646,698,81.14860479417442
1944.4025166515003,801,81.81620910734836
1945.1422141364421,773,80.51317418284019
1945.9193646585961,773,77.61012374490602
1946.7246049586595,792,74.844876334089
1947.5485717773288,877,74.23934833975873
1948.344448818089,924,74.23934833975873
1949.149689118152,679,75.7015608260676
1949.926839640306,1028,77.27214906136172
1950.675900384551,811,80.54020291693087
1951.3875080915836,754,83.6701280227596
1952.0803892800102,735,84.35474340737498
1952.8107235056489,764,81.9844200085164
1953.5878740278029,698,77.39228241637879
1954.4118408464722,679,74.844876334089
1955.2170811465355,688,75.15871706285773
1955.9848684093865,745,76.31456121870188
1956.7713821908435,792,76.31456121870188
1957.5766224909069,839,76.63615110126737
1958.3350464944547,792,76.63615110126737
1959.1215602759119,745,75.53227513227512
1959.9642536131873,745,72.37929606625258
1960.8256734690688,811,70.16811594202898
1961.6870933249504,811,72.1697223677318
1962.4642438471044,792,77.81719592824882
1963.157125035531,745,83.46466948876588
1963.8500062239575,735,85.83499288762445
1964.56161393099,745,84.0081027063039
1965.3013114159319,754,79.98044714376462
1966.106551715995,745,76.71239328819546
1983.1102306103535,679,76.71239328819547
1983.8499280952951,679,75.87518398586988
1984.6832581732676,707,77.08675517134918
1988.8686350817356,726,76.74878048780488
1989.6176958259805,745,79.44878048780487
1990.3667565702256,726,79.44878048780487
1991.1345438330763,688,77.58598979013045
2015.1325774268212,707,75.72319909245603
2015.9378177268843,783,75.4093583636873
2016.7149682490383,830,77.61012374490602
2017.4546657339802,896,80.51317418284017
2018.1756367003159,830,80.20680585237548
2018.9621504817728,792,78.90377092786731
2019.739301003927,820,74.8968445209409
2020.5819943412025,801,73.74100036509674
2021.4059611598718,764,74.05484109386548
2022.1737484227228,726,79.18637262539701
2022.8666296111492,698,82.65390509292948
2023.5876005774849,716,83.3051246051246
2024.3366613217297,716,80.17519949929587
2025.113811843884,726,77.27214906136172
2025.919052143947,707,76.62092954916659
2026.686839406798,707,76.62092954916659
2027.463989928952,764,77.51866000587715
2028.241140451106,801,76.89845094664372
2029.0276542325632,811,77.53388155797794
2029.786078236111,783,79.90420495683654
2030.4976859431438,716,84.14230019493176
2031.1718406129642,716,86.25192982456139
2031.8740850606937,698,86.62666666666667
2043.2972614104278,745,83.9979746835443
2044.0369588953695,792,83.9979746835443
2055.6848534683772,801,81.88834505391466
2056.443277471925,745,80.58531012940651
2057.2204279940793,754,76.1053101294065
2060.347756601301,745,72.70268169452001
2061.218539716486,735,70.1851332398317
2062.0799595723674,707,71.61370466840313
2062.866473353825,688,75.01633310328963
2063.6248973573724,726,80.27894179894179
2064.327141805102,754,84.1106443429731
2065.0106597342256,764,86.60513883746759
2065.703540922652,754,71.90578399875793
2067.1548461146267,754,66.91823729888245
2067.978812933296,801,60.776776689336735
2068.8589593077836,830,70.21352283239425
2069.7203791636653,867,69.41332303219444
2070.5724357602435,811,71.81933054158118
2071.368312801004,745,73.43914853955893
2072.1735531010672,1311,73.18401237137928
2073.0349729569484,1028,72.0546006066734
2073.868303034921,783,71.76911544227886
2074.6829065942875,933,73.68113590263691
2075.4787836350474,1207,77.78639906053165
2076.19039134208,811,81.71467492260061
2076.8926357898094,877,82.9556335282651
2077.6510597933575,801,78.85037037037037
2078.4843898713298,792,85.97037037037036
2080.6566660296403,801,86.98461538461538
2081.387000255279,801,87.25734265734265
2082.2109670739483,745,79.39760239760238
2082.931938040284,707,66.95004995004994
2084.2708841206213,669,71.54218754218755
2084.963765309048,688,73.88643484418132
2085.6285567195655,783,89.90589364624881
2086.2746216114765,858,89.90589364624881
2086.967502799903,877,84.95079836870117
2087.763379840663,820,79.42284805814218
2100.188424935825,811,74.55798319327731
2101.0217550137972,820,74.85714285714286
2101.808268795254,801,76.46654611211574
2102.547966280196,773,79.50452079566004
2103.287663765138,745,78.91315866941419
2104.092904065201,698,76.71239328819546
2104.898144365264,698,75.1029900332226
2105.684658146721,679,77.30375541444131
2106.4243556316633,754,79.85116149673112
2107.154689857302,801,81.460564751704
2107.8943873422436,849,81.1225900681597
2108.6434480864887,820,80.7759493670886
2109.3831455714303,792,83.40464135021097
2110.0573002412507,820,86.37130801687763
2110.731454911071,830,87.81333333333333
2111.433699358801,792,85.88692640692639
2112.1546703251365,1754,83.25823442380404
2112.894367810078,1839,82.51849416406378
2113.615338776414,707,84.03850839640678
2114.298856705537,660,85.48053371286247
2115.001101153267,669,83.47521373163887
2115.778251675421,679,78.48766703176341
2116.6022184940903,773,72.4918775580792
2117.491728127881,811,71.02966507177032
2118.31569494655,792,72.18550922761449
2119.1022087280076,773,74.25302283922973
2119.916812287374,811,75.10970733120834
2120.712689328134,858,76.05150627300728
2121.471113331682,830,79.24004187533598
2122.1920842980176,783,82.97549497549497
2122.884965486444,679,84.71038776301933
2123.5965731934766,698,85.07539118065432
2124.3081809005093,669,83.9507860560492
2125.029151866845,716,84.32552289815447
2125.7313963145743,745,84.70025974025972
2126.433640762304,726,83.33037037037036
2127.1920647658517,698,79.97978213507625
2127.987941806612,707,76.33699143740182
2128.7931821066754,754,75.7015608260676
2129.5703326288294,783,78.67741221925645
2130.281940335862,783,81.94546607482562
2130.9935480428944,754,85.07539118065432
2131.686429231321,764,84.0081027063039
2132.426126716263,773,81.3314109769806
2133.21264049772,764,77.59595787682161
2134.00851753848,698,77.59595787682161
2134.748215023422,669,78.86738644825019
2135.497275767667,660,80.7759493670886
2136.2369732526085,698,81.1225900681597
2136.967307478247,726,82.9025900681597
2137.669551925977,698,85.12488935721812
2138.3530698551003,679,85.48053371286247
2139.074040821436,698,83.70053371286247
2139.8231015656806,726,80.8106301106301
2140.5815255692287,764,79.77037037037036
2141.3305863134738,1481,79.77037037037036
