HR_time,RR-interval,heart_rate
1.4711000960219887,754.0,79.98123276836156
2.2129368965800857,741.0,79.54663222191348
2.9799207073265923,766.0,77.507352734734
3.7971985384499196,817.0,74.64796239061485
4.627049874667452,829.0,72.67250536130535
5.4569012108849835,829.0,72.30172727272726
6.286752547102516,829.0,74.27718430203674
7.053736357849022,766.0,76.68724187779432
7.808146663501325,754.0,79.0972994535519
8.562556969153626,754.0,78.67671827956988
9.342114284994338,779.0,77.82153655913977
10.12167160083505,779.0,76.96635483870968
10.901228916675763,779.0,77.38693601269169
11.668212727422269,766.0,78.2421177331218
12.42262303307457,754.0,77.83488834244079
13.214753854009487,792.0,75.1505908496732
14.06975220041543,855.0,72.38082318798165
14.912177041727167,842.0,70.87346663740122
15.754601883038905,842.0,73.1371829561868
16.534159198879617,779.0,75.47235007143026
17.301143009626124,766.0,76.9797066220107
18.09327383056104,792.0,76.17797375910746
18.897978156590163,804.0,75.35016319444443
19.690108977525078,792.0,76.17797375910746
20.457092788271584,766.0,77.83488834244079
21.211503093923888,754.0,78.2421177331218
21.9910604097646,779.0,75.90695061787834
22.833485251076336,842.0,72.78805257866266
23.68848359748228,855.0,70.52433625987707
24.54348194388822,855.0,72.0316928104575
25.33561276482314,792.0,73.88817973856209
26.127743585758054,792.0,75.74466666666666
26.919874406692973,792.0,74.96779829059828
27.7371522378163,817.0,74.96779829059828
28.529283058751215,792.0,75.37502768127929
29.308840374591927,779.0,77.86363993682036
30.050677175150025,741.0,77.86363993682036
30.842807996084943,792.0,77.06190707391713
31.647512322114064,804.0,74.20251672979796
32.4773636583316,829.0,74.60974612047897
33.25692097417231,779.0,75.4114789833822
34.03647829001302,779.0,75.41147898338221
34.86632962623055,829.0,73.14776266459661
35.721327972636495,855.0,70.21571105169339
36.60147332923085,880.0,70.96885404411763
37.40617765525997,804.0,73.23257036290322
38.18573497110068,779.0,74.250036034545
39.02815981241242,842.0,73.1371829561868
39.87058465372415,842.0,70.87346663740122
40.725583000130094,855.0,71.60395481191327
41.54286083125342,817.0,73.5185407531747
42.32241814709413,779.0,74.98052420905707
43.12712247312326,804.0,74.250036034545
43.969547314435,842.0,70.99793653431783
44.862266176123555,892.0,68.5475698969939
45.75498503781211,892.0,68.54756989699389
46.597409879123845,842.0,70.99793653431784
47.40211420515297,804.0,72.33545009328357
48.2445390464647,842.0,72.33545009328357
49.08696388777644,842.0,71.58230710085934
49.91681522399397,829.0,72.31279527537139
50.7340930551173,817.0,74.64796239061485
51.50107686586381,766.0,77.05801996637243
52.25548717151611,754.0,77.83488834244079
53.04761799245103,792.0,76.61257430555554
53.85232231848015,804.0,74.20251672979796
54.68217365469768,829.0,73.4256483537296
55.499451485821005,817.0,73.04328344988345
56.31672931694433,817.0,73.41406153846154
57.13400714806766,817.0,74.1909299145299
57.92613796900258,792.0,75.37502768127929
58.705695284843294,779.0,77.86363993682036
59.44753208540139,741.0,81.01966771459813
60.15164837067687,704.0,83.2701459262563
60.86833816104656,716.0,83.2701459262563
61.610174961604656,741.0,80.94192871314155
62.37715877235116,766.0,79.1120316754654
63.14414258309767,766.0,78.22809836065574
63.91112639384417,766.0,79.1120316754654
64.65296319440228,741.0,79.1120316754654
65.41994700514879,766.0,77.88971763858015
66.2246513311779,804.0,75.03032729446099
67.05450266739543,829.0,72.69516017921754
67.89692750870717,842.0,72.69516017921754
68.70163183473629,804.0,73.84280664386401
69.4937626556712,792.0,74.95565972222221
70.29846698170033,804.0,74.20251672979796
71.12831831791786,829.0,73.4256483537296
71.9455961490412,817.0,73.04328344988345
72.76287398016451,817.0,74.59815930521091
73.54243129600523,779.0,75.37502768127928
74.33456211694015,792.0,75.37502768127929
75.15183994806347,817.0,74.57329481837607
75.9565442740926,804.0,74.98052420905707
76.73610158993331,779.0,77.01980369623655
77.49051189558561,754.0,78.2421177331218
78.25749570633212,766.0,77.05801996637243
79.07477353745544,817.0,75.01874047919293
79.89205136857876,817.0,74.1909299145299
80.68418218951369,792.0,76.67954217007097
81.42601899007178,741.0,80.11411814847852
82.14270878044147,716.0,83.2701459262563
82.84682506571696,704.0,84.71442982456138
83.55094135099243,704.0,85.21274999999999
84.25505763626792,704.0,80.90907575757575
85.08490897248545,829.0,74.59702020202019
85.99020133926821,905.0,68.9161702020202
86.87034669586257,880.0,68.20732973856208
87.7253450422685,855.0,68.83853529411763
88.60549039886286,880.0,68.83853529411763
89.48563575545721,880.0,68.1702
90.36578111205156,880.0,69.54737575757575
91.1956324482691,829.0,70.9245515151515
92.02548378448662,829.0,71.59288680926915
92.88048213089256,855.0,70.88404634581103
93.73548047729851,855.0,70.88404634581104
94.56533181351604,829.0,71.59288680926915
95.39518314973357,829.0,71.59288680926915
96.25018149613952,855.0,70.54503568937454
97.11775334763966,867.0,69.83619522591644
97.9727516940456,855.0,70.54503568937454
98.80260303026314,829.0,70.54503568937454
99.67017488176329,867.0,70.20602503293806
100.53774673326343,867.0,69.49718456947996
101.39274507966937,855.0,70.18532560344059
102.23516992098111,842.0,71.98631971575944
103.03987424701023,804.0,73.44830317164178
103.84457857303936,804.0,73.80801325757575
104.67442990925689,829.0,73.80801325757575
105.47913423528601,804.0,76.37908761102403
106.2083975307499,729.0,80.68276185344827
106.91251381602538,704.0,84.23329310344826
107.61663010130087,704.0,85.21274999999999
108.32074638657635,704.0,84.23329310344826
109.05000968204024,729.0,82.78900920514317
109.79184648259833,741.0,81.80955230859146
110.52110977806223,729.0,81.80955230859146
111.25037307352612,729.0,81.36021954022988
112.00478337917842,754.0,80.44605977011494
112.75919368483072,754.0,79.0972994535519
113.52617749557723,766.0,78.2421177331218
114.30573481141793,779.0,77.80751718667372
115.07271862216444,766.0,76.20283824594232
115.88999645328778,817.0,74.28825230468088
116.7324212945995,842.0,71.95308518943742
117.57484613591124,842.0,71.22259701492537
118.41727097722298,842.0,71.22259701492537
119.25969581853472,842.0,71.58230710085934
120.08954715475225,829.0,71.9420171867933
120.91939849096978,829.0,73.85660312805473
121.6989558068105,779.0,75.4114789833822
122.47851312265121,779.0,77.82153655913979
123.23292342830351,754.0,77.41430716845878
124.02505424923842,792.0,76.2302094017094
124.84233208036176,817.0,70.64902343679711
125.79791846752134,955.0,72.82559431802318
126.52718176298524,729.0,74.86487380520265
127.28159206863754,754.0,80.01145922366685
128.04857587938403,766.0,77.44038487021857
128.85328020541317,804.0,75.78347028688523
129.65798453144228,804.0,75.36288911290322
130.437541847283,779.0,77.46913646459814
131.1793786478411,741.0,78.69145050148339
131.9463624585876,766.0,78.69145050148337
132.72591977442832,779.0,77.38693601269169
133.505477090269,779.0,78.27086932750136
134.24731389082712,741.0,80.52134753915954
134.9640036811968,716.0,80.94192871314155
135.73098749194332,766.0,78.83568136144663
136.53569181797243,804.0,74.32148683100289
137.39069016437838,855.0,72.71680789027148
138.20796799550172,817.0,73.5185407531747
138.9875253113424,779.0,75.78225707196029
139.76708262718313,779.0,76.96635483870968
140.54663994302385,779.0,78.27086932750136
141.28847674358192,741.0,80.52134753915954
142.00516653395164,716.0,83.78658683534721
142.6967093141329,691.0,84.73255055821369
143.4133991045026,716.0,83.78658683534721
144.1552359050607,741.0,81.37652925958963
144.909646210713,754.0,80.43056553672315
145.6514830112711,741.0,81.87484943502824
146.35559929654656,704.0,82.78900920514317
147.08486259201047,729.0,81.9050758903335
147.85184640275696,766.0,79.15627750323674
148.63140371859768,779.0,78.2421177331218
149.38581402424998,754.0,79.59087804968482
150.11507731971386,729.0,80.89539253847651
150.85691412027197,741.0,80.89539253847651
151.61132442592427,754.0,79.12605104793147
152.39088174176499,779.0,78.67671827956988
153.14529204741729,754.0,80.07201477079795
153.86198183778697,716.0,82.32249298245613
154.57867162815666,716.0,82.7718257508177
155.32050842871476,741.0,81.82586202795122
156.06234522927284,741.0,81.34472530683809
156.79160852473674,729.0,82.78900920514317
157.49572481001223,704.0,83.25383620689655
158.22498810547611,729.0,82.3396764367816
158.97939841112841,754.0,80.44605977011494
159.73380871678071,754.0,80.44605977011494
160.46307201224462,729.0,81.36021954022988
161.1923353077085,729.0,80.9256189937818
161.959319118455,766.0,79.15627750323674
162.73887643429572,779.0,76.58520314978847
163.54358076032483,804.0,76.58520314978847
164.31056457107135,766.0,77.44038487021857
165.06497487672365,754.0,78.2421177331218
165.84453219256437,779.0,78.2421177331218
166.61151600331087,766.0,79.15627750323674
167.34077929877475,729.0,81.40675571489491
168.05746908914446,716.0,82.75551603145794
168.78673238460834,729.0,81.40675571489491
169.55371619535484,766.0,80.46079199202842
170.29555299591294,741.0,79.99596499027507
171.03738979647105,741.0,80.43056553672315
171.79180010212335,754.0,78.32431818502823
172.59650442815246,804.0,76.61257430555554
173.38863524908737,792.0,77.06190707391713
174.13047204964548,741.0,78.28422111080238
174.897455860392,766.0,79.1120316754654
175.6644396711385,766.0,78.22809836065574
176.431423481885,766.0,79.57685867721875
177.1606867773489,729.0,80.9256189937818
177.88995007281278,729.0,81.36021954022988
178.64436037846508,754.0,80.01145922366685
179.4113441892116,766.0,80.01145922366685
180.14060748467548,729.0,80.9256189937818
180.86987078013937,729.0,81.36021954022988
181.62428108579167,754.0,80.44605977011494
182.378691391444,754.0,79.98123276836156
183.12052819200207,741.0,80.43056553672315
183.86236499256017,741.0,81.34472530683809
184.59162828802405,729.0,81.34472530683809
185.33346508858216,741.0,80.46079199202842
186.10044889932868,766.0,79.1120316754654
186.86743271007518,766.0,78.22809836065574
187.63441652082167,766.0,79.1120316754654
188.37625332137978,741.0,80.94192871314155
189.09294311174946,716.0,80.94192871314155
189.859926922496,766.0,78.83568136144663
190.6646312485251,804.0,74.67061720852703
191.50705608983682,842.0,73.06593826779563
192.32433392096016,817.0,73.06593826779563
193.1290382469893,804.0,75.4011053830391
193.8960220577358,766.0,76.58520314978847
194.6755793735765,779.0,76.9797066220107
195.46771019451143,792.0,76.55912544802867
196.24726751035212,779.0,78.32846693857371
196.97653080581603,729.0,79.59087804968483
197.73094111146833,754.0,79.18364865900382
198.52307193240324,792.0,75.1505908496732
199.3780702788092,855.0,72.0316928104575
200.2330686252151,855.0,72.85950337512052
201.00005243596163,766.0,78.92402734026214
201.6790217110487,678.0,85.54432978199355
202.34541748104158,666.0,88.38898790419921
203.03696026122284,691.0,86.35752174838822
203.76622355668673,729.0,82.42151679942441
204.53320736743325,766.0,79.15627750323674
205.31276468327397,779.0,76.58520314978847
206.11746900930308,804.0,73.90090565702086
206.97246735570903,855.0,70.96885404411763
207.85261271230337,880.0,68.20732973856208
208.75790507908613,905.0,68.20732973856208
209.61290342549208,855.0,69.22479541020387
210.4553282668038,842.0,72.78805257866266
211.23488558264452,779.0,75.90695061787835
211.98929588829682,754.0,78.67671827956988
212.74370619394912,754.0,78.26948888888887
213.53583701488404,792.0,76.2302094017094
214.35311484600737,817.0,74.57329481837607
215.15781917203648,804.0,73.79642644230769
215.97509700315982,817.0,74.98052420905707
216.75465431900054,779.0,75.37502768127928
217.54678513993545,792.0,76.15189605734767
218.33891596087037,792.0,74.96779829059828
219.1561937919937,817.0,73.46044174001786
219.99861863330543,842.0,71.60395481191327
220.85361697971138,855.0,69.85600096575942
221.73376233630572,880.0,70.21571105169339
222.56361367252327,829.0,72.47942737047897
223.34317098836397,779.0,75.0042495927012
224.13530180929888,792.0,76.9797066220107
224.9022856200454,766.0,77.40028779599271
225.6692694307919,766.0,78.22809836065574
226.43625324153842,766.0,79.1120316754654
227.1780900420965,741.0,79.54663222191348
227.9325003477488,754.0,79.12605104793147
228.71205766358952,779.0,77.82153655913977
229.49161497943024,779.0,76.55912544802867
230.28374580036515,792.0,76.55912544802867
231.06330311620587,779.0,77.41430716845878
231.81771342185817,754.0,77.41430716845878
232.6098442427931,792.0,77.00707777777777
233.401975063728,792.0,75.74466666666666
234.19410588466292,792.0,75.74466666666666
234.98623670559783,792.0,77.00707777777777
235.74064701125013,754.0,78.26948888888887
236.49505731690243,754.0,79.5319
237.24946762255473,754.0,79.5319
238.00387792820703,754.0,79.98123276836156
238.74571472876514,741.0,80.89539253847651
239.47497802422902,729.0,81.80955230859146
240.20424131969293,729.0,80.9256189937818
240.97122513043942,766.0,79.15627750323674
241.75078244628014,779.0,77.38693601269169
242.53033976212086,779.0,78.73569632925472
243.25960305758474,729.0,80.0402108180464
244.00143985814285,741.0,80.0402108180464
244.78099717398356,779.0,78.27086932750136
245.56055448982426,779.0,76.96635483870968
246.34011180566498,779.0,78.27086932750136
247.08194860622308,741.0,79.57538381629305
247.82378540678116,741.0,78.77365095338982
248.6284897328103,804.0,77.06190707391713
249.4206205537452,792.0,75.75739258512544
250.20017786958593,779.0,76.9797066220107
250.96716168033242,766.0,76.58520314978847
251.77186600636153,804.0,74.67061720852703
252.6142908476733,842.0,72.69516017921754
253.44414218389082,829.0,71.58230710085932
254.28656702520254,842.0,72.31279527537139
255.10384485632588,817.0,70.61557163047169
255.99656371801444,892.0,68.369814066938
256.9270030949856,930.0,64.82790758920521
257.8825894821452,955.0,64.51674992097361
258.78788184892795,905.0,66.07436645054665
259.6554537004281,867.0,67.8683190821256
260.53559905702247,880.0,68.49952463768115
261.41574441361684,880.0,68.1702
262.29588977021115,880.0,68.83853529411763
263.1508881166171,855.0,69.85600096575942
263.9933129579288,842.0,70.52433625987707
264.8483113043348,855.0,70.18532560344059
265.71588315583494,867.0,70.54503568937454
266.5457344920525,829.0,72.40152261747912
267.3378653129874,792.0,74.59702020202019
268.1299961339223,792.0,74.59702020202019
268.95984747013983,829.0,73.82015182595183
269.77712530126314,817.0,73.82015182595183
270.56925612219806,792.0,74.1909299145299
271.3865339533214,817.0,73.82015182595183
272.21638528953895,829.0,70.97528171640565
273.1091041512275,892.0,70.2447935418936
273.95152899253924,842.0,70.61557163047169
274.76880682366254,817.0,72.31279527537139
275.5986581598801,829.0,71.96366489784724
276.45365650628605,855.0,71.23317672333518
277.29608134759775,842.0,71.98631971575944
278.1007856736269,804.0,73.84280664386401
278.8929164945618,792.0,74.95565972222221
279.69762082059094,804.0,73.84280664386401
280.54004566190264,842.0,73.06593826779563
281.357323493026,817.0,73.46044174001784
282.1494543139609,792.0,74.57329481837607
282.95415863999,804.0,74.57329481837607
283.77143647111336,817.0,73.06593826779563
284.6138613124251,842.0,73.06593826779563
285.4185656384542,804.0,74.250036034545
286.19812295429494,779.0,76.16462197580644
286.97768027013564,779.0,75.78225707196029
287.79495810125894,817.0,74.22738121663282
288.6248094374765,829.0,72.67250536130535
289.454660773694,829.0,72.30172727272726
290.28451210991153,829.0,71.59288680926915
291.1395104563175,855.0,71.23317672333518
291.98193529762926,842.0,71.98631971575944
292.78663962365835,804.0,73.84280664386401
293.57877044459326,792.0,75.35016319444443
294.3709012655282,792.0,75.35016319444443
295.1756055915573,804.0,74.20251672979796
296.00545692777484,829.0,72.0070191452569
296.873028779275,867.0,70.20602503293806
297.74060063077513,867.0,69.8463149470041
298.5830254720869,842.0,70.89416606689869
299.4128768083044,829.0,71.58230710085932
300.2553016496162,842.0,71.23317672333518
301.1102999960221,855.0,69.85600096575942
301.99044535261646,880.0,70.21571105169339
302.820296688834,829.0,71.67769450757575
303.6250010148631,804.0,73.05487026515151
304.4548523510806,829.0,72.34602980169339
305.3098506974866,855.0,71.59288680926915
306.1397020337041,829.0,72.74053327391562
306.931832854639,792.0,73.44937373737372
307.76168419085656,829.0,72.74053327391562
308.6166825372625,855.0,70.88404634581103
309.47168088366845,855.0,71.63718933823529
310.27638520969754,804.0,73.90090565702086
311.0559425255383,779.0,75.36288911290322
311.86064685156737,804.0,74.98052420905707
312.67792468269073,817.0,73.4256483537296
313.50777601890826,829.0,73.04328344988345
314.32505385003157,817.0,73.82015182595183
315.1171846709665,792.0,74.1909299145299
315.93446250208984,817.0,73.46044174001786
316.77688734340154,842.0,72.68357336394948
317.5941651745249,817.0,73.46044174001784
318.3862959954598,792.0,73.82015182595183
319.21614733167735,829.0,73.08966365143976
320.0585721729891,842.0,71.58230710085932
320.9009970143008,842.0,71.95308518943742
321.71827484542416,817.0,73.46044174001784
322.5104056663591,792.0,73.82015182595183
323.3402570025766,829.0,73.44937373737372
324.17010833879414,829.0,71.9420171867933
325.01253318010583,842.0,72.69516017921754
325.817237506135,804.0,73.84280664386401
326.6093683270699,792.0,74.95565972222221
327.414072653099,804.0,73.84280664386401
328.2564974944108,842.0,72.33545009328357
329.0989223357225,842.0,71.95308518943742
329.91620016684584,817.0,73.46044174001784
330.70833098778076,792.0,74.96779829059828
331.50046180871567,792.0,74.96779829059828
332.317739639839,817.0,75.7956088552613
333.0847234505855,766.0,76.62341941992433
333.85170726133197,766.0,78.22809836065574
334.6186910720785,766.0,79.57685867721875
335.3479543675424,729.0,80.46079199202842
336.0897911681005,741.0,82.29068902970458
336.80648095847016,716.0,82.7718257508177
337.52317074883985,716.0,84.21610964912279
338.22728703411536,704.0,80.05104549620317
339.06971187542706,842.0,76.61646951779562
339.8869897065504,817.0,74.72285285112896
340.6414000122027,754.0,73.70538717948718
341.52154536879704,880.0,72.28675797101448
342.38911722029724,867.0,70.247478483835
343.20639505142054,817.0,73.17953009673822
343.98595236726123,779.0,75.78225707196029
344.765509683102,779.0,77.82153655913979
345.5199199887543,754.0,79.12605104793147
346.26175678931236,741.0,81.87484943502824
346.9658730745878,704.0,83.7684661016949
347.66998935986334,704.0,85.72919090909089
348.3615321400446,691.0,85.2308707336523
349.07822193041426,716.0,85.7473116427432
349.76976471059555,691.0,85.7473116427432
350.46130749077685,691.0,87.85341955403085
351.1277032607697,666.0,88.38898790419921
351.80667253585676,678.0,88.92455625436757
352.48564181094383,678.0,88.92455625436757
353.15203758093674,666.0,88.38898790419921
353.843580361118,691.0,89.52192095263226
354.49740262601665,653.0,90.0990755244755
355.15122489091533,653.0,91.19042235123365
355.8176206609082,666.0,90.6132677793904
356.484016430901,666.0,88.944766380789
357.1755592110823,691.0,88.38898790419921
357.8545284861694,678.0,87.83320942760942
358.53349776125646,678.0,88.36877777777778
359.2124670363435,678.0,87.31676851851851
359.91658332161904,704.0,85.28530236270753
360.6458466170829,729.0,82.3396764367816
361.4002569227352,754.0,80.44605977011494
362.1546672283875,754.0,80.44605977011494
362.8839305238514,729.0,80.89539253847651
363.6257673244095,741.0,80.0402108180464
364.4053246402502,779.0,78.27086932750136
365.1848819560909,779.0,77.82153655913979
365.9392922617432,754.0,79.59087804968482
366.6685555572071,729.0,81.84135626134301
367.3852453475768,716.0,82.75551603145794
368.1145086430407,729.0,81.84135626134301
368.868918948693,754.0,79.59087804968483
369.6484762645337,779.0,78.2421177331218
370.41546007528024,766.0,78.69145050148339
371.1572968758383,741.0,79.99596499027507
371.89913367639645,741.0,80.43056553672315
372.65354398204875,754.0,79.54663222191348
373.4205277927952,766.0,77.83488834244079
374.2126586137301,792.0,78.28422111080238
374.95449541428826,741.0,80.11411814847852
375.67118520465795,716.0,81.37652925958963
376.42559551031025,754.0,79.27028190789473
377.2302998363393,804.0,74.75608737745097
378.0852981827453,855.0,71.29817868179879
378.95287003424545,867.0,71.29817868179879
379.7575743602746,804.0,73.15466560990336
380.5497051812095,792.0,74.57329481837607
381.3669830123328,817.0,74.57329481837607
382.17168733836195,804.0,73.79642644230769
382.98896516948525,817.0,72.71680789027148
383.8439635158912,855.0,70.91581377795264
384.7115353673913,867.0,68.84781204447485
385.6042542290799,892.0,69.55665250793297
386.43410556529744,829.0,71.35764662025181
387.2388098913266,804.0,74.60974612047897
388.0183672071673,779.0,77.01980369623655
388.7727775128196,754.0,80.07201477079795
389.48946730318926,716.0,81.37652925958963
390.23130410374733,741.0,80.52134753915954
391.0108614195881,779.0,77.08677156075198
391.8281392507114,817.0,74.22738121663282
392.6579905869289,829.0,72.67250536130535
393.48784192314645,829.0,71.9420171867933
394.3302667644582,842.0,72.31279527537139
395.1475445955815,817.0,73.06593826779563
395.95224892161065,804.0,72.71680789027148
396.80724726801657,855.0,71.29817868179879
397.6748191195167,867.0,70.18532560344059
398.51724396082847,842.0,69.8463149470041
399.3848158123286,867.0,69.51699030932295
400.264961168923,880.0,67.8683190821256
401.17025353570574,905.0,67.8683190821256
402.0378253872059,867.0,68.88578475376738
402.88025022851764,842.0,69.8463149470041
403.7478220800178,867.0,69.51699030932295
404.6279674366121,880.0,69.51699030932294
405.47039227792385,842.0,71.31798442164178
406.275096603953,804.0,72.33545009328357
407.1175214452647,842.0,72.33545009328357
407.95994628657644,842.0,71.58230710085934
408.78979762279397,829.0,71.58230710085932
409.6322224641057,842.0,72.31279527537139
410.44950029522903,817.0,72.31279527537139
411.27935163144656,829.0,72.67250536130535
412.1092029676641,829.0,72.30172727272726
412.9390543038816,829.0,72.67250536130535
413.756332135005,817.0,73.4256483537296
414.56103646103406,804.0,75.4011053830391
415.3280202717806,766.0,75.4011053830391
416.14529810290395,817.0,74.64796239061485
416.9751494391215,829.0,71.96366489784724
417.8301477855274,855.0,71.59288680926915
418.65999912174493,829.0,71.96366489784724
419.47727695286824,817.0,73.04328344988345
420.2945547839916,817.0,73.04328344988345
421.12440612020913,829.0,71.96366489784724
421.97940446661505,855.0,70.54503568937454
422.8469763181152,867.0,71.29817868179879
423.65168064414434,804.0,73.56189500058437
424.431237959985,779.0,75.75739258512544
425.22336878091994,792.0,76.15189605734767
426.01549960185486,792.0,75.35016319444443
426.820203927884,804.0,73.49367626633986
427.6752022742899,855.0,73.90090565702086
428.45475959013066,779.0,74.7026385199241
429.23431690597135,779.0,76.55912544802867
430.02644772690627,792.0,76.15189605734767
430.8185785478412,792.0,74.96779829059828
431.63585637896455,817.0,73.82015182595183
432.4657077151821,829.0,72.31279527537139
433.3081325564938,842.0,71.9420171867933
434.1379838927113,829.0,73.49689304212076
434.91754120855205,779.0,76.71599347217389
435.6593780091101,741.0,79.57538381629305
436.4012148096682,741.0,79.99596499027507
437.1681986204147,766.0,79.1120316754654
437.93518243116125,766.0,79.1120316754654
438.6770192317193,741.0,80.46079199202842
439.40628252718324,729.0,80.89539253847651
440.16069283283554,754.0,80.44605977011494
440.91510313848784,754.0,77.87498541666666
441.719807464517,804.0,77.01980369623655
442.49936478035767,779.0,76.58520314978847
443.2663485911042,766.0,76.58520314978847
444.0710529171333,804.0,75.78347028688523
444.8757572431624,804.0,73.80801325757575
445.70560857937994,829.0,74.20251672979796
446.49773940031486,792.0,76.30876408149288
447.239576200873,741.0,79.6329814273654
447.96883949633684,729.0,81.80955230859146
448.69810279180075,729.0,81.36021954022988
449.45251309745305,754.0,81.36021954022988
450.18177639291696,729.0,81.36021954022988
450.9110396883808,729.0,83.25383620689654
451.61515597365633,704.0,82.3396764367816
452.36956627930863,754.0,80.99091612021857
453.13655009005515,766.0,78.2421177331218
453.91610740589584,779.0,76.58520314978847
454.720811731925,804.0,76.58520314978847
455.48779554267145,766.0,75.78347028688523
456.2924998687006,804.0,75.03032729446099
457.1223512049181,829.0,73.05487026515151
457.95220254113565,829.0,72.67250536130535
458.76948037225895,817.0,74.22738121663282
459.5490376880997,779.0,75.37502768127928
460.3411685090346,792.0,75.37502768127929
461.1584463401579,817.0,74.96779829059828
461.95057716109284,792.0,76.2302094017094
462.70498746674514,754.0,77.83488834244079
463.47197127749166,766.0,77.05801996637243
464.28924910861497,817.0,74.64796239061485
465.1191004448325,829.0,73.4256483537296
465.92380477086164,804.0,75.46492784090908
466.67821507651394,754.0,77.01980369623655
467.4577723923547,779.0,77.41430716845878
468.2499032132896,792.0,75.37502768127929
469.0671810444129,817.0,74.57329481837607
469.87188537044204,804.0,74.98052420905707
470.65144268628273,779.0,75.36288911290322
471.4561470123119,804.0,75.36288911290322
472.26085133834096,804.0,74.56115625
473.0655556643701,804.0,74.95565972222221
473.857686485305,792.0,74.95565972222221
474.66239081133415,804.0,74.95565972222221
475.4670951373633,804.0,74.95565972222221
476.2592259582982,792.0,75.75739258512544
477.0387832741389,779.0,76.15189605734767
477.8309140950738,792.0,76.15189605734767
478.6230449160087,792.0,76.57247723132969
479.39002872675525,766.0,77.40028779599271
480.1570125375017,766.0,77.40028779599271
480.94914335843663,792.0,76.17797375910746
481.75384768446577,804.0,75.35016319444443
482.5459785054007,792.0,76.61257430555554
483.300388811053,754.0,77.83488834244079
484.0673726217995,766.0,77.44038487021857
484.87207694782865,804.0,76.17797375910746
485.66420776876356,792.0,76.61257430555554
486.41861807441586,754.0,78.71882165725046
487.16045487497394,741.0,79.12605104793147
487.9400121908146,779.0,77.46913646459814
488.74471651684377,804.0,75.75739258512544
489.5368473377787,792.0,76.61257430555554
490.291257643431,754.0,77.83488834244079
491.0582414541775,766.0,78.2421177331218
491.8377987700182,779.0,77.80751718667372
492.6047825807647,766.0,78.2421177331218
493.359192886417,754.0,80.49259594477996
494.0758826767867,716.0,81.37652925958963
494.8177194773448,741.0,80.52134753915954
495.59727679318553,779.0,76.00715300871578
496.45227513959145,855.0,72.43892220113851
497.3072734859974,855.0,71.25482443438912
498.12455131712073,817.0,71.96366489784724
498.95440265333826,829.0,72.67250536130535
499.7842539895558,829.0,71.9420171867933
500.62667883086755,842.0,72.31279527537139
501.44395666199085,817.0,73.06593826779563
502.24866098802,804.0,73.06593826779563
503.0910858293317,842.0,71.64730905932294
503.95865768083183,867.0,70.18532560344059
504.8136560272378,855.0,71.29817868179879
505.61836035326695,804.0,73.49367626633986
506.41049117420187,792.0,76.61257430555554
507.16490147985417,754.0,76.61257430555554
507.96960580588325,804.0,74.75608737745097
508.8246041522892,855.0,71.63718933823527
509.67960249869515,855.0,70.17520588235293
510.53460084510107,855.0,71.25482443438912
511.35187867622443,817.0,72.33444298642533
512.1691565073478,817.0,72.33444298642533
513.0241548537537,855.0,70.58648914027148
513.9043002103481,880.0,68.83853529411763
514.7844455669424,880.0,68.83853529411763
515.6394439133484,855.0,69.16785993179879
516.5070157648485,867.0,68.53665437624323
517.4123081316312,905.0,69.24549483970135
518.2421594678488,829.0,71.84822181492342
519.0217167836895,779.0,75.0042495927012
519.8138476046244,792.0,75.75739258512544
520.6185519306536,804.0,74.57329481837607
521.4358297617769,817.0,73.79642644230769
522.2531075929002,817.0,75.01874047919293
523.0200914036467,766.0,75.01874047919293
523.83736923477,817.0,74.28825230468088
524.6797940760817,842.0,72.31279527537139
525.5096454122993,829.0,72.31279527537139
526.3269232434226,817.0,72.31279527537139
527.1693480847343,842.0,71.95308518943742
528.0117729260461,842.0,71.95308518943742
528.8290507571694,817.0,73.46044174001784
529.6211815781044,792.0,73.82015182595183
530.4510329143219,829.0,73.08966365143976
531.2934577556337,842.0,73.08966365143976
532.0855885765685,792.0,74.64453950676723
532.8651458924093,779.0,76.15189605734767
533.6572767133441,792.0,75.75739258512544
534.4619810393733,804.0,76.17797375910746
535.2289648501197,766.0,77.88971763858015
535.9708016506779,741.0,79.54663222191348
536.7252119563302,754.0,78.32431818502823
537.5299162823593,804.0,76.61257430555554
538.3220471032943,792.0,75.75739258512544
539.1016044191349,779.0,76.55912544802867
539.8811617349756,779.0,75.05176889744824
540.7235865762874,842.0,74.64453950676723
541.5157173972223,792.0,75.06512068074926
542.2827012079688,766.0,76.57247723132969
543.0748320289038,792.0,75.7956088552613
543.8921098600271,817.0,74.1909299145299
544.7093876911504,817.0,73.79642644230769
545.5140920171795,804.0,74.17879134615384
546.3187963432086,804.0,74.56115625
547.1235006692377,804.0,74.56115625
547.9282049952668,804.0,74.17879134615384
548.7454828263902,817.0,74.17879134615384
549.5501871524193,804.0,74.98052420905707
550.3297444682601,779.0,74.98052420905707
551.1470222993834,817.0,74.59815930521091
551.9643001305067,817.0,72.68357336394948
552.8067249718184,842.0,72.68357336394948
553.6240028029417,817.0,71.95308518943742
554.4664276442535,842.0,71.95308518943742
555.3088524855652,842.0,71.58230710085934
556.1387038217828,829.0,72.31279527537139
556.9559816529061,817.0,74.22738121663282
557.7355389687468,779.0,74.59815930521091
558.5528167998701,817.0,74.22738121663282
559.3826681360877,829.0,71.96366489784724
560.2376664824936,855.0,71.96366489784724
561.0549443136169,817.0,72.71680789027148
561.859648639646,804.0,73.79642644230769
562.6769264707693,817.0,73.06593826779563
563.5193513120811,842.0,73.86767113069885
564.2989086279218,779.0,75.05176889744824
565.0784659437625,779.0,76.16462197580645
565.8831702697917,804.0,74.60974612047897
566.7130216060092,829.0,73.80801325757575
567.5177259320383,804.0,75.03032729446099
568.2847097427848,766.0,76.58520314978847
569.0642670586255,779.0,76.58520314978847
569.8689713846546,804.0,75.75739258512544
570.6611022055896,792.0,75.75739258512544
571.4406595214302,779.0,76.15189605734767
572.2327903423652,792.0,75.37502768127929
573.0500681734885,817.0,74.57329481837607
573.8547724995176,804.0,74.17879134615384
574.6594768255468,804.0,73.80801325757575
575.4893281617643,829.0,72.69516017921754
576.3317530030761,842.0,72.69516017921754
577.1364573291052,804.0,74.67061720852703
577.9034411398517,766.0,76.17797375910746
578.6955719607865,792.0,76.17797375910746
579.5002762868157,804.0,77.52673407567049
580.2295395822796,729.0,80.68276185344827
580.9336558675551,704.0,82.78900920514317
581.6754926681132,741.0,81.44024888858016
582.4424764788597,766.0,77.88971763858015
583.2471808048888,804.0,75.4011053830391
584.0644586360121,817.0,74.17879134615384
584.8691629620413,804.0,73.79642644230769
585.6864407931646,817.0,72.377797233835
586.5540126446647,867.0,69.61627292827944
587.4593050114474,905.0,67.8683190821256
588.3394503680419,880.0,69.28694829059829
589.1567281991652,817.0,73.27078663303908
589.9237120099117,766.0,76.20283824594232
590.7032693257523,779.0,76.9797066220107
591.4954001466873,792.0,76.55912544802867
592.274957462528,779.0,77.41430716845878
593.0293677681804,754.0,80.57033494623654
593.7334840534558,704.0,84.92692106918237
594.3998798234486,666.0,89.00548004354135
595.0537020883473,653.0,91.19042235123365
595.707524353246,653.0,90.63464387464386
596.386493628333,678.0,88.96614247604245
597.0780364085143,691.0,87.83320942760942
597.7570056836014,678.0,86.78120016835015
598.4611219688769,704.0,83.10873148148147
599.2532527898118,792.0,77.393337893864
600.0956776311235,842.0,72.7299535655058
600.9381024724353,842.0,70.53445598096474
601.8056743239354,867.0,70.89416606689869
602.6355256601529,829.0,73.22933318214214
603.4025094708994,766.0,76.68724187779432
604.1569197765517,754.0,78.66269890710382
604.9239035872982,766.0,78.66269890710382
605.6908873980448,766.0,77.8075171866737
606.4704447138855,779.0,78.69145050148339
607.2122815144436,741.0,79.57538381629305
607.9541183150017,741.0,81.82586202795122
608.6708081053714,716.0,82.29068902970458
609.4000714008353,729.0,81.40675571489491
610.1670552115818,766.0,80.01145922366685
610.9214655172341,754.0,79.0972994535519
611.6758758228864,754.0,79.98123276836156
612.4177126234445,741.0,80.89539253847651
613.1469759189083,729.0,81.80955230859146
613.8762392143723,729.0,81.80955230859146
614.6180760149304,741.0,80.89539253847651
615.3724863205827,754.0,80.43056553672315
616.1143231211407,741.0,80.89539253847651
616.8435864166046,729.0,80.46079199202842
617.6105702273511,766.0,78.74904811255573
618.4027010482861,792.0,75.42483076668321
619.2325523845036,829.0,74.20251672979796
620.0372567105327,804.0,75.03032729446099
620.8042405212792,766.0,75.78347028688523
621.6089448473083,804.0,76.17797375910746
622.4010756682433,792.0,75.75739258512544
623.180632984084,779.0,77.86363993682036
623.9224697846421,741.0,78.27086932750136
624.7020271004827,779.0,77.86363993682036
625.4941579214177,792.0,75.75739258512544
626.2988622474468,804.0,75.75739258512544
627.0784195632875,779.0,77.01980369623655
627.8328298689398,754.0,78.2421177331218
628.5998136796863,766.0,79.0972994535519
629.3542239853386,754.0,79.54663222191348
630.0960607858967,741.0,80.89539253847651
630.8253240813606,729.0,81.80955230859146
631.5545873768245,729.0,80.9256189937818
632.3215711875711,766.0,80.46079199202842
633.0634079881291,741.0,79.99596499027507
633.8052447886872,741.0,80.87989830508474
634.5470815892453,741.0,79.57538381629304
635.326638905086,779.0,77.08677156075198
636.1439167362093,817.0,75.37502768127928
636.9360475571443,792.0,76.2302094017094
637.6904578627966,754.0,79.18364865900382
638.4197211582605,729.0,82.8561173458725
639.1112639384418,691.0,84.74973401253916
639.8153802237172,704.0,83.83557424242423
640.5697905293696,754.0,79.38623717948717
641.3870683604929,817.0,75.45334102564102
642.2043461916162,817.0,73.41406153846154
643.0216240227395,817.0,74.1909299145299
643.8137548436745,792.0,75.37502768127929
644.5933121595151,779.0,76.15189605734767
645.3854429804501,792.0,75.75739258512544
646.1901473064792,804.0,74.95565972222221
646.9948516325082,804.0,75.78347028688523
647.7618354432548,766.0,75.78347028688523
648.566539769284,804.0,75.03032729446099
649.3963911055015,829.0,73.4256483537296
650.2136689366248,817.0,73.4256483537296
651.0183732626539,804.0,73.79642644230769
651.8356510937772,817.0,73.79642644230769
652.6529289249006,817.0,73.41406153846154
653.4702067560239,817.0,74.1909299145299
654.2623375769588,792.0,74.96779829059828
655.0544683978937,792.0,74.96779829059828
655.871746229017,817.0,74.1909299145299
656.6890240601404,817.0,74.59815930521091
657.4685813759811,779.0,75.78225707196029
658.2481386918219,779.0,76.16462197580645
659.0528430178509,804.0,75.75739258512544
659.8449738387858,792.0,74.95565972222221
660.649678164815,804.0,75.75739258512544
661.4292354806556,779.0,75.75739258512544
662.2213663015906,792.0,76.55912544802867
663.0009236174313,779.0,76.55912544802867
663.780480933272,779.0,76.96635483870968
664.5600382491127,779.0,77.82153655913979
665.314448554765,754.0,77.82153655913977
666.0940058706058,779.0,78.2421177331218
666.8609896813523,766.0,77.80751718667372
667.6279734920987,766.0,79.57685867721875
668.3572367875627,729.0,81.40675571489491
669.0739265779323,716.0,84.25141383710057
669.7654693581136,691.0,86.83865846950135
670.4318651281064,666.0,89.52192095263226
671.0856873930052,653.0,91.19042235123365
671.7395096579038,653.0,91.19042235123365
672.4059054278966,666.0,90.0574893028006
673.0848747029837,678.0,89.48033473095737
673.7512704729766,666.0,87.87254699510831
674.4553867582521,704.0,84.92692106918238
675.2097970639044,754.0,80.57033494623654
675.9893543797451,779.0,78.2421177331218
676.7563381904916,766.0,78.69145050148339
677.4981749910497,741.0,79.99596499027507
678.2400117916078,741.0,80.43056553672315
678.9944220972601,754.0,80.43056553672315
679.7362588978182,741.0,80.43056553672315
680.4780956983763,741.0,81.34472530683809
681.2073589938402,729.0,82.29068902970458
681.9240487842098,716.0,82.75551603145794
682.6533120796738,729.0,82.29068902970458
683.3951488802319,741.0,80.46079199202842
684.1621326909784,766.0,79.99596499027507
684.9039694915365,741.0,80.46079199202842
685.6332327870003,729.0,80.0402108180464
686.4127901028411,779.0,78.32846693857371
687.204920923776,792.0,76.15189605734767
687.9970517447109,792.0,77.45641054613935
688.738888545269,741.0,79.16815442561204
689.4807253458271,741.0,79.57538381629304
690.2602826616678,779.0,77.46913646459814
691.0649869876969,804.0,75.75739258512544
691.8571178086319,792.0,74.95565972222221
692.661822134661,804.0,75.35016319444443
693.4539529555959,792.0,75.75739258512544
694.2335102714366,779.0,74.64453950676723
695.0759351127483,842.0,73.49689304212077
695.9057864489658,829.0,71.9420171867933
696.7356377851834,829.0,72.67250536130535
697.5529156163067,817.0,73.4256483537296
698.3576199423359,804.0,73.4256483537296
699.1874712785534,829.0,72.69516017921754
700.0298961198652,842.0,70.89416606689869
700.8974679713652,867.0,70.89416606689869
701.7273193075828,829.0,72.40152261747912
702.5194501285177,792.0,74.20251672979796
703.3241544545468,804.0,74.95565972222221
704.1288587805759,804.0,74.17879134615384
704.9461366116993,817.0,74.98052420905707
705.72569392754,779.0,75.78225707196029
706.5052512433807,779.0,76.96635483870968
707.2848085592215,779.0,76.16462197580645
708.0895128852505,804.0,76.58520314978847
708.8564966959971,766.0,77.44038487021857
709.6109070016494,754.0,78.2421177331218
710.3904643174901,779.0,77.82153655913977
711.1700216333307,779.0,75.78225707196029
711.987299464454,817.0,76.2028382459423
712.7542832752006,766.0,77.507352734734
713.4961200757587,741.0,79.1120316754654
714.2631038865052,766.0,79.54663222191348
715.0175141921575,754.0,78.2421177331218
715.7970715079982,779.0,79.12605104793147
716.5389083085563,741.0,79.57538381629305
717.2807451091144,741.0,80.87989830508474
718.0225819096726,741.0,79.99596499027507
718.789565720419,766.0,77.507352734734
719.6068435515424,817.0,75.7956088552613
720.3989743724773,792.0,75.37502768127929
721.178531688318,779.0,76.9797066220107
721.9455154990645,766.0,76.20283824594232
722.7627933301878,817.0,75.01874047919293
723.5800711613111,817.0,73.41406153846154
724.3973489924344,817.0,74.1909299145299
725.1894798133694,792.0,75.7956088552613
725.9564636241159,766.0,78.74904811255573
726.6857269195798,729.0,80.9256189937818
727.4149902150436,729.0,81.80955230859146
728.1568270156017,741.0,79.6329814273654
728.9489578365367,792.0,77.06190707391713
729.7536621625658,804.0,73.84280664386401
730.5960870038775,842.0,71.98631971575942
731.4510853502835,855.0,71.23317672333519
732.280936686501,829.0,71.96366489784724
733.0982145176243,817.0,72.67250536130535
733.9280658538419,829.0,72.67250536130535
734.7579171900594,829.0,72.67250536130535
735.5751950211827,817.0,72.67250536130535
736.4050463574002,829.0,72.67250536130535
737.2348976936178,829.0,71.9420171867933
738.0773225349295,842.0,71.58230710085932
738.9197473762413,842.0,71.22259701492537
739.762172217553,842.0,70.87346663740122
740.617170563959,855.0,70.87346663740122
741.4595954052706,842.0,70.52433625987707
742.3145937516766,855.0,71.60395481191327
743.1318715827999,817.0,72.33444298642533
743.9491494139234,817.0,73.41406153846154
744.7664272450467,817.0,73.79642644230769
745.5711315710757,804.0,74.57329481837607
746.3632623920107,792.0,75.75739258512544
747.1428197078513,779.0,75.37502768127929
747.9600975389747,817.0,74.98052420905707
748.7648018650038,804.0,74.17879134615384
749.5695061910329,804.0,75.36288911290322
750.3490635068737,779.0,77.01980369623655
751.103473812526,754.0,79.12605104793147
751.845310613084,741.0,80.89539253847651
752.5745739085479,729.0,81.34472530683809
753.3164107091061,741.0,81.34472530683809
754.0582475096642,741.0,80.87989830508474
754.8000843102222,741.0,81.34472530683809
755.5293476056861,729.0,81.80955230859146
756.2586109011501,729.0,81.36021954022988
757.0130212068024,754.0,79.59087804968483
757.792578522643,779.0,77.41430716845878
758.584709343578,792.0,76.55912544802867
759.3642666594187,779.0,76.9797066220107
760.1312504701651,766.0,76.20283824594232
760.9485283012885,817.0,74.64796239061485
761.7783796375061,829.0,72.67250536130535
762.6082309737236,829.0,73.85660312805473
763.3877882895642,779.0,75.83206015736423
764.1547721003108,766.0,78.2421177331218
764.9091824059631,754.0,79.0972994535519
765.6635927116154,754.0,79.98123276836156
766.4054295121734,741.0,81.37652925958963
767.1221193025432,716.0,82.29068902970458
767.851382598007,729.0,81.84135626134301
768.6057929036593,754.0,79.18364865900382
769.3979237245943,792.0,77.41430716845878
770.1774810404349,779.0,77.86363993682036
770.9193178409931,741.0,79.57538381629305
771.6611546415512,741.0,80.43056553672315
772.4155649472035,754.0,79.54663222191348
773.18254875795,766.0,79.0972994535519
773.9369590636023,754.0,80.01145922366685
774.6662223590662,729.0,80.89539253847651
775.4080591596243,741.0,80.46079199202842
776.1750429703708,766.0,79.1120316754654
776.9420267811173,766.0,78.66269890710382
777.6964370867696,754.0,78.66269890710382
778.4634208975161,766.0,78.66269890710382
779.2304047082627,766.0,78.22809836065574
779.9973885190092,766.0,78.66269890710382
780.7517988246615,754.0,80.01145922366685
781.4810621201253,729.0,80.44605977011494
782.2354724257776,754.0,80.89539253847651
782.9773092263357,741.0,79.98123276836156
783.731719531988,754.0,81.37652925958963
784.4484093223577,716.0,83.33725406698562
785.1399521025389,691.0,87.41581304134459
785.7937743674377,653.0,89.52192095263226
786.4601701374305,666.0,88.02602314698962
787.1894334328944,729.0,81.90818468545118
788.0067112640178,817.0,74.61954694960212
788.8868566206121,880.0,71.2953296037296
789.7167079568296,829.0,72.07219797979798
790.5088387777645,792.0,75.42483076668321
791.275822588511,766.0,76.57247723132969
792.067953409446,792.0,76.17797375910746
792.8726577354751,804.0,74.20251672979796
793.7025090716926,829.0,73.80801325757575
794.5072133977217,804.0,75.03032729446099
795.2741972084682,766.0,76.58520314978847
796.0537545243089,779.0,76.58520314978847
796.858458850338,804.0,74.60974612047897
797.6883101865556,829.0,73.4256483537296
798.505588017679,817.0,73.4256483537296
799.310292343708,804.0,74.57329481837607
800.1024231646429,792.0,74.95565972222221
800.9071274906721,804.0,74.20251672979796
801.7369788268896,829.0,73.05487026515151
802.5668301631072,829.0,71.9420171867933
803.4092550044189,842.0,71.9420171867933
804.2391063406365,829.0,72.69516017921754
805.0438106666655,804.0,72.69516017921754
805.8862355079773,842.0,72.33545009328357
806.728660349289,842.0,70.87346663740122
807.5836586956949,855.0,71.23317672333519
808.4135100319124,829.0,71.96366489784724
809.2307878630359,817.0,72.67250536130535
810.0606391992534,829.0,73.04328344988345
810.8779170303767,817.0,73.82015182595183
811.6700478513116,792.0,76.2302094017094
812.4244581569639,754.0,80.16310555555555
813.1285744422394,704.0,81.87484943502824
813.8704112427974,741.0,80.2179348516949
814.6751155688266,804.0,77.46913646459814
815.4546728846673,779.0,76.58520314978847
816.2216566954138,766.0,79.15627750323674
816.9509199908778,729.0,79.57685867721875
817.7179038016242,766.0,78.35454464033351
818.5226081276534,804.0,75.78347028688523
819.3273124536825,804.0,74.56115625
820.1320167797115,804.0,74.56115625
820.9367211057407,804.0,74.17879134615384
821.753998936864,817.0,73.4256483537296
822.5838502730816,829.0,73.4256483537296
823.3885545991106,804.0,74.20251672979796
824.1806854200456,792.0,74.95565972222221
824.9853897460747,804.0,74.95565972222221
825.7900940721039,804.0,74.56115625
826.594798398133,804.0,74.56115625
827.3995027241621,804.0,75.78347028688523
828.1664865349086,766.0,76.17797375910746
828.9586173558436,792.0,76.57247723132969
829.7507481767784,792.0,76.15189605734766
830.5303054926192,779.0,77.86363993682036
831.2721422931772,741.0,80.0402108180464
832.0014055886411,729.0,80.89539253847651
832.7558158942934,754.0,78.40678028293544
833.5730937254168,817.0,76.2302094017094
834.3652245463517,792.0,77.62550589293747
835.0819143367214,716.0,81.55840204678361
835.7860306219968,704.0,85.76643908382064
836.4649998970839,678.0,86.26475925925925
837.1691161823594,704.0,84.37114259259258
837.9235264880117,754.0,78.6557490049751
838.7659513293235,842.0,74.35207476255087
839.595802665541,829.0,71.58230710085932
840.4382275068527,842.0,71.58230710085932
841.2806523481645,842.0,71.58230710085934
842.110503684382,829.0,72.31279527537139
842.9277815155053,817.0,71.62465424141075
843.7953533670054,867.0,70.247478483835
844.6754987235998,880.0,69.16785993179879
845.5304970700057,855.0,69.85600096575942
846.3729219113175,842.0,71.23317672333519
847.202773247535,829.0,70.89416606689869
848.0703450990352,867.0,70.54503568937454
848.9253434454411,855.0,70.18532560344059
849.7677682867528,842.0,71.98631971575944
850.572472612782,804.0,72.69516017921754
851.4023239489995,829.0,72.34602980169339
852.2573222954054,855.0,70.21571105169339
853.1374676519998,880.0,68.5184874067937
854.0301865136884,892.0,68.86761778431784
854.8726113550001,842.0,69.88508345595963
855.7150361963119,842.0,70.87346663740122
856.5700345427177,855.0,70.18532560344059
857.4376063942179,867.0,69.1678599317988
858.3177517508122,880.0,69.51699030932294
859.160176592124,842.0,70.56484142921754
859.9900279283415,829.0,70.89416606689869
860.8575997798417,867.0,69.55665250793297
861.7503186415303,892.0,69.55665250793297
862.5801699777478,829.0,71.35764662025181
863.3848743037769,804.0,73.05487026515151
864.2147256399944,829.0,73.4256483537296
865.0320034711177,817.0,112.1974496037296
865.3463410984729,855.0,125.08845524150267
865.8870018175237,1119.0,123.66982603302998
866.7545736690238,540.0,85.2925282552522
867.5467044899588,766.0,74.37697964678861
868.3136883007053,779.0,76.97970662201068
869.093245616546,804.0,76.58520314978847
869.8979499425751,829.0,74.60974612047897
870.7278012787926,804.0,73.80801325757575
871.5325056048217,754.0,75.46492784090908
872.286915910474,792.0,76.61257430555554
873.079046731409,792.0,77.00707777777777
873.8711775523439,804.0,75.35016319444443
874.675881878373,779.0,75.75739258512544
875.4554391942137,729.0,77.93396346635149
876.1847024896776,754.0,79.59087804968483
876.93911279533,766.0,80.01145922366685
877.7060966060765,804.0,77.44038487021857
878.5108009321056,804.0,75.78347028688523
879.3155052581346,779.0,75.36288911290322
880.0950625739754,766.0,76.58520314978847
880.8620463847219,779.0,77.38693601269169
881.6416037005625,817.0,76.20283824594232
882.458881531686,829.0,74.22738121663282
883.2887328679035,842.0,72.31279527537139
884.1311577092152,855.0,71.23317672333518
884.9861560556211,867.0,70.18532560344059
885.8537279071213,880.0,69.1678599317988
886.7338732637156,855.0,69.16785993179879
887.5888716101216,829.0,70.21571105169339
888.4187229463391,804.0,72.34602980169339
889.2234272723682,804.0,73.80801325757575
890.0281315983973,829.0,73.80801325757575
890.8579829346149,842.0,72.69516017921754
891.7004077759266,842.0,71.58230710085932
892.5428326172383,817.0,71.95308518943742
893.3601104483616,817.0,72.68357336394948
894.1773882794851,829.0,73.04328344988345
895.0072396157026,829.0,72.67250536130535
895.8370909519201,817.0,72.67250536130535
896.6543687830434,792.0,73.82015182595183
897.4464996039783,804.0,74.57329481837607
898.2512039300075,817.0,74.57329481837607
899.0684817611308,817.0,73.79642644230769
899.8857595922541,804.0,73.79642644230769
900.6904639182832,817.0,73.79642644230769
901.5077417494066,829.0,73.4256483537296
902.3375930856241,804.0,73.4256483537296
903.1422974116532,779.0,74.60974612047897
903.921854727494,779.0,76.16462197580644
904.7014120433346,804.0,76.16462197580645
905.5061163693638,829.0,74.60974612047897
906.3359677055813,829.0,73.05487026515151
907.1658190417988,792.0,73.44937373737372
907.9579498627337,817.0,73.82015182595183
908.775227693857,829.0,73.82015182595183
909.6050790300745,855.0,71.96366489784724
910.4600773764805,842.0,71.23317672333518
911.3025022177923,829.0,71.23317672333519
912.1323535540098,829.0,71.9420171867933
912.9622048902273,842.0,71.9420171867933
913.8046297315391,829.0,71.9420171867933
914.6344810677566,817.0,72.31279527537139
915.4517588988799,804.0,73.4256483537296
916.256463224909,804.0,74.17879134615384
917.0611675509382,829.0,73.80801325757575
917.8910188871557,792.0,74.20251672979796
918.6831497080906,779.0,75.0042495927012
919.4627070239313,779.0,76.55912544802867
920.2422643397721,804.0,76.16462197580645
921.0469686658012,779.0,76.16462197580644
921.8265259816419,779.0,76.16462197580644
922.6060832974825,817.0,75.78225707196029
923.423361128606,829.0,74.22738121663282
924.2532124648235,829.0,72.67250536130535
925.083063801041,804.0,73.05487026515151
925.8877681270701,792.0,74.20251672979796
926.679898948005,792.0,75.35016319444443
927.4720297689399,804.0,75.35016319444443
928.276734094969,817.0,74.57329481837607
929.0940119260924,792.0,74.57329481837607
929.8861427470273,779.0,75.37502768127929
930.665700062868,779.0,76.55912544802867
931.4452573787087,792.0,76.55912544802867
932.2373881996436,779.0,76.55912544802867
933.0169455154844,754.0,77.41430716845878
933.7713558211367,716.0,80.07201477079795
934.4880456115063,666.0,84.42860089374378
935.1544413814992,678.0,87.3742268196697
935.8334106565862,741.0,86.42826309680322
936.5752474571444,766.0,82.49225814783941
937.3422312678908,766.0,79.1120316754654
938.1092150786374,792.0,77.40028779599271
938.9013458995723,804.0,76.17797375910746
939.7060502256014,829.0,74.20251672979796
940.535901561819,804.0,73.80801325757575
941.340605887848,792.0,74.20251672979796
942.132736708783,880.0,72.82534097222222
943.0128820653773,880.0,70.6950222222222
943.8930274219717,880.0,68.1702
944.773172778566,867.0,68.49952463768115
945.6407446300663,880.0,68.49952463768115
946.5208899866606,892.0,68.1794767503572
947.4136088483491,867.0,68.17947675035721
948.2811806998493,842.0,69.196942421999
949.123605541161,842.0,70.53445598096474
949.9660303824727,867.0,70.53445598096474
950.8336022339729,905.0,68.88578475376738
951.7388946007557,917.0,66.93448072596121
952.6567604726326,917.0,65.67131773211567
953.5746263445096,867.0,66.63184792535237
954.4421981960097,892.0,67.24563839419281
955.3349170576982,905.0,67.54827119480166
956.240209424481,905.0,66.58774100156495
957.1455017912638,880.0,66.90778888888889
958.0256471478582,855.0,68.20732973856208
958.8806454942641,817.0,70.58648914027148
959.6979233253875,855.0,71.25482443438912
960.5529216717933,842.0,71.60395481191327
961.3953465131051,867.0,70.18532560344059
962.2629183646053,817.0,71.2649441554768
963.0801961957286,792.0,72.77230070605722
963.8723270166635,829.0,73.82015182595183
964.702178352881,817.0,73.82015182595183
965.5194561840044,817.0,73.04328344988345
966.3367340151277,779.0,74.59815930521091
967.1162913309684,754.0,76.6374387923904
967.8707016366207,829.0,76.2666607038123
968.7005529728382,842.0,74.35207476255087
969.5429778141499,880.0,70.56484142921754
970.4231231707444,867.0,69.51699030932294
971.2906950222444,817.0,70.247478483835
972.1079728533678,829.0,71.62465424141075
972.9378241895853,842.0,72.31279527537139
973.780249030897,842.0,71.58230710085932
974.6226738722088,817.0,71.95308518943742
975.4399517033321,779.0,73.86767113069885
976.2195090191728,779.0,75.78225707196029
976.9990663350136,804.0,76.16462197580645
977.8037706610427,817.0,74.98052420905707
978.621048492166,817.0,73.79642644230769
979.4383263232893,792.0,74.1909299145299
980.2304571442243,817.0,74.1909299145299
981.0477349753476,817.0,74.1909299145299
981.8650128064709,829.0,73.04328344988345
982.6948641426884,829.0,72.67250536130535
983.5247154789059,817.0,72.67250536130535
984.3419933100292,804.0,73.4256483537296
985.1466976360584,817.0,73.79642644230769
985.9639754671817,817.0,73.79642644230769
986.781253298305,829.0,73.04328344988345
987.6111046345226,829.0,72.67250536130535
988.4409559707401,817.0,72.67250536130535
989.2582338018634,817.0,73.04328344988345
990.0755116329868,829.0,73.04328344988345
990.9053629692044,804.0,73.4256483537296
991.7100672952334,779.0,74.60974612047897
992.4896246110742,804.0,75.36288911290322
993.2943289371033,792.0,75.75739258512544
994.0864597580382,792.0,75.35016319444443
994.8785905789731,766.0,76.57247723132969
995.6455743897196,792.0,76.57247723132969
996.4377052106545,804.0,76.17797375910746
997.2424095366837,817.0,74.57329481837607
998.059687367807,792.0,74.57329481837607
998.8518181887418,792.0,74.96779829059828
999.6439490096768,792.0,75.74466666666666
1000.4360798306117,817.0,74.96779829059828
1001.2533576617351,792.0,74.96779829059828
1002.04548848267,792.0,74.96779829059828
1002.8376193036049,804.0,75.35016319444443
1003.642323629634,779.0,75.75739258512544
1004.4218809454748,766.0,76.58520314978847
1005.1888647562213,766.0,77.80751718667372
1005.9558485669677,779.0,77.8075171866737
1006.7354058828084,792.0,76.9797066220107
1007.5275367037434,779.0,76.55912544802867
1008.307094019584,766.0,76.9797066220107
1009.0740778303306,766.0,77.80751718667372
1009.8410616410771,779.0,77.8075171866737
1010.6206189569178,779.0,77.38693601269169
1011.4001762727585,779.0,76.96635483870968
1012.1797335885992,754.0,77.82153655913979
1012.9341438942515,754.0,78.67671827956988
1013.6885541999038,804.0,77.87498541666666
1014.4932585259329,766.0,77.44038487021857
1015.2602423366794,766.0,77.00578432377048
1016.027226147426,716.0,80.05799539833188
1016.7439159377957,729.0,81.40675571489491
1017.4731792332595,741.0,82.29068902970458
1018.2150160338176,754.0,80.89539253847651
1018.9694263394699,766.0,79.54663222191348
1019.7364101502164,766.0,78.66269890710382
1020.503393960963,716.0,80.05799539833188
1021.2200837513326,716.0,81.88789243600803
1021.9367735417023,704.0,84.21610964912279
1022.6408898269779,691.0,85.2308707336523
1023.3324326071591,729.0,84.74973401253916
1024.061695902623,716.0,84.25141383710057
1024.7783856929927,704.0,83.73497292800967
1025.4825019782681,716.0,84.21610964912279
1026.1991917686378,729.0,83.73497292800965
1026.9284550641016,741.0,82.29068902970458
1027.67029186466,729.0,81.80955230859146
1028.3995551601238,754.0,80.89539253847651
1029.153965465776,716.0,81.84135626134301
1029.8706552561457,716.0,82.32249298245613
1030.5873450465153,691.0,84.73255055821369
1031.2788878266967,666.0,86.83865846950135
1031.9452835966895,678.0,88.38898790419921
1032.6242528717767,704.0,87.87254699510831
1033.328369157052,741.0,84.82047536095416
1034.0702059576101,829.0,79.46479185927066
1034.9000572938278,842.0,74.80140753091246
1035.7424821351394,880.0,70.56484142921754
1036.6226274917337,867.0,69.51699030932294
1037.490199343234,842.0,69.51699030932294
1038.3326241845457,766.0,72.86962309620819
1039.0996079952922,766.0,75.89293124541229
1039.8665918060387,817.0,76.62341941992433
1040.683869637162,855.0,73.93912192715673
1041.538867983568,842.0,71.60395481191327
1042.3812928248797,842.0,70.87346663740122
1043.2237176661915,855.0,70.87346663740122
1044.0787160125974,842.0,70.87346663740122
1044.921140853909,829.0,71.23317672333519
1045.7509921901267,867.0,70.89416606689869
1046.6185640416268,867.0,70.20602503293806
1047.4861358931269,855.0,69.49718456947996
1048.341134239533,804.0,71.29817868179879
1049.145838565562,829.0,72.34602980169339
1049.9756899017796,829.0,73.05487026515151
1050.805541237997,855.0,71.59288680926915
1051.660539584403,804.0,72.34602980169339
1052.4652439104323,766.0,74.32148683100289
1053.2322277211786,729.0,78.35454464033351
1053.9614910166426,741.0,80.46079199202842
1054.7033278172007,766.0,80.46079199202842
1055.4703116279472,804.0,77.88971763858015
1056.2750159539762,779.0,76.58520314978847
1057.054573269817,766.0,76.58520314978847
1057.8215570805635,766.0,77.80751718667372
1058.58854089131,779.0,77.8075171866737
1059.3680982071508,766.0,77.80751718667372
1060.1350820178973,754.0,78.2421177331218
1060.8894923235496,741.0,79.54663222191348
1061.6313291241077,729.0,80.89539253847651
1062.3605924195715,766.0,80.46079199202842
1063.127576230318,792.0,78.74904811255573
1063.919707051253,817.0,75.7956088552613
1064.7369848823762,792.0,74.96779829059828
1065.5291157033112,792.0,74.96779829059828
1066.3212465242461,817.0,74.96779829059828
1067.1385243553693,804.0,74.57329481837607
1067.9432286813985,779.0,74.98052420905707
1068.7227859972393,754.0,77.01980369623655
1069.4771963028916,741.0,79.12605104793147
1070.2190331034496,729.0,80.89539253847651
1070.9482963989135,729.0,81.80955230859146
1071.6775596943774,704.0,83.25383620689654
1072.381675979653,704.0,84.23329310344826
1073.0857922649284,704.0,85.21274999999999
1073.7899085502038,729.0,84.23329310344826
1074.5191718456679,754.0,82.3396764367816
1075.2735821513202,766.0,80.01145922366685
1076.0405659620667,779.0,78.2421177331218
1076.8201232779072,829.0,75.83206015736423
1077.6499746141249,842.0,73.49689304212076
1078.4923994554365,817.0,72.31279527537139
1079.30967728656,766.0,74.28825230468087
1080.0766610973064,766.0,76.62341941992433
1080.843644908053,766.0,78.22809836065574
1081.6106287187995,754.0,78.66269890710382
1082.3650390244518,729.0,80.01145922366685
1083.0943023199156,691.0,82.8561173458725
1083.7858451000968,691.0,85.26617492163007
1084.4773878802782,704.0,86.24563181818179
1085.1815041655536,716.0,85.2308707336523
1085.8981939559233,729.0,83.73497292800965
1086.627457251387,704.0,83.73497292800967
1087.3315735366627,741.0,82.78900920514317
1088.0734103372208,754.0,81.87484943502824
1088.8278206428731,779.0,79.12605104793147
1089.6073779587139,754.0,78.67671827956988
1090.3617882643662,766.0,78.2421177331218
1091.1287720751127,779.0,78.2421177331218
1091.9083293909534,779.0,77.38693601269169
1092.687886706794,754.0,77.82153655913979
1093.4422970124463,729.0,79.59087804968482
1094.1715603079103,754.0,80.44605977011494
1094.9259706135626,779.0,79.59087804968483
1095.7055279294032,792.0,77.41430716845878
1096.4976587503381,754.0,77.41430716845878
1097.2520690559904,741.0,78.71882165725046
1097.9939058565485,754.0,79.98123276836156
1098.7483161622008,792.0,78.71882165725046
1099.5404469831358,804.0,76.61257430555554
1100.345151309165,779.0,75.75739258512544
1101.1247086250057,741.0,77.46913646459814
1101.8665454255638,741.0,79.57538381629305
1102.6083822261219,766.0,79.99596499027507
1103.3753660368684,804.0,77.88971763858015
1104.1800703628974,779.0,76.58520314978847
1104.9596276787381,754.0,77.01980369623655
1105.7140379843904,716.0,80.07201477079795
1106.43072777476,754.0,80.92719649122806
1107.1851380804123,779.0,80.07201477079795
1107.964695396253,766.0,78.2421177331218
1108.7316792069996,779.0,77.38693601269169
1109.5112365228404,754.0,78.2421177331218
1110.2656468284927,766.0,78.2421177331218
1111.0326306392392,779.0,78.2421177331218
1111.81218795508,817.0,76.20283824594232
1112.6294657862031,829.0,74.22738121663282
1113.4593171224208,829.0,72.67250536130535
1114.2891684586382,855.0,71.59288680926915
1115.1441668050443,892.0,69.89566316436944
1116.0368856667328,892.0,68.19843951946976
1116.9296045284214,867.0,67.85942886303326
1117.7971763799214,867.0,68.50880138803836
1118.6647482314218,842.0,69.8463149470041
1119.5071730727334,842.0,70.53445598096474
1120.349597914045,792.0,72.7299535655058
1121.14172873498,804.0,73.84280664386401
1121.9464330610092,804.0,74.95565972222221
1122.7511373870382,792.0,74.95565972222221
1123.5432682079731,766.0,76.17797375910746
1124.3102520187197,741.0,78.28422111080238
1125.0520888192777,716.0,80.94192871314155
1125.7687786096476,729.0,82.29068902970458
1126.4980419051114,729.0,82.75551603145794
1127.2273052005753,754.0,81.36021954022988
1127.9817155062276,729.0,81.36021954022988
1128.7109788016915,766.0,80.01145922366685
1129.477962612438,792.0,78.74904811255573
1130.270093433373,792.0,76.57247723132969
1131.0622242543077,754.0,77.00707777777777
1131.81663455996,729.0,79.18364865900382
1132.545897855424,766.0,80.01145922366685
1133.3128816661706,729.0,80.9256189937818
1134.0421449616344,741.0,80.46079199202842
1134.7839817621925,704.0,82.78900920514317
1135.488098047468,691.0,84.28490701078582
1136.1796408276493,704.0,85.72919090909089
1136.8837571129247,716.0,85.2308707336523
1137.6004469032944,766.0,82.38621261144664
1138.367430714041,804.0,78.83568136144663
1139.17213504007,804.0,75.78347028688523
1139.976839366099,779.0,75.36288911290322
1140.7563966819398,754.0,77.01980369623655
1141.510806987592,779.0,77.82153655913977
1142.2903643034329,804.0,77.01980369623655
1143.095068629462,817.0,74.98052420905707
1143.9123464605852,792.0,74.57329481837607
1144.7044772815202,779.0,75.37502768127929
1145.484034597361,804.0,75.75739258512544
1146.2887389233902,842.0,74.250036034545
1147.1311637647018,817.0,73.06593826779563
1147.9484415958252,855.0,71.60395481191327
1148.803439942231,880.0,70.58648914027148
1149.6835852988254,880.0,68.83853529411763
1150.5637306554197,817.0,69.91815384615384
1151.3810084865431,766.0,73.27078663303908
1152.1479922972896,766.0,76.62341941992433
1152.9149761080362,792.0,77.40028779599271
1153.7071069289711,766.0,77.40028779599271
1154.4740907397177,741.0,78.28422111080238
1155.2159275402757,766.0,79.1120316754654
1155.9829113510223,817.0,77.507352734734
1156.8001891821455,829.0,74.64796239061485
1157.630040518363,792.0,73.82015182595183
1158.4221713392978,829.0,73.44937373737372
1159.2520226755155,817.0,73.82015182595183
1160.069300506639,804.0,73.4256483537296
1160.8740048326679,741.0,76.28503869784876
1161.615841633226,754.0,78.32431818502823
1162.3702519388783,766.0,79.54663222191348
1163.1372357496248,779.0,78.2421177331218
1163.9167930654655,766.0,77.80751718667372
1164.683776876212,779.0,77.38693601269169
1165.4633341920528,842.0,75.47235007143026
1166.3057590333644,842.0,73.1371829561868
1167.1481838746763,829.0,71.58230710085934
1167.9780352108937,804.0,72.69516017921754
1168.782739536923,817.0,73.4256483537296
1169.600017368046,829.0,73.4256483537296
1170.4298687042638,804.0,73.4256483537296
1171.234573030293,792.0,74.20251672979796
1172.0267038512277,804.0,74.95565972222221
1172.831408177257,829.0,74.20251672979796
1173.6612595134745,804.0,73.80801325757575
1174.4659638395035,792.0,74.20251672979796
1175.2580946604385,817.0,74.57329481837607
1176.075372491562,804.0,74.57329481837607
1176.8800768175909,804.0,74.17879134615384
1177.68478114362,779.0,75.36288911290322
1178.4643384594608,779.0,76.16462197580644
1179.2438957753016,792.0,76.55912544802867
1180.0360265962363,817.0,75.37502768127929
1180.8533044273597,792.0,74.96779829059828
1181.6454352482947,779.0,75.37502768127929
1182.4249925641354,792.0,76.15189605734767
1183.2171233850702,792.0,76.15189605734767
1184.0092542060052,829.0,74.59702020202019
1184.8391055422228,817.0,73.82015182595183
1185.656383373346,804.0,73.4256483537296
1186.4610876993752,817.0,73.79642644230769
1187.2783655304986,817.0,73.79642644230769
1188.0956433616218,829.0,73.04328344988345
1188.9254946978394,766.0,74.64796239061485
1189.692478508586,792.0,75.42483076668321
1190.4846093295207,817.0,75.7956088552613
1191.3018871606441,804.0,74.57329481837607
1192.1065914866733,792.0,74.57329481837607
1192.898722307608,817.0,74.57329481837607
1193.7160001387315,804.0,74.57329481837607
1194.5207044647607,792.0,74.57329481837607
1195.3128352856954,779.0,75.75739258512544
1196.0923926015362,804.0,75.75739258512544
1196.8970969275654,817.0,74.98052420905707
1197.7143747586886,792.0,74.57329481837607
1198.5065055796235,766.0,75.7956088552613
1199.27348939037,754.0,77.83488834244079
1200.0278996960224,792.0,77.83488834244079
1200.8200305169573,842.0,75.49972122719734
1201.662455358269,842.0,72.7299535655058
1202.5048801995808,842.0,71.22259701492537
1203.3473050408925,817.0,71.95308518943742
1204.164582872016,779.0,73.86767113069885
1204.9441401878566,754.0,76.6374387923904
1205.698550493509,729.0,79.59087804968482
1206.4278137889728,792.0,79.18364865900382
1207.2199446099078,691.0,81.59370623476138
1207.911487390089,641.0,85.35789352346998
1208.5527361498935,666.0,90.1217090370968
1209.2191319198862,678.0,90.65727738726517
1209.8981011949734,666.0,89.48033473095737
1210.564496964966,716.0,87.3742268196697
1211.281186755336,792.0,83.16618978263267
1212.0733175762707,829.0,77.25472780435936
1212.9031689124884,817.0,73.82015182595183
1213.7204467436118,829.0,72.67250536130535
1214.5502980798292,817.0,73.04328344988345
1215.3675759109526,804.0,73.4256483537296
1216.1722802369816,817.0,73.79642644230769
1216.989558068105,804.0,74.17879134615384
1217.7942623941342,817.0,73.79642644230769
1218.6115402252574,817.0,73.79642644230769
1219.4288180563808,779.0,74.59815930521091
1220.2083753722216,766.0,76.2028382459423
1220.975359182968,779.0,77.38693601269169
1221.7549164988086,779.0,77.38693601269169
1222.5344738146493,779.0,76.96635483870968
1223.31403113049,766.0,77.38693601269169
1224.0810149412366,754.0,78.2421177331218
1224.835425246889,741.0,79.54663222191348
1225.577262047447,829.0,77.57117519260399
1226.4071133836646,855.0,74.45227715338831
1227.2621117300705,892.0,69.89566316436944
1228.154830591759,867.0,68.84781204447485
1229.0224024432591,829.0,69.55665250793297
1229.8522537794768,842.0,70.89416606689869
1230.6946786207884,817.0,72.31279527537139
1231.5119564519118,817.0,72.68357336394948
1232.329234283035,842.0,72.68357336394948
1233.171659124347,842.0,71.95308518943742
1234.0140839656585,855.0,70.87346663740122
1234.8690823120646,817.0,71.60395481191327
1235.6863601431878,817.0,72.33444298642533
1236.5036379743112,817.0,73.41406153846154
1237.3209158054344,855.0,72.33444298642533
1238.1759141518405,842.0,71.60395481191327
1239.0183389931522,829.0,71.23317672333519
1239.8481903293698,779.0,73.49689304212076
1240.6277476452105,792.0,75.0042495927012
1241.4198784661453,804.0,75.75739258512544
1242.2245827921745,804.0,74.95565972222221
1243.0292871182037,792.0,74.95565972222221
1243.8214179391384,779.0,75.75739258512544
1244.6009752549792,804.0,75.75739258512544
1245.4056795810084,842.0,74.250036034545
1246.24810442232,880.0,71.31798442164178
1247.1282497789146,905.0,68.55646011608623
1248.0335421456973,867.0,67.8683190821256
1248.9011139971974,880.0,67.8683190821256
1249.7812593537917,855.0,69.16785993179879
1250.6362577001976,867.0,69.16785993179879
1251.503829551698,817.0,70.91581377795265
1252.321107382821,792.0,72.77230070605722
1253.113238203756,804.0,74.57329481837607
1253.9179425297853,829.0,74.20251672979796
1254.7477938660027,804.0,73.80801325757575
1255.5524981920319,804.0,73.80801325757575
1256.3572025180608,829.0,73.80801325757575
1257.1870538542785,855.0,72.34602980169339
1258.0420522006843,817.0,71.96366489784724
1258.8593300318078,804.0,72.71680789027148
1259.664034357837,817.0,73.79642644230769
1260.4813121889601,829.0,73.4256483537296
1261.3111635251778,817.0,73.04328344988345
1262.128441356301,817.0,73.04328344988345
1262.9457191874244,842.0,72.68357336394948
1263.788144028736,842.0,71.95308518943742
1264.630568870048,817.0,71.95308518943742
1265.447846701171,804.0,73.06593826779563
1266.2525510272003,817.0,73.79642644230769
1267.0698288583237,804.0,74.17879134615384
1267.8745331843527,766.0,75.4011053830391
1268.6415169950992,779.0,76.58520314978847
1269.42107431094,804.0,76.58520314978847
1270.2257786369692,867.0,73.56189500058437
1271.0933504884692,829.0,72.0070191452569
1271.9232018246867,804.0,72.0070191452569
1272.7279061507159,842.0,72.69516017921754
1273.5703309920277,855.0,71.98631971575942
1274.4253293384336,817.0,71.60395481191327
1275.242607169557,829.0,71.96366489784724
1276.0724585057744,842.0,72.31279527537139
1276.914883347086,867.0,70.89416606689869
1277.7824551985864,829.0,70.89416606689869
1278.6123065348038,792.0,72.40152261747912
1279.4044373557388,779.0,75.0042495927012
1280.1839946715795,804.0,75.75739258512544
1280.9886989976087,766.0,76.58520314978847
1281.755682808355,779.0,76.58520314978847
1282.5352401241958,729.0,79.15627750323674
1283.2645034196596,741.0,80.0402108180464
1284.006340220218,729.0,81.80955230859146
1284.7356035156818,792.0,79.6329814273654
1285.5277343366165,804.0,77.52673407567049
1286.3324386626457,829.0,74.20251672979796
1287.1622899988633,804.0,73.80801325757575
1287.9669943248923,616.0,81.41629450757574
1288.5830960745084,1043.0,81.05658442164179
1291.2989731748567,829.0,78.92626567164179
1292.179118531451,842.0,70.20513134328357
1294.7063930553863,880.0,64.74746107394063
1295.8002879985822,829.0,77.37157218505175
1296.3660957278214,855.0,78.48442526340995
1297.1708000538504,842.0,85.44945208333331
1297.9629308747853,1093.0,75.75739258512544
1298.742488190626,565.0,75.75739258512544
1299.5471925166553,804.0,76.16462197580644
1300.326749832496,792.0,76.16462197580644
1301.1063071483366,779.0,76.16462197580645
1301.9110114743658,804.0,74.98052420905707
1302.7282893054892,779.0,74.57329481837607
1303.520420126424,779.0,76.67954217007097
1304.2622569269822,804.0,78.71882165725046
1305.0166672326345,817.0,79.12605104793147
1305.796224548475,792.0,76.6374387923904
1306.6135023795985,741.0,73.5185407531747
1310.9136411218167,754.0,70.26644125294754
1311.8063599835052,779.0,69.18682270091134
1312.661358329911,817.0,70.6488061567937
1313.4660626559403,829.0,73.09917279411764
1314.2707669819692,855.0,75.36288911290322
1315.05032429781,930.0,75.36288911290322
1315.8550286238392,829.0,76.58520314978847
1316.6220124345857,855.0,78.35454464033351
1317.3512757300496,892.0,80.01145922366685
1318.1056860357019,855.0,79.59087804968483
1318.8852433515426,804.0,74.258279390681
1319.7905357183254,804.0,85.619979390681
1320.3186229322819,779.0,102.95474399399399
1320.7838426207675,804.0,123.85276576576575
1321.249062309253,766.0,131.42723243243242
1321.6891349875502,729.0,103.03002539052814
1323.0596470428186,754.0,90.62900148200421
1323.7134693077173,779.0,75.19423921785328
1324.37986507771,905.0,89.00548004354134
1325.0839813629857,993.0,85.84108083929732
1325.8132446584495,905.0,80.68276185344827
1326.6179489844787,678.0,76.37908761102403
1327.4478003206962,691.0,72.69516017921754
1328.290225162008,653.0,73.08966365143976
1329.0823559829428,666.0,74.64453950676723
1329.8619132987835,704.0,77.41430716845878
1330.6163236044358,729.0,78.67671827956988
1331.3707339100881,804.0,79.0972994535519
1332.1377177208346,829.0,77.44038487021857
1332.9424220468638,842.0,75.4011053830391
1333.759699877987,792.0,73.79642644230769
1334.5769777091105,779.0,73.79642644230769
1335.3816820351396,754.0,75.83570592948718
1336.136092340792,754.0,78.32431818502823
1336.87792914135,766.0,79.54663222191348
1337.6449129520965,804.0,82.49225814783941
1338.3238822271835,817.0,83.9365420461445
1339.027998512459,817.0,83.51596087216248
1339.8075558282997,804.0,78.53105545905706
1340.624833659423,754.0,74.98052420905707
1341.4295379854523,741.0,73.06593826779563
1344.7740903405106,766.0,71.98631971575942
1347.3642323899169,678.0,72.78805257866266
1348.1437897057576,704.0,75.5578202403542
1348.89820001141,779.0,78.67671827956988
1349.6526103170622,817.0,79.98123276836156
1350.3944471176203,804.0,81.87484943502824
1351.098563402896,842.0,86.55319649385177
1351.7398121627002,842.0,89.04948965141611
1352.4187814377874,817.0,89.04948965141611
1353.1228977230628,842.0,86.26475925925925
1353.8270140083384,842.0,82.46395161290322
1354.606571324179,892.0,79.30792383512544
1355.398702145114,855.0,74.64453950676723
1356.2411269864258,779.0,72.04181253154516
1357.1086988379259,754.0,69.8463149470041
1357.976270689426,754.0,72.18148206224755
1358.7432545001725,741.0,75.63939075789973
1359.4976648058248,704.0,79.54663222191348
1360.2395016063829,641.0,79.98123276836156
1360.9939119120352,678.0,79.12605104793147
1361.773469227876,704.0,78.67671827956988
1362.5278795335282,704.0,77.82153655913977
1363.307436849369,779.0,77.01980369623655
1364.1121411753982,792.0,74.250036034545
1364.9545660167098,842.0,71.64730905932294
1365.82213786821,867.0,69.8463149470041
1366.68970971971,867.0,70.20602503293807
1367.5195610559276,766.0,72.40152261747912
1368.3116918768626,754.0,74.20251672979796
1369.1163962028916,741.0,73.84280664386401
1369.9588210442034,754.0,72.33545009328357
1370.801245885515,779.0,71.58230710085934
1371.6310972217327,754.0,71.9420171867933
1372.4609485579501,779.0,71.59288680926915
1373.3159469043562,804.0,70.54503568937454
1374.1835187558563,842.0,69.83619522591644
1375.0385171022622,867.0,70.91581377795265
1375.8557949333856,867.0,71.96366489784724
1376.685646269603,829.0,72.67250536130535
1377.5154976058207,792.0,71.9420171867933
1378.3579224471323,804.0,72.69516017921754
1379.1626267731615,842.0,72.33545009328357
1380.0050516144731,842.0,72.33545009328357
1380.847476455785,829.0,71.58230710085934
1381.6773277920024,829.0,72.31279527537139
1382.4946056231258,855.0,72.67250536130535
1383.3244569593433,867.0,72.67250536130535
1384.154308295561,855.0,73.05487026515151
1384.95901262159,817.0,74.20251672979796
1385.7511434425248,829.0,75.35016319444443
1386.5432742634598,829.0,75.35016319444443
1387.347978589489,842.0,74.95565972222221
1388.152682915518,804.0,76.21807083333333
1388.9070932211703,842.0,77.44038487021857
1389.6740770319168,842.0,78.2421177331218
1390.4536343477575,829.0,76.58520314978847
1391.2583386737867,817.0,74.60974612047897
1392.0881900100042,829.0,73.4256483537296
1392.9054678411276,829.0,73.4256483537296
1393.7101721671568,804.0,73.06593826779563
1394.5525970084684,792.0,73.84280664386401
1395.3447278294034,792.0,74.64453950676723
1396.1242851452441,804.0,97.68714442336073
1396.551784318447,804.0,103.62790259329537
1397.1930330782516,754.0,100.69585098039214
1398.0731784348459,766.0,83.92441812800591
1398.7395742048386,779.0,95.72565395206526
1399.2047938933242,804.0,97.10282970964101
1400.0346452295419,829.0,90.4825272679096
1400.8896435759477,817.0,79.30507105169339
1401.518318830658,804.0,74.36880854712967
1402.561919753477,842.0,79.89776416210294
1403.2534625336584,792.0,72.1855799196787
1404.0833138698758,1207.0,104.3321698924731
1404.473092527796,641.0,128.43274565004887
1404.8502976806224,880.0,136.1449298924731
1405.4789729353326,1131.0,111.79399276836156
1406.2208097358907,829.0,88.22898536095417
1406.8997790109777,855.0,84.32215518551557
1407.6164688013475,628.0,76.07557731911477
1408.685216734355,1043.0,86.3852680598555
1409.188156938123,691.0,84.98997156862744
1409.9425672437753,1219.0,119.29784999999998
1410.3197723966016,1005.0,130.84280322580645
1410.7095510545219,741.0,124.98980625610946
1411.6777109467757,678.0,101.42479884870207
1412.3566802218627,716.0,83.25218728956229
1412.9602084663845,1068.0,90.9988009259259
1413.6643247516602,502.0,80.25592990196077
1414.7330726846676,754.0,77.12967597114316
1415.3994684546603,766.0,79.31461827883547
1416.053290719559,968.0,90.0574893028006
1416.732259994646,678.0,90.63464387464386
1417.3860822595448,603.0,89.50171082621081
1418.065051534632,704.0,88.96614247604245
1418.7565943148131,1068.0,87.83320942760942
1419.4355635899,666.0,88.38898790419921
1420.101959359893,653.0,90.0574893028006
1420.7557816247918,678.0,92.41399004354135
1421.384456879502,653.0,94.2147123076923
1422.0131321342121,678.0,96.08751999999998
1422.6292338838282,691.0,95.46374039215684
1423.2704826436327,678.0,93.6630181280059
1423.9368784136257,666.0,90.12170903709682
1424.6284211938068,653.0,86.35752174838822
1425.3576844892707,628.0,80.08634968418096
1426.2001093305826,628.0,74.21838341277122
1427.0676811820827,616.0,70.18532560344059
1427.9226795284885,641.0,68.84781204447485
1428.815398390177,666.0,67.58464905062931
1429.733264262054,691.0,66.59626586918772
1430.6259831237426,729.0,66.59626586918772
1431.5187019854313,842.0,68.19843951946974
1432.3737003318372,867.0,70.26644125294754
1433.1909781629604,855.0,71.96366489784724
1434.020829499178,892.0,71.96366489784724
1434.875827845584,917.0,70.54503568937454
1435.7433996970842,892.0,70.54503568937454
1436.5732510333016,892.0,71.62465424141075
1437.390528864425,855.0,73.04328344988345
1438.2078066955482,817.0,73.41406153846154
1439.0250845266717,829.0,75.01874047919293
1439.7920683374182,855.0,76.20283824594232
1440.571625653259,867.0,78.2421177331218
1441.3260359589112,829.0,78.67671827956988
1442.0804462645635,817.0,78.26948888888887
1442.8725770854983,817.0,76.2302094017094
1443.6898549166217,817.0,73.46044174001786
1444.5322797579333,766.0,71.95308518943742
1445.3747045992452,779.0,73.1371829561868
1446.154261915086,754.0,73.86767113069885
1446.9715397462091,754.0,73.5185407531747
1447.8265380926152,792.0,69.95528358471593
1448.731830459398,817.0,68.20732973856208
1449.6119758159923,842.0,70.06381666666667
1450.4041066369273,842.0,74.48225555555555
1451.1585169425796,779.0,78.71882165725046
1451.9003537431377,817.0,81.37652925958963
1452.6170435335073,855.0,83.78658683534721
1453.3085863136885,905.0,82.90265352053754
1454.075570124435,880.0,78.73758936761793
1454.9179949657469,792.0,71.90909290297148
1455.8232873325296,754.0,67.0415667827529
1456.766300214595,741.0,64.79580921921922
1457.696739591566,716.0,64.49317641861037
1458.614605463443,691.0,65.68802186461977
1459.5073243251315,766.0,66.91631375651167
1460.387469681726,842.0,67.85015211267606
1461.2676150383204,905.0,69.54737575757575
1462.0974663745378,943.0,70.9245515151515
1462.9273177107555,930.0,72.67250536130535
1463.7445955418787,917.0,71.62465424141075
1464.612167393379,892.0,70.91581377795264
1465.4671657397848,880.0,70.91581377795265
1466.2844435709083,880.0,71.60395481191327
1467.12686841222,829.0,70.93561951779563
1468.0070137688142,829.0,68.2538273154774
1468.9248796406912,817.0,66.91631375651167
1469.8175985023797,867.0,67.93377942815346
1470.6600233436916,855.0,68.86761778431784
1471.540168700286,817.0,68.55646011608623
1472.4454610670687,842.0,67.8683190821256
1473.3130329185688,880.0,69.24549483970135
1474.1428842547864,917.0,70.54503568937454
1474.9978826011923,892.0,70.88404634581103
1475.8528809475981,842.0,70.17520588235293
1476.7078792940042,880.0,71.63718933823529
1477.5125836200332,905.0,72.34602980169339
1478.3424349562508,867.0,72.0070191452569
1479.210006807751,829.0,69.8767003952569
1480.0901521643452,855.0,69.16785993179879
1480.9451505107513,855.0,70.58648914027148
1481.7624283418745,855.0,71.25482443438912
1482.6174266882804,804.0,70.91581377795264
1483.4849985397807,829.0,70.18532560344059
1484.3274233810923,867.0,96.50102780932295
1484.7297755441068,880.0,123.15574067164178
1485.1321277071215,855.0,124.26859375
1485.9368320331505,817.0,99.414875
1486.7415363591797,855.0,73.09917279411764
1487.5965347055858,867.0,72.34602980169339
1488.4263860418032,1647.0,71.59288680926915
1489.2562373780208,804.0,71.9420171867933
1490.0986622193325,804.0,71.23317672333518
1490.9536605657383,855.0,71.23317672333519
1491.783511901956,829.0,72.34602980169339
1492.588216227985,829.0,73.05487026515151
1493.4180675642026,842.0,72.69516017921754
1494.2604924055142,855.0,71.9420171867933
1495.0903437417319,829.0,73.49689304212076
1495.8699010575726,804.0,73.85660312805473
1496.69975239379,829.0,73.49689304212076
1497.542177235102,842.0,71.9420171867933
1498.3720285713193,829.0,72.69516017921754
1499.1767328973485,779.0,73.05487026515151
1500.006584233566,829.0,73.05487026515151
1500.8364355697836,842.0,71.9420171867933
1501.6788604110952,829.0,73.08966365143976
1502.4709912320302,804.0,75.06512068074926
1503.2379750427767,829.0,77.40028779599271
1504.0049588535232,829.0,77.8075171866737
1504.784516169364,842.0,78.69145050148339
1505.526352969922,792.0,78.69145050148339
1506.2933367806686,766.0,77.88971763858015
1507.0980411066976,766.0,75.03032729446099
1507.9278924429152,779.0,72.0070191452569
1508.7954642944153,741.0,71.25387615283266
1509.625315630633,766.0,72.40152261747912
1510.417446451568,804.0,73.08966365143976
1511.2598712928796,829.0,72.38082318798165
1512.1148696392854,867.0,69.85600096575942
1512.9950149958797,829.0,69.50687058823527
1513.8500133422858,792.0,70.96885404411763
1514.6547176683148,842.0,72.71680789027148
1515.4719954994382,855.0,73.4256483537296
1516.3018468356559,880.0,71.62465424141075
1517.169418687156,855.0,70.54503568937454
1518.0244170335618,804.0,70.91581377795265
1518.8416948646852,817.0,72.71680789027148
1519.6463991907142,829.0,73.4256483537296
1520.4762505269318,867.0,73.4256483537296
1521.2935283580553,855.0,73.82015182595183
1522.08565917899,817.0,76.2302094017094
1522.8400694846423,804.0,77.83488834244079
1523.6070532953888,829.0,78.2421177331218
1524.3866106112296,817.0,76.9797066220107
1525.1787414321645,792.0,74.64453950676723
1526.0211662734762,754.0,72.38082318798165
1526.8761646198823,766.0,71.60395481191327
1527.6934424510055,779.0,73.1113113624937
1528.4855732719404,792.0,74.96779829059828
1529.2777040928754,842.0,76.57247723132969
1530.044687903622,855.0,79.23018483366886
1530.7613776939916,817.0,82.38621261144664
1531.465493979267,792.0,84.71442982456138
1532.1696102645426,792.0,84.71442982456139
1532.8863000549122,766.0,83.2701459262563
1533.6281368554703,716.0,81.37652925958963
1534.3825471611226,704.0,79.98123276836156
1535.136957466775,704.0,79.5319
1535.8913677724272,716.0,78.26948888888887
1536.6834985933622,741.0,77.83488834244079
1537.4504824041087,754.0,78.74904811255573
1538.1797456995725,754.0,81.9050758903335
1538.883861984848,754.0,83.25383620689655
1539.6131252803118,792.0,81.9050758903335
1540.3801090910583,766.0,79.15627750323674
1541.159666406899,729.0,77.80751718667372
1541.9266502176456,704.0,78.2421177331218
1542.681060523298,729.0,78.2421177331218
1543.4606178391386,766.0,77.82153655913977
1544.2401751549794,779.0,77.38693601269169
1545.007158965726,766.0,78.69145050148339
1545.748995766284,754.0,80.94192871314155
1546.4656855566536,779.0,82.29068902970458
1547.1949488521175,779.0,82.75551603145794
1547.9242121475813,766.0,81.36021954022988
1548.6786224532336,741.0,80.01145922366685
1549.4456062639802,716.0,79.0972994535519
1550.2000165696325,729.0,78.2421177331218
1550.9795738854732,729.0,77.41430716845878
1551.7717047064082,754.0,76.55912544802867
1552.551262022249,766.0,77.41430716845878
1553.3056723279012,754.0,78.2421177331218
1554.0726561386477,779.0,78.2421177331218
1554.8522134544885,792.0,77.38693601269169
1555.631770770329,779.0,76.55912544802867
1556.423901591264,754.0,76.9797066220107
1557.1908854020105,766.0,75.7956088552613
1558.008163233134,779.0,74.28825230468088
1558.8505880744456,779.0,71.60395481191327
1559.7055864208514,792.0,71.98631971575944
1560.5102907468806,766.0,72.34602980169339
1561.3401420830983,817.0,73.4256483537296
1562.1574199142215,842.0,73.04328344988345
1562.9746977453449,855.0,74.1909299145299
1563.7668285662799,804.0,74.96779829059828
1564.5589593872146,829.0,74.59702020202019
1565.3888107234322,817.0,72.40152261747913
1566.2563825749323,817.0,71.25387615283266
1567.08623391115,792.0,72.80875200816013
1567.8657912269905,792.0,74.22738121663282
1568.683069058114,829.0,73.5185407531747
1569.5380674045198,867.0,71.25482443438912
1570.3930657509259,829.0,71.63718933823529
1571.1977700769548,779.0,73.09917279411764
1572.002474402984,817.0,74.17879134615384
1572.8197522341075,855.0,73.06593826779563
1573.662177075419,855.0,73.46044174001784
1574.454307896354,804.0,75.49972122719734
1575.2087182020064,804.0,79.18364865900382
1575.9379814974702,817.0,80.01145922366685
1576.7049653082167,842.0,80.9256189937818
1577.4342286036806,792.0,80.46079199202842
1578.1760654042387,754.0,81.34472530683809
1578.9179022047967,729.0,82.32418220338981
1579.6220184900724,766.0,83.7684661016949
1580.3261347753478,729.0,83.7684661016949
1581.0679715759059,741.0,81.44024888858016
1581.8349553866524,741.0,78.69145050148337
1582.6145127024931,704.0,78.69145050148339
1583.3563495030512,704.0,80.52134753915954
1584.0730392934208,741.0,80.94192871314155
1584.8400231041674,766.0,80.49259594477996
1585.5944334098197,779.0,78.66269890710382
1586.3614172205662,741.0,79.0972994535519
1587.1158275262185,716.0,80.49259594477996
1587.832517316588,766.0,81.37652925958963
1588.5743541171462,754.0,81.82586202795122
1589.3161909177045,766.0,80.43056553672315
1590.0706012233568,754.0,80.43056553672315
1590.8124380239149,716.0,81.37652925958963
1591.5291278142845,741.0,82.7718257508177
1592.2458176046541,741.0,82.7718257508177
1592.9876544052122,754.0,81.37652925958963
1593.7420647108645,741.0,79.98123276836156
1594.4964750165168,716.0,80.44605977011494
1595.2257383119806,716.0,80.44605977011494
1595.980148617633,741.0,79.59087804968483
1596.7597059334737,754.0,77.01980369623655
1597.564410259503,754.0,76.58520314978847
1598.3313940702494,729.0,77.88971763858015
1599.0732308708075,754.0,78.69145050148337
1599.8527881866482,779.0,78.27086932750136
1600.632345502489,804.0,77.38693601269169
1601.3993293132355,766.0,78.69145050148339
1602.1411661137936,741.0,79.99596499027507
1602.8830029143517,779.0,79.57538381629304
1603.6625602301924,779.0,77.86363993682036
1604.4546910511272,766.0,76.15189605734767
1605.2468218720621,741.0,76.57247723132969
1606.0138056828087,741.0,77.83488834244079
1606.768215988461,779.0,78.66269890710382
1607.5351997992075,792.0,78.66269890710382
1608.302183609954,792.0,78.22809836065574
1609.0691674207005,766.0,79.1120316754654
1609.8110042212586,754.0,79.54663222191348
1610.565414526911,766.0,78.71882165725046
1611.3575453478459,766.0,77.00707777777777
1612.1496761687806,766.0,76.15189605734766
1612.9292334846214,741.0,77.41430716845878
1613.6836437902737,754.0,77.82153655913977
1614.4632011061144,792.0,76.6374387923904
1615.2804789372378,792.0,74.98052420905707
1616.0851832632668,779.0,74.17879134615384
1616.889887589296,754.0,75.36288911290322
1617.6694449051367,779.0,75.75739258512544
1618.4615757260717,817.0,76.15189605734767
1619.2537065470065,804.0,76.15189605734766
1620.0332638628472,804.0,77.41430716845878
1620.7876741684995,779.0,78.2421177331218
1621.554657979246,792.0,78.66269890710382
1622.3216417899926,792.0,78.22809836065574
1623.088625600739,779.0,79.1120316754654
1623.8304624012972,754.0,79.54663222191348
1624.5848727069495,766.0,79.12605104793147
1625.3644300227902,766.0,77.41430716845878
1626.1565608437252,766.0,75.37502768127929
1626.9738386748484,741.0,75.7956088552613
1627.740822485595,754.0,75.7956088552613
1628.5329533065299,779.0,76.57247723132969
1629.3250841274648,792.0,75.35016319444443
1630.1297884534938,817.0,76.17797375910746
1630.8967722642403,766.0,77.88971763858015
1631.6386090647984,792.0,79.1120316754654
1632.405592875545,792.0,79.1120316754654
1633.1725766862914,804.0,78.22809836065574
1633.939560497038,766.0,78.66269890710382
1634.6939708026903,741.0,79.54663222191348
1635.4358076032483,766.0,79.12605104793147
1636.215364919089,766.0,77.46913646459814
1637.0200692451183,766.0,76.16462197580644
1637.799626560959,754.0,77.01980369623655
1638.5540368666113,741.0,78.67671827956988
1639.3084471722636,779.0,78.67671827956988
1640.0880044881044,804.0,78.67671827956988
1640.8424147937567,779.0,79.59087804968482
1641.5716780892205,754.0,81.36021954022988
1642.3009413846844,754.0,81.36021954022988
1643.0553516903367,779.0,79.59087804968483
1643.8349090061774,754.0,79.12605104793147
1644.5767458067355,729.0,78.69145050148339
1645.343729617482,729.0,79.54663222191348
1646.0981399231343,754.0,77.44038487021857
1646.9028442491633,779.0,75.10521775497511
1647.7452690904752,741.0,71.98631971575942
1648.600267436881,766.0,70.87346663740122
1649.442692278193,754.0,70.18532560344059
1650.310264129693,804.0,69.8463149470041
1651.177835981193,842.0,70.57680312151615
1651.9951138123165,855.0,72.77230070605722
1652.7872446332515,842.0,76.67954217007097
1653.5290814338096,867.0,80.61243832391712
1654.233197719085,867.0,81.01966771459813
1655.0127550349257,817.0,78.16027737047898
1655.8426063711431,792.0,73.14776266459661
1656.6976047175492,741.0,69.89566316436944
1657.5903235792377,704.0,68.19843951946976
1658.4830424409263,779.0,68.19843951946974
1659.3380407873321,829.0,69.18682270091134
1660.1930391337382,855.0,69.83619522591644
1661.0606109852383,892.0,69.83619522591644
1661.9156093316442,892.0,71.29817868179879
1662.7203136576734,855.0,73.09917279411764
1663.5250179837026,855.0,73.80801325757575
1664.35486931992,867.0,72.34602980169339
1665.2098676663259,855.0,71.23317672333518
1666.0522925076377,804.0,69.85600096575942
1666.932437864232,804.0,70.56484142921754
1667.7622892004495,829.0,71.2953296037296
1668.5795670315729,855.0,72.31279527537139
1669.4219918728845,842.0,71.95308518943742
1670.2644167141964,880.0,70.53445598096474
1671.1319885656965,829.0,69.51699030932295
1672.0121339222908,817.0,68.8288492753623
1672.879705773791,842.0,69.16785993179879
1673.734704120197,842.0,69.83619522591644
1674.5897024666028,867.0,70.17520588235293
1675.444700813009,880.0,69.50687058823527
1676.3248461696032,867.0,69.85600096575942
1677.1672710109149,855.0,70.93561951779563
1677.9845488420383,855.0,73.06593826779563
1678.7892531680675,855.0,74.17879134615384
1679.5939574940965,880.0,74.95565972222221
1680.3860883150314,842.0,75.35016319444443
1681.1782191359664,817.0,76.57247723132969
1681.945202946713,804.0,76.97970662201068
1682.7247602625534,804.0,76.9797066220107
1683.5168910834884,792.0,75.75739258512544
1684.3215954095176,792.0,76.17797375910746
1685.0885792202641,766.0,76.17797375910746
1685.880710041199,779.0,76.57247723132969
1686.6728408621339,792.0,75.35016319444443
1687.477545188163,804.0,76.17797375910746
1688.2445289989096,766.0,76.58520314978847
1689.0240863147503,792.0,77.80751718667372
1689.7910701254968,792.0,77.80751718667372
1690.5580539362434,804.0,78.66269890710382
1691.3124642418957,766.0,80.01145922366685
1692.0417275373595,779.0,80.89539253847651
1692.7835643379176,766.0,80.89539253847651
1693.53797464357,766.0,80.43056553672315
1694.279811444128,754.0,80.43056553672315
1695.021648244686,729.0,81.34472530683809
1695.75091154015,741.0,82.78900920514317
1696.4550278254255,754.0,83.25383620689655
1697.1842911208894,741.0,81.9050758903335
1697.951274931636,741.0,78.74904811255573
1698.7434057525707,729.0,75.7956088552613
1699.560683583694,704.0,74.96779829059828
1700.352814404629,729.0,75.7956088552613
1701.1197982153756,766.0,77.83488834244079
1701.8742085210279,792.0,77.83488834244079
1702.6663393419628,817.0,76.61257430555554
1703.4710436679918,792.0,74.57329481837607
1704.2883214991152,766.0,73.79642644230769
1705.1055993302384,754.0,75.45334102564102
1705.8600096358907,792.0,76.6374387923904
1706.6395669517315,804.0,76.6374387923904
1707.456844782855,817.0,74.22738121663282
1708.2866961190723,817.0,74.22738121663282
1709.066253434913,754.0,76.71599347217389
1709.8080902354711,779.0,80.0402108180464
1710.537353530935,817.0,82.78900920514317
1711.2414698162106,829.0,84.23329310344826
1711.945586101486,779.0,85.21274999999999
1712.6497023867614,741.0,82.88453278688523
1713.416686197508,729.0,81.44024888858016
1714.158522998066,704.0,79.99596499027507
1714.9003597986243,704.0,81.34472530683809
1715.6296230940882,704.0,81.34472530683809
1716.3714598946463,766.0,80.46079199202842
1717.1384437053928,741.0,79.99596499027507
1717.8802805059509,741.0,79.54663222191348
1718.6346908116031,729.0,79.54663222191348
1719.4016746223497,741.0,78.2421177331218
1720.1812319381904,766.0,77.38693601269169
1720.960789254031,741.0,77.82153655913979
1721.7151995596835,754.0,78.67671827956988
1722.4696098653358,766.0,78.67671827956988
1723.2491671811763,779.0,77.41430716845878
1724.0412980021113,779.0,75.75739258512544
1724.8460023281405,754.0,74.20251672979796
1725.6758536643579,754.0,73.05487026515151
1726.5057050005755,779.0,73.85660312805473
1727.2852623164163,792.0,76.2666607038123
1728.0396726220686,804.0,79.12605104793147
1728.7815094226266,829.0,79.98123276836156
1729.535919728279,829.0,79.12605104793147
1730.3154770441197,779.0,76.6374387923904
1731.1327548752429,754.0,76.2028382459423
1731.8997386859894,741.0,77.97217973648736
1732.6290019814533,754.0,82.42151679942441
1733.3205447616347,779.0,86.93467632023147
1733.9743670265332,817.0,90.69886360894006
1734.6156157863377,766.0,93.59093269984916
1735.244291041048,729.0,91.40599039215685
1735.9484073263234,691.0,86.29304278688522
1736.71539113707,653.0,79.33400153688524
1737.520095463099,641.0,74.32148683100289
1738.375093809505,628.0,72.71680789027148
1739.1923716406284,704.0,71.96366489784724
1740.0222229768458,766.0,72.31279527537139
1740.8646478181577,804.0,71.58230710085932
1741.7070726594693,855.0,72.7299535655058
1742.4992034804043,817.0,74.23731011608623
1743.2913343013392,829.0,74.59702020202019
1744.1211856375567,842.0,74.20251672979796
1744.9258899635859,842.0,72.69516017921754
1745.7683148048975,792.0,73.84280664386401
1746.5604456258325,792.0,73.08966365143976
1747.3902969620501,829.0,73.44937373737372
1748.2201482982675,804.0,72.67250536130535
1749.037426129391,842.0,73.4256483537296
1749.84213045542,792.0,75.4011053830391
1750.6091142661664,829.0,77.00578432377048
1751.376098076913,829.0,77.40028779599271
1752.168228897848,817.0,79.23018483366886
1752.8849186882176,804.0,78.40237426900583
1753.6770495091525,766.0,82.61041130604288
1754.3560187842397,766.0,83.10873148148147
1755.0601350695151,792.0,84.82047536095416
1755.8019718700732,716.0,82.32418220338982
1756.5438086706313,792.0,81.34472530683809
1757.2730719660951,678.0,81.80955230859146
1758.002335261559,704.0,82.75551603145794
1758.7190250519288,741.0,83.73497292800967
1759.4231413372042,741.0,86.89937213225369
1760.076963602103,729.0,87.9141332167832
1760.7685063822842,729.0,88.96614247604246
1761.4474756573713,716.0,87.29764107744106
1762.1390184375525,704.0,86.28287999291156
1762.8557082279222,653.0,83.78658683534721
1763.5975450284802,691.0,82.7718257508177
1764.31423481885,678.0,79.7196146762563
1765.118939144879,691.0,75.81237321224255
1765.9865109963794,716.0,70.30979550035721
1766.879229858068,741.0,68.84781204447485
1767.7342282044738,716.0,69.53595307843548
1768.5766530457854,804.0,71.23317672333519
1769.406504382003,867.0,72.69516017921754
1770.2112087080322,892.0,72.69516017921754
1771.0536335493439,855.0,71.98631971575942
1771.9086318957497,842.0,70.18532560344059
1772.77620374725,829.0,69.1678599317988
1773.6563491038444,804.0,70.247478483835
1774.4736269349676,842.0,72.04847259615384
1775.2783312609968,855.0,75.83570592948718
1776.032741566649,867.0,78.78914518678161
1776.762004862113,880.0,81.84135626134301
1777.4786946524828,817.0,83.23665275257108
1778.1953844428524,804.0,83.71778947368419
1778.912074233222,754.0,84.21610964912279
1779.6161905184974,729.0,84.21610964912279
1780.3328803088673,716.0,83.73497292800965
1781.0621436043311,716.0,82.75551603145794
1781.791406899795,716.0,74.73256120689655
1782.7972873073313,704.0,88.093357847038
1783.2876540060054,716.0,87.17919807692306
1784.0420643116577,729.0,92.95167468982629
1784.8216216274984,729.0,78.2421177331218
1785.588605438245,1005.0,79.15627750323674
1786.3178687337088,1244.0,78.74904811255573
1787.1099995546438,779.0,78.74904811255573
1787.8769833653903,766.0,77.40028779599271
1788.6439671761368,729.0,79.1120316754654
1789.385803976695,792.0,80.94192871314155
1790.1024937670645,766.0,83.2701459262563
1790.80661005234,766.0,86.32221756041044
1791.4730058223329,741.0,87.87254699510831
1792.1519750974198,716.0,87.87254699510831
1792.8560913826955,704.0,86.26475925925925
1793.5602076679709,666.0,84.23329310344826
1794.2894709634347,678.0,83.25383620689655
1795.0187342588986,704.0,80.9256189937818
1795.785718069645,704.0,79.15627750323674
1796.5652753854858,729.0,78.69145050148339
1797.307112186044,729.0,77.46913646459814
1798.1118165120731,766.0,75.91426060927066
1798.9416678482908,779.0,72.34602980169339
1799.7966661946966,741.0,72.34602980169339
1800.6013705207258,804.0,74.32148683100289
1801.3683543314721,829.0,78.83568136144663
1802.085044121842,855.0,83.4382218707059
1802.764013396929,804.0,86.81844834307991
1803.4429826720161,766.0,87.31676851851851
1804.1470989572915,716.0,83.9365420461445
1804.914082768038,678.0,79.33400153688524
1805.7187870940672,678.0,73.9824761745664
1806.5863589455673,704.0,70.62984338768115
1807.4665043021616,766.0,69.51699030932294
1808.3089291434735,804.0,69.18766567164178
1809.1890745000678,867.0,70.20513134328357
1810.0314993413795,880.0,71.712487893864
1810.8236301623144,842.0,73.46044174001786
1811.6409079934378,880.0,73.46044174001786
1812.4833328347495,842.0,72.31279527537139
1813.313184170967,792.0,72.31279527537139
1814.1304620020903,817.0,73.82015182595183
1814.9225928230253,842.0,75.7956088552613
1815.6895766337718,829.0,76.57247723132969
1816.4817074547066,817.0,75.42483076668321
1817.3115587909242,792.0,73.44937373737372
1818.1414101271419,766.0,73.44937373737372
1818.9335409480766,792.0,75.0042495927012
1819.7130982639173,829.0,76.15189605734767
1820.5052290848523,829.0,76.55912544802867
1821.284786400693,792.0,77.41430716845878
1822.0391967063454,779.0,77.82153655913977
1822.818754022186,792.0,77.82153655913977
1823.5983113380266,779.0,77.38693601269169
1824.3652951487732,754.0,77.80751718667372
1825.1322789595197,779.0,78.66269890710382
1825.886689265172,779.0,78.66269890710382
1826.6536730759185,766.0,78.66269890710382
1827.420656886665,766.0,77.8075171866737
1828.2002142025058,754.0,77.38693601269169
1828.9797715183465,766.0,76.96635483870968
1829.7593288341873,766.0,76.16462197580645
1830.5640331602162,779.0,75.75739258512544
1831.3561639811512,779.0,74.95565972222221
1832.1608683071804,779.0,75.35016319444443
1832.9529991281154,804.0,76.61257430555554
1833.7074094337677,792.0,77.41430716845878
1834.4869667496082,804.0,76.2666607038123
1835.3168180858258,792.0,72.80875200816013
1836.184389937326,754.0,69.8767003952569
1837.0645352939202,779.0,68.1794767503572
1837.9572541556088,829.0,67.5301042253521
1838.8499730172973,867.0,67.5301042253521
1839.7301183738919,880.0,69.2273278702518
1840.5599697101093,892.0,71.2953296037296
1841.3772475412327,892.0,73.82015182595183
1842.1693783621677,880.0,74.96779829059828
1842.9615091831024,829.0,76.15189605734766
1843.7410664989432,817.0,76.9797066220107
1844.5080503096897,792.0,78.2421177331218
1845.262460615342,792.0,80.49259594477996
1845.9791504057116,779.0,81.84135626134301
1846.7084137011757,766.0,81.84135626134301
1847.462824006828,754.0,80.01145922366685
1848.2298078175743,716.0,78.2421177331218
1849.009365133415,729.0,79.15627750323674
1849.7386284288789,754.0,81.48449471635149
1850.4427447141545,766.0,84.74973401253916
1851.1342874943357,779.0,85.2308707336523
1851.8509772847053,729.0,84.25141383710057
1852.5802405801694,704.0,83.73497292800967
1853.2843568654448,691.0,84.23329310344826
1853.9884731507202,716.0,84.71442982456139
1854.70516294109,729.0,84.71442982456138
1855.4092792263655,704.0,84.71442982456138
1856.1133955116409,704.0,82.88453278688523
1856.8803793223874,716.0,80.13573439978846
1857.6599366382281,704.0,76.9797066220107
1858.4520674591631,704.0,76.55912544802867
1859.2316247750039,766.0,76.55912544802867
1860.0111820908444,779.0,78.27086932750136
1860.7530188914027,792.0,78.69145050148339
1861.5200027021492,779.0,77.88971763858015
1862.3247070281782,779.0,76.58520314978847
1863.104264344019,741.0,75.75739258512544
1863.896395164954,766.0,76.55912544802867
1864.6759524807946,804.0,77.86363993682036
1865.4177892813527,779.0,78.27086932750136
1866.1973465971935,792.0,77.46913646459814
1867.0020509232224,779.0,74.60974612047897
1867.83190225944,741.0,73.05487026515151
1868.6617535956575,779.0,71.59288680926915
1869.5167519420636,804.0,71.23317672333518
1870.3591767833752,829.0,71.60395481191327
1871.1764546144987,829.0,72.68357336394948
1871.9937324456218,855.0,73.04328344988345
1872.8235837818395,842.0,72.31279527537139
1873.6660086231511,817.0,72.31279527537139
1874.4832864542745,817.0,74.72285285112896
1875.2376967599268,829.0,77.05801996637243
1876.0046805706734,842.0,76.68724187779432
1876.8345319068908,817.0,75.42483076668321
1877.6266627278258,754.0,75.0042495927012
1878.4062200436665,766.0,76.15189605734767
1879.1983508646015,829.0,75.75739258512544
1880.0030551906304,792.0,75.75739258512544
1880.7826125064712,779.0,77.01980369623655
1881.5370228121235,792.0,79.59087804968482
1882.2662861075873,804.0,80.01145922366685
1883.0332699183339,779.0,79.57685867721875
1883.8002537290804,754.0,78.22809836065574
1884.567237539827,729.0,80.55631557377048
1885.2713538251023,766.0,83.9365420461445
1885.9503231001895,766.0,87.31676851851851
1886.6292923752765,766.0,88.36877777777778
1887.3082616503636,704.0,87.83320942760942
1887.9998044305448,678.0,86.78120016835015
1888.7039207158205,678.0,85.2308707336523
1889.42061050619,678.0,83.73497292800965
1890.149873801654,691.0,83.73497292800967
1890.8539900869293,704.0,82.78900920514317
1891.5958268874876,716.0,80.2179348516949
1892.4005312135166,729.0,76.28503869784876
1893.21780904464,704.0,72.71680789027148
1894.072807391046,741.0,73.1113113624937
1894.8649382119809,804.0,73.49367626633986
1895.66964253801,817.0,74.95565972222221
1896.474346864039,855.0,73.44830317164178
1897.316771705351,792.0,71.98631971575942
1898.1717700517568,804.0,72.78805257866266
1898.9513273675975,804.0,75.5578202403542
1899.7057376732498,842.0,78.2421177331218
1900.4727214839963,855.0,77.44038487021857
1901.2774258100253,779.0,73.65315153688525
1902.1575711666198,754.0,72.04847259615384
1902.974848997743,766.0,73.70538717948718
1903.7292593033953,804.0,78.88791700404857
1904.445949093765,880.0,82.32249298245613
1905.1626388841348,817.0,84.21610964912279
1905.8667551694102,754.0,85.76643908382064
1906.5457244444974,716.0,87.31676851851851
1907.2246937195844,716.0,88.36877777777778
1907.9036629946715,704.0,88.92455625436757
1908.5700587646643,678.0,89.48033473095737
1909.2364545346572,678.0,90.03611320754716
1909.90285030465,678.0,88.944766380789
1910.5943930848314,666.0,85.44336197827329
1911.3488033904837,666.0,81.08677585532746
1912.1283607063244,666.0,76.6374387923904
1912.9456385374476,691.0,75.78225707196029
1913.7251958532884,754.0,75.78225707196029
1914.5047531691291,779.0,76.16462197580645
1915.3094574951583,817.0,74.98052420905707
1916.1267353262815,779.0,72.71680789027148
1916.9817336726876,779.0,71.60395481191327
1917.8241585139992,804.0,70.87346663740122
1918.6665833553109,817.0,70.87346663740122
1919.521581701717,855.0,71.60395481191327
1920.3388595328402,842.0,72.71680789027148
1921.1435638588694,842.0,73.79642644230769
1921.9608416899928,855.0,73.4256483537296
1922.7906930262102,817.0,72.67250536130535
1923.6205443624278,804.0,73.05487026515151
1924.4252486884568,817.0,74.60974612047897
1925.2048060042976,829.0,75.36288911290322
1926.0095103303267,829.0,74.60974612047897
1926.8393616665442,804.0,73.80801325757575
1927.6440659925734,779.0,74.60974612047897
1928.423623308414,804.0,75.75739258512544
1929.215754129349,829.0,75.75739258512544
1930.020458455378,804.0,75.75739258512544
1930.8000157712188,779.0,77.01980369623655
1931.554426076871,792.0,78.2421177331218
1932.3214098876176,804.0,78.2421177331218
1933.1009672034584,779.0,77.38693601269169
1933.8805245192991,754.0,76.96635483870968
1934.6600818351399,766.0,77.82153655913979
1935.4144921407922,779.0,78.2421177331218
1936.1814759515387,779.0,77.83488834244079
1936.9736067724734,779.0,77.83488834244079
1937.7280170781257,754.0,78.71882165725046
1938.4698538786838,766.0,80.43056553672315
1939.2116906792419,792.0,79.99596499027507
1939.9786744899884,754.0,78.69145050148337
1940.7582318058292,741.0,77.80751718667372
1941.5252156165757,741.0,78.69145050148339
1942.2670524171338,766.0,79.1120316754654
1943.0340362278803,779.0,78.69145050148337
1943.813593543721,766.0,77.38693601269169
1944.5931508595618,741.0,76.55912544802867
1945.3852816804967,766.0,77.41430716845878
1946.139691986149,779.0,77.41430716845878
1946.9192493019896,779.0,77.41430716845878
1947.7113801229245,792.0,76.55912544802867
1948.4909374387653,754.0,77.41430716845878
1949.2453477444176,779.0,77.41430716845878
1950.0374785653526,792.0,76.61257430555554
1950.8421828913818,779.0,74.95565972222221
1951.6468872174107,754.0,74.95565972222221
1952.4390180383457,792.0,75.75739258512544
1953.2185753541864,804.0,76.15189605734767
1954.0107061751214,804.0,75.75739258512544
1954.8154105011504,792.0,74.95565972222221
1955.6201148271796,779.0,75.36288911290322
1956.3996721430203,792.0,74.98052420905707
1957.2169499741435,804.0,74.22738121663282
1958.0468013103612,804.0,73.04328344988345
1958.8640791414844,779.0,74.22738121663282
1959.643636457325,817.0,74.59815930521091
1960.4609142884485,829.0,74.22738121663282
1961.290765624666,817.0,72.67250536130535
1962.1206169608836,779.0,73.05487026515151
1962.9253212869128,817.0,73.80801325757575
1963.7300256129417,829.0,74.17879134615384
1964.5473034440652,829.0,73.79642644230769
1965.3645812751884,804.0,73.41406153846154
1966.1818591063118,804.0,74.1909299145299
1966.9739899272467,817.0,73.82015182595183
1967.8038412634642,817.0,73.44937373737372
1968.6336925996818,817.0,72.30172727272726
1969.4635439358992,792.0,73.44937373737372
1970.2556747568342,829.0,75.42483076668321
1971.0226585675807,829.0,76.57247723132969
1971.8147893885157,829.0,75.7956088552613
1972.6320672196389,792.0,74.1909299145299
1973.4493450507623,766.0,74.59815930521091
1974.228902366603,792.0,76.2028382459423
1974.9958861773496,817.0,76.20283824594232
1975.8131640084728,817.0,74.28825230468088
1976.6555888497846,779.0,72.68357336394948
1977.4728666809078,766.0,72.68357336394948
1978.2901445120312,817.0,73.04328344988345
1979.1199958482487,842.0,72.67250536130535
1979.9498471844663,817.0,72.67250536130535
1980.7671250155897,817.0,74.22738121663282
1981.5466823314302,829.0,75.78225707196029
1982.326239647271,829.0,76.55912544802867
1983.118370468206,817.0,76.55912544802867
1983.8979277840467,779.0,77.86363993682036
1984.6397645846048,779.0,78.69145050148339
1985.4067483953513,792.0,78.69145050148337
1986.186305711192,779.0,77.38693601269169
1986.9658630270328,741.0,76.96635483870968
1987.7454203428733,766.0,76.96635483870968
1988.524977658714,779.0,76.16462197580645
1989.3296819847433,779.0,74.60974612047897
1990.1595333209607,779.0,74.60974612047897
1990.9390906368014,779.0,76.71599347217389
1991.6809274373595,804.0,78.69145050148339
1992.447911248106,829.0,78.69145050148337
1993.2274685639468,779.0,78.2421177331218
1993.981878869599,741.0,78.67671827956988
1994.7362891752514,766.0,79.0972994535519
1995.503272985998,779.0,78.2421177331218
1996.2828303018387,754.0,76.20283824594232
1997.1001081329619,754.0,73.86767113069885
1997.9425329742737,766.0,72.68357336394948
1998.759810805397,779.0,73.06593826779563
1999.564515131426,817.0,72.71680789027148
2000.419513477832,842.0,72.34602980169339
2001.2493648140496,817.0,72.74053327391562
2002.0414956349846,804.0,74.20251672979796
2002.8461999610136,855.0,74.20251672979796
2003.6760512972312,829.0,73.05487026515151
2004.5059026334486,792.0,71.9420171867933
2005.3483274747605,804.0,72.69516017921754
2006.1530318007897,829.0,73.06593826779563
2006.9703096319129,829.0,73.79642644230769
2007.7875874630363,842.0,73.04328344988345
2008.6174387992537,804.0,73.82015182595183
2009.4095696201887,817.0,73.82015182595183
2010.226847451312,817.0,74.57329481837607
2011.031551777341,829.0,73.4256483537296
2011.8614031135587,792.0,73.80801325757575
2012.6661074395877,817.0,75.46492784090908
2013.42051774524,804.0,77.87498541666666
2014.1749280508923,829.0,78.67671827956988
2014.954485366733,804.0,77.01980369623655
2015.7591896927622,754.0,75.36288911290322
2016.5638940187914,754.0,75.78347028688523
2017.330877829538,779.0,75.4011053830391
2018.1481556606611,804.0,74.64796239061485
2018.9780069968788,804.0,72.67250536130535
2019.8078583330962,766.0,73.85660312805473
2020.587415648937,817.0,74.22738121663282
2021.4046934800604,829.0,73.86767113069885
2022.247118321372,829.0,73.06593826779563
2023.0518226474012,779.0,73.44830317164178
2023.8565269734302,817.0,73.80801325757575
2024.6863783096478,842.0,73.4256483537296
2025.5036561407712,804.0,73.82015182595183
2026.295786961706,804.0,75.37502768127929
2027.0753442775467,829.0,76.15189605734767
2027.8674750984817,817.0,75.75739258512544
2028.672179424511,792.0,74.20251672979796
2029.5020307607283,779.0,73.80801325757575
2030.3067350867575,792.0,74.60974612047897
2031.0862924025982,804.0,75.36288911290322
2031.8909967286272,829.0,74.250036034545
2032.733421569939,804.0,71.98631971575942
2033.588419916345,779.0,70.52433625987707
2034.4434182627508,804.0,70.52433625987707
2035.2858431040627,842.0,70.87346663740122
2036.1282679453743,855.0,70.87346663740122
2036.9832662917804,855.0,71.23317672333519
2037.8131176279978,842.0,72.74053327391562
2038.6052484489328,842.0,73.82015182595183
2039.422526280056,855.0,73.82015182595183
2040.2523776162736,829.0,73.4256483537296
2041.0570819423028,792.0,75.03032729446099
2041.8240657530494,817.0,76.17797375910746
2042.616196573984,829.0,75.7956088552613
2043.4334744051075,804.0,74.57329481837607
2044.2381787311367,766.0,74.57329481837607
2045.0303095520715,792.0,75.35016319444443
2045.8224403730064,817.0,74.96779829059828
2046.6397182041298,804.0,74.57329481837607
2047.4444225301588,792.0,74.57329481837607
2048.236553351094,792.0,75.75739258512544
2049.0161106669343,817.0,77.41430716845878
2049.770520972587,804.0,77.01980369623655
2050.575225298616,792.0,75.83570592948718
2051.3925031297395,779.0,72.71680789027148
2052.2475014761453,754.0,72.71680789027148
2053.0522058021743,804.0,73.90090565702086
2053.8317631180153,817.0,76.58520314978847
2054.5987469287616,855.0,77.38693601269169
2055.378304244602,804.0,76.58520314978847
2056.1830085706315,779.0,75.36288911290322
2056.9877128966605,766.0,73.44830317164178
2057.830137737972,779.0,73.44830317164178
2058.6348420640015,804.0,74.250036034545
2059.414399379842,804.0,75.36288911290322
2060.219103705871,842.0,73.90090565702086
2061.0741020522773,804.0,70.96885404411763
2061.9542474088717,779.0,68.5184874067937
2062.84696627056,804.0,67.85015211267606
2063.7271116271545,855.0,68.17947675035721
2064.5946834786546,880.0,80.35521159420288
2065.173064712988,892.0,103.07861159420288
2065.6131373912854,880.0,106.10191974340697
2066.3801212020317,867.0,93.92618489956129
2067.27284006372,1018.0,71.53210953724245
2068.1404119152203,766.0,70.30979550035721
2068.9451162412497,892.0,73.98247617456639
2069.712100051996,867.0,77.44038487021857
2070.4665103576485,804.0,77.44038487021857
2071.2712146836775,766.0,75.46492784090908
2072.101066019895,754.0,107.86681302609426
2072.4405506574385,804.0,120.88542760942761
2072.968637871395,829.0,120.52571752349363
2073.8110627127066,867.0,85.71377476255087
2074.6409140489245,842.0,72.31279527537139
2075.4581918800477,829.0,71.96366489784724
2076.3131902264536,817.0,71.25482443438912
2077.1681885728594,855.0,69.83619522591644
2078.0357604243595,855.0,70.91581377795265
2078.853038255483,867.0,71.62465424141075
2079.6828895917006,817.0,71.96366489784724
2080.5378879381065,829.0,69.89566316436944
2081.430606799795,855.0,69.18682270091134
2082.285605146201,892.0,69.18682270091134
2083.140603492607,855.0,69.83619522591644
2084.0081753441073,855.0,69.1678599317988
2084.8883207007016,867.0,68.49952463768115
2085.768466057296,880.0,69.54737575757575
2086.5983173935133,880.0,70.9245515151515
2087.4281687297307,829.0,71.59288680926915
2088.283167076137,829.0,69.89566316436944
2089.1758859378256,855.0,67.58464905062931
2090.0937518097026,892.0,66.91631375651167
2090.973897166297,917.0,67.90469693795325
2091.8288955127027,880.0,69.16785993179879
2092.696467364203,855.0,68.84781204447485
2093.5891862258914,867.0,69.196942421999
2094.431611067203,892.0,71.39244000654006
2095.223741888138,842.0,73.84280664386401
2096.028446214167,792.0,72.82534097222222
2096.9085915707615,804.0,70.30051875
2097.788736927356,880.0,68.1702
2098.66888228395,880.0,69.18766567164178
2099.5113071252617,880.0,68.86761778431784
2100.4040259869503,842.0,67.93377942815346
2101.3218918588273,892.0,66.2851082009561
2102.22718422561,917.0,66.93448072596121
2103.0947560771106,905.0,68.53665437624323
2103.9497544235164,867.0,68.84781204447485
2104.842473285205,855.0,68.5184874067937
2105.7226186417993,892.0,68.5184874067937
2106.577616988205,880.0,71.36335751633985
2107.36974780914,855.0,72.38082318798165
2108.212172650452,792.0,72.04181253154516
2109.079744501952,842.0,70.89416606689869
2109.9095958381695,867.0,72.40152261747912
2110.701726659104,829.0,75.42483076668321
2111.468710469851,792.0,76.17797375910746
2112.27341479588,766.0,75.03032729446099
2113.1032661320974,804.0,72.34602980169339
2113.9582644785037,829.0,71.59288680926915
2114.788115814721,855.0,71.96366489784724
2115.6053936458443,829.0,71.96366489784724
2116.46039199225,817.0,71.96366489784724
2117.290243328468,855.0,71.96366489784724
2118.107521159591,829.0,73.4256483537296
2118.91222548562,817.0,73.06593826779563
2119.754650326932,804.0,73.06593826779563
2120.5719281580555,842.0,73.06593826779563
2121.3766324840844,817.0,64.19084829708842
2122.7219975291646,804.0,80.50508419452431
2123.2123642278384,1345.0,88.1133654445243
2123.8284659774545,1848.0,100.20755584528465
2124.570302778013,766.0,85.49799888858016
2125.337286588759,804.0,77.88971763858015
2126.141990914788,842.0,74.67061720852703
2126.9844157561,804.0,73.44830317164178
2127.789120082129,766.0,74.67061720852703
2128.5561038928754,766.0,77.00578432377048
2129.323087703622,829.0,76.25264133134624
2130.1529390398396,855.0,73.56834383857864
2131.0079373862454,817.0,71.96366489784724
2131.825215217369,829.0,71.96366489784724
2132.6550665535865,842.0,72.31279527537139
2133.497491394898,855.0,71.23317672333518
2134.352489741304,829.0,71.23317672333519
2135.1823410775214,792.0,72.74053327391562
2135.9744718984566,792.0,74.59702020202019
2136.7666027193914,804.0,75.35016319444443
2137.571307045421,855.0,73.49367626633986
2138.4263053918266,829.0,72.34602980169339
2139.256156728044,842.0,71.23317672333518
2140.0985815693557,867.0,70.89416606689869
2140.966153420856,867.0,69.8463149470041
2141.833725272356,855.0,69.49718456947996
2142.688723618762,842.0,70.18532560344059
2143.531148460074,867.0,70.18532560344059
2144.398720311574,829.0,70.89416606689869
2145.2285716477913,792.0,72.40152261747912
2146.0207024687265,1056.0,68.28496464646463
2147.0768768966395,590.0,78.02775059101654
2147.667831636067,855.0,76.17126366291195
2148.522829982473,855.0,80.62683229036293
2149.377828328879,829.0,70.88404634581104
2150.2076796650967,829.0,71.59288680926915
2151.037531001314,855.0,71.59288680926915
2151.89252934772,804.0,72.34602980169339
2152.697233673749,779.0,73.90090565702086
2153.47679098959,779.0,76.16462197580644
2154.2563483054305,804.0,76.16462197580645
2155.06105263146,829.0,74.60974612047897
2155.8909039676773,842.0,72.69516017921754
2156.733328808989,779.0,73.49689304212076
2157.51288612483,754.0,75.90695061787835
2158.267296430482,754.0,78.67671827956988
2159.0217067361345,766.0,79.0972994535519
2159.788690546881,779.0,78.2421177331218
2160.5682478627214,779.0,77.38693601269169
2161.3478051785623,766.0,77.38693601269169
2162.1147889893086,766.0,77.80751718667372
2162.8817728000554,792.0,77.40028779599271
2163.67390362099,817.0,75.7956088552613
2164.4911814521133,842.0,73.46044174001786
2165.3336062934254,842.0,71.95308518943742
2166.176031134737,804.0,72.33545009328358
2166.980735460766,829.0,72.69516017921754
2167.8105867969834,829.0,73.05487026515151
2168.6404381332013,829.0,72.30172727272726
2169.4702894694187,804.0,73.05487026515151
2170.2749937954477,779.0,74.60974612047897
2171.0545511112887,766.0,76.58520314978847
2171.821534922035,829.0,75.83206015736423
2172.6513862582524,880.0,72.900008544461
2173.531531614847,867.0,69.8767003952569
2174.3991034663472,829.0,69.8767003952569
2175.2289548025647,842.0,70.89416606689869
2176.0713796438763,867.0,70.89416606689869
2176.9389514953764,905.0,68.88578475376738
2177.844243862159,855.0,68.53665437624323
2178.699242208565,829.0,69.58450549613784
2179.529093544783,855.0,70.88404634581103
2180.3840918911887,842.0,71.23317672333518
2181.2265167325004,804.0,71.98631971575944
2182.0312210585294,792.0,73.84280664386401
2182.8233518794646,804.0,74.95565972222221
2183.6280562054935,766.0,76.17797375910746
2184.3950400162403,779.0,76.58520314978847
2185.174597332081,792.0,76.9797066220107
2185.9667281530155,880.0,73.62707383512544
2186.8468735096103,792.0,73.21984444444443
2187.639004330545,817.0,72.44297606837605
2188.4562821616682,817.0,74.1909299145299
2189.2735599927914,842.0,72.68357336394948
2190.1159848341035,842.0,71.95308518943742
2190.958409675415,842.0,71.22259701492537
2191.800834516727,829.0,71.58230710085934
2192.630685852944,792.0,73.08966365143976
2193.4228166738794,842.0,73.08966365143976
2194.265241515191,880.0,71.71248789386401
2195.1453868717854,892.0,68.86761778431784
2196.038105733474,829.0,69.2273278702518
2196.8679570696913,842.0,70.2447935418936
2197.7103819110034,867.0,70.89416606689869
2198.5779537625035,880.0,69.51699030932295
2199.458099119098,880.0,68.49952463768115
2200.338244475692,867.0,68.49952463768115
2201.205816327192,829.0,69.8767003952569
2202.0356676634096,880.0,69.8767003952569
2202.915813020004,867.0,69.8767003952569
2203.783384871504,855.0,69.16785993179879
2204.6383832179104,842.0,70.18532560344059
2205.480808059222,855.0,70.52433625987707
2206.335806405628,829.0,71.23317672333519
2207.1656577418453,804.0,72.34602980169339
2207.9703620678747,779.0,74.60974612047897
2208.749919383715,779.0,76.16462197580644
2209.5294766995557,804.0,76.16462197580645
2210.334181025585,829.0,74.60974612047897
2211.1640323618026,867.0,72.0070191452569
2212.0316042133027,842.0,70.89416606689869
2212.8740290546143,817.0,71.2649441554768
2213.691306885738,855.0,71.60395481191327
2214.546305232144,905.0,69.95528358471593
2215.4515975989266,892.0,67.88728185123813
2216.344316460615,842.0,68.23641222876229
2217.1867413019268,855.0,69.53595307843548
2218.0417396483326,905.0,69.22479541020388
2218.9470320151154,892.0,67.88728185123813
2219.839750876804,880.0,67.21894655712049
2220.7198962333982,829.0,69.2273278702518
2221.549747569616,817.0,71.2953296037296
2222.3670254007393,804.0,73.4256483537296
2223.1717297267683,779.0,74.98052420905707
2223.9512870426092,792.0,75.75739258512544
2224.743417863544,855.0,74.29540912924308
2225.59841620995,880.0,71.36335751633986
2226.478561566544,892.0,68.5184874067937
2227.3712804282327,829.0,69.2273278702518
2228.2011317644506,829.0,70.60450362782757
2229.030983100668,842.0,71.9420171867933
2229.8734079419796,880.0,70.56484142921754
2230.753553298574,867.0,69.51699030932294
2231.621125150074,829.0,69.8767003952569
2232.450976486292,867.0,70.20602503293806
2233.318548337792,867.0,70.20602503293806
2234.186120189292,867.0,69.15817391304347
2235.053692040792,842.0,69.8463149470041
2235.896116882104,829.0,70.89416606689869
2236.7259682183217,842.0,71.58230710085932
2237.5683930596333,855.0,71.23317672333518
2238.423391406039,817.0,71.60395481191327
2239.2406692371624,804.0,72.71680789027148
2240.045373563192,842.0,73.06593826779563
2240.8877984045034,855.0,71.98631971575942
2241.7427967509093,855.0,70.52433625987707
2242.597795097315,804.0,71.63718933823529
2243.402499423344,829.0,72.34602980169339
2244.232350759562,804.0,73.80801325757575
2245.037055085591,754.0,75.46492784090908
2245.7914653912435,792.0,76.61257430555554
2246.5835962121782,817.0,76.2302094017094
2247.4008740433014,855.0,73.11131136249371
2248.2558723897073,829.0,71.96366489784724
2249.085723725925,804.0,72.34602980169339
2249.890428051954,1119.0,66.82663158622744
2251.0094700053382,590.0,76.56941753077933
2251.600424744766,817.0,76.18705262693318
2252.4177025758895,829.0,82.41529130585725
2253.247553912107,842.0,72.31279527537139
2254.0899787534186,804.0,72.69516017921754
2254.8946830794475,766.0,74.67061720852703
2255.6616668901943,766.0,77.00578432377048
2256.4286507009406,804.0,77.00578432377048
2257.23335502697,842.0,74.67061720852703
2258.0757798682816,867.0,71.64730905932294
2258.9433517197817,842.0,70.53445598096474
