1.30499
1.29521
1.33920
1.40274
1.49560
1.60313
1.71554
1.82307
1.91105
1.99902
2.05279
2.11144
2.14076
2.17986
2.15054
2.15543
2.08700
2.03812
1.98925
1.94037
1.89638
1.84262
1.79374
1.73509
1.68133
1.62757
1.58847
1.53959
1.52493
1.48094
1.49560
1.45161
1.45161
1.45161
1.45650
1.45650
1.45650
1.46139
1.45650
1.45161
1.43695
1.43695
1.41740
1.42717
1.38319
1.40274
1.35386
1.33920
1.32454
1.30987
1.29032
1.28055
1.26588
1.25611
1.25122
1.23656
1.23167
1.21701
1.21212
1.19257
1.20235
1.17302
1.20235
1.15836
1.16813
1.19257
1.23656
1.30987
1.39785
1.50049
1.59824
1.69110
1.75464
1.80841
1.82796
1.84262
1.82307
1.82796
1.77419
1.76931
1.71554
1.68133
1.65200
1.61779
1.58358
1.54936
1.51515
1.47605
1.45161
1.42229
1.40762
1.37830
1.39785
1.35386
1.37341
1.34897
1.34897
1.34897
1.35875
1.36852
1.36852
1.37341
1.36364
1.36364
1.34897
1.34897
1.32454
1.34409
1.30010
1.31965
1.27566
1.26100
1.24145
1.22678
1.21212
1.19746
1.19257
1.18280
1.17791
1.16813
1.15836
1.14369
1.13392
1.10948
1.10948
1.08016
1.11437
1.07038
1.09482
1.11926
1.17791
1.25611
1.35386
1.45650
1.55914
1.64712
1.71065
1.75464
1.76931
1.77419
1.75464
1.74487
1.70577
1.70577
1.64223
1.63245
1.57869
1.54936
1.51515
1.48094
1.45161
1.41740
1.39296
1.36852
1.35875
1.34409
1.34897
1.33920
1.36852
1.34897
1.39296
1.36364
1.36852
1.36852
1.37341
1.36852
1.36364
1.36364
1.35875
1.35386
1.33920
1.32942
1.30987
1.30010
1.26588
1.29032
1.23656
1.23167
1.22190
1.22190
1.21212
1.19746
1.17791
1.15347
1.13392
1.10948
1.09971
1.08993
1.09482
1.08504
1.11926
1.10459
1.16813
1.20723
1.30499
1.42717
1.55425
1.68133
1.78886
1.87195
1.92082
1.95015
1.94526
1.93548
1.90616
1.88661
1.84751
1.84262
1.78886
1.79863
1.73509
1.70577
1.67155
1.63734
1.60313
1.56891
1.54936
1.53470
1.52981
1.52493
1.53959
1.53470
1.56891
1.54936
1.59335
1.57380
1.58847
1.59824
1.60313
1.60313
1.60802
1.60313
1.58847
1.57869
1.56403
1.55425
1.53959
1.53959
1.52004
1.53959
1.50049
1.52493
1.47116
1.46139
1.44673
1.43695
1.42717
1.41740
1.41251
1.39785
1.38807
1.37341
1.37341
1.38319
1.42717
1.47116
1.58847
1.65689
1.79863
1.87683
1.97947
2.05767
2.12121
2.15543
2.17498
2.17498
2.15543
2.13587
2.11144
2.08700
2.05279
2.03324
1.99902
1.98925
1.94037
1.94037
1.87683
1.84262
1.81329
1.78886
1.76442
1.74976
1.73998
1.73509
1.73509
1.73509
1.74976
1.74487
1.75953
1.75464
1.78397
1.74976
1.76931
1.73998
1.73021
1.72043
1.70088
1.68622
1.66178
1.64712
1.62268
1.60802
1.59335
1.58847
1.57380
1.58847
1.55425
1.57869
1.52493
1.51026
1.49071
1.47605
1.46628
1.45650
1.45650
1.45161
1.47116
1.50538
1.56891
1.65200
1.76442
1.86217
2.00391
2.06256
2.14565
2.18475
2.20919
2.21896
2.20919
2.18475
2.15543
2.12610
2.09189
2.06256
2.02835
2.00391
1.96970
1.95015
1.90127
1.90616
1.83773
1.80841
1.78397
1.75953
1.74976
1.73998
1.73998
1.73998
1.74487
1.74487
1.75464
1.75953
1.76931
1.76442
1.77419
1.74976
1.76442
1.72043
1.72043
1.68133
1.66178
1.64712
1.63245
1.61290
1.59824
1.58847
1.56891
1.55914
1.54448
1.53470
1.51515
1.52004
1.49560
1.51515
1.47116
1.48094
1.45161
1.44184
1.44673
1.46628
1.51026
1.57869
1.67155
1.77908
1.89150
1.99413
2.08700
2.15054
2.20430
2.21408
2.25318
2.20430
2.17986
2.15054
2.11632
2.07722
2.04301
2.00880
1.97947
1.95015
1.91105
1.88172
1.84751
1.81329
1.77419
1.75953
1.73509
1.74487
1.72043
1.76442
1.72532
1.73021
1.73509
1.73509
1.73998
1.73998
1.73998
1.73509
1.73021
1.71554
1.71065
1.69599
1.68622
1.66178
1.66667
1.61779
1.64223
1.58358
1.56403
1.54936
1.53959
1.52981
1.51515
1.50538
1.48583
1.47116
1.45161
1.43695
1.41740
1.41251
1.39785
1.42229
1.39785
1.45650
1.47605
1.54936
1.64712
1.75464
1.86706
1.96970
2.05767
2.11144
2.14565
2.15543
2.15054
2.12610
2.10166
2.05767
2.04301
1.97947
1.96970
1.90127
1.86706
1.82796
1.78397
1.73998
1.70088
1.66667
1.63245
1.60802
1.58847
1.58358
1.57380
1.57869
1.57380
1.60313
1.58358
1.63245
1.59824
1.59335
1.58847
1.57869
1.56403
1.54936
1.52981
1.51515
1.50049
1.48094
1.46139
1.44184
1.43206
1.40274
1.40274
1.36364
1.39296
1.33920
1.33431
1.31965
1.30987
1.30010
1.28543
1.27077
1.25611
1.24145
1.22190
1.21701
1.21701
1.24633
1.29032
1.38319
1.47605
1.62757
1.72043
1.84751
1.93060
1.99413
2.03324
2.04301
2.03812
2.01369
1.97947
1.94037
1.90127
1.85728
1.82307
1.77419
1.74976
1.69599
1.68622
1.61779
1.59824
1.54448
1.51515
1.49560
1.48583
1.48094
1.48583
1.50049
1.51026
1.52493
1.52981
1.53959
1.53959
1.55425
1.53959
1.56403
1.52981
1.56403
1.51026
1.50049
1.48583
1.46628
1.43695
1.42229
1.40274
1.38319
1.36852
1.35386
1.34897
1.33431
1.32942
1.30987
1.30987
1.28543
1.30987
1.25611
1.24633
1.23167
1.23167
1.24145
1.28055
1.34897
1.45161
1.57380
1.70088
1.82796
1.93548
2.02835
2.07234
2.12121
2.10166
2.13099
2.06256
2.02835
1.98925
1.94526
1.90616
1.86217
1.82307
1.77908
1.74976
1.70577
1.67644
1.64223
1.62757
1.60313
1.60802
1.58847
1.63245
1.59335
1.60313
1.61290
1.63245
1.64223
1.65689
1.66178
1.67155
1.67644
1.66667
1.66178
1.64712
1.64223
1.61779
1.62268
1.58358
1.59824
1.55425
1.54448
1.52981
1.52004
1.50538
1.49071
1.48583
1.47116
1.46628
1.45161
1.44673
1.42717
1.43206
1.40762
1.44184
1.40274
1.41740
1.46139
1.52981
1.63245
1.75464
1.88172
2.00880
2.12121
2.20919
2.27273
2.29717
2.31183
2.28739
2.28250
2.21408
2.18964
2.11632
2.07234
2.03324
1.99413
1.95503
1.91593
1.87195
1.83284
1.79863
1.76442
1.73998
1.71554
1.71554
1.70577
1.72532
1.70088
1.73998
1.71554
1.74976
1.72532
1.73509
1.73509
1.73998
1.73509
1.72532
1.71554
1.69110
1.68133
1.65689
1.64712
1.62268
1.62268
1.58358
1.60802
1.55425
1.53470
1.52493
1.50538
1.49560
1.49071
1.48094
1.46628
1.46139
1.44673
1.44184
1.42229
1.42717
1.41251
1.45650
1.45650
1.55425
1.60802
1.72043
1.84262
1.96970
2.08700
2.17986
2.24829
2.28250
2.29717
2.28739
2.26295
2.21896
2.17986
2.12121
2.10166
2.02835
2.02346
1.94526
1.91105
1.87195
1.83284
1.79374
1.75464
1.73021
1.70577
1.69110
1.68133
1.68622
1.68133
1.69599
1.69599
1.71554
1.70577
1.74976
1.71065
1.71065
1.70577
1.69599
1.68622
1.67155
1.65689
1.63245
1.61779
1.58847
1.57380
1.54936
1.53959
1.52004
1.52981
1.49560
1.52004
1.47116
1.46139
1.45161
1.44184
1.42717
1.42229
1.41740
1.40274
1.40274
1.39785
1.41740
1.45161
1.52493
1.60802
1.75464
1.84751
1.97947
2.08211
2.17009
2.22385
2.25318
2.25806
2.23363
2.20430
2.16031
2.12121
2.07234
2.03324
1.98925
1.95992
1.90127
1.89638
1.81818
1.78886
1.73998
1.70577
1.67155
1.65689
1.64223
1.63734
1.63734
1.63734
1.65200
1.65689
1.67155
1.67155
1.69599
1.67644
1.72043
1.67155
1.66667
1.64712
1.63734
1.61290
1.59824
1.57869
1.55914
1.54936
1.52981
1.51515
1.49560
1.48583
1.46139
1.47116
1.43206
1.45650
1.41251
1.39785
1.38807
1.37341
1.35875
1.34897
1.33920
1.33920
1.35875
1.39296
1.47116
1.55425
1.69110
1.79863
1.96481
2.03324
2.11632
2.17009
2.19453
2.19453
2.17498
2.14076
2.09677
2.05279
1.99902
1.95992
1.91105
1.88172
1.82307
1.81329
1.73021
1.68622
1.64223
1.60313
1.56891
1.54448
1.53470
1.53470
1.53470
1.53959
1.54936
1.55425
1.56403
1.56403
1.58358
1.56891
1.60313
1.55425
1.55914
1.52981
1.51515
1.49071
1.47116
1.45650
1.43206
1.41740
1.39785
1.38807
1.36852
1.35386
1.33431
1.32942
1.30499
1.31476
1.27566
1.28055
1.25122
1.24145
1.23167
1.23167
1.22190
1.23167
1.26100
1.31476
1.39785
1.50538
1.63245
1.75464
1.88172
1.96481
2.06745
2.07234
2.09677
2.07234
2.04301
2.00391
1.95992
1.91105
1.85728
1.80841
1.75464
1.70577
1.65689
1.61290
1.56403
1.54448
1.50049
1.51515
1.46139
1.45650
1.44673
1.45161
1.45161
1.46628
1.48094
1.49071
1.50538
1.51026
1.52004
1.51515
1.52004
1.50049
1.51026
1.47116
1.49071
1.43206
1.41740
1.39785
1.38319
1.36852
1.34897
1.33920
1.31965
1.30987
1.29032
1.28055
1.26588
1.26588
1.24145
1.26100
1.21701
1.21212
1.19746
1.19746
1.21212
1.25122
1.32454
1.42229
1.55425
1.68622
1.82307
1.93548
2.03812
2.09189
2.14076
2.12121
2.13587
2.06745
2.03812
1.97458
1.92571
1.87683
1.82796
1.79374
1.74976
1.71065
1.66667
1.63734
1.59824
1.58847
1.55914
1.58847
1.54936
1.55425
1.56403
1.57869
1.59335
1.61290
1.63734
1.64712
1.66667
1.66667
1.67644
1.66667
1.67155
1.64712
1.67155
1.61779
1.59824
1.58358
1.56403
1.55425
1.53959
1.52493
1.51515
1.50538
1.49071
1.48094
1.46628
1.45650
1.44184
1.45161
1.42229
1.45650
1.41251
1.42229
1.45161
1.50538
1.58847
1.70088
1.82796
1.95503
2.08211
2.18475
2.26784
2.31183
2.34115
2.32160
2.33138
2.25318
2.20919
2.16031
2.11144
2.06745
2.02346
1.97947
1.93548
1.89638
1.84751
1.80841
1.76931
1.74487
1.71554
1.72532
1.69110
1.70577
1.68622
1.69110
1.70088
1.70577
1.72043
1.72532
1.73021
1.72532
1.72532
1.71554
1.70577
1.68622
1.69110
1.65200
1.67155
1.61779
1.60313
1.58358
1.56403
1.54936
1.53470
1.52004
1.50538
1.49071
1.47605
1.46628
1.44673
1.45161
1.42229
1.46139
1.41251
1.42229
1.44673
1.49560
1.57380
1.68133
1.80841
1.94037
2.07234
2.17986
2.26295
2.31183
2.34604
2.33627
2.34604
2.27273
2.23363
2.17498
2.12610
2.08211
2.03812
1.99902
1.95503
1.91593
1.87195
1.83284
1.78886
1.76931
1.72532
1.73998
1.69599
1.70088
1.70088
1.70577
1.71065
1.72043
1.72532
1.72532
1.73021
1.73021
1.73021
1.72043
1.71554
1.69110
1.70088
1.65200
1.66178
1.60313
1.57869
1.56403
1.54448
1.52493
1.51026
1.50049
1.48094
1.47116
1.45650
1.44673
1.42717
1.42229
1.40274
1.42717
1.38807
1.40274
1.40762
1.44184
1.50049
1.58847
1.70088
1.82796
1.95992
2.07722
2.17498
2.24340
2.29228
2.29717
2.31183
2.26295
2.25806
2.17009
2.12121
2.07722
2.02835
1.98925
1.94526
1.90616
1.86706
1.83284
1.78397
1.75953
1.71554
1.72532
1.67644
1.68622
1.66667
1.66667
1.67155
1.68622
1.69110
1.70088
1.70577
1.71065
1.71065
1.70577
1.70088
1.68133
1.68622
1.65200
1.67155
1.60802
1.59335
1.56891
1.55425
1.53959
1.52493
1.51026
1.50049
1.49071
1.47605
1.47116
1.45650
1.45650
1.43695
1.45161
1.41740
1.45161
1.40274
1.39785
1.40762
1.42229
1.47116
1.54936
1.65200
1.76931
1.90127
2.01857
2.13099
2.20430
2.26295
2.27273
2.29717
2.24340
2.22874
2.15054
2.09677
2.04301
1.99413
1.94526
1.90127
1.85728
1.80841
1.76931
1.72043
1.68133
1.63734
1.61779
1.58847
1.59824
1.56891
1.59824
1.56891
1.57869
1.58847
1.59824
1.60313
1.60802
1.60802
1.59824
1.59335
1.57869
1.56403
1.53959
1.53470
1.49560
1.51515
1.45161
1.42717
1.41251
1.39296
1.37830
1.36364
1.34897
1.33431
1.32454
1.30499
1.30499
1.28543
1.28543
1.26100
1.28055
1.23656
1.27077
1.22678
1.23167
1.25611
1.30987
1.38807
1.49071
1.61290
1.73998
1.86217
1.95992
2.03812
2.07722
2.10166
2.08211
2.08211
2.00880
1.98436
1.90127
1.84751
1.79863
1.75464
1.71065
1.66667
1.62757
1.58358
1.54448
1.50049
1.48094
1.45161
1.45161
1.43206
1.47605
1.44673
1.45650
1.46628
1.47605
1.48583
1.49071
1.49560
1.49071
1.48583
1.47605
1.47116
1.45161
1.44673
1.41251
1.42717
1.36852
1.34897
1.32942
1.30987
1.29032
1.28055
1.27077
1.25611
1.24633
1.23167
1.22678
1.21701
1.21701
1.20235
1.21212
1.18280
1.21701
1.17302
1.16813
1.18768
1.22678
1.30499
1.41251
1.53959
1.67644
1.81818
1.93060
2.01857
2.07234
2.09677
2.08211
2.07234
2.00880
1.99902
1.91105
1.85728
1.80352
1.75464
1.71065
1.66667
1.62757
1.58358
1.54448
1.50538
1.48094
1.45161
1.45161
1.43206
1.47116
1.44673
1.49071
1.48094
1.50049
1.52493
1.53959
1.55425
1.55914
1.56891
1.55914
1.55914
1.55425
1.54936
1.53470
1.53959
1.51026
1.53470
1.48583
1.46628
1.45650
1.44673
1.44184
1.43695
1.43206
1.42229
1.41740
1.40274
1.39296
1.37830
1.37830
1.35875
1.38319
1.36364
1.41740
1.44184
1.52493
1.64223
1.77419
1.91593
2.05279
2.17009
2.26295
2.31672
2.34115
2.34115
2.31183
2.27761
2.21896
2.19453
2.11144
2.07722
2.01857
1.97947
1.95015
1.92082
1.89150
1.85239
1.82307
1.78397
1.75953
1.73021
1.72532
1.70577
1.73998
1.71065
1.73021
1.73509
1.74487
1.74976
1.75464
1.75464
1.74976
1.73998
1.72532
1.71554
1.69599
1.68133
1.65689
1.64712
1.61290
1.63245
1.57380
1.55914
1.54448
1.53470
1.52493
1.51515
1.50538
1.49071
1.48094
1.46628
1.46139
1.44184
1.44673
1.42717
1.46139
1.44184
1.49560
1.53470
1.62757
1.74487
1.88172
2.01857
2.14076
2.24340
2.31672
2.36070
2.37048
2.36559
2.32649
2.29717
2.22385
2.19941
2.12121
2.08211
2.04301
2.01369
1.97947
1.94526
1.91105
1.87195
1.83773
1.80352
1.77419
1.74976
1.74976
1.73021
1.75953
1.73021
1.74976
1.74487
1.74976
1.75464
1.75464
1.74976
1.74487
1.73509
1.72532
1.71554
1.69599
1.68622
1.66178
1.66178
1.63245
1.65200
1.60313
1.61779
1.58847
1.57869
1.57380
1.56403
1.55425
1.52981
1.50538
1.46628
1.43206
1.37830
1.32942
1.25611
1.20235
1.12414
1.10948
1.04594
1.06061
1.12414
1.24145
1.37830
1.53470
1.68622
1.81329
1.93060
2.00391
2.06256
2.08211
2.09677
2.08211
2.08700
2.03812
2.04790
1.98436
1.95992
1.92082
1.88172
1.84262
1.79863
1.75953
1.72043
1.69110
1.66178
1.65200
1.63734
1.65200
1.64712
1.68133
1.67644
1.71554
1.70088
1.70088
1.68622
1.66178
1.63245
1.59335
1.55914
1.52004
1.49071
1.45650
1.42717
1.39296
1.38319
1.34409
1.36364
1.32454
1.32454
1.32942
1.32942
1.31965
1.31965
1.31476
1.30499
1.30499
1.29521
1.29521
1.28055
1.27566
1.25122
1.26588
1.21701
1.23656
1.25122
1.30987
1.39296
1.51026
1.64223
1.77419
1.90127
2.00391
2.08700
2.13587
2.16520
2.16031
2.15543
2.10166
2.09677
2.00391
1.95503
1.90127
1.85239
1.79863
1.75464
1.70577
1.64712
1.59824
1.54448
1.51026
1.47116
1.45650
1.43695
1.46139
1.44184
1.49560
1.48094
1.50538
1.52981
1.55914
1.57380
1.58847
1.59335
1.57869
1.56403
1.52981
1.51026
1.47116
1.45161
1.40762
1.40762
1.35386
1.35875
1.30987
1.29032
1.27077
1.25611
1.24145
1.22678
1.21212
1.19257
1.18280
1.16325
1.15836
1.12903
1.15836
1.12414
1.14858
1.18768
1.26100
1.36852
1.49071
1.63245
1.76442
1.88661
1.96481
2.01857
2.03324
2.03324
1.99413
1.97458
1.89638
1.87683
1.78397
1.73509
1.68133
1.63734
1.59335
1.55914
1.52493
1.48583
1.45161
1.42229
1.40762
1.39296
1.40762
1.40762
1.46628
1.44673
1.47605
1.50538
1.52981
1.55425
1.56891
1.57869
1.58358
1.57869
1.57380
1.56891
1.55914
1.55914
1.53470
1.55425
1.51026
1.52004
1.48583
1.47605
1.47116
1.46139
1.45650
1.45161
1.45161
1.44184
1.43695
1.42717
1.42717
1.41251
1.41740
1.40274
1.43695
1.41251
1.44673
1.50049
1.59335
1.71065
1.84751
1.99413
2.12121
2.23363
2.30694
2.35582
2.36559
2.36070
2.31672
2.29717
2.20919
2.17498
2.09189
2.03324
1.98436
1.94526
1.90616
1.86706
1.83284
1.79374
1.76931
1.73509
1.72043
1.69110
1.71554
1.68133
1.69110
1.68622
1.70088
1.71065
1.72043
1.73021
1.73021
1.73509
1.73021
1.72532
1.71065
1.70088
1.67644
1.67155
1.63734
1.65689
1.59335
1.58847
1.55914
1.53959
1.52493
1.50538
1.49560
1.48583
1.48094
1.46628
1.46628
1.45161
1.45161
1.43206
1.44184
1.41740
1.45161
1.41251
1.44184
1.48583
1.56403
1.67155
1.80352
1.94526
2.07722
2.19941
2.29228
2.35093
2.37537
2.38025
2.34115
2.32649
2.24829
2.21408
2.13099
2.07234
2.01857
1.97458
1.93060
1.88661
1.85239
1.80841
1.77419
1.73509
1.71065
1.68622
1.67644
1.65689
1.68622
1.65689
1.67155
1.67644
1.68622
1.70088
1.70088
1.70088
1.70088
1.70088
1.68133
1.67155
1.64712
1.63734
1.60802
1.60802
1.56891
1.58847
1.52981
1.51026
1.49071
1.47116
1.45650
1.44673
1.43695
1.42717
1.42229
1.41251
1.40762
1.39785
1.39785
1.37830
1.39296
1.35875
1.39296
1.36364
1.38807
1.44673
1.52981
1.64712
1.78397
1.92082
2.04790
2.15543
2.22874
2.28250
2.28739
2.29228
2.24340
2.23851
2.14076
2.08211
2.01857
1.96481
1.91593
1.86217
1.81818
1.76931
1.72532
1.67155
1.63734
1.59335
1.58847
1.53959
1.56403
1.52493
1.52493
1.52981
1.54448
1.55425
1.56403
1.57380
1.57380
1.57380
1.56403
1.55914
1.53959
1.52981
1.49560
1.50049
1.44673
1.45650
1.39785
1.37341
1.35386
1.33920
1.31965
1.30499
1.30010
1.28055
1.27077
1.25611
1.24633
1.23167
1.23167
1.20723
1.23167
1.18280
1.18280
1.16813
1.17302
1.19257
1.24633
1.32942
1.43695
1.56891
1.70577
1.83773
1.94526
2.03812
2.08211
2.12610
2.09677
2.11144
2.02835
1.96970
1.90127
1.84262
1.77908
1.72532
1.67155
1.61779
1.57869
1.52981
1.49071
1.44673
1.42229
1.39785
1.39785
1.37830
1.42229
1.39296
1.41740
1.42717
1.44673
1.46628
1.47605
1.48583
1.49071
1.49071
1.48094
1.47116
1.45161
1.44184
1.41251
1.41251
1.36852
1.38807
1.32942
1.30499
1.29032
1.26588
1.25122
1.23656
1.22678
1.21212
1.20235
1.18768
1.18280
1.16813
1.17302
1.14858
1.17302
1.13881
1.16813
1.17791
1.24145
1.34897
1.48094
1.63245
1.77908
1.91105
2.01857
2.09677
2.14076
2.16520
2.15054
2.14076
2.08211
2.07234
1.97458
1.91593
1.85728
1.79863
1.74487
1.69110
1.64712
1.59824
1.56403
1.52004
1.50049
1.48094
1.50538
1.48094
1.52981
1.50538
1.52981
1.54936
1.56891
1.58358
1.60313
1.61779
1.62268
1.63245
1.62757
1.63245
1.61290
1.61779
1.58358
1.60313
1.53959
1.52004
1.50538
1.48583
1.47605
1.46628
1.45650
1.44673
1.43695
1.42717
1.41740
1.40274
1.40274
1.37830
1.39785
1.36364
1.38319
1.37830
1.42229
1.48583
1.59335
1.72043
1.86217
2.00880
2.13587
2.24340
2.32160
2.37537
2.38514
2.39492
2.34115
2.33627
2.23851
2.17986
2.12610
2.07234
2.02346
1.98436
1.94526
1.90127
1.85728
1.81329
1.77419
1.73509
1.72532
1.69599
1.73021
1.69599
1.71065
1.72043
1.73509
1.74976
1.75953
1.76931
1.77419
1.77419
1.76931
1.76931
1.74976
1.74487
1.72043
1.73998
1.68133
1.65200
1.62757
1.60802
1.58847
1.56891
1.55914
1.54448
1.52981
1.51515
1.50538
1.48583
1.49560
1.46628
1.49560
1.44184
1.43695
1.44184
1.46628
1.51515
1.59335
1.70577
1.83284
1.97947
2.11632
2.24340
2.34115
2.40958
2.43891
2.47312
2.42424
2.41935
2.33138
2.27273
2.21408
2.15543
2.10655
2.05767
2.01857
1.97458
1.93548
1.89150
1.86217
1.81329
1.81818
1.76442
1.76442
1.74487
1.74976
1.75953
1.75953
1.77419
1.78397
1.79863
1.80352
1.81329
1.80841
1.81329
1.79374
1.80352
1.75464
1.74487
1.70577
1.68133
1.65689
1.63734
1.61290
1.59824
1.58358
1.56403
1.55425
1.52981
1.52493
1.50538
1.52004
1.48094
1.50049
1.45650
1.44673
1.44184
1.44184
1.44673
1.48094
1.54448
1.64223
1.76931
1.91105
2.05767
2.17986
2.30694
2.36559
2.44379
2.41935
2.40469
2.37048
2.32649
2.27761
2.21896
2.17009
2.11632
2.07722
2.03324
1.99902
1.95503
1.92571
1.87683
1.85728
1.81329
1.82307
1.76442
1.75464
1.74487
1.74976
1.75953
1.76442
1.77419
1.78397
1.79374
1.78886
1.79374
1.78397
1.78397
1.75464
1.77908
1.72043
1.70088
1.67155
1.64712
1.62268
1.59824
1.58358
1.55914
1.54448
1.52493
1.51515
1.49560
1.49560
1.47116
1.49071
1.44184
1.45650
1.41251
1.40274
1.39785
1.40274
1.42717
1.48094
1.56891
1.67644
1.81329
1.95015
2.08700
2.18964
2.29717
2.32649
2.38025
2.33627
2.30205
2.25806
2.20430
2.15054
2.09189
2.04301
1.99413
1.95503
1.90616
1.86706
1.81818
1.78886
1.72532
1.73509
1.66178
1.63734
1.62757
1.61779
1.61779
1.62268
1.62757
1.63734
1.64223
1.64712
1.65200
1.64223
1.64712
1.61779
1.63245
1.57869
1.57380
1.53470
1.51026
1.48583
1.46139
1.43695
1.41740
1.40274
1.37830
1.36852
1.35386
1.34897
1.32454
1.32942
1.30499
1.32942
1.28055
1.27077
1.25611
1.24633
1.24145
1.23656
1.24145
1.26588
1.31965
1.39785
1.51026
1.63734
1.78886
1.91593
2.05279
2.11632
2.20919
2.19453
2.18964
2.17009
2.12610
2.07234
2.01369
1.95503
1.89638
1.84262
1.78886
1.74487
1.69599
1.66667
1.60802
1.61290
1.53959
1.51515
1.50049
1.49560
1.49560
1.50049
1.51515
1.52493
1.53959
1.54448
1.55914
1.56403
1.58358
1.56891
1.59824
1.55425
1.53470
1.51515
1.49560
1.47605
1.45161
1.42717
1.40274
1.38807
1.36852
1.35875
1.33920
1.34409
1.31965
1.34409
1.29521
1.28055
1.27077
1.26100
1.25122
1.25122
1.25122
1.25122
1.26100
1.28543
1.33920
1.41740
1.53959
1.66178
1.83284
1.93548
2.05279
2.13587
2.18475
2.20430
2.18964
2.15543
2.10166
2.04301
1.97947
1.92571
1.86706
1.85728
1.77419
1.73021
1.68622
1.64712
1.60313
1.56891
1.53959
1.51515
1.51026
1.50538
1.51515
1.52004
1.55425
1.54936
1.60802
1.58847
1.60802
1.62268
1.63245
1.63734
1.63245
1.63245
1.61779
1.60802
1.58847
1.57869
1.55425
1.55914
1.52004
1.52493
1.49071
1.47605
1.47116
1.46139
1.44673
1.43695
1.43206
1.41251
1.40762
1.39296
1.39296
1.37341
1.39296
1.36364
1.39785
1.40274
1.45650
1.54448
1.66178
1.80841
1.95503
2.09677
2.21408
2.30694
2.36070
2.39492
2.38025
2.38025
2.30694
2.26784
2.19941
2.14076
2.09189
2.04790
2.00880
1.96970
1.94037
1.90127
1.86706
1.82307
1.80352
1.76442
1.77908
1.72532
1.72043
1.72043
1.72532
1.73021
1.73998
1.75464
1.75953
1.76442
1.75953
1.76442
1.74976
1.75953
1.72043
1.73998
1.68622
1.66178
1.64223
1.61779
1.59824
1.57869
1.55914
1.53959
1.52981
1.51515
1.51026
1.49071
1.50538
1.46628
1.47605
1.44673
1.43695
1.42717
1.41740
1.41251
1.41251
1.42717
1.45650
1.52493
1.61290
1.74487
1.87683
2.04790
2.15054
2.27273
2.34115
2.38025
2.39492
2.37537
2.33627
2.28739
2.23363
2.17498
2.12610
2.07234
2.04790
1.99413
1.96481
1.92571
1.90616
1.84751
1.84751
1.77419
1.74487
1.72532
1.70577
1.70088
1.69110
1.69599
1.69599
1.70577
1.71065
1.72043
1.71554
1.73021
1.69599
1.72043
1.66178
1.64223
1.61779
1.59335
1.56403
1.53959
1.52004
1.49560
1.48094
1.45650
1.44673
1.42229
1.42717
1.39785
1.41740
1.38319
1.37341
1.36852
1.35875
1.35386
1.34897
1.34409
1.33431
1.33920
1.34409
1.37830
1.42717
1.52981
1.62757
1.80352
1.91105
2.04301
2.15543
2.23851
2.29228
2.30694
2.29228
2.24829
2.19453
2.12610
2.06745
1.99413
1.95503
1.89150
1.89638
1.82307
1.81329
1.76442
1.72532
1.69599
1.66667
1.63734
1.61290
1.59824
1.58847
1.59335
1.59335
1.61290
1.61290
1.65200
1.63734
1.65689
1.64712
1.64223
1.63734
1.62757
1.61290
1.59335
1.57869
1.55425
1.53959
1.51026
1.50538
1.47605
1.48583
1.43695
1.42229
1.40762
1.39785
1.38807
1.37830
1.36852
1.35875
1.34897
1.33920
1.33431
1.31476
1.32942
1.30010
1.33431
1.30987
1.34409
1.40762
1.50049
1.62268
1.75953
1.90127
2.02346
2.12610
2.18475
2.23363
2.22385
2.23851
2.16520
2.12610
2.06256
2.00391
1.95015
1.89638
1.85239
1.80841
1.76931
1.72532
1.68622
1.63734
1.60802
1.55914
1.56891
1.50538
1.49071
1.49071
1.48583
1.49071
1.50049
1.51026
1.51515
1.52493
1.52004
1.52493
1.51026
1.52004
1.48583
1.50538
1.44184
1.42229
1.39296
1.36852
1.33920
1.31965
1.29521
1.27077
1.25611
1.23656
1.22678
1.20235
1.21212
1.17791
1.20723
1.16325
1.15836
1.14369
1.13881
1.12414
1.11926
1.11437
1.10948
1.11926
1.13392
1.19746
1.25611
1.40274
1.49560
1.63734
1.76931
1.88661
1.97458
2.02835
2.05279
2.04790
2.02346
1.97947
1.93060
1.86706
1.83284
1.74976
1.72532
1.64712
1.60313
1.55914
1.52004
1.47605
1.43695
1.40762
1.37341
1.35875
1.34409
1.36364
1.34409
1.38319
1.36364
1.37341
1.38807
1.39785
1.40762
1.40762
1.40762
1.40274
1.39785
1.37830
1.36852
1.33920
1.35386
1.30010
1.28543
1.25611
1.23656
1.21212
1.19746
1.18280
1.16813
1.15836
1.14858
1.14369
1.12903
1.13392
1.11926
1.14369
1.10459
1.11437
1.09482
1.09482
1.09482
1.10948
1.14369
1.20235
1.30010
1.41740
1.55425
1.69110
1.82307
1.92571
2.01369
2.03812
2.08700
2.03324
1.99902
1.95015
1.89150
1.83773
1.78397
1.73998
1.69110
1.65200
1.61290
1.58358
1.53959
1.52004
1.47605
1.48583
1.44184
1.44673
1.43206
1.44184
1.44673
1.46628
1.48094
1.49560
1.51026
1.52004
1.53470
1.52981
1.53959
1.52004
1.54448
1.50049
1.50538
1.46628
1.44673
1.42717
1.40762
1.39296
1.37341
1.36364
1.34409
1.33920
1.32454
1.32942
1.31965
1.32942
1.30499
1.33431
1.29032
1.28543
1.27566
1.27566
1.27077
1.26588
1.27566
1.29521
1.34897
1.42229
1.53959
1.66178
1.81818
1.93060
2.08700
2.14076
2.20430
2.23363
2.23363
2.20919
2.17009
2.12121
2.06745
2.01369
1.95992
1.91593
1.86706
1.84262
1.78886
1.76931
1.71554
1.72043
1.64712
1.61779
1.59824
1.58358
1.57380
1.57380
1.57869
1.58358
1.59335
1.59824
1.61290
1.61290
1.63245
1.61779
1.65689
1.60802
1.59335
1.57869
1.55914
1.53470
1.51515
1.49560
1.47116
1.45161
1.43206
1.41740
1.39785
1.40274
1.37341
1.40274
1.35875
1.35386
1.33920
1.33431
1.32942
1.31965
1.30987
1.30499
1.30499
1.30010
1.31965
1.35386
1.43695
1.51515
1.67155
1.76931
1.90616
2.02835
2.12121
2.18964
2.22874
2.23851
2.22385
2.18964
2.14565
2.09677
2.03812
1.99902
1.93548
1.92571
1.84751
1.81329
1.77419
1.73509
1.70088
1.66178
1.62757
1.59824
1.58358
1.56403
1.56891
1.56403
1.58847
1.57869
1.63245
1.60313
1.61290
1.61290
1.61290
1.61290
1.60802
1.59335
1.57869
1.56403
1.53959
1.52493
1.49560
1.49071
1.45161
1.47605
1.41251
1.39785
1.38319
1.37341
1.35875
1.34897
1.34409
1.33920
1.33431
1.32454
1.32454
1.30987
1.32454
1.30010
1.32454
1.30010
1.31965
1.35875
1.42717
1.52981
1.65200
1.78886
1.91593
2.03812
2.12610
2.19453
2.21896
2.24340
2.21408
2.21896
2.13099
2.07722
2.02346
1.96481
1.91593
1.87195
1.83284
1.79374
1.75953
1.71554
1.68622
1.64223
1.62757
1.58358
1.60802
1.55914
1.55914
1.55914
1.56403
1.57380
1.57869
1.58847
1.59335
1.59824
1.58847
1.58847
1.56891
1.57380
1.52981
1.54448
1.48583
1.46139
1.43695
1.41251
1.38807
1.37341
1.35386
1.33431
1.32454
1.30499
1.30010
1.28055
1.29032
1.26100
1.28543
1.23656
1.22678
1.21701
1.21212
1.20235
1.20235
1.21212
1.22678
1.27566
1.35386
1.46139
1.57869
1.73021
1.83284
1.97947
2.01857
2.07722
2.09677
2.09677
2.07234
2.03324
1.98436
1.93060
1.87683
1.82796
1.78397
1.73021
1.70577
1.64223
1.63734
1.55914
1.52493
1.49071
1.46628
1.44673
1.44184
1.44184
1.43695
1.45161
1.45650
1.47605
1.48094
1.51515
1.50049
1.53959
1.50049
1.49071
1.48094
1.46628
1.44673
1.42717
1.40762
1.38319
1.36364
1.33920
1.32942
1.30499
1.30987
1.27566
1.30499
1.25611
1.24633
1.23656
1.22678
1.22190
1.21212
1.21212
1.20723
1.20723
1.19746
1.20723
1.20723
1.24633
1.28055
1.39785
1.46139
1.58847
1.72043
1.84262
1.95503
2.03324
2.08700
2.10655
2.10166
2.07234
2.03812
1.98436
1.94037
1.87683
1.85239
1.76931
1.73021
1.68133
1.64223
1.60313
1.56403
1.52981
1.50049
1.48094
1.46139
1.46139
1.45650
1.47116
1.47116
1.50538
1.49560
1.54936
1.51515
1.52493
1.52493
1.52493
1.51515
1.51026
1.50049
1.47605
1.46139
1.44184
1.42717
1.40274
1.39296
1.36364
1.37830
1.33431
1.33431
1.30987
1.29521
1.29032
1.28055
1.27077
1.26588
1.26100
1.25122
1.24633
1.24145
1.24145
1.22678
1.25122
1.26100
1.35386
1.39785
1.51026
1.64712
1.78886
1.92571
2.03812
2.12610
2.17986
2.20919
2.20430
2.18964
2.14076
2.11144
2.04301
2.03812
1.94526
1.90127
1.86217
1.82307
1.78886
1.75464
1.72532
1.69110
1.66667
1.64712
1.63734
1.63245
1.64223
1.64223
1.68133
1.65689
1.68133
1.68133
1.68622
1.69110
1.69110
1.69110
1.68133
1.67644
1.66178
1.65200
1.63245
1.62268
1.59335
1.60802
1.55914
1.55914
1.52493
1.51515
1.50049
1.49071
1.48583
1.47605
1.47116
1.45650
1.45161
1.44184
1.44184
1.43206
1.44184
1.42229
1.47116
1.44673
1.49071
1.55914
1.65689
1.77908
1.91105
2.04790
2.16520
2.26295
2.32160
2.35582
2.35582
2.35093
2.30205
2.29228
2.19941
2.15054
2.10166
2.05767
2.01857
1.97947
1.94526
1.90616
1.87195
1.83773
1.80841
1.77419
1.75953
1.73021
1.75464
1.72043
1.73021
1.72532
1.73021
1.73998
1.74487
1.74976
1.75464
1.75953
1.74976
1.74976
1.73509
1.72532
1.69599
1.70577
1.65689
1.65689
1.61290
1.59335
1.57380
1.55914
1.54448
1.52981
1.52004
1.50538
1.50049
1.48094
1.48583
1.46628
1.48094
1.44673
1.47116
1.42717
1.42229
1.42717
1.43695
1.46628
1.53470
1.62268
1.73998
1.87195
2.00391
2.13099
2.21896
2.30205
2.32649
2.37537
2.31672
2.28250
2.23851
2.18475
2.13099
2.08700
2.04301
1.99413
1.96481
1.92571
1.89638
1.85239
1.84262
1.77908
1.77908
1.71554
1.69599
1.68133
1.67155
1.67155
1.66667
1.67644
1.68133
1.69599
1.69599
1.70577
1.70088
1.71065
1.68622
1.71065
1.65689
1.64223
1.61779
1.59824
1.57380
1.55425
1.53470
1.51026
1.49560
1.47605
1.46628
1.45161
1.44673
1.43206
1.45161
1.41740
1.44673
1.40274
1.39296
1.38807
1.37830
1.37830
1.36852
1.37341
1.38319
1.41251
1.46628
1.55914
1.66178
1.80841
1.92571
2.08700
2.15543
2.22874
2.26784
2.28250
2.26784
2.23851
2.19453
2.14076
2.08700
2.03324
1.99413
1.94526
1.91593
1.86706
1.86706
1.79374
1.75953
1.72532
1.69599
1.66667
1.64712
1.63734
1.63245
1.63734
1.63734
1.65200
1.65200
1.68622
1.66667
1.70088
1.67155
1.66667
1.65200
1.64223
1.62757
1.60313
1.58847
1.55914
1.53959
1.51515
1.50049
1.47116
1.47605
1.42717
1.43695
1.39296
1.37830
1.36364
1.35386
1.34409
1.32942
1.32454
1.30987
1.30499
1.29032
1.29521
1.27077
1.30010
1.26100
1.27566
1.30499
1.36364
1.45650
1.57869
1.71554
1.84262
1.95992
2.05279
2.12610
2.15054
2.17986
2.14076
2.13587
2.06256
2.00880
1.95503
1.90127
1.85728
1.80841
1.77419
1.72532
1.70577
1.64223
1.62268
1.56403
1.53470
1.51026
1.49560
1.48583
1.48583
1.49071
1.49560
1.51026
1.51515
1.53959
1.52981
1.57380
1.52981
1.52493
1.51026
1.49560
1.48094
1.46139
1.44184
1.41740
1.39785
1.36852
1.36364
1.32942
1.35386
1.29521
1.28055
1.26588
1.25611
1.24145
1.23656
1.23167
1.22190
1.21701
1.20723
1.21212
1.19746
1.21701
1.18768
1.21212
1.18768
1.21212
1.26100
1.33920
1.44184
1.56891
1.70577
1.83284
1.95015
2.02835
2.08700
2.10166
2.13099
2.06745
2.02346
1.97458
1.91593
1.86217
1.80841
1.75953
1.70577
1.66667
1.62268
1.58847
1.54936
1.52493
1.49071
1.49560
1.46139
1.49071
1.45650
1.46628
1.47605
1.48583
1.50538
1.51515
1.52493
1.52981
1.53959
1.52981
1.53470
1.51515
1.52981
1.48583
1.46628
1.44673
1.42717
1.40762
1.38807
1.36852
1.34897
1.33920
1.32454
1.31476
1.30010
1.30987
1.28543
1.31965
1.27077
1.27077
1.26588
1.26100
1.26100
1.26100
1.26588
1.27566
1.30010
1.34409
1.42229
1.52004
1.66667
1.79863
1.97947
2.07722
2.18475
2.26295
2.30694
2.32160
2.31183
2.28250
2.23363
2.18475
2.12610
2.07234
2.01857
1.97947
1.92571
1.90616
1.84751
1.84262
1.77419
1.73998
1.71065
1.69110
1.68133
1.67644
1.68133
1.68622
1.70088
1.71065
1.72532
1.73021
1.75953
1.74976
1.78886
1.74487
1.74487
1.73509
1.72043
1.70577
1.68622
1.66667
1.64223
1.62268
1.59824
1.58847
1.56403
1.57380
1.53470
1.54448
1.51026
1.50049
1.49071
1.48583
1.47605
1.46628
1.45650
1.44673
1.44184
1.43206
1.44673
1.45161
1.52493
1.56403
1.68133
1.78397
1.92082
2.05767
2.17986
2.28250
2.35093
2.39003
2.39980
2.38514
2.35093
2.30694
2.24340
2.22385
2.13587
2.08700
2.03812
1.99902
1.95992
1.92082
1.88661
1.84751
1.81329
1.77908
1.75464
1.73021
1.72532
1.71065
1.72532
1.71065
1.75953
1.72043
1.73021
1.73509
1.73998
1.74487
1.73998
1.73509
1.72043
1.70577
1.68622
1.66667
1.64223
1.63734
1.59824
1.61779
1.55914
1.53959
1.52004
1.50538
1.48583
1.47605
1.46628
1.46139
1.45650
1.45161
1.45161
1.43206
1.43206
1.40762
1.43695
1.39296
1.40762
1.44673
1.50538
1.60313
1.72043
1.85728
1.99413
2.12121
2.22385
2.31183
2.35093
2.38025
2.35582
2.36070
2.27761
2.22385
2.16520
2.11144
2.06256
2.01857
1.98436
1.94526
1.91105
1.87195
1.83773
1.79374
1.78397
1.73998
1.75953
1.70577
1.70088
1.69599
1.70088
1.71065
1.71554
1.72532
1.73021
1.73509
1.73509
1.73509
1.71554
1.71065
1.68622
1.69110
1.64712
1.64712
1.60313
1.57869
1.55425
1.53470
1.51515
1.49560
1.48583
1.46628
1.46139
1.44184
1.45161
1.42717
1.46139
1.40762
1.39785
1.38807
1.37830
1.36852
1.36364
1.36852
1.38807
1.44184
1.51515
1.62757
1.74976
1.91105
2.01857
2.15054
2.21896
2.26784
2.28739
2.27761
2.24829
2.20430
2.15543
2.09677
2.04790
1.98925
1.98436
1.90127
1.85728
1.81818
1.77419
1.73509
1.69599
1.66178
1.62757
1.60802
1.58847
1.58358
1.57869
1.59824
1.59335
1.64223
1.61290
1.61779
1.62268
1.61779
1.61290
1.59824
1.58847
1.56891
1.55425
1.52981
1.51026
1.48094
1.47605
1.43206
1.44184
1.38319
1.36364
1.34897
1.32942
1.30987
1.30499
1.29032
1.28055
1.27566
1.26588
1.26100
1.24633
1.26100
1.23167
1.25122
1.21701
1.22678
1.23656
1.27077
1.33431
1.43206
1.55914
1.69110
1.82796
1.94526
2.04790
2.10655
2.15543
2.14076
2.14076
2.08211
2.06256
1.96481
1.91105
1.85239
1.79863
1.74976
1.70088
1.66178
1.61779
1.58358
1.54448
1.51515
1.48094
1.48583
1.45161
1.49071
1.45161
1.46139
1.47116
1.48583
1.49560
1.50049
1.51515
1.51515
1.51515
1.50538
1.51026
1.48094
1.49560
1.44184
1.42717
1.40274
1.38319
1.35875
1.33920
1.32454
1.30499
1.29521
1.27566
1.27077
1.25611
1.26588
1.24633
1.27566
1.22678
1.22190
1.21701
1.21212
1.21212
1.20235
1.20235
1.20723
1.23656
1.27566
1.36364
1.46628
1.62268
1.73998
1.89638
1.98925
2.07722
2.13587
2.16031
2.16031
2.13099
2.09189
2.03324
1.97947
1.92082
1.87195
1.80841
1.79863
1.72532
1.70577
1.65200
1.61290
1.57380
1.54448
1.52004
1.50049
1.49560
1.49071
1.50049
1.50049
1.52493
1.52004
1.56891
1.53959
1.54448
1.53470
1.52981
1.51515
1.50538
1.49560
1.48094
1.47116
1.45650
1.45650
1.44673
1.45650
1.44184
1.48094
1.44184
1.44184
1.44673
1.44673
1.44673
1.45161
1.45650
1.45161
1.45650
1.44673
1.44673
1.43695
1.44673
1.42717
1.47605
1.46628
1.52981
1.62268
1.74487
1.88661
2.02835
2.16031
2.27273
2.35582
2.40469
2.42424
2.40958
2.39003
2.33627
2.31183
2.22385
2.17009
2.12121
2.07722
2.03812
1.99902
1.96481
1.92571
1.89150
1.85728
1.83284
1.79863
1.80352
1.76931
1.80352
1.75953
1.76442
1.76442
1.76931
1.77419
1.77908
1.77908
1.77419
1.77419
1.76442
1.75464
1.73021
1.73509
1.68622
1.69110
1.63245
1.60802
1.58358
1.56403
1.54448
1.52981
1.51515
1.50049
1.49071
1.47605
1.47116
1.45650
1.47605
1.44184
1.45650
1.42717
1.41740
1.41740
1.42229
1.43695
1.47605
1.55425
1.65200
1.78397
1.93060
2.08211
2.20430
2.33138
2.38514
2.44868
2.42424
2.40469
2.36559
2.31183
2.25318
2.19453
2.14076
2.08700
2.04301
1.99902
1.97947
1.93060
1.93060
1.85239
1.81818
1.78397
1.75464
1.73021
1.71554
1.71065
1.70577
1.71065
1.71554
1.73021
1.73021
1.75464
1.73509
1.77908
1.73021
1.72043
1.70577
1.69110
1.67155
1.64712
1.62757
1.60313
1.58358
1.55914
1.54448
1.52004
1.52981
1.49071
1.49560
1.46628
1.45650
1.44673
1.43695
1.42717
1.41740
1.41251
1.40274
1.39785
1.38807
1.39296
1.40274
1.46139
1.51026
1.64712
1.73509
1.87683
2.01857
2.15054
2.25806
2.32649
2.37048
2.37537
2.36070
2.31672
2.27761
2.20430
2.18475
2.09189
2.04301
1.99902
1.95992
1.93060
1.89150
1.85728
1.81818
1.78397
1.74976
1.73021
1.70577
1.70088
1.67644
1.71554
1.67644
1.68133
1.68622
1.69110
1.69599
1.69599
1.69599
1.68622
1.67644
1.65200
1.63734
1.60802
1.61779
1.54936
1.52493
1.49560
1.47116
1.45161
1.43695
1.42229
1.40274
1.39785
1.38319
1.37830
1.36364
1.37341
1.34897
1.38807
1.33920
1.32942
1.32454
1.31476
1.30987
1.31476
1.33431
1.37341
1.44673
1.54448
1.68133
1.81329
1.97947
2.08700
2.23363
2.27273
2.31183
2.32160
2.30694
2.26784
2.21408
2.16031
2.09677
2.04790
1.98925
1.95503
1.90127
1.89638
1.82796
1.79863
1.74976
1.71554
1.68133
1.65689
1.63734
1.62268
1.62268
1.62268
1.63245
1.63734
1.65200
1.65200
1.67644
1.66178
1.70088
1.64712
1.63734
1.61779
1.59335
1.57380
1.54448
1.52493
1.49560
1.47116
1.44184
1.42717
1.40274
1.39296
1.36364
1.37341
1.33431
1.33920
1.30499
1.30010
1.29032
1.28055
1.27077
1.26100
1.25122
1.24145
1.23656
1.22190
1.22678
1.22678
1.27566
1.30010
1.42229
1.50538
1.64712
1.79863
1.94037
2.06256
2.15054
2.20919
2.22874
2.22874
2.19453
2.15543
2.09677
2.04301
1.96970
1.94037
1.85239
1.81818
1.76442
1.72043
1.68133
1.63734
1.59824
1.56403
1.53959
1.51515
1.50538
1.49560
1.50049
1.50049
1.53470
1.52004
1.54936
1.53470
1.53959
1.53959
1.53470
1.52981
1.51515
1.50049
1.47605
1.45650
1.43206
1.41740
1.38319
1.38807
1.33431
1.32454
1.29521
1.28055
1.26588
1.25611
1.24633
1.23167
1.22678
1.21701
1.21701
1.20235
1.20723
1.18768
1.21701
1.17302
1.16813
1.16325
1.17791
1.21212
1.27566
1.37830
1.50049
1.65200
1.79374
1.94037
2.04790
2.14565
2.17986
2.23363
2.17986
2.14565
2.09677
2.03324
1.97458
1.91105
1.85728
1.79863
1.74976
1.70088
1.66667
1.61290
1.60802
1.53959
1.52493
1.48583
1.47116
1.46628
1.47116
1.48094
1.49071
1.50538
1.51515
1.53470
1.53959
1.55914
1.54936
1.58358
1.53959
1.52493
1.51026
1.49071
1.47116
1.44673
1.42229
1.39785
1.37830
1.35386
1.33920
1.31965
1.31476
1.28543
1.31476
1.26588
1.26100
1.25122
1.24633
1.24145
1.24145
1.23656
1.23167
1.22678
1.22190
1.23167
1.24145
1.29521
1.35875
1.50538
1.60313
1.75953
1.92082
2.06745
2.18964
2.27273
2.32649
2.34115
2.33138
2.29228
2.24829
2.17986
2.15054
2.05767
2.01857
1.94526
1.89638
1.85728
1.81329
1.77908
1.73509
1.71065
1.67644
1.67155
1.64223
1.67644
1.63245
1.63734
1.64712
1.65689
1.67155
1.68622
1.70088
1.70577
1.71554
1.71065
1.71065
1.69599
1.70088
1.66667
1.67644
1.61779
1.59824
1.57869
1.55914
1.54448
1.52493
1.51515
1.50049
1.49071
1.48094
1.48094
1.46628
1.50049
1.45650
1.45161
1.44673
1.44184
1.43695
1.43206
1.43206
1.43206
1.46628
1.51026
1.62757
1.72043
1.86706
2.01857
2.16520
2.29717
2.39980
2.46823
2.49756
2.50244
2.47312
2.43402
2.36559
2.32649
2.24340
2.20430
2.13099
2.08211
2.03812
1.99902
1.95992
1.92082
1.88172
1.83773
1.80841
1.77419
1.76931
1.73998
1.77419
1.73021
1.73509
1.73998
1.73998
1.74976
1.75464
1.75953
1.75464
1.75464
1.73998
1.73998
1.71554
1.73021
1.67155
1.65200
1.62268
1.59824
1.57380
1.55425
1.53959
1.52493
1.51515
1.49560
1.49071
1.47116
1.48094
1.44673
1.46139
1.43206
1.42229
1.40762
1.40274
1.39785
1.39785
1.42229
1.46139
1.54936
1.65200
1.80841
1.94037
2.12610
2.21408
2.31183
2.38025
2.40958
2.41447
2.39003
2.35093
2.29717
2.24340
2.17986
2.13099
2.07234
2.04790
1.97947
1.98436
1.90127
1.86217
1.82307
1.78397
1.74976
1.73021
1.71554
1.70577
1.70088
1.70088
1.70577
1.70088
1.72043
1.71554
1.75464
1.72532
1.73509
1.72043
1.71065
1.70088
1.67644
1.66178
1.63734
1.61779
1.58847
1.56891
1.54448
1.53959
1.50538
1.52981
1.47116
1.45650
1.44673
1.43206
1.42717
1.41251
1.40274
1.39296
1.38319
1.37341
1.36852
1.35875
1.37341
1.37341
1.45650
1.48583
1.59824
1.73509
1.87683
2.02346
2.14565
2.24829
2.31183
2.34604
2.34604
2.32649
2.28250
2.24340
2.17009
2.15543
2.06256
2.01369
1.96481
1.92571
1.88661
1.84751
1.80841
1.75953
1.72532
1.68622
1.66178
1.63245
1.62757
1.61290
1.64712
1.60802
1.61779
1.61779
1.62268
1.62757
1.62757
1.62268
1.61290
1.60313
1.58847
1.57380
1.54936
1.53959
1.50049
1.51515
1.44673
1.42229
1.40274
1.38319
1.36852
1.34897
1.33920
1.32454
1.30987
1.29521
1.29032
1.27077
1.27077
1.24633
1.26588
1.22190
1.21701
1.21212
1.23167
1.27077
1.34409
1.45161
1.58358
1.73021
1.87683
2.00880
2.10166
2.17986
2.19453
2.23363
2.17498
2.13099
2.07722
2.01857
1.95503
1.89638
1.84751
1.79374
1.74976
1.70088
1.67155
1.61290
1.61290
1.53470
1.50538
1.48583
1.47116
1.46628
1.46628
1.47605
1.48094
1.49560
1.50049
1.52004
1.52004
1.53470
1.52004
1.55425
1.50049
1.48583
1.47116
1.44673
1.42717
1.39785
1.37830
1.35875
1.34409
1.31965
1.30987
1.28543
1.28543
1.26100
1.29032
1.23656
1.22678
1.21701
1.20723
1.20235
1.19257
1.18768
1.17791
1.17791
1.18280
1.20723
1.25611
1.34897
1.45650
1.62757
1.74487
1.90616
2.00880
2.10166
2.16031
2.18475
2.17986
2.15054
2.10166
2.03812
1.97947
1.91593
1.87195
1.80841
1.80352
1.72532
1.68622
1.64223
1.59824
1.55914
1.52004
1.49560
1.47116
1.46628
1.45650
1.46628
1.46139
1.48583
1.48583
1.53470
1.50049
1.51026
1.51026
1.51515
1.51026
1.50049
1.49071
1.47116
1.45650
1.43695
1.42229
1.39785
1.39296
1.36364
1.39785
1.35875
1.36852
1.37341
1.37341
1.36852
1.34897
1.32942
1.31476
1.30010
1.29032
1.29032
1.28543
1.30010
1.30010
1.35386
1.37341
1.47605
1.56891
1.70577
1.85728
1.99902
2.13099
2.22874
2.29228
2.32160
2.31672
2.28250
2.24829
2.18475
2.15054
2.06256
2.03324
1.95503
1.91593
1.87683
1.84262
1.80841
1.77419
1.74487
1.71065
1.69110
1.66667
1.66667
1.64712
1.68133
1.65200
1.66178
1.67644
1.69110
1.70088
1.71065
1.71554
1.71554
1.71554
1.70577
1.70088
1.67644
1.68133
1.64223
1.65200
1.59824
1.57869
1.55914
1.53959
1.52493
1.51026
1.50049
1.48583
1.48094
1.47116
1.47116
1.45161
1.47605
1.43695
1.45650
1.42229
1.42229
1.42717
1.45161
1.50538
1.59335
1.71065
1.84262
1.99413
2.12610
2.25806
2.33138
2.41935
2.39980
2.39003
2.35582
2.30694
2.25318
2.19453
2.14565
2.09189
2.05279
2.01369
1.97947
1.94037
1.91593
1.86217
1.86217
1.78397
1.74976
1.72043
1.70088
1.69110
1.68133
1.67644
1.67644
1.68622
1.68622
1.70088
1.69599
1.72532
1.69599
1.71554
1.68133
1.66178
1.64223
1.61779
1.59335
1.56891
1.54936
1.52004
1.50049
1.48094
1.46628
1.44673
1.44184
1.41251
1.43695
1.38807
1.37341
1.36364
1.35386
1.34897
1.33920
1.32942
1.32454
1.32454
1.32942
1.37341
1.43206
1.54448
1.65689
1.83284
1.93060
2.06745
2.15543
2.21896
2.25318
2.25318
2.23363
2.18964
2.14565
2.09189
2.04790
1.98436
1.95992
1.90127
1.90616
1.83284
1.79863
1.76442
1.72532
1.69110
1.65689
1.62757
1.60802
1.59824
1.58847
1.59335
1.58847
1.61290
1.59824
1.64223
1.60802
1.60802
1.60802
1.60313
1.59335
1.57869
1.55914
1.53959
1.52004
1.49560
1.48094
1.45161
1.45650
1.41251
1.42229
1.38319
1.36852
1.35875
1.34897
1.34409
1.33431
1.32942
1.32454
1.31965
1.30499
1.30987
1.29521
1.32454
1.28055
1.28055
1.29032
1.32454
1.38807
1.48094
1.60313
1.73509
1.87683
1.99413
2.10166
2.16031
2.20430
2.19453
2.20919
2.13587
2.09677
2.03812
1.98436
1.93548
1.88661
1.84751
1.80841
1.77419
1.73509
1.70088
1.65689
1.63734
1.58847
1.60313
1.53959
1.52981
1.52981
1.52981
1.53470
1.53470
1.54448
1.54936
1.55425
1.55425
1.55425
1.53959
1.54448
1.50538
1.52493
1.46139
1.44184
1.41740
1.39785
1.37830
1.35386
1.33920
1.31965
1.30010
1.27566
1.27077
1.25122
1.26100
1.22678
1.23656
1.20723
1.19746
1.18280
1.17302
1.16325
1.15347
1.14858
1.13881
1.14858
1.16813
1.23167
1.30499
1.45161
1.54448
1.68622
1.81818
1.92571
2.00880
2.05279
2.06745
2.05279
2.02346
1.97458
1.93060
1.86706
1.82796
1.76442
1.75464
1.66667
1.62268
1.57869
1.53470
1.49560
1.45650
1.42717
1.39785
1.37830
1.36364
1.36364
1.35386
1.38807
1.36852
1.38319
1.38807
1.39296
1.39296
1.39296
1.38807
1.38319
1.37341
1.35386
1.34409
1.31476
1.30499
1.27077
1.28543
1.22678
1.21212
1.19257
1.17791
1.16325
1.14858
1.13881
1.12414
1.11437
1.10459
1.09971
1.08993
1.08993
1.07038
1.09482
1.05572
1.06549
1.06061
1.08504
1.13392
1.21701
1.32942
1.46139
1.60313
1.73509
1.84751
1.92571
1.97947
1.99413
2.00391
1.95503
1.94526
1.85239
1.79374
1.73998
1.68622
1.63734
1.59335
1.55425
1.51026
1.47116
1.43206
1.40274
1.36364
1.36364
1.31965
1.32454
1.30499
1.30987
1.31965
1.33431
1.34897
1.35875
1.37341
1.37830
1.38319
1.37830
1.38319
1.35875
1.38319
1.33431
1.31965
1.29521
1.28055
1.26100
1.24145
1.23167
1.21212
1.20235
1.19257
1.18768
1.17302
1.20235
1.16325
1.15836
1.14858
1.14369
1.14369
1.13881
1.14369
1.13881
1.14369
1.15347
1.18768
1.23167
1.33920
1.43206
1.59335
1.71554
1.85728
1.97947
2.07234
2.13587
2.16031
2.17009
2.14076
2.12610
2.05767
2.04790
1.95503
1.90127
1.85728
1.81329
1.77908
1.73998
1.70577
1.67155
1.64223
1.61290
1.59824
1.57380
1.59824
1.56403
1.55914
1.56891
1.57869
1.59335
1.61290
1.62757
1.63245
1.64712
1.64223
1.64712
1.63734
1.65200
1.61779
1.62757
1.57869
1.56403
1.54448
1.52493
1.51026
1.49560
1.48583
1.47116
1.46139
1.44184
1.44184
1.42229
1.44673
1.40274
1.40762
1.38807
1.37830
1.36852
1.36364
1.36364
1.37341
1.40762
1.47116
1.56891
1.68133
1.84262
1.95503
2.10655
2.18475
2.25806
2.29717
2.30694
2.29228
2.25806
2.20919
2.15543
2.10166
2.04790
2.00391
1.95503
1.94037
1.87683
1.87195
1.80352
1.75953
1.72043
1.68622
1.66178
1.63734
1.62268
1.60802
1.60802
1.59824
1.61290
1.60313
1.64223
1.61779
1.62757
1.61779
1.60802
1.60313
1.58847
1.57380
1.55425
1.53959
1.51515
1.49560
1.47116
1.46139
1.42717
1.43206
1.38319
1.37341
1.34897
1.33920
1.32942
1.32454
1.31965
1.30499
1.29521
1.27566
1.26588
1.25122
1.25122
1.24145
1.28543
1.28543
1.36852
1.44184
1.55914
1.68133
1.81329
1.93060
2.02346
2.09189
2.12610
2.13099
2.11144
2.08700
2.03812
2.01857
1.94037
1.92571
1.84751
1.80352
1.76442
1.73021
1.69110
1.65689
1.61779
1.57869
1.54936
1.51026
1.50049
1.47605
1.49071
1.46139
1.49560
1.46139
1.46628
1.47116
1.47605
1.48094
1.47605
1.47605
1.46139
1.45650
1.43695
1.43695
1.40274
1.42717
1.36852
1.34409
1.32942
1.30987
1.29521
1.28055
1.27077
1.25611
1.25122
1.23656
1.23656
1.21701
1.22678
1.20235
1.23656
1.18280
1.17791
1.16813
1.16325
1.16325
1.17791
1.22190
1.28543
1.38319
1.49560
1.62757
1.73998
1.86706
1.91593
1.98925
1.98925
1.98436
1.96481
1.92571
1.88661
1.83284
1.79374
1.74487
1.70577
1.65689
1.64712
1.57869
1.55914
1.49071
1.45161
1.40762
1.37830
1.34897
1.33431
1.32942
1.32454
1.32454
1.32454
1.34409
1.33920
1.37830
1.34409
1.34409
1.33920
1.33431
1.31965
1.30499
1.29032
1.26588
1.25122
1.22190
1.20723
1.17791
1.18280
1.14369
1.16325
1.10948
1.09482
1.08016
1.07038
1.05572
1.04594
1.03617
1.02151
1.01662
1.00196
1.00196
0.98729
1.00196
0.98240
1.03128
1.04106
1.10948
1.20235
1.31476
1.42717
1.54448
1.64223
1.71554
1.76931
1.78397
1.79374
1.76931
1.76442
1.70088
1.67155
1.61290
1.56891
1.52493
1.48583
1.44673
1.40762
1.37830
1.33920
1.31476
1.28543
1.28055
1.25122
1.28543
1.24633
1.24633
1.25122
1.26100
1.27077
1.28055
1.29032
1.29521
1.30010
1.29521
1.30010
1.28543
1.30010
1.26588
1.27566
1.23656
1.21701
1.19746
1.18768
1.17302
1.16325
1.15347
1.13881
1.13392
1.11926
1.11437
1.09971
1.11926
1.08016
1.09482
1.05572
1.04106
1.02639
1.00684
1.00196
0.99707
1.02151
1.06549
1.15347
1.26100
1.40762
1.52493
1.68133
1.75464
1.83284
1.88172
1.90616
1.90616
1.89150
1.85728
1.82307
1.78397
1.73998
1.70577
1.66178
1.63734
1.59335
1.58847
1.52981
1.52493
1.47116
1.45650
1.44184
1.43695
1.43695
1.44184
1.45650
1.47116
1.49560
1.50538
1.52981
1.53470
1.56403
1.55425
1.59824
1.55914
1.55425
1.54936
1.53959
1.52493
1.51515
1.50538
1.49071
1.48094
1.46628
1.46139
1.44673
1.45650
1.43206
1.46628
1.41251
1.40274
1.39296
1.38319
1.37830
1.36852
1.36364
1.35875
1.36364
1.37341
1.41740
1.48094
1.58847
1.68133
1.83284
1.91593
2.02346
2.10166
2.15543
2.19453
2.20430
2.19941
2.17498
2.14565
2.10166
2.06745
2.02346
1.99413
1.95015
1.95015
1.89150
1.85728
1.82796
1.79374
1.76442
1.74487
1.72532
1.71065
1.71065
1.70088
1.71065
1.70577
1.73509
1.72043
1.75953
1.72532
1.72532
1.72043
1.72043
1.71065
1.70088
1.69110
1.67155
1.66178
1.63734
1.63734
1.60802
1.62268
1.57380
1.56403
1.54936
1.53959
1.52493
1.51515
1.50538
1.49560
1.49071
1.47605
1.47116
1.45650
1.45650
1.43695
1.47605
1.45650
1.49560
1.56403
1.65689
1.76931
1.88661
2.00391
2.10655
2.18964
2.24340
2.27761
2.27761
2.26784
2.23363
2.21408
2.15054
2.14076
2.06256
2.02835
1.98925
1.95503
1.91593
1.88661
1.85728
1.81818
1.78886
1.75464
1.73998
1.72043
1.72043
1.70577
1.73509
1.71065
1.74976
1.72043
1.72532
1.72532
1.72532
1.72043
1.71065
1.70577
1.69110
1.68133
1.65689
1.64712
1.62757
1.61779
1.59335
1.60802
1.55914
1.55425
1.52981
1.52004
1.50538
1.49560
1.48583
1.47605
1.46628
1.45161
1.44673
1.43206
1.42717
1.41740
1.42229
1.42229
1.48094
1.50049
1.59824
1.68622
1.80841
1.92082
2.03324
2.12121
2.18964
2.23363
2.24829
2.24829
2.22385
2.19941
2.15054
2.12610
2.06256
2.05767
1.97947
1.94037
1.90127
1.86706
1.82796
1.79374
1.76442
1.73509
1.71554
1.69599
1.69110
1.68622
1.69599
1.68622
1.72532
1.69599
1.70088
1.70577
1.70577
1.70088
1.69599
1.68622
1.67155
1.66178
1.63734
1.62757
1.60313
1.59824
1.56891
1.57380
1.53470
1.55425
1.50049
1.49071
1.48583
1.47116
1.46628
1.45161
1.44184
1.42717
1.41740
1.40274
1.39785
1.37830
1.39296
1.37341
1.38807
1.41740
1.48094
1.56891
1.67644
1.80352
1.92082
2.03324
2.12610
2.19453
2.23363
2.25806
2.23851
2.24829
2.18475
2.15543
2.09677
2.05279
2.00880
1.96481
1.92571
1.88172
1.83773
1.79863
1.75953
1.72532
1.70088
1.67644
1.67155
1.66178
1.68622
1.66667
1.70577
1.67644
1.68133
1.68622
1.68622
1.68133
1.67644
1.66667
1.65200
1.64223
1.62268
1.60802
1.58358
1.58358
1.54448
1.52981
1.51026
1.49071
1.47116
1.46139
1.44673
1.43206
1.42717
1.41251
1.40274
1.39296
1.38807
1.36364
1.37830
1.34409
1.37830
1.32942
1.32942
1.34409
1.37341
1.43206
1.51515
1.62757
1.74976
1.87683
1.98436
2.08700
2.14565
2.20919
2.19453
2.21896
2.16031
2.11632
2.07234
2.02346
1.97458
1.92571
1.88172
1.83284
1.79863
1.74487
1.73509
1.66178
1.63734
1.60313
1.57869
1.56891
1.55914
1.56403
1.55914
1.57380
1.57869
1.58847
1.59335
1.60313
1.59335
1.61779
1.58358
1.60802
1.55914
1.53959
1.52493
1.50049
1.48583
1.46139
1.44673
1.42229
1.40762
1.39296
1.38319
1.35875
1.36364
1.33431
1.35875
1.30987
1.31965
1.29032
1.28055
1.27077
1.26100
1.25611
1.25611
1.27077
1.30010
1.36852
1.45650
1.57380
1.69599
1.84262
1.94037
2.08211
2.11144
2.14565
2.16031
2.15054
2.12610
2.08211
2.03812
1.98925
1.94037
1.89150
1.85728
1.80352
1.80841
1.73021
1.72043
1.66178
1.63734
1.61290
1.59824
1.59824
1.59824
1.61290
1.62268
1.63734
1.64712
1.66667
1.67155
1.70088
1.68133
1.72043
1.68133
1.67155
1.65689
1.64223
1.63245
1.60802
1.59335
1.57380
1.56403
1.54448
1.53470
1.51515
1.51515
1.49560
1.52004
1.48094
1.48583
1.46628
1.45650
1.44673
1.44184
1.43695
1.43206
1.42717
1.42229
1.42717
1.43695
1.48583
1.54448
1.67644
1.76442
1.90127
2.03324
2.15054
2.24829
2.31672
2.35582
2.36070
2.35093
2.31183
2.27273
2.21408
2.17986
2.11144
2.10166
2.01857
1.97458
1.93548
1.89638
1.85728
1.81818
1.78886
1.75953
1.73509
1.72043
1.71554
1.71065
1.71554
1.71554
1.73998
1.73021
1.77419
1.73509
1.73509
1.73021
1.72532
1.71554
1.70088
1.68622
1.66178
1.64223
1.62268
1.60802
1.57869
1.57380
1.53959
1.55914
1.51026
1.50538
1.48583
1.47605
1.46139
1.45161
1.43695
1.42717
1.41740
1.40274
1.39785
1.37830
1.37830
1.37341
1.40762
1.41251
1.50538
1.56891
1.68622
1.81818
1.95503
2.07722
2.17986
2.25806
2.29717
2.31672
2.30694
2.28250
2.23363
2.20430
2.13099
2.11144
2.02835
1.98436
1.94037
1.90127
1.85728
1.81818
1.77908
1.74487
1.72043
1.69110
1.67644
1.66178
1.66667
1.65689
1.68622
1.66667
1.70088
1.68133
1.68622
1.68622
1.68133
1.68133
1.67155
1.65689
1.63734
1.62268
1.60313
1.59335
1.56403
1.56403
1.52493
1.54936
1.49071
1.47116
1.45650
1.44673
1.43206
1.42229
1.41740
1.40274
1.39785
1.38807
1.38319
1.36852
1.37341
1.34897
1.37830
1.33920
1.34409
1.35875
1.40274
1.48583
1.58358
1.71554
1.84262
1.97947
2.08700
2.17498
2.23363
2.27761
2.27273
2.29228
2.22385
2.17498
2.12610
2.07722
2.02835
1.97947
1.94037
1.89638
1.86217
1.81818
1.78397
1.73998
1.72043
1.67644
1.69599
1.64223
1.63245
1.62757
1.63245
1.64223
1.64712
1.65689
1.66178
1.66667
1.66667
1.66667
1.65200
1.65200
1.62757
1.63734
1.58847
1.58358
1.54936
1.52981
1.51515
1.49560
1.47605
1.46139
1.45161
1.43695
1.42717
1.41740
1.42229
1.40274
1.42717
1.38319
1.37341
1.36852
1.35386
1.34897
1.33920
1.33431
1.32942
1.33920
1.36852
1.42717
1.51026
1.64223
1.75464
1.93060
2.01369
2.11632
2.19453
2.23851
2.25806
2.24829
2.22385
2.17986
2.13099
2.07722
2.03324
1.97458
1.95992
1.88661
1.86217
1.80352
1.76442
1.72043
1.68622
1.65200
1.62268
1.60313
1.59335
1.58847
1.58358
1.60313
1.59824
1.63734
1.60802
1.61779
1.61779
1.61290
1.60313
1.58847
1.57380
1.55914
1.53959
1.51515
1.50049
1.47605
1.47605
1.43695
1.46139
1.40274
1.38319
1.36852
1.34897
1.33920
1.32942
1.32454
1.30987
1.30499
1.29032
1.28543
1.26588
1.27077
1.25122
1.28055
1.22678
1.23167
1.23656
1.26100
1.30987
1.39296
1.50538
1.63245
1.76931
1.89150
2.00391
2.08211
2.14565
2.15054
2.18475
2.11632
2.07234
2.02346
1.96481
1.91105
1.85239
1.80352
1.75464
1.71065
1.66667
1.62757
1.58358
1.55425
1.51026
1.52004
1.46628
1.46628
1.45161
1.45161
1.45161
1.45650
1.46628
1.47116
1.48094
1.48583
1.49071
1.48094
1.48583
1.46628
1.47116
1.42717
1.43206
1.38319
1.35875
1.33431
1.31965
1.30010
1.28543
1.27077
1.25122
1.24145
1.22678
1.22190
1.20235
1.23167
1.18768
1.18280
1.17302
1.16325
1.15347
1.15347
1.14858
1.13881
1.13392
1.12903
1.14858
1.17791
1.25611
1.33920
1.50538
1.60313
1.74487
1.86706
1.96970
2.03812
2.07234
2.08211
2.06256
2.03324
1.97947
1.92571
1.86706
1.82796
1.76442
1.76442
1.68622
1.64712
1.61290
1.57869
1.54448
1.52004
1.50538
1.49071
1.49071
1.49071
1.50538
1.51515
1.53959
1.55425
1.61290
1.58847
1.60313
1.60802
1.61290
1.61779
1.61290
1.60802
1.59335
1.58358
1.57380
1.57380
1.55425
1.57380
1.52004
1.51026
1.48583
1.46628
1.45161
1.44184
1.43695
1.42717
1.43206
1.42229
1.41740
1.40762
1.41740
1.39785
1.42717
1.39296
1.40762
1.39785
1.42717
1.47605
1.56403
1.68133
1.81329
1.95503
2.09189
2.20919
2.29717
2.36559
2.38514
2.40958
2.36070
2.36070
2.27273
2.21408
2.15543
2.10655
2.05279
2.00880
1.96970
1.93060
1.89638
1.85728
1.82307
1.78397
1.76931
1.72532
1.74976
1.70088
1.69599
1.70088
1.70088
1.71065
1.72043
1.73021
1.73021
1.73998
1.73509
1.73021
1.72043
1.72043
1.68622
1.70577
1.64712
1.62757
1.60313
1.58358
1.56403
1.53959
1.52493
1.50538
1.49071
1.47605
1.46628
1.45650
1.45650
1.43695
1.46628
1.42229
1.41251
1.40762
1.39785
1.38807
1.38319
1.37830
1.38807
1.41740
1.46628
1.55425
1.66178
1.80352
1.93548
2.10655
2.19941
2.30205
2.36070
2.39003
2.39492
2.36559
2.32649
2.27273
2.21408
2.15543
2.10166
2.04790
2.01369
1.95992
1.95503
1.89150
1.87195
1.81329
1.77419
1.74487
1.71554
1.70088
1.68622
1.68133
1.67644
1.68622
1.68622
1.69599
1.69599
1.72532
1.70088
1.73021
1.69599
1.68622
1.67155
1.65200
1.63734
1.61779
1.59824
1.57380
1.55425
1.52493
1.51515
1.48583
1.49071
1.45161
1.44673
1.42229
1.41251
1.40762
1.39785
1.38807
1.38319
1.37830
1.36852
1.36852
1.35386
1.35875
1.34409
1.37341
1.35386
1.39785
1.42229
1.51026
1.62268
1.75464
1.90127
2.03812
2.16520
2.25318
2.32160
2.34604
2.35582
2.31672
2.31183
2.22385
2.16031
2.10655
2.05279
1.99902
1.95503
1.91593
1.87683
1.83773
1.79374
1.76442
1.72043
1.70577
1.66667
1.68133
1.63734
1.63734
1.63734
1.64223
1.65200
1.66178
1.66667
1.67155
1.67644
1.66667
1.66667
1.64712
1.64223
1.61290
1.62268
1.56403
1.54936
1.52004
1.49560
1.47605
1.45161
1.43695
1.41740
1.40274
1.38807
1.38319
1.36852
1.37341
1.34897
1.37341
1.32942
1.31965
1.30499
1.29521
1.28055
1.27566
1.27077
1.26100
1.27077
1.30010
1.36364
1.45161
1.58847
1.71065
1.89638
1.98925
2.09677
2.17986
2.22385
2.23851
2.22385
2.19941
2.15543
2.10655
2.04790
1.99413
1.92571
1.89638
1.81329
1.79863
1.72043
1.68133
1.64223
1.59824
1.56891
1.53959
1.52493
1.50538
1.50538
1.50049
1.51515
1.51515
1.55914
1.53470
1.54936
1.54936
1.54936
1.54448
1.53959
1.52493
1.51026
1.49071
1.47116
1.45161
1.42229
1.41740
1.37341
1.39296
1.33431
1.31476
1.29521
1.28055
1.27077
1.26100
1.25122
1.24145
1.23656
1.22678
1.22678
1.20723
1.23656
1.20235
1.21701
1.18768
1.18768
1.19746
1.21701
1.26100
1.33431
1.44184
1.57380
1.72043
1.86217
1.99413
2.08700
2.17498
2.18964
2.23851
2.17498
2.13099
2.07722
2.01857
1.95992
1.89638
1.84751
1.79374
1.75464
1.70577
1.67644
1.62757
1.63245
1.56403
1.54448
1.52981
1.52493
1.52493
1.53470
1.54936
1.55914
1.57869
1.58847
1.60802
1.61290
1.63734
1.62757
1.66667
1.61779
1.61290
1.60313
1.58358
1.56403
1.54936
1.53470
1.51026
1.49560
1.47116
1.46139
1.44184
1.45161
1.41740
1.44673
1.40274
1.39785
1.39296
1.38807
1.38319
1.37830
1.37341
1.36364
1.36364
1.35386
1.36364
1.36364
1.41251
1.43206
1.52981
1.62268
1.75953
1.90616
2.05767
2.19453
2.29717
2.37537
2.41447
2.42913
2.39980
2.39003
2.30205
2.23851
2.17498
2.11632
2.06256
2.00880
1.96481
1.92082
1.88172
1.83773
1.80352
1.76442
1.73998
1.70577
1.72043
1.68133
1.69599
1.68133
1.68133
1.69110
1.69599
1.70088
1.71065
1.71554
1.71065
1.71065
1.69599
1.69110
1.66667
1.68133
1.61779
1.60802
1.57869
1.55425
1.53470
1.51026
1.49560
1.47605
1.46628
1.44673
1.44184
1.42229
1.43206
1.40762
1.44184
1.38807
1.37830
1.36852
1.36364
1.35875
1.35386
1.35386
1.35875
1.39296
1.43695
1.54448
1.64712
1.83284
1.94037
2.08211
2.20430
2.29717
2.36559
2.39003
2.39492
2.36559
2.33138
2.27273
2.21896
2.15543
2.13099
2.04301
1.99902
1.95503
1.91105
1.87195
1.83284
1.79374
1.75464
1.73021
1.70577
1.69599
1.68133
1.69110
1.68133
1.72532
1.69599
1.70088
1.70577
1.71065
1.71554
1.71554
1.71065
1.70088
1.69110
1.66667
1.65689
1.62757
1.61779
1.58358
1.60313
1.53959
1.52004
1.49560
1.48094
1.46628
1.44673
1.43695
1.42717
1.42229
1.40762
1.40762
1.39296
1.41251
1.38319
1.41251
1.36852
1.35875
1.35386
1.35875
1.36852
1.40762
1.48094
1.58847
1.72532
1.86706
2.02835
2.15543
2.28739
2.35582
2.43891
2.41447
2.39980
2.36559
2.31183
2.25318
2.18964
2.13099
2.07234
2.02346
1.96970
1.93060
1.89150
1.85728
1.81818
1.79374
1.74487
1.74976
1.69599
1.70088
1.68133
1.68133
1.68133
1.69110
1.70577
1.71065
1.72043
1.72043
1.72532
1.71065
1.71065
1.69110
1.69599
1.65689
1.67644
1.61290
1.58847
1.56403
1.54448
1.52493
1.49560
1.48094
1.46628
1.45161
1.43695
1.42717
1.40762
1.41740
1.38807
1.41740
1.36852
1.35875
1.34897
1.34409
1.33431
1.32942
1.32942
1.35386
1.40274
1.47605
1.59335
1.73021
1.88661
2.02835
2.17009
2.25318
2.36070
2.35582
2.35582
2.33627
2.29228
2.23851
2.17498
2.11632
2.05767
1.99902
1.95015
1.90127
1.85728
1.81818
1.77419
1.75464
1.69599
1.70577
1.64223
1.62268
1.61290
1.60802
1.61290
1.62268
1.63245
1.63734
1.64712
1.65200
1.65689
1.64712
1.65200
1.62757
1.64223
1.58847
1.56891
1.54448
1.51515
1.49071
1.46628
1.44184
1.41251
1.39296
1.36852
1.35875
1.33431
1.32942
1.30987
1.32942
1.29521
1.30499
1.27077
1.26100
1.25122
1.23656
1.23167
1.22190
1.22190
1.22190
1.25122
1.30010
1.39296
1.50049
1.67155
1.79863
1.95503
2.07234
2.16520
2.22874
2.25806
2.25806
2.22874
2.18475
2.12610
2.07234
2.00391
1.95992
1.88661
1.87683
1.78397
1.73509
1.69110
1.64712
1.60313
1.56891
1.53959
1.51515
1.50538
1.49071
1.49560
1.49071
1.52004
1.50049
1.53959
1.51026
1.51515
1.52004
1.52004
1.51515
1.50538
1.49071
1.47116
1.45161
1.42717
1.41740
1.38319
1.38807
1.33920
1.35875
1.30499
1.29032
1.27566
1.27077
1.26100
1.25122
1.24633
1.23167
1.23167
1.21701
1.22190
1.20723
1.22678
1.20723
1.26100
1.25122
1.30987
1.40274
1.52493
1.67155
1.82796
1.97458
2.09677
2.19941
2.25318
2.28739
2.27273
2.26784
2.19941
2.17498
2.07722
2.01857
1.95992
1.90616
1.86217
1.81818
1.78886
1.74976
1.72043
1.68133
1.66178
1.62757
1.65200
1.62268
1.64712
1.64712
1.65689
1.66178
1.67155
1.68133
1.69110
1.70088
1.70088
1.70577
1.69599
1.69599
1.67155
1.68133
1.63245
1.64223
1.58847
1.55914
1.53959
1.52004
1.49560
1.48094
1.46628
1.45161
1.44184
1.42717
1.42229
1.40762
1.41740
1.38319
1.41251
1.36852
1.36364
1.36852
1.36852
1.38807
1.42717
1.50049
1.60313
1.74487
1.89150
2.05279
2.18964
2.33138
2.39003
2.47801
2.45357
2.43891
2.40469
2.35093
2.29228
2.22874
2.17009
2.11632
2.07234
2.02346
1.98436
1.94037
1.91593
1.86217
1.86217
1.78886
1.75953
1.73998
1.73021
1.72532
1.72532
1.73021
1.73998
1.74976
1.75464
1.76931
1.76931
1.77908
1.76442
1.79374
1.73998
1.72532
1.70088
1.68133
1.65689
1.63245
1.60802
1.57869
1.56403
1.53470
1.52004
1.49560
1.50049
1.46628
1.50049
1.44673
1.43695
1.42717
1.41740
1.40762
1.40274
1.40274
1.39785
1.40762
1.43206
1.49071
1.57380
1.71554
1.83284
2.01369
2.11144
2.22385
2.31183
2.36070
2.38025
2.37048
2.34604
2.29717
2.24829
2.18964
2.14565
2.09189
2.07234
2.00880
2.00880
1.94526
1.91105
1.87683
1.83773
1.80352
1.77419
1.74976
1.72532
1.72043
1.70577
1.72043
1.70577
1.74976
1.72043
1.72043
1.72532
1.73021
1.73021
1.72043
1.71065
1.69110
1.67644
1.65200
1.63734
1.60313
1.60802
1.55425
1.53470
1.51026
1.49560
1.47605
1.46139
1.44673
1.43206
1.42717
1.41740
1.41251
1.39785
1.40762
1.38319
1.41251
1.36852
1.36364
1.36364
1.37341
1.40762
1.47116
1.56891
1.69110
1.83773
1.97458
2.11144
2.20430
2.28739
2.31183
2.35582
2.30694
2.27273
2.22385
2.17009
2.11632
2.06745
2.01857
1.97458
1.93548
1.89638
1.86706
1.83284
1.79863
1.75464
1.74487
1.69110
1.70088
1.64712
1.63245
1.62757
1.62757
1.63245
1.63734
1.64223
1.64223
1.64223
1.63245
1.63245
1.61779
1.63734
1.59824
1.60802
1.55425
1.52981
1.50049
1.47116
1.44673
1.42229
1.40762
1.39296
1.38319
1.36364
1.35875
1.33431
1.34897
1.30987
1.31965
1.28543
1.27077
1.26100
1.24633
1.24145
1.23656
1.23656
1.25122
1.29032
1.35875
1.46628
1.58847
1.75464
1.87195
2.03324
2.09189
2.15543
2.18475
2.18475
2.16031
2.12121
2.07234
2.01857
1.96481
1.91105
1.87195
1.81818
1.79863
1.73509
1.73509
1.65689
1.61779
1.58358
1.54936
1.52493
1.50049
1.49071
1.48094
1.48583
1.48094
1.50049
1.50049
1.53470
1.51026
1.54448
1.51026
1.50538
1.49560
1.48094
1.45650
1.43695
1.41740
1.39296
1.37341
1.34409
1.33431
1.30010
1.31476
1.26100
1.25122
1.23656
1.22678
1.21212
1.20723
1.19746
1.18768
1.18280
1.16813
1.16813
1.15347
1.16325
1.14369
1.19257
1.17302
1.21212
1.29032
1.40274
1.54448
1.69110
1.84262
1.96970
2.07234
2.13099
2.17009
2.16031
2.15543
2.08700
2.03324
1.96970
1.91105
1.85239
1.80352
1.75953
1.71554
1.67644
1.63245
1.59824
1.55425
1.53470
1.49071
1.50538
1.45161
1.45161
1.45161
1.46139
1.46628
1.48094
1.49071
1.50049
1.51026
1.51515
1.52004
1.51515
1.52004
1.50049
1.52493
1.46628
1.45161
1.42717
1.41251
1.39785
1.37830
1.36852
1.34897
1.33920
1.32454
1.32454
1.30987
1.31476
1.29521
1.32454
1.28543
1.27566
1.27077
1.26100
1.26100
1.25611
1.26588
1.28543
1.33920
1.41740
1.53959
1.67644
1.85728
1.98436
2.15543
2.21896
2.28739
2.32649
2.32649
2.30694
2.25806
2.20919
2.14565
2.09189
2.02835
2.00880
1.93060
1.90616
1.84751
1.80841
1.76931
1.72532
1.69110
1.65689
1.63734
1.61779
1.61290
1.60313
1.61290
1.61290
1.64712
1.62757
1.67155
1.64223
1.64712
1.64223
1.63734
1.63245
1.61779
1.60802
1.58358
1.56891
1.53959
1.54448
1.49560
1.51026
1.45161
1.43206
1.41251
1.40274
1.39296
1.38319
1.37341
1.35875
1.35386
1.33920
1.34409
1.32454
1.34897
1.30499
1.30499
1.30010
1.31965
1.35875
1.43206
1.54448
1.67644
1.83284
1.97947
2.12121
2.21408
2.32649
2.32649
2.33138
2.31183
2.27273
2.21896
2.16031
2.10655
2.04790
1.99902
1.94526
1.91105
1.86706
1.85728
1.79374
1.76931
1.71065
1.67644
1.64712
1.62757
1.61290
1.60802
1.60802
1.60802
1.62268
1.62268
1.65200
1.63734
1.67155
1.63734
1.63245
1.62268
1.60802
1.59335
1.57380
1.55425
1.52981
1.51026
1.48094
1.46628
1.43206
1.45161
1.39296
1.37830
1.36364
1.34897
1.33920
1.33431
1.32454
1.31476
1.30987
1.29521
1.29032
1.28055
1.28543
1.26588
1.30987
1.27566
1.30499
1.36852
1.46139
1.58358
1.72532
1.87195
2.00391
2.12121
2.19941
2.25318
2.26295
2.28739
2.21896
2.18475
2.12121
2.06256
2.00880
1.95503
1.91105
1.86706
1.82796
1.78886
1.75464
1.71065
1.68133
1.63734
1.63734
1.58358
1.58358
1.56403
1.55425
1.55914
1.56403
1.56891
1.57869
1.58847
1.58847
1.59824
1.58847
1.59335
1.56891
1.59335
1.53470
1.51515
1.49071
1.46628
1.44184
1.41740
1.39785
1.37341
1.35875
1.33431
1.32454
1.30499
1.31476
1.27566
1.30499
1.25611
1.24633
1.23167
1.22190
1.21212
1.19746
1.19257
1.18280
1.18768
1.18768
1.22678
1.28055
1.39785
1.50049
1.67155
1.79863
1.93060
2.04301
2.12121
2.17009
2.17986
2.17009
2.13099
2.08700
2.02835
1.98925
1.91105
1.89638
1.80352
1.75953
1.71065
1.66667
1.62268
1.57869
1.53959
1.50049
1.47116
1.45161
1.44184
1.42717
1.43695
1.43206
1.47116
1.44673
1.46139
1.46628
1.47116
1.47605
1.47116
1.46628
1.45161
1.43695
1.41740
1.39785
1.37341
1.36364
1.32942
1.34409
1.28055
1.25611
1.23656
1.22190
1.20235
1.19257
1.18280
1.17302
1.16325
1.15347
1.14858
1.13392
1.13881
1.12414
1.14858
1.10948
1.14369
1.14369
1.19746
1.28543
1.40762
1.54936
1.70088
1.84262
1.96481
2.05767
2.11632
2.14565
2.13587
2.12610
2.05767
2.02346
1.93060
1.86706
1.80841
1.75464
1.70088
1.65200
1.60802
1.55914
1.52004
1.48094
1.45650
1.42229
1.43206
1.39785
1.42229
1.40274
1.41251
1.42229
1.43695
1.45161
1.46139
1.47605
1.48094
1.49071
1.47605
1.49560
1.45161
1.45161
1.42229
1.40274
1.37830
1.36364
1.34409
1.32454
1.30987
1.29521
1.29032
1.27566
1.28055
1.26100
1.29032
1.24633
1.24145
1.23656
1.23656
1.23167
1.23656
1.24145
1.24633
1.27566
1.32454
1.41251
1.52981
1.69599
1.83284
2.03324
2.12610
2.22874
2.30205
2.33627
2.34115
2.31672
2.27761
2.22385
2.16520
2.10166
2.04790
1.98436
1.95015
1.89150
1.88661
1.80352
1.76442
1.72532
1.68622
1.65689
1.63734
1.62757
1.61779
1.62268
1.62268
1.63734
1.64223
1.67155
1.66178
1.71065
1.67644
1.67644
1.67155
1.66178
1.65200
1.63245
1.61290
1.58358
1.56403
1.53470
1.52004
1.49560
1.50049
1.45650
1.47605
1.42717
1.41740
1.40274
1.39296
1.38319
1.37341
1.36852
1.35386
1.35386
1.34409
1.34897
1.34409
1.39785
1.41740
1.50049
1.61779
1.75464
1.90616
2.04790
2.17498
2.27273
2.33627
2.36559
2.37048
2.33627
2.31672
2.23851
2.21408
2.12121
2.06745
2.01857
1.96970
1.93060
1.88661
1.85239
1.80841
1.77419
1.73509
1.70577
1.67644
1.68133
1.65200
1.68622
1.64712
1.65200
1.66178
1.66667
1.67155
1.68133
1.68622
1.68133
1.67644
1.66178
1.65689
1.63734
1.64712
1.59824
1.58847
1.54936
1.52981
1.50538
1.48583
1.46628
1.45161
1.44184
1.42717
1.41740
1.40274
1.40762
1.38319
1.40762
1.36364
1.36364
1.34897
1.34409
1.34897
1.36364
1.40762
1.48094
1.59335
1.72532
1.88172
2.01857
2.15543
2.23851
2.33627
2.33138
2.33138
2.30694
2.26295
2.21896
2.16031
2.10655
2.05767
2.00880
1.96970
1.93060
1.89150
1.86217
1.81818
1.80841
1.74976
1.74487
1.69110
1.67644
1.66667
1.66667
1.67155
1.67644
1.68622
1.68622
1.69599
1.69599
1.71065
1.69599
1.72532
1.68133
1.66667
1.64712
1.62757
1.61290
1.58847
1.56891
1.54936
1.52493
1.50538
1.49560
1.47116
1.47116
1.44184
1.47116
1.42229
1.41251
1.40762
1.40274
1.38807
1.38319
1.37830
1.36852
1.37341
1.38807
1.43695
1.50049
1.62757
1.73509
1.90616
2.00880
2.12121
2.20919
2.26784
2.29228
2.28739
2.26295
2.21408
2.17009
2.11144
2.06745
2.00391
1.98436
1.91593
1.89638
1.84262
1.80352
1.76442
1.72532
1.69110
1.65689
1.63245
1.61290
1.60313
1.59335
1.60313
1.59824
1.64223
1.60802
1.61779
1.62268
1.62268
1.61779
1.60802
1.59335
1.57380
1.55914
1.53470
1.52004
1.49071
1.48583
1.45161
1.47116
1.40762
1.39296
1.37341
1.35875
1.33920
1.32942
1.31965
1.30499
1.29521
1.27566
1.27077
1.25611
1.26588
1.24145
1.28543
1.25611
1.29521
1.36852
1.46628
1.59824
1.74487
1.88661
2.00880
2.10655
2.17009
2.20430
2.19453
2.18964
2.12121
2.09677
2.00880
1.94526
1.89150
1.84262
1.79863
1.75464
1.71554
1.67155
1.63245
1.58847
1.55914
1.52004
1.52004
1.48094
1.50538
1.46628
1.47116
1.47605
1.48583
1.49560
1.50049
1.51026
1.51026
1.51026
1.50049
1.49560
1.47605
1.47605
1.43206
1.45161
1.38319
1.36852
1.34897
1.32942
1.30987
1.30010
1.29032
1.27566
1.26588
1.25122
1.24145
1.22678
1.23167
1.20723
1.23656
1.19746
1.20235
1.18768
1.19746
1.21212
1.26100
1.34409
1.45161
1.59335
1.73998
1.88661
2.00391
2.11144
2.15543
2.20919
2.17498
2.16031
2.09189
2.03324
1.97458
1.92082
1.86217
1.81329
1.77419
1.72532
1.69599
1.65200
1.62757
1.57380
1.57869
1.51026
1.49560
1.48583
1.48094
1.48583
1.49560
1.51026
1.52493
1.53959
1.54936
1.56403
1.56403
1.58358
1.55914
1.59335
1.54448
1.52981
1.51515
1.49560
1.48583
1.46139
1.44184
1.42229
1.41251
1.39785
1.38807
1.37341
1.38319
1.34897
1.38319
1.33431
1.32454
1.31965
1.31965
1.31965
1.30987
1.31476
1.31965
1.34409
1.38807
1.47116
1.57380
1.73021
1.86217
2.05279
2.14565
2.24829
2.31183
2.34604
2.34604
2.32160
2.28250
2.22385
2.17009
2.11144
2.05767
2.00880
1.98436
1.93060
1.93548
1.85728
1.82796
1.78886
1.75464
1.72532
1.70088
1.68622
1.67155
1.66667
1.66178
1.67644
1.67644
1.69599
1.69110
1.72532
1.69110
1.69599
1.68622
1.67644
1.66178
1.64712
1.62757
1.60313
1.58358
1.55914
1.54448
1.52004
1.51026
1.48094
1.49560
1.44673
1.44673
1.42717
1.41251
1.40762
1.39785
1.38807
1.37341
1.36852
1.35875
1.35386
1.34409
1.36852
1.37341
1.46628
1.50049
1.61779
1.75464
1.90127
2.04301
2.16520
2.26295
2.32160
2.34604
2.34115
2.32160
2.27273
2.23363
2.16031
2.14076
2.05279
2.00880
1.96481
1.93060
1.90127
1.86217
1.82796
1.78886
1.76442
1.72043
1.71554
1.66667
1.68622
1.64712
1.64223
1.64223
1.64712
1.65200
1.65689
1.66178
1.65689
1.65689
1.64712
1.64223
1.62268
1.63245
1.57869
1.59335
1.53470
1.51026
1.49071
1.46628
1.44673
1.42717
1.41251
1.39785
1.38807
1.37341
1.37341
1.35386
1.37341
1.33431
1.32942
1.31965
1.30987
1.30499
1.29521
1.29032
1.29032
1.30010
1.31965
1.36852
1.44184
1.56403
1.69599
1.86706
1.98436
2.14076
2.19453
2.25806
2.28250
2.27761
2.25318
2.20430
2.15054
2.09677
2.04790
1.98925
1.96481
1.90616
1.91105
1.83773
1.79863
1.76442
1.73021
1.69110
1.65689
1.63734
1.61290
1.60313
1.59335
1.59335
1.58847
1.61779
1.59824
1.63245
1.60313
1.60313
1.60313
1.58847
1.57869
1.55914
1.54936
1.52493
1.50538
1.48094
1.46628
1.43695
1.43206
1.39785
1.41740
1.35875
1.34409
1.33431
1.32454
1.31476
1.30499
1.30010
1.29032
1.28543
1.27566
1.27077
1.26100
1.26100
1.24633
1.26588
1.23656
1.29032
1.27566
1.33920
1.43206
1.55914
1.70088
1.84262
1.97458
2.07722
2.15543
2.18964
2.20430
2.17986
2.15543
2.09677
2.07722
1.98436
1.93548
1.88661
1.84262
1.80352
1.76931
1.73509
1.69599
1.65689
1.61290
1.58358
1.54448
1.53470
1.50538
1.53470
1.49071
1.49071
1.49560
1.50538
1.51026
1.51515
1.52004
1.52004
1.51515
1.50049
1.49071
1.46628
1.46139
1.42229
1.43206
1.37341
1.35386
1.32942
1.30499
1.28055
1.26588
1.24633
1.22678
1.21212
1.19746
1.18768
1.16813
1.16813
1.15347
1.16813
1.12903
1.15347
1.11437
1.10948
1.09971
1.09971
1.10459
1.11437
1.15347
1.22190
1.32454
1.44184
1.58847
1.73021
1.87683
1.96970
2.08700
2.08700
2.09677
2.07722
2.03812
1.99413
1.94037
1.88661
1.82796
1.78397
1.73509
1.70088
1.65200
1.63245
1.57869
1.57869
1.50049
1.47116
1.44673
1.42717
1.41740
1.41740
1.41740
1.42229
1.43695
1.44184
1.46139
1.46139
1.48583
1.46139
1.50049
1.45161
1.43695
1.42229
1.40274
1.38807
1.36364
1.33920
1.31965
1.30010
1.27566
1.26100
1.23656
1.23656
1.20723
1.23656
1.18280
1.17302
1.16813
1.16325
1.15347
1.14858
1.14369
1.13392
1.12903
1.12414
1.12414
1.12414
1.15836
1.18768
1.30010
1.36364
1.49071
1.63734
1.77908
1.90616
2.00391
2.07234
2.10166
2.11144
2.08700
2.05279
1.99902
1.95503
1.88661
1.86217
1.78397
1.73998
1.69599
1.65689
1.61779
1.57869
1.54448
1.51026
1.48094
1.45650
1.45161
1.43695
1.46628
1.45161
1.50049
1.48583
1.50538
1.52493
1.53470
1.53959
1.53470
1.53470
1.52493
1.51515
1.49071
1.48094
1.45161
1.45650
1.39785
1.39296
1.35386
1.33920
1.31965
1.30499
1.30010
1.28543
1.28055
1.27077
1.27566
1.26100
1.28055
1.25122
1.26588
1.23656
1.23167
1.22190
1.22190
1.23167
1.25122
1.30499
1.38807
1.51026
1.64223
1.79863
1.93548
2.09189
2.16031
2.23851
2.25806
2.26295
2.24340
2.20430
2.15543
2.10166
2.05279
1.99902
1.95503
1.91105
1.88172
1.83284
1.83284
1.76931
1.74976
1.70577
1.67644
1.65200
1.63734
1.62757
1.61779
1.62268
1.62268
1.63734
1.63734
1.66667
1.64712
1.67644
1.64712
1.64223
1.63245
1.61779
1.60313
1.58358
1.56891
1.54448
1.52493
1.50049
1.49071
1.46628
1.47116
1.43206
1.45161
1.40762
1.39785
1.38807
1.37341
1.36852
1.35386
1.34409
1.33920
1.33431
1.32454
1.33431
1.33431
1.39296
1.41251
1.49560
1.60313
1.73509
1.87683
2.01369
2.13587
2.21896
2.27761
2.28739
2.28250
2.24340
2.21896
2.15054
2.14076
2.05279
2.01369
1.96970
1.93060
1.89638
1.86706
1.83284
1.79863
1.76442
1.72043
1.70088
1.65689
1.66667
1.61779
1.62757
1.60313
1.59824
1.60313
1.60802
1.61290
1.61779
1.62268
1.61779
1.61779
1.60313
1.59824
1.57380
1.58358
1.53470
1.54448
1.49071
1.46139
1.43695
1.41740
1.39785
1.38319
1.37341
1.35875
1.34897
1.33431
1.33431
1.31476
1.33920
1.29521
1.29521
1.27566
1.27077
1.26100
1.26100
1.26588
1.27566
1.31476
1.37830
1.47605
1.59335
1.74487
1.86706
2.02835
2.08700
2.15543
2.19453
2.20430
2.19453
2.16031
2.12121
2.06745
2.02346
1.96970
1.94037
1.88661
1.88661
1.82307
1.79863
1.75953
1.72043
1.68622
1.65200
1.62268
1.59824
1.58358
1.56891
1.56403
1.55914
1.57380
1.56403
1.60313
1.56891
1.56891
1.56403
1.55914
1.55425
1.53959
1.52981
1.51026
1.49560
1.47116
1.45650
1.43695
1.43206
1.39296
1.41740
1.35875
1.34409
1.32942
1.31965
1.30987
1.30010
1.29521
1.29032
1.28543
1.28055
1.27566
1.26588
1.27077
1.25611
1.28543
1.24633
1.24633
1.25611
1.29521
1.35875
1.44673
1.56891
1.70088
1.84262
1.95992
2.06256
2.13099
2.18964
2.18475
2.21408
2.14565
2.10166
2.05767
2.00880
1.95992
1.91593
1.88172
1.84751
1.81818
1.78397
1.75464
1.71065
1.69110
1.63734
1.64712
1.57869
1.55914
1.54448
1.53959
1.53959
1.53959
1.54448
1.54448
1.54936
1.54448
1.54936
1.53470
1.55425
1.51026
1.52981
1.47605
1.45650
1.43206
1.41251
1.38807
1.36852
1.34897
1.32454
1.31476
1.29521
1.29032
1.26588
1.29032
1.24633
1.24145
1.23167
1.21701
1.21212
1.20235
1.19746
1.18280
1.18280
1.16813
1.17791
1.17302
1.23167
1.25122
1.34409
1.44184
1.56891
1.70577
1.82796
1.94037
2.01369
2.06256
2.07722
2.07722
2.04790
2.02346
1.95992
1.95015
1.85728
1.80841
1.76442
1.72532
1.69110
1.65689
1.62757
1.58847
1.55914
1.52493
1.50538
1.47605
1.49560
1.45650
1.48094
1.45650
1.46139
1.46628
1.47116
1.47605
1.48094
1.48583
1.48094
1.47605
1.46139
1.45650
1.42717
1.44184
1.39296
1.38807
1.35875
1.33920
1.32454
1.30987
1.29521
1.28055
1.27077
1.26100
1.25611
1.24633
1.26100
1.22678
1.22678
1.21701
1.21212
1.20235
1.19746
1.19257
1.18768
1.19746
1.21212
1.25611
1.32454
1.43206
1.54936
1.70088
1.81329
1.96481
2.01369
2.07234
2.09677
2.09189
2.07234
2.02835
1.98436
1.92571
1.87683
1.82796
1.79374
1.74487
1.72532
1.66667
1.67155
1.59335
1.55914
1.52981
1.50049
1.48583
1.47116
1.46628
1.46139
1.46628
1.47116
1.48583
1.49071
1.51026
1.51026
1.54936
1.51515
1.54448
1.50538
1.49560
1.48583
1.46628
1.45161
1.43206
1.41740
1.39785
1.38807
1.37341
1.36364
1.34897
1.35386
1.32942
1.35875
1.31476
1.30499
1.29521
1.29521
1.29032
1.29032
1.29032
1.29032
1.29521
1.29521
1.31476
1.33920
1.40762
1.48583
1.64223
1.74487
1.90127
2.03812
2.15543
2.24829
2.31183
2.34604
2.34604
2.32649
2.28739
2.24340
2.18475
2.14565
2.08211
2.06745
1.99413
1.95992
1.92082
1.88661
1.85728
1.82307
1.79374
1.76442
1.74976
1.73021
1.72532
1.72043
1.73509
1.72532
1.76442
1.74487
1.77419
1.75464
1.75953
1.75953
1.75464
1.74976
1.73509
1.72043
1.70088
1.68133
1.65689
1.64712
1.61290
1.62268
1.57869
1.57869
1.54448
1.52981
1.51515
1.50538
1.49560
1.48094
1.47605
1.46139
1.45650
1.44184
1.44673
1.42717
1.46139
1.42229
1.44673
1.49071
1.56403
1.67155
1.79863
1.94526
2.08700
2.21408
2.31183
2.38514
2.41447
2.43402
2.39980
2.40469
2.31672
2.26295
2.20919
2.15054
2.10655
2.06256
2.02346
1.97947
1.94526
1.90127
1.86706
1.82796
1.79863
1.75953
1.75464
1.71554
1.73998
1.69599
1.69599
1.70088
1.70088
1.70088
1.70577
1.71065
1.71065
1.70577
1.69599
1.68622
1.67155
1.66667
1.63734
1.65200
1.59335
1.56891
1.54936
1.52981
1.51026
1.49560
1.48094
1.46628
1.45650
1.44184
1.43695
1.42717
1.42229
1.40762
1.42229
1.39296
1.42229
1.37830
1.37341
1.37830
1.39785
1.44673
1.52981
1.64223
1.77419
1.92571
2.06256
2.18964
2.28250
2.35582
2.37048
2.40958
2.35093
2.33138
2.26784
2.21408
2.15543
2.10655
2.06256
2.01857
1.97947
1.94037
1.90616
1.86217
1.82796
1.78397
1.76442
1.72043
1.73998
1.68133
1.67644
1.67155
1.67155
1.68133
1.68622
1.69599
1.70088
1.70577
1.70088
1.70088
1.68622
1.68133
1.65200
1.66667
1.60802
1.58847
1.55914
1.53470
1.51026
1.49071
1.47116
1.45650
1.44184
1.42717
1.41740
1.40274
1.40274
1.38807
1.40762
1.37341
1.40274
1.35386
1.34897
1.34409
1.33920
1.34897
1.36852
1.42229
1.50049
1.61779
1.74976
1.90127
2.03324
2.16520
2.24340
2.34115
2.32649
2.32160
2.29717
2.25318
2.20430
2.15054
2.09677
2.03812
1.99413
1.94037
1.91105
1.86217
1.84751
1.77908
1.77419
1.69599
1.65689
1.63245
1.61290
1.60313
1.59335
1.59824
1.59824
1.60802
1.61290
1.62757
1.62268
1.64712
1.61779
1.64223
1.59335
1.57380
1.55425
1.52981
1.51026
1.48583
1.46628
1.43695
1.41740
1.39296
1.38319
1.35875
1.36364
1.32942
1.35386
1.30499
1.29032
1.28543
1.27077
1.26100
1.25611
1.25122
1.24145
1.23656
1.23656
1.25122
1.28055
1.34897
1.43695
1.59335
1.71065
1.88661
1.98925
2.09189
2.17009
2.20919
2.21896
2.20430
2.17009
2.12121
2.07722
2.00880
1.97458
1.90127
1.89150
1.80841
1.76442
1.72043
1.68133
1.64223
1.59824
1.56891
1.54448
1.52981
1.51515
1.51515
1.51026
1.52981
1.52004
1.56891
1.53959
1.54448
1.54448
1.54936
1.54448
1.53470
1.52493
1.50538
1.49071
1.46628
1.45161
1.42229
1.41740
1.37830
1.39785
1.33920
1.32942
1.31476
1.30010
1.29032
1.28055
1.27077
1.26100
1.25122
1.24145
1.24145
1.22678
1.23656
1.22190
1.25611
1.25122
1.32454
1.38319
1.50049
1.63734
1.78397
1.92571
2.04790
2.14076
2.19453
2.21896
2.21408
2.18964
2.14076
2.10655
2.02835
2.00880
1.91593
1.86706
1.81818
1.77419
1.73998
1.69599
1.66178
1.62268
1.59335
1.56403
1.54936
1.53959
1.54936
1.53470
1.57869
1.55425
1.56891
1.57380
1.58358
1.58847
1.58847
1.58847
1.58358
1.57869
1.56403
1.55425
1.53470
1.52493
1.50049
1.50538
1.47116
1.49071
1.44673
1.43695
1.42717
1.42229
1.41740
1.40762
1.40274
1.39296
1.39296
1.38319
1.38319
1.37830
1.39785
1.38807
1.46628
1.48583
1.57869
1.70577
1.85239
2.00391
2.15054
2.27761
2.36559
2.42424
2.44379
2.43891
2.40469
2.37537
2.30205
2.28250
2.18964
2.14076
2.09677
2.06256
2.02346
1.98925
1.95503
1.91593
1.87683
1.83773
1.81329
1.78397
1.78886
1.75464
1.78886
1.74976
1.75464
1.75953
1.76931
1.77908
1.77908
1.77908
1.77419
1.76931
1.75464
1.74487
1.71554
1.71554
1.67644
1.69110
1.62757
1.60313
1.58358
1.55914
1.54448
1.52981
1.52004
1.50538
1.49560
1.48094
1.47116
1.45650
1.45650
1.43695
1.45650
1.42229
1.45650
1.46139
1.52004
1.61290
1.73509
1.87683
2.02835
2.16520
2.27761
2.36559
2.40958
2.43402
2.40958
2.39492
2.31672
2.30205
2.20430
2.15054
2.10655
2.06256
2.02346
1.98925
1.95503
1.92082
1.88661
1.84262
1.80841
1.76931
1.75464
1.72043
1.74487
1.69599
1.69110
1.68622
1.69599
1.70088
1.70577
1.70577
1.70088
1.70088
1.69110
1.68133
1.66178
1.65200
1.61779
1.62268
1.56891
1.57869
1.52493
1.50538
1.48583
1.46628
1.45161
1.43695
1.42717
1.41251
1.40762
1.39296
1.38807
1.37341
1.37830
1.35386
1.38807
1.34409
1.34897
1.37341
1.42717
1.51515
1.63734
1.78397
1.92571
2.06745
2.17986
2.26784
2.31672
2.34604
2.31672
2.28250
2.23851
2.18475
2.13587
2.08211
2.03812
1.99902
1.96481
1.92082
1.89638
1.85239
1.82307
1.76931
1.76442
1.69599
1.68133
1.64712
1.63734
1.63245
1.62757
1.63734
1.63734
1.64712
1.64712
1.65200
1.64712
1.65689
1.63734
1.65200
1.60802
1.59335
1.56891
1.54448
1.52493
1.50538
1.48583
1.46628
1.45161
1.43206
1.42229
1.40274
1.40274
1.38319
1.40274
1.36852
1.38319
1.35386
1.34409
1.33431
1.32942
1.31965
1.30987
1.30987
1.31965
1.35386
1.40762
1.51515
1.63245
1.80352
1.92082
2.08211
2.15543
2.22874
2.26295
2.26295
2.24340
2.19941
2.15054
2.09677
2.04790
1.98436
1.96481
1.89150
1.88172
1.80841
1.76931
1.73021
1.69110
1.65200
1.61779
1.58847
1.56403
1.55425
1.53959
1.54448
1.53959
1.56891
1.54936
1.57380
1.56403
1.55914
1.55425
1.54936
1.53470
1.52004
1.50538
1.47605
1.46139
1.43206
1.41740
1.38319
1.37830
1.33920
1.34897
1.30010
1.29032
1.27566
1.26588
1.25122
1.24633
1.23656
1.22678
1.22190
1.20723
1.21212
1.19746
1.21701
1.18280
1.21212
1.20723
1.24633
1.32942
1.43695
1.57380
1.71554
1.86217
1.98436
2.08211
2.14076
2.17986
2.16520
2.16520
2.08700
2.03324
1.95992
1.89638
1.83773
1.78886
1.74487
1.70088
1.66178
1.61779
1.57869
1.52981
1.50538
1.46139
1.47605
1.42229
1.42717
1.42229
1.42717
1.43695
1.44184
1.45161
1.45650
1.46628
1.46628
1.46628
1.45650
1.45161
1.43206
1.44184
1.39296
1.39296
1.35386
1.32942
1.30987
1.29032
1.27077
1.25611
1.24145
1.22678
1.21701
1.20235
1.20723
1.18768
1.20723
1.17791
1.20235
1.16813
1.16325
1.15836
1.15347
1.15347
1.16813
1.20723
1.26588
1.36852
1.49071
1.64712
1.79374
1.95503
2.04301
2.15054
2.16520
2.17498
2.16031
2.11632
2.06745
2.00391
1.94037
1.87683
1.83773
1.76931
1.76442
1.68133
1.64223
1.60802
1.56891
1.53959
1.51026
1.49071
1.47605
1.47116
1.46628
1.47605
1.47605
1.50538
1.50049
1.55425
1.52493
1.52981
1.53470
1.53470
1.53470
1.52493
1.51026
1.49071
1.48094
1.45650
1.44673
1.42229
1.43695
1.39296
1.42229
1.37341
1.36852
1.36364
1.35875
1.34897
1.34409
1.33920
1.33431
1.32942
1.32454
1.32942
1.32454
1.35386
1.34409
1.42229
1.45161
1.55914
1.69110
1.84262
1.99902
2.14076
2.25806
2.33627
2.39003
2.39980
2.39003
2.34604
2.31183
2.23363
2.20919
2.11144
2.05767
2.01369
1.96481
1.93060
1.88661
1.85239
1.81329
1.77908
1.73998
1.73021
1.69110
1.72043
1.66667
1.66667
1.66667
1.67155
1.68133
1.69110
1.69599
1.69599
1.69599
1.69110
1.69599
1.69110
1.71065
1.67155
1.68133
1.62268
1.59335
1.56403
1.53959
1.52004
1.50049
1.49071
1.47116
1.46628
1.45161
1.44184
1.42229
1.43206
1.39296
1.41740
1.36852
1.35386
1.34897
1.34409
1.34897
1.37830
1.44673
1.53959
1.67644
1.82307
1.98925
2.12610
2.27273
2.33138
2.41935
2.40469
2.38514
2.35093
2.29717
2.24340
2.17986
2.12121
2.06256
2.01857
1.96970
1.93548
1.89150
1.87683
1.81329
1.80841
1.73509
1.71065
1.68622
1.66667
1.65200
1.65200
1.64712
1.64712
1.65689
1.66178
1.67644
1.67155
1.68622
1.67155
1.70577
1.65200
1.63734
1.62268
1.60313
1.58358
1.56403
1.54448
1.52004
1.50538
1.48094
1.46628
1.45161
1.45161
1.42229
1.45161
1.40762
1.39785
1.38319
1.37830
1.36852
1.36364
1.35386
1.34897
1.35875
1.37830
1.44184
1.52493
1.66178
1.78886
1.97947
2.08211
2.19453
2.28250
2.32649
2.34604
2.32649
2.29228
2.23851
2.18475
2.12121
2.07234
2.01369
1.97458
1.92082
1.91105
1.84262
1.80352
1.76442
1.72043
1.69110
1.66178
1.64223
1.62268
1.62268
1.61779
1.62757
1.63245
1.65689
1.64712
1.69599
1.65689
1.65689
1.65689
1.64712
1.63245
1.61779
1.60313
1.57380
1.55914
1.52981
1.51515
1.48583
1.48583
1.45161
1.47605
1.42229
1.40762
1.39296
1.38319
1.36852
1.36364
1.35875
1.34897
1.33920
1.32454
1.32454
1.31965
1.34897
1.37341
1.49071
1.55425
1.68622
1.83773
1.97458
2.10166
2.19453
2.25806
2.28250
2.28250
2.25318
2.21408
2.16031
2.11632
2.04301
2.02835
1.93548
1.89150
1.84751
1.80352
1.75953
1.71065
1.67155
1.62757
1.59335
1.56403
1.55425
1.53959
1.54936
1.54936
1.57869
1.56403
1.60802
1.57869
1.58847
1.58847
1.58358
1.57380
1.55914
1.54936
1.52493
1.50538
1.48094
1.46628
1.43695
1.43206
1.38807
1.40762
1.34897
1.33431
1.31476
1.30499
1.29032
1.27566
1.27077
1.25611
1.24633
1.22678
1.22190
1.20723
1.21701
1.20235
1.26100
1.26588
1.34409
1.45161
1.58847
1.73998
1.89150
2.01857
2.11632
2.17986
2.20430
2.20430
2.17009
2.13587
2.06256
2.03812
1.93060
1.87195
1.81329
1.75953
1.71065
1.66667
1.62268
1.57380
1.53959
1.49560
1.48583
1.45161
1.48094
1.43695
1.43695
1.44673
1.45650
1.46628
1.48094
1.49560
1.50049
1.51026
1.50538
1.50538
1.48094
1.48583
1.44673
1.46628
1.40762
1.38319
1.35875
1.33920
1.31965
1.30010
1.28543
1.26588
1.26100
1.24633
1.24145
1.22678
1.23167
1.20723
1.24145
1.18768
1.18280
1.17791
1.17791
1.19257
1.23656
1.31476
1.41740
1.55914
1.70577
1.86217
1.98925
2.10655
2.16031
2.23363
2.18964
2.16031
2.11144
2.05279
1.98925
1.92571
1.86217
1.80352
1.75464
1.69599
1.66178
1.59824
1.59335
1.51026
1.47116
1.44673
1.42717
1.41740
1.42229
1.43206
1.43695
1.45650
1.47116
1.48583
1.49071
1.52004
1.50538
1.54448
1.50049
1.48583
1.47605
1.46139
1.44673
1.42229
1.40762
1.38807
1.37830
1.36364
1.35875
1.34409
1.34897
1.32942
1.35875
1.31476
1.30987
1.30499
1.30010
1.30010
1.29521
1.30010
1.30987
1.34897
1.40274
1.50538
1.62757
1.81329
1.94037
2.10166
2.22385
2.32160
2.38514
2.40469
2.40469
2.37048
2.32649
2.26784
2.20430
2.14076
2.09677
2.03812
2.01369
1.95503
1.95015
1.87683
1.83773
1.79863
1.76442
1.73998
1.72043
1.71065
1.70577
1.70577
1.71065
1.72532
1.73021
1.75464
1.74487
1.78886
1.74976
1.74976
1.73509
1.72532
1.71065
1.69110
1.67155
1.64712
1.62757
1.60313
1.58358
1.56403
1.54936
1.52493
1.53959
1.50049
1.52004
1.47116
1.45650
1.44673
1.43695
1.42717
1.41740
1.42229
1.43206
1.47605
1.54448
1.65689
1.78397
1.95992
2.08211
2.24829
2.31672
2.39003
2.42424
2.42424
2.39980
2.35093
2.29717
2.23363
2.17986
2.12121
2.07722
2.02346
1.99902
1.94526
1.94526
1.86706
1.82307
1.78397
1.74487
1.72043
1.69599
1.68622
1.67644
1.67644
1.67644
1.69110
1.69599
1.71065
1.70577
1.74487
1.69599
1.70088
1.68133
1.66667
1.65200
1.63245
1.61290
1.58847
1.56891
1.54936
1.52981
1.51026
1.50049
1.47116
1.48583
1.44184
1.45650
1.41251
1.40274
1.38807
1.38319
1.36852
1.36364
1.36364
1.37341
1.40762
1.47116
1.56891
1.69599
1.85239
1.98436
2.15054
2.22385
2.31183
2.32649
2.32649
2.30694
2.26295
2.20919
2.15543
2.10166
2.04790
1.99902
1.95503
1.92082
1.87683
1.84751
1.79863
1.79863
1.72532
1.72043
1.66667
1.64712
1.63245
1.63245
1.63245
1.63734
1.64712
1.64712
1.66178
1.66178
1.67155
1.66178
1.67155
1.64712
1.67155
1.61290
1.59335
1.56891
1.54936
1.52493
1.50538
1.48583
1.47116
1.45650
1.44184
1.42717
1.41740
1.41251
1.39296
1.40274
1.37341
1.40762
1.35875
1.34897
1.34409
1.34409
1.36364
1.40274
1.48094
1.58847
1.72043
1.86217
2.00391
2.11632
2.21896
2.26784
2.31672
2.28250
2.29717
2.20919
2.15054
2.09189
2.03324
1.98436
1.93548
1.89638
1.85728
1.81818
1.77908
1.74487
1.70088
1.67155
1.63245
1.62268
1.59335
1.62757
1.57869
1.58358
1.58847
1.59824
1.60802
1.61290
1.61779
1.61290
1.61290
1.59824
1.58847
1.55914
1.53470
1.49560
1.48583
1.42229
1.38807
1.35386
1.33920
1.31965
1.31476
1.30987
1.30987
1.30499
1.29521
1.28543
1.27077
1.26100
1.24145
1.25122
1.22190
1.25611
1.22190
1.24145
1.29032
1.36852
1.48583
1.62757
1.77908
1.92082
2.04790
2.13099
2.18964
2.19453
2.20919
2.15054
2.12610
2.03812
1.97947
1.92571
1.87195
1.82796
1.77908
1.73998
1.69599
1.65200
1.60802
1.57380
1.53470
1.53470
1.48583
1.51026
1.47116
1.47116
1.47605
1.48583
1.49560
1.50538
1.51515
1.51515
1.51515
1.50538
1.50538
1.48094
1.48583
1.44184
1.46139
1.39296
1.37341
1.34897
1.32454
1.30010
1.28543
1.27077
1.25611
1.24633
1.23656
1.22678
1.21212
1.21701
1.19746
1.20723
1.17791
1.20235
1.16325
1.16813
1.17791
1.23167
1.30987
1.41740
1.56403
1.71554
1.86217
1.98436
2.08211
2.14076
2.17498
2.15054
2.15543
2.06256
2.01369
1.95015
1.89150
1.83773
1.78886
1.74487
1.69599
1.65689
1.60313
1.56403
1.51026
1.49071
1.43695
1.45650
1.40274
1.39296
1.39296
1.39296
1.39785
1.40762
1.41740
1.42229
1.42717
1.42229
1.42229
1.41251
1.41251
1.37830
1.39785
1.33431
1.30987
1.28543
1.26588
1.24633
1.22678
1.21212
1.19746
1.18768
1.17791
1.17302
1.15836
1.16325
1.15347
1.17791
1.15347
1.19746
1.15836
1.16813
1.19257
1.23167
1.30010
1.40274
1.53470
1.68133
1.83284
1.95015
2.06745
2.11144
2.17498
2.13587
2.11144
2.06256
2.00391
1.94526
1.87683
1.81818
1.75464
1.70577
1.65200
1.61290
1.56403
1.53470
1.48094
1.48583
1.41251
1.39296
1.38319
1.37341
1.36852
1.37341
1.38319
1.39296
1.40762
1.41740
1.44184
1.44184
1.47116
1.45161
1.48094
1.43206
1.41740
1.40762
1.39296
1.37341
1.35386
1.33920
1.31965
1.30499
1.28543
1.27566
1.25611
1.27077
1.24145
1.26588
1.22678
1.22678
1.23167
1.22678
1.23167
1.23167
1.25122
1.28055
1.35386
1.45650
1.60313
1.75464
1.94526
2.06745
2.20430
2.27761
2.32649
2.34115
2.32649
2.28739
2.23363
2.17498
2.11632
2.06745
2.00880
1.98925
1.92082
1.92082
1.84751
1.81329
1.77908
1.74487
1.72043
1.69599
1.68622
1.67644
1.68133
1.68133
1.69599
1.70577
1.73021
1.73021
1.74487
1.74487
1.74487
1.73998
1.72532
1.71554
1.69599
1.67644
1.65200
1.63734
1.60802
1.60313
1.55914
1.58358
1.52493
1.50538
1.48583
1.47116
1.46139
1.44673
1.43206
1.42229
1.41251
1.39785
1.39785
1.38807
1.41251
1.42229
1.53470
1.59824
1.73021
1.88172
2.03324
2.17009
2.28250
2.36070
2.39492
2.40469
2.37537
2.34115
2.27273
2.24829
2.15543
2.10655
2.04790
1.99902
1.95503
1.91593
1.88172
1.83773
1.79863
1.75464
1.72532
1.69110
1.68622
1.65689
1.68622
1.64712
1.65200
1.65689
1.66178
1.67155
1.67644
1.67644
1.67644
1.67155
1.65200
1.64712
1.62268
1.62268
1.57869
1.59335
1.52981
1.51026
1.48583
1.46628
1.44673
1.42717
1.41740
1.40274
1.39785
1.38319
1.37830
1.36364
1.37830
1.34409
1.37830
1.33431
1.32942
1.33431
1.35386
1.40762
1.48583
1.60313
1.74487
1.90127
2.04301
2.16520
2.24829
2.31183
2.31672
2.32649
2.26784
2.25318
2.15543
2.09677
2.03812
1.98436
1.93548
1.89150
1.85239
1.80841
1.77419
1.73021
1.70088
1.65689
1.65200
1.59824
1.62268
1.57869
1.57869
1.58358
1.58847
1.59824
1.60802
1.61290
1.61779
1.62268
1.61290
1.60802
1.59335
1.59335
1.55425
1.57380
1.51026
1.49560
1.46628
1.44673
1.42717
1.40274
1.39296
1.37341
1.36364
1.34897
1.34409
1.32942
1.33431
1.31476
1.33920
1.29521
1.29032
1.28055
1.28055
1.29032
1.32454
1.38807
1.48094
1.61290
1.75464
1.90616
2.03324
2.15054
2.20919
2.28739
2.25318
2.22874
2.18964
2.14076
2.08700
2.02835
1.97458
1.92082
1.87683
1.83284
1.79863
1.74487
1.73509
1.66178
1.64223
1.59824
1.56891
1.55425
1.54936
1.54936
1.55425
1.56403
1.57380
1.58847
1.59335
1.60802
1.59824
1.62757
1.58847
1.60802
1.56403
1.53959
1.51515
1.49560
1.47116
1.44673
1.42717
1.40274
1.38807
1.36364
1.35386
1.32942
1.34409
1.30499
1.32454
1.29032
1.28055
1.27077
1.25611
1.25122
1.23656
1.23167
1.22190
1.22678
1.23656
1.29032
1.36364
1.51026
1.62268
1.79374
1.92082
2.04301
2.13587
2.18964
2.21408
2.20430
2.17498
2.12610
2.07722
2.01369
1.96970
1.89638
1.88172
1.79374
1.78886
1.69599
1.65200
1.60802
1.56403
1.52981
1.50049
1.48094
1.46628
1.46628
1.47116
1.48583
1.48583
1.51515
1.50538
1.54448
1.51515
1.51515
1.50538
1.49560
1.48094
1.46139
1.44184
1.41740
1.39785
1.36852
1.34897
1.31965
1.31476
1.28055
1.30010
1.24633
1.22678
1.21212
1.19746
1.18280
1.17302
1.16813
1.15347
1.14369
1.12903
1.12903
1.11926
1.14369
1.15836
1.25122
1.30499
1.43206
1.57869
1.73021
1.87683
1.99902
2.08211
2.13099
2.15054
2.13099
2.10166
2.03812
2.00880
1.91105
1.84751
1.78397
1.72532
1.67155
1.61779
1.57380
1.52004
1.50049
1.43695
1.44184
1.38319
1.36852
1.36364
1.36364
1.36852
1.38319
1.39785
1.41251
1.42717
1.43206
1.44673
1.44184
1.45161
1.42717
1.45161
1.39785
1.37830
1.35386
1.33431
1.30987
1.29521
1.27566
1.25611
1.24145
1.22190
1.22190
1.20235
1.22678
1.18280
1.19746
1.16813
1.15836
1.15347
1.14369
1.14369
1.13392
1.13881
1.15347
1.20235
1.27566
1.39785
1.53470
1.70577
1.85239
2.03324
2.10166
2.17009
2.20919
2.20430
2.17986
2.13099
2.07722
2.00391
1.94037
1.87195
1.81818
1.75953
1.72043
1.65689
1.64223
1.56403
1.53959
1.49071
1.47116
1.45650
1.44673
1.45161
1.45650
1.47605
1.48583
1.51026
1.52004
1.54448
1.54936
1.58358
1.55914
1.56403
1.54936
1.53470
1.52493
1.50049
1.48583
1.46628
1.45161
1.43206
1.41740
1.40274
1.39785
1.37830
1.40274
1.36364
1.38319
1.35386
1.34409
1.33431
1.33431
1.32942
1.31965
1.31965
1.31965
1.34897
1.39296
1.48583
1.59824
1.76931
1.90616
2.11144
2.21408
2.32649
2.40469
2.44379
2.44868
2.42424
2.38514
2.32649
2.26295
2.19941
2.14076
2.08700
2.04790
1.98436
1.97458
1.89638
1.87195
1.81329
1.77419
1.73998
1.71554
1.69599
1.68622
1.68622
1.68622
1.70088
1.70577
1.72043
1.72532
1.74976
1.73509
1.77419
1.72532
1.72043
1.70577
1.68622
1.66667
1.64712
1.62268
1.59824
1.58358
1.55914
1.54448
1.52493
1.52004
1.49560
1.51515
1.47116
1.48583
1.44673
1.43206
1.41740
1.40762
1.40274
1.39785
1.40274
1.42229
1.48094
1.56403
1.69110
1.82796
2.01857
2.13587
2.27273
2.36559
2.42424
2.44868
2.43891
2.40958
2.35582
2.30694
2.23851
2.17986
2.11632
2.07234
2.01857
2.00391
1.93060
1.90127
1.84751
1.80352
1.76442
1.73021
1.70577
1.68622
1.67644
1.67155
1.67644
1.67644
1.69110
1.68622
1.72532
1.69110
1.69110
1.68622
1.68133
1.66667
1.64712
1.63245
1.60802
1.58847
1.56403
1.54936
1.51515
1.52981
1.48094
1.46628
1.44673
1.43695
1.41740
1.40762
1.39785
1.38807
1.37830
1.36364
1.36364
1.34897
1.35386
1.33920
1.39296
1.39296
1.46628
1.57380
1.71065
1.86706
2.01369
2.15054
2.24829
2.32160
2.35093
2.35093
2.32160
2.29717
2.22874
2.20919
2.11144
2.05279
1.99902
1.95015
1.90616
1.86706
1.82307
1.77908
1.73998
1.70088
1.67155
1.63734
1.63245
1.61290
1.64223
1.61290
1.63245
1.62268
1.63245
1.63734
1.64223
1.64223
1.64223
1.63245
1.62268
1.60802
1.58847
1.57869
1.54936
1.54448
1.50049
1.52004
1.46139
1.44673
1.42717
1.41251
1.39785
1.38807
1.37341
1.36364
1.35386
1.33920
1.33920
1.31965
1.33920
1.30010
1.31476
1.30499
1.33431
1.39785
1.49560
1.62268
1.77419
1.93060
2.06256
2.17498
2.24829
2.29717
2.29717
2.31183
2.23851
2.19453
2.13587
2.07722
2.02346
1.96481
1.92082
1.87195
1.82796
1.78397
1.74487
1.69599
1.66667
1.61779
1.62757
1.57380
1.56403
1.56403
1.56403
1.57380
1.58847
1.59824
1.60802
1.61290
1.61290
1.61779
1.59824
1.60802
1.56891
1.59335
1.52981
1.51026
1.48583
1.46628
1.43695
1.41740
1.39785
1.37830
1.36364
1.34409
1.33920
1.31965
1.33431
1.29032
1.30987
1.26588
1.24633
1.24145
1.23167
1.22190
1.21701
1.23167
1.26100
1.33920
1.43695
1.57869
1.72532
1.90616
2.00880
2.13099
2.18475
2.21896
2.21896
2.19453
2.15054
2.09677
2.03812
1.97458
1.95015
1.85728
1.80841
1.75464
1.70577
1.65689
1.60802
1.56403
1.52981
1.50049
1.47605
1.46628
1.45650
1.46628
1.45650
1.50049
1.48094
1.49560
1.50049
1.50538
1.50538
1.50538
1.50049
1.49071
1.48094
1.45650
1.44184
1.41251
1.40274
1.36852
1.36852
1.32942
1.33920
1.29032
1.27077
1.25611
1.24145
1.23167
1.21701
1.21212
1.19746
1.19257
1.17791
1.17302
1.15836
1.16813
1.15836
1.22678
1.23656
1.32454
1.44673
1.59335
1.74976
1.90127
2.02835
2.12121
2.17986
2.19941
2.18964
2.15054
2.11632
2.03324
2.00391
1.90127
1.84262
1.78397
1.73021
1.68133
1.62757
1.57869
1.52981
1.49071
1.45650
1.44184
1.41740
1.42717
1.41251
1.46139
1.43206
1.44184
1.45650
1.47116
1.48583
1.49071
1.49560
1.49071
1.48094
1.47116
1.45650
1.43206
1.42717
1.39296
1.40762
1.34897
1.33431
1.31476
1.29521
1.28055
1.26588
1.25122
1.24633
1.23656
1.22678
1.22190
1.20723
1.20723
1.19257
1.20723
1.18280
1.22190
1.21701
1.27566
1.37341
1.50538
1.66178
1.81818
1.97458
2.09677
2.19453
2.24340
2.27761
2.25318
2.24340
2.16031
2.10166
2.03812
1.97458
1.92082
1.86706
1.82307
1.77419
1.73509
1.69599
1.66667
1.62268
1.63245
1.57380
1.56403
1.56403
1.56891
1.57380
1.58847
1.60802
1.61779
1.63245
1.63734
1.65200
1.64712
1.65689
1.63734
1.66178
1.61779
1.62757
1.58847
1.57380
1.55425
1.53959
1.52493
1.51026
1.50049
1.48583
1.47605
1.46139
1.46139
1.44184
1.45650
1.42229
1.43206
1.40274
1.39296
1.39296
1.40762
1.44673
1.51515
1.62757
1.75953
1.92082
2.07234
2.22874
2.33627
2.44379
2.46334
2.50733
2.44868
2.40469
2.35093
2.28739
2.22385
2.16031
2.11144
2.06256
2.02346
1.97947
1.94037
1.89638
1.86706
1.81329
1.81329
1.74976
1.73998
1.72043
1.71554
1.71554
1.72043
1.72532
1.73509
1.74487
1.74487
1.75464
1.74487
1.74976
1.73021
1.74487
1.69110
1.67644
1.64712
1.62268
1.59335
1.57380
1.55425
1.52981
1.52004
1.50049
1.49071
1.47605
1.47116
1.45161
1.47116
1.42229
1.44184
1.40274
1.39785
1.38807
1.39296
1.42229
1.48094
1.57380
1.69599
1.84751
1.99902
2.15054
2.26295
2.37537
2.39980
2.42424
2.39980
2.36070
2.31183
2.24829
2.18964
2.13587
2.08211
2.03324
1.99413
1.94526
1.91105
1.86706
1.83773
1.78397
1.78397
1.71554
1.68622
1.67155
1.66178
1.66178
1.66178
1.67155
1.67644
1.68622
1.68622
1.69599
1.68622
1.68622
1.66667
1.68133
1.63734
1.62757
1.59824
1.57380
1.54936
1.52493
1.50538
1.48583
1.47116
1.45161
1.44184
1.42717
1.42229
1.40274
1.42717
1.37830
1.37830
1.35386
1.34409
1.33431
1.32942
1.33920
1.36364
1.42229
1.51515
1.64223
1.78397
1.93548
2.06745
2.19453
2.25806
2.33627
2.30694
2.29228
2.24829
2.19941
2.14076
2.08211
2.02835
1.97458
1.93548
1.88661
1.85728
1.80352
1.79374
1.72532
1.70577
1.64712
1.62268
1.60313
1.59335
1.59335
1.59335
1.60313
1.60802
1.62268
1.62757
1.63734
1.63245
1.64712
1.61779
1.65200
1.59824
1.57869
1.55425
1.53470
1.51026
1.48583
1.46628
1.44184
1.42717
1.40274
1.39296
1.37830
1.37830
1.35386
1.37830
1.32942
1.31965
1.30987
1.30010
1.29032
1.28055
1.28055
1.28543
1.31476
1.36852
1.46628
1.58847
1.74487
1.88172
2.05279
2.13587
2.22874
2.25318
2.25806
2.23851
2.19941
2.15054
2.09189
2.03812
1.97458
1.95503
1.87195
1.82307
1.77908
1.73509
1.69599
1.65689
1.61779
1.58358
1.56403
1.54448
1.53959
1.53470
1.54936
1.54936
1.59335
1.56403
1.56891
1.57380
1.57380
1.56403
1.55425
1.54448
1.52493
1.50538
1.48094
1.46139
1.43695
1.42229
1.38807
1.40274
1.34409
1.32942
1.31476
1.30499
1.29032
1.27566
1.26100
1.25611
1.24145
1.22678
1.21701
1.20235
1.20235
1.18280
1.20235
1.18768
1.26100
1.29032
1.39296
1.52493
1.67155
1.82307
1.95503
2.06256
2.13099
2.17009
2.17498
2.15054
2.10655
2.06256
1.98925
1.96481
1.86706
1.81329
1.75953
1.71065
1.66178
1.61290
1.56891
1.52004
1.48583
1.44673
1.42717
1.40274
1.41251
1.39785
1.44184
1.41251
1.42717
1.43695
1.44673
1.45650
1.46139
1.46139
1.45161
1.44184
1.42229
1.40762
1.37830
1.36852
1.32942
1.33431
1.28543
1.30010
1.24145
1.22678
1.21212
1.19746
1.18280
1.17791
1.16813
1.15836
1.15347
1.13881
1.13392
1.11926
1.14369
1.10948
1.13881
1.13881
1.19257
1.28543
1.40762
1.55425
1.70577
1.85239
1.96970
2.06256
2.10655
2.12610
2.10655
2.08211
2.00880
1.98436
1.88172
1.81818
1.75464
1.70088
1.65200
1.60313
1.55914
1.50538
1.46139
1.42229
1.39785
1.36852
1.37341
1.35386
1.39785
1.37341
1.38319
1.39296
1.40762
1.41740
1.42717
1.43695
1.43695
1.43695
1.42717
1.42229
1.39785
1.39785
1.35875
1.38319
1.32942
1.30987
1.29032
1.27566
1.26100
1.24633
1.23656
1.22190
1.21701
1.20235
1.20723
1.18768
1.20235
1.17302
1.19746
1.15836
1.15836
1.17302
1.21212
1.29032
1.39785
1.54448
1.70088
1.86217
1.99413
2.11144
2.17009
2.23363
2.19453
2.16520
2.11632
2.05767
1.99413
1.92571
1.87195
1.81329
1.77419
1.72043
1.69599
1.64223
1.64223
1.56891
1.53959
1.52493
1.51026
1.50538
1.51026
1.52493
1.53959
1.55914
1.56891
1.59335
1.59824
1.63245
1.61290
1.65200
1.60802
1.60313
1.58847
1.57869
1.56403
1.54448
1.52981
1.51026
1.49560
1.47605
1.47605
1.45161
1.47605
1.43206
1.42717
1.41740
1.41251
1.40762
1.40274
1.39785
1.39296
1.39296
1.39296
1.41740
1.46139
1.55914
1.64712
1.81818
1.94526
2.09189
2.22874
2.33627
2.40958
2.43891
2.43891
2.40958
2.36070
2.29717
2.24340
2.17009
2.11632
2.06256
2.01369
1.97458
1.93060
1.89638
1.84751
1.80841
1.76931
1.74487
1.71554
1.70577
1.68622
1.71065
1.68133
1.70088
1.69110
1.70577
1.71065
1.71554
1.72043
1.71554
1.71065
1.69599
1.68622
1.66178
1.65689
1.62268
1.62757
1.57869
1.58847
1.53470
1.51515
1.50049
1.48583
1.47116
1.45650
1.44673
1.43206
1.42229
1.40762
1.40762
1.38319
1.40762
1.36364
1.37341
1.39785
1.45650
1.55425
1.68133
1.82796
1.97947
2.12121
2.23851
2.32649
2.36559
2.39980
2.36070
2.35582
2.26784
2.20919
2.14565
2.08211
2.03324
1.97947
1.94037
1.89638
1.86217
1.81329
1.78397
1.73509
1.73998
1.67155
1.65200
1.63734
1.62757
1.63245
1.63245
1.63734
1.64712
1.65689
1.65689
1.66667
1.65689
1.66667
1.64223
1.66667
1.60802
1.58847
1.56403
1.54448
1.52493
1.50049
1.48094
1.46139
1.45161
1.43206
1.42229
1.40274
1.39785
1.37830
1.38807
1.35386
1.37830
1.33431
1.32454
1.31476
1.31476
1.32942
1.36852
1.43695
1.53959
1.67644
1.82307
1.97458
2.09677
2.21896
2.26784
2.34115
2.29717
2.26784
2.22385
2.17498
2.11144
2.05279
1.99902
1.94526
1.90616
1.85728
1.82796
1.77419
1.76931
1.68622
1.65200
1.61779
1.59824
1.58358
1.57380
1.57380
1.57380
1.58358
1.59335
1.60313
1.60802
1.62268
1.60802
1.64223
1.59824
1.60313
1.56891
1.55425
1.52981
1.51026
1.48583
1.46628
1.44673
1.42229
1.40762
1.38807
1.38319
1.36364
1.37830
1.34409
1.35386
1.32454
1.31476
1.30499
1.29521
1.29032
1.28055
1.28055
1.28543
1.31476
1.36364
1.46139
1.57380
1.75464
1.87195
2.01369
2.13099
2.21408
2.26784
2.27761
2.26295
2.22385
2.17498
2.10655
2.05767
1.98925
1.95503
1.88661
1.83773
1.79863
1.74976
1.71065
1.66667
1.63245
1.59824
1.57380
1.54936
1.54936
1.53959
1.56403
1.54936
1.59335
1.56891
1.57869
1.58847
1.58847
1.59335
1.58358
1.57380
1.55425
1.53959
1.51515
1.50049
1.46628
1.47605
1.42229
1.41251
1.37830
1.35875
1.33920
1.32454
1.30987
1.30010
1.29032
1.27566
1.27077
1.25122
1.25122
1.23167
1.25122
1.21212
1.24145
1.21701
1.24145
1.29521
1.39296
1.52493
1.67155
1.82307
1.96481
2.08211
2.15543
2.20919
2.20919
2.22385
2.15543
2.12610
2.03812
1.97947
1.91593
1.86217
1.80841
1.75953
1.71554
1.66667
1.62268
1.57380
1.54448
1.49560
1.50538
1.45650
1.46628
1.44673
1.45161
1.46139
1.47116
1.48583
1.49560
1.51026
1.51026
1.51515
1.50538
1.51026
1.48094
1.49560
1.43695
1.41251
1.39296
1.36852
1.34897
1.32454
1.30499
1.28543
1.27077
1.25122
1.25122
1.23167
1.24633
1.20723
1.21701
1.18768
1.17791
1.16813
1.16325
1.15836
1.16325
1.18280
1.22678
1.31476
1.42229
1.58847
1.72532
1.90616
1.99902
2.09677
2.15543
2.18475
2.17498
2.13587
2.08700
2.02835
1.96481
1.89638
1.84262
1.78397
1.75464
1.67644
1.65200
1.57869
1.53470
1.49071
1.46139
1.43695
1.41740
1.41251
1.40274
1.41740
1.41740
1.44673
1.44184
1.50049
1.47116
1.48094
1.48094
1.47605
1.46628
1.45650
1.43695
1.41740
1.40274
1.38807
1.37341
1.34897
1.35386
1.31476
1.33431
1.28055
1.27077
1.25611
1.24633
1.24145
1.23167
1.22190
1.21701
1.21212
1.20235
1.20235
1.19746
1.23167
1.24633
1.35875
1.42229
1.56403
1.72043
1.88172
2.02835
2.14076
2.22385
2.26784
2.28250
2.25806
2.22874
2.16031
2.13099
2.03812
1.98436
1.93060
1.88172
1.84262
1.80352
1.76442
1.72532
1.69599
1.66178
1.64223
1.61779
1.62268
1.59824
1.64223
1.61290
1.62757
1.64223
1.65689
1.67155
1.67644
1.68622
1.69110
1.69110
1.67644
1.67155
1.65200
1.64712
1.61290
1.63734
1.57869
1.55914
1.53959
1.52004
1.50538
1.49071
1.48094
1.47116
1.46139
1.45161
1.44673
1.43206
1.44673
1.41251
1.44184
1.40762
1.42229
1.46628
1.53470
1.64223
1.78397
1.94037
2.09677
2.23851
2.34604
2.43402
2.46823
2.50244
2.45357
2.42424
2.35093
2.28739
2.22385
2.16520
2.11632
2.06745
2.03324
1.98925
1.95503
1.90616
1.88172
1.83284
1.82796
1.77419
1.78397
1.74487
1.73509
1.73509
1.73998
1.74976
1.75464
1.76442
1.76931
1.77419
1.76931
1.78397
1.75464
1.77908
1.72532
1.70577
1.68622
1.66178
1.64223
1.61779
1.59824
1.57869
1.56403
1.54448
1.53959
1.51515
1.53959
1.49560
1.48583
1.47116
1.46139
1.45161
1.44184
1.43695
1.42717
1.43695
1.45650
1.52004
1.60802
1.73998
1.87683
2.06256
2.17498
2.29228
2.37537
2.42424
2.44379
2.42424
2.39003
2.33627
2.28250
2.22385
2.17498
2.11632
2.11144
2.03324
1.98925
1.95015
1.90616
1.86706
1.83284
1.79374
1.76442
1.73998
1.72532
1.71554
1.70577
1.72043
1.71065
1.75464
1.72043
1.72532
1.72532
1.72043
1.71554
1.70577
1.69599
1.67155
1.65689
1.62757
1.61779
1.57869
1.59335
1.53959
1.52981
1.50538
1.48583
1.47605
1.45650
1.44673
1.43206
1.42229
1.40762
1.40274
1.38807
1.40762
1.36364
1.36364
1.34897
1.35386
1.37341
1.42229
1.50538
1.62757
1.76931
1.92082
2.06745
2.18475
2.28739
2.32160
2.38025
2.32649
2.29228
2.24340
2.18475
2.13099
2.07722
2.03324
1.98436
1.94526
1.90127
1.87683
1.82307
1.81818
1.73509
1.70088
1.67155
1.64712
1.63245
1.62757
1.63245
1.63245
1.64223
1.65200
1.66667
1.66667
1.68622
1.66667
1.70577
1.65200
1.63734
1.62268
1.59335
1.57380
1.54936
1.52981
1.50538
1.48583
1.46139
1.46628
1.42229
1.44673
1.39785
1.38807
1.37830
1.36852
1.36852
1.35386
1.34897
1.33920
1.33431
1.31965
1.33431
1.30499
1.34897
1.33431
1.38319
1.47116
1.58847
1.73998
1.89150
2.03812
2.16031
2.24829
2.29717
2.33138
2.30205
2.30694
2.21896
2.16520
2.11144
2.05279
1.99902
1.95015
1.90616
1.86217
1.82796
1.77908
1.75464
1.69599
1.70088
1.63245
1.61290
1.59824
1.59335
1.59335
1.60313
1.61290
1.61779
1.63734
1.63245
1.67155
1.62757
1.61779
1.60802
1.58847
1.56891
1.54936
1.52981
1.50049
1.48094
1.45161
1.43695
1.40762
1.40274
1.36364
1.38807
1.33431
1.32454
1.30987
1.30010
1.29032
1.28055
1.27077
1.25611
1.25122
1.23656
1.23656
1.22190
1.24145
1.22678
1.29032
1.31965
1.41740
1.55425
1.70577
1.86706
2.00880
2.12610
2.19941
2.24829
2.25318
2.25318
2.19453
2.17986
2.08211
2.01857
1.95992
1.90127
1.85239
1.79863
1.75464
1.70088
1.66667
1.61290
1.59335
1.53470
1.52004
1.49071
1.48094
1.47605
1.48583
1.49560
1.50538
1.52004
1.52981
1.54448
1.54448
1.56403
1.53470
1.56403
1.51026
1.49071
1.46628
1.44184
1.41740
1.38807
1.36852
1.34409
1.32454
1.30010
1.29032
1.26588
1.29521
1.24145
1.23167
1.22190
1.21212
1.20235
1.19746
1.19257
1.18280
1.17791
1.16813
1.17302
1.16813
1.23167
1.24633
1.33431
1.45161
1.60802
1.77419
1.93060
2.07234
2.17498
2.24340
2.26784
2.27273
2.22385
2.20430
2.10655
2.03812
1.97458
1.90616
1.84751
1.79374
1.74487
1.69599
1.65200
1.60802
1.56891
1.52981
1.52004
1.49071
1.52493
1.48094
1.49071
1.50049
1.51515
1.52493
1.54448
1.55914
1.56403
1.57380
1.57380
1.57380
1.55914
1.56891
1.52981
1.52981
1.49071
1.47116
1.45161
1.43206
1.41251
1.39785
1.38807
1.37341
1.36364
1.35386
1.36364
1.34409
1.37341
1.32942
1.31476
1.30987
1.30010
1.29032
1.28543
1.29032
1.29032
1.32454
1.37830
1.47605
1.60313
1.77908
1.93060
2.13587
2.23363
2.34115
2.41447
2.43891
2.43402
2.39980
2.35093
2.28739
2.22874
2.16031
2.10655
2.03812
2.00880
1.94037
1.93060
1.84751
1.80352
1.76442
1.73021
1.70088
1.68133
1.66667
1.66178
1.66178
1.66667
1.68622
1.69110
1.73021
1.71065
1.75464
1.72043
1.72043
1.71065
1.70088
1.68622
1.66667
1.64712
1.62757
1.60802
1.57380
1.55914
1.52493
1.53959
1.48583
1.47116
1.45161
1.44184
1.42717
1.41740
1.40762
1.39785
1.38807
1.37830
1.37341
1.35875
1.36364
1.34897
1.38319
1.38319
1.46628
1.53470
1.66667
1.82796
1.99413
2.15054
2.27761
2.38025
2.43402
2.45846
2.44379
2.41447
2.35582
2.31672
2.22874
2.20430
2.10655
2.05279
2.00391
1.95992
1.91593
1.87195
1.83284
1.79374
1.75953
1.72532
1.70088
1.68133
1.68622
1.67155
1.71065
1.68133
1.69110
1.70088
1.71065
1.71065
1.71065
1.71065
1.70088
1.69110
1.67155
1.66667
1.63245
1.64712
1.58358
1.55914
1.53470
1.51515
1.49560
1.47605
1.45650
1.44184
1.43206
1.41740
1.40762
1.39296
1.39296
1.37341
1.39296
1.35386
1.36852
1.32942
1.32454
1.32454
1.33431
1.37341
1.44673
1.56403
1.70577
1.87195
2.02835
2.17009
2.27761
2.36559
2.39492
2.43402
2.37048
2.32649
2.27273
2.20919
2.15054
2.09189
2.03812
1.98925
1.94526
1.90127
1.86706
1.81818
1.80352
1.74487
1.74976
1.68622
1.66667
1.65200
1.64712
1.65200
1.65200
1.66178
1.66178
1.67644
1.67644
1.68133
1.67155
1.69599
1.65689
1.67155
1.62268
1.60313
1.58358
1.55914
1.53959
1.51515
1.50049
1.47605
1.46628
1.43695
1.44184
1.41251
1.44184
1.38319
1.37341
1.36364
1.34897
1.33920
1.32942
1.31965
1.30987
1.30499
1.30010
1.31965
1.35386
1.44673
1.53959
1.72532
1.83773
1.98925
2.12121
2.22385
2.29228
2.32160
2.32160
2.29717
2.25318
2.19453
2.14076
2.07234
2.02835
1.95503
1.91105
1.85728
1.81329
1.76931
1.72532
1.68133
1.63734
1.61290
1.58358
1.56891
1.55425
1.55914
1.55914
1.58847
1.57380
1.60802
1.58358
1.58847
1.58847
1.58847
1.57869
1.56891
1.55425
1.52981
1.51515
1.48094
1.47116
1.43695
1.44184
1.38807
1.38319
1.34409
1.32942
1.30987
1.29521
1.28543
1.27077
1.26100
1.25122
1.23656
1.22190
1.22190
1.20235
1.22190
1.18768
1.20723
1.20723
1.24633
1.33431
1.45650
1.60802
1.76931
1.93060
2.05767
2.16520
2.22385
2.25318
2.24340
2.23363
2.15543
2.12121
2.02835
1.95992
1.90127
1.84262
1.78886
1.74487
1.69599
1.64712
1.60313
1.55425
1.52981
1.49560
1.50049
1.46139
1.48583
1.46139
1.46628
1.47605
1.49071
1.50538
1.51515
1.52493
1.52004
1.52004
1.51026
1.50538
1.48094
1.48094
1.43206
1.44673
1.37830
1.35386
1.32942
1.30987
1.29032
1.27077
1.25611
1.23656
1.23167
1.21212
1.21212
1.19257
1.20723
1.17302
1.19746
1.15836
1.15347
1.15347
1.15836
1.18768
1.24633
1.34897
1.48094
1.65689
1.81818
2.00391
2.11144
2.23363
2.25318
2.26295
2.24829
2.20919
2.15543
2.09189
2.02835
1.95992
1.90616
1.84262
1.83284
1.74487
1.69599
1.65200
1.61290
1.57380
1.54448
1.52981
1.51515
1.52004
1.52004
1.54936
1.55425
1.61779
1.60313
1.62268
1.64223
1.64712
1.66178
1.65689
1.65689
1.64223
1.63734
1.61290
1.59824
1.56891
1.55914
1.52004
1.53959
1.47605
1.45650
1.44184
1.42717
1.41740
1.40762
1.40274
1.39296
1.38319
1.37341
1.37341
1.35386
1.36852
1.34409
1.39785
1.37341
1.42229
1.51026
1.63734
1.78886
1.95992
2.12121
2.26295
2.37537
2.43891
2.47801
2.46823
2.45357
2.38514
2.36559
2.26295
2.19941
2.14076
2.08700
2.04301
1.99902
1.96481
1.92082
1.88172
1.84262
1.80841
1.76931
1.75953
1.72532
1.75953
1.71065
1.71065
1.71554
1.72043
1.72532
1.73509
1.73998
1.74487
1.74487
1.73509
1.73021
1.70577
1.70577
1.66667
1.68622
1.61779
1.59335
1.56891
1.54448
1.52493
1.51026
1.49560
1.48094
1.47605
1.46139
1.45650
1.43695
1.45650
1.41740
1.43206
1.39296
1.38319
1.37341
1.37341
1.38319
1.41740
1.49071
1.59335
1.73021
1.88172
2.04790
2.17986
2.32160
2.36559
2.40958
2.40958
2.38514
2.34115
2.28739
2.22385
2.16031
2.10655
2.05279
2.01369
1.96481
1.93548
1.89150
1.87195
1.81818
1.82307
1.74487
1.72043
1.69110
1.67644
1.67155
1.66667
1.67155
1.67155
1.68133
1.68622
1.69599
1.69599
1.71065
1.68622
1.71065
1.65689
1.64223
1.62268
1.60313
1.57869
1.55425
1.53470
1.51026
1.49560
1.47605
1.48094
1.44184
1.46628
1.42229
1.41251
1.40762
1.39785
1.38807
1.38319
1.37341
1.36364
1.35875
1.34409
1.34897
1.34409
1.38807
1.40274
1.51026
1.58847
1.73021
1.88172
2.02835
2.15543
2.24829
2.31183
2.33627
2.33138
2.29717
2.25806
2.18964
2.17009
2.07234
2.01857
1.97458
1.93060
1.89150
1.85239
1.81329
1.77419
1.73509
1.69599
1.69110
1.64223
1.66178
1.61290
1.60802
1.61290
1.61779
1.62268
1.62757
1.63734
1.63734
1.63734
1.62757
1.62757
1.60313
1.61779
1.56891
1.55425
1.52981
1.51026
1.48583
1.46628
1.44673
1.43206
1.41740
1.40274
1.39296
1.37830
1.37830
1.35875
1.37830
1.34409
1.35386
1.32454
1.31476
1.30499
1.29521
1.29032
1.28543
1.29521
1.32454
1.39296
1.49071
1.62757
1.76442
1.95015
2.04790
2.16520
2.22385
2.25806
2.25806
2.23363
2.19453
2.14076
2.08700
2.02835
1.97458
1.92082
1.87683
1.82307
1.80841
1.73998
1.72043
1.65689
1.62268
1.58847
1.56403
1.55425
1.54448
1.54936
1.54936
1.56403
1.56403
1.59335
1.58358
1.62757
1.58847
1.58358
1.56891
1.55914
1.54448
1.52493
1.50538
1.48094
1.46139
1.43695
1.42229
1.39785
1.39785
1.35875
1.38807
1.33431
1.31965
1.30987
1.30010
1.29032
1.28055
1.27566
1.26100
1.25611
1.24145
1.23656
1.22190
1.22678
1.21212
1.26588
1.26588
1.33431
1.44184
1.57869
1.73021
1.87683
2.00880
2.10655
2.17986
2.20919
2.21896
2.18475
2.15543
2.09189
2.06256
1.96970
1.91105
1.85728
1.79863
1.75464
1.71065
1.66667
1.62757
1.58358
1.54936
1.52493
1.50049
1.49560
1.48094
1.51026
1.48583
1.51026
1.50049
1.51026
1.52493
1.52981
1.53470
1.52981
1.52493
1.50538
1.49560
1.47605
1.46139
1.43206
1.42229
1.38319
1.40274
1.33431
1.30987
1.29032
1.27077
1.25122
1.24145
1.23167
1.21701
1.21212
1.19746
1.19257
1.17791
1.18768
1.15836
1.19257
1.14369
1.13881
1.13392
1.14858
1.18280
1.24633
1.34897
1.48583
1.64712
1.80352
1.95503
2.06745
2.15543
2.19453
2.22385
2.17986
2.17498
2.08211
2.01857
1.95503
1.89150
1.83773
1.78886
1.73998
1.69110
1.65200
1.60802
1.56891
1.52004
1.50049
1.46139
1.47605
1.43695
1.46139
1.44184
1.45161
1.46628
1.47605
1.48583
1.49560
1.51026
1.51026
1.51026
1.49560
1.48583
1.46628
1.46139
1.41740
1.43206
1.37341
1.36364
1.32942
1.30499
1.28055
1.26588
1.25122
1.24145
1.23656
1.22190
1.21701
1.20723
1.20235
1.18280
1.19746
1.16813
1.20235
1.15836
1.14858
1.15347
1.16325
1.20235
1.27566
1.38807
1.52981
1.70088
1.86706
2.02346
2.14076
2.22874
2.26295
2.29717
2.24340
2.22385
2.14076
2.07722
2.01369
1.95015
1.89638
1.84262
1.80841
1.75953
1.73509
1.68622
1.67644
1.61779
1.61779
1.56403
1.54936
1.54448
1.54448
1.54936
1.55914
1.56891
1.57380
1.58847
1.59335
1.60313
1.59335
1.60802
1.57869
1.60802
1.54448
1.52493
1.50049
1.47605
1.45161
1.42717
1.40274
1.37341
1.35386
1.33431
1.31965
1.30499
1.30499
1.28055
1.30010
1.26588
1.27077
1.24145
1.23167
1.22190
1.21212
1.20235
1.19746
1.20235
1.20723
1.24145
1.29521
1.40274
1.52004
1.71065
1.82796
1.97947
2.09189
2.17498
2.21896
2.22874
2.21408
2.17498
2.12121
2.06256
2.00880
1.95015
1.91105
1.85239
1.85239
1.76931
1.73509
1.69599
1.65689
1.61290
1.57869
1.55425
1.52493
1.51026
1.49560
1.49071
1.48094
1.50049
1.49071
1.53470
1.50049
1.50538
1.50538
1.49560
1.48583
1.47116
1.45650
1.43695
1.41740
1.38807
1.36852
1.33920
1.32942
1.29521
1.31476
1.25611
1.23656
1.22678
1.21212
1.20235
1.19257
1.18280
1.16813
1.16325
1.14369
1.13881
1.12414
1.13392
1.10459
1.14369
1.10948
1.13881
1.19746
1.29521
1.42717
1.57380
1.72532
1.86217
1.96970
2.04301
2.08700
2.08700
2.10166
2.03324
1.98925
1.93548
1.88172
1.82796
1.77908
1.73998
1.70088
1.66667
1.62757
1.59335
1.55425
1.52004
1.47605
1.47116
1.41740
1.43206
1.38319
1.38319
1.38319
1.38319
1.38807
1.39296
1.39785
1.39785
1.40274
1.39296
1.39296
1.37341
1.37830
1.33920
1.35386
1.29521
1.27566
1.25611
1.23656
1.22190
1.20235
1.18768
1.17302
1.16325
1.14858
1.14858
1.12903
1.15836
1.12414
1.12414
1.10948
1.09971
1.09482
1.08016
1.07527
1.06549
1.07038
1.08016
1.11437
1.16813
1.28543
1.38319
1.56403
1.65689
1.78886
1.88661
1.95992
2.00391
2.00880
1.99902
1.96970
1.93060
1.88172
1.86217
1.78397
1.74487
1.69599
1.65689
1.62268
1.58358
1.54448
1.50538
1.47116
1.43695
1.41251
1.38807
1.38319
1.36364
1.38807
1.36364
1.40762
1.37830
1.38319
1.38807
1.39296
1.39785
1.39296
1.38807
1.37830
1.36852
1.34409
1.33920
1.30987
1.32454
1.26588
1.25122
1.23167
1.21701
1.20235
1.18768
1.17791
1.16325
1.15836
1.14369
1.14369
1.12903
1.13392
1.10948
1.14369
1.09482
1.08016
1.07527
1.07038
1.08504
1.11926
1.18280
1.27077
1.39296
1.52004
1.66178
1.76442
1.89150
1.92082
1.95503
1.96481
1.95503
1.93060
1.89150
1.84751
1.79863
1.75464
1.70577
1.68622
1.62757
1.62268
1.54936
1.51026
1.47116
1.43695
1.40762
1.37830
1.35875
1.34409
1.34409
1.33431
1.34409
1.34409
1.37830
1.35875
1.39785
1.35875
1.35875
1.34897
1.33920
1.32942
1.30987
1.29521
1.27077
1.26100
1.23656
1.22678
1.19746
1.21701
1.16325
1.15347
1.13392
1.11926
1.11437
1.09971
1.09482
1.08504
1.07527
1.06549
1.06549
1.05083
1.07038
1.03617
1.07038
1.04106
1.06549
1.10948
1.18768
1.29032
1.41251
1.53959
1.65689
1.76442
1.83284
1.89150
1.90127
1.93060
1.88172
1.86217
1.80352
1.75953
1.71554
1.67155
1.63245
1.59824
1.56403
1.52981
1.50049
1.46139
1.44673
1.39785
1.41251
1.35386
1.34409
1.33920
1.33431
1.33920
1.34409
1.35386
1.35386
1.36852
1.36852
1.39785
1.37341
1.39296
1.35386
1.34409
1.32942
1.31476
1.29521
1.27566
1.26100
1.24145
1.23167
1.20723
1.22678
1.18768
1.20235
1.17302
1.16325
1.15347
1.15347
1.14369
1.13881
1.13392
1.12414
1.11926
1.10948
1.11437
1.10459
1.13881
1.13881
1.22678
1.27566
1.38319
1.51026
1.63734
1.75953
1.85239
1.92571
1.96481
1.98436
1.97947
1.96970
1.92082
1.91593
1.83284
1.78886
1.74976
1.71554
1.68133
1.65200
1.62268
1.58847
1.56403
1.52981
1.51026
1.47605
1.49071
1.45161
1.46139
1.45161
1.46139
1.46628
1.48094
1.49071
1.50049
1.51026
1.51026
1.52004
1.51026
1.52004
1.50049
1.52493
1.48094
1.46628
1.45161
1.44673
1.43695
1.42229
1.41251
1.40274
1.39296
1.38319
1.38319
1.37341
1.37830
1.35875
1.38807
1.33920
1.32942
1.32454
1.31965
1.31965
1.32454
1.34409
1.38319
1.45161
1.54936
1.67644
1.79863
1.95015
2.03812
2.17009
2.19941
2.23851
2.25318
2.24340
2.22874
2.18964
2.15543
2.11144
2.08211
2.03812
2.02835
1.97947
1.95503
1.92571
1.89150
1.85728
1.82796
1.79863
1.76931
1.74976
1.73021
1.72532
1.71065
1.73021
1.71554
1.76442
1.72532
1.73021
1.73509
1.73509
1.73021
1.72043
1.71554
1.69599
1.68622
1.66178
1.65689
1.62268
1.64712
1.58847
1.56891
1.55425
1.53959
1.52493
1.51515
1.50538
1.49071
1.48094
1.46139
1.45650
1.43695
1.44184
1.41740
1.45161
1.40762
1.41740
1.44673
1.49560
1.58358
1.69599
1.82307
1.95015
2.07722
2.17009
2.24829
2.29228
2.32649
2.30205
2.31672
2.24340
2.20430
2.16031
2.12121
2.08700
2.05767
2.03324
2.00391
1.97458
1.94037
1.91593
1.87195
1.85239
1.79863
1.80841
1.74487
1.72532
1.72043
1.71554
1.71065
1.71065
1.71554
1.71554
1.72043
1.71554
1.71554
1.70088
1.70577
1.67644
1.69110
1.63734
1.61779
1.59335
1.57380
1.55425
1.53470
1.52004
1.49560
1.48583
1.47116
1.46628
1.45161
1.45650
1.43206
1.45650
1.40762
1.39785
1.38807
1.37830
1.36852
1.35875
1.35875
1.36852
1.39785
1.45650
1.54448
1.65689
1.79863
1.92082
2.07722
2.15054
2.22874
2.27273
2.28739
2.28250
2.25806
2.21896
2.17498
2.14076
2.09677
2.08211
2.02346
2.01857
1.95503
1.92571
1.89150
1.85239
1.81818
1.77419
1.73998
1.71065
1.69110
1.67155
1.66667
1.65689
1.67155
1.66178
1.70088
1.66667
1.67155
1.66667
1.66667
1.65689
1.64712
1.63245
1.60802
1.59335
1.56891
1.55425
1.52493
1.51515
1.48583
1.50049
1.44673
1.44673
1.41740
1.40762
1.39296
1.38319
1.37830
1.36364
1.35875
1.34897
1.34897
1.33431
1.34897
1.31476
1.33920
1.29521
1.29521
1.29032
1.30010
1.33920
1.40274
1.49560
1.61779
1.75953
1.90127
2.05279
2.13099
2.23363
2.24340
2.24829
2.23363
2.19941
2.15543
2.10166
2.05279
1.99902
1.95503
1.91105
1.87683
1.83284
1.79863
1.74976
1.74487
1.67155
1.66178
1.60802
1.58358
1.56891
1.55914
1.55425
1.54936
1.55425
1.55425
1.56403
1.56891
1.57380
1.56403
1.57380
1.54936
1.57380
1.51515
1.49560
1.47116
1.45161
1.43206
1.41251
1.39296
1.37341
1.35386
1.33920
1.32942
1.30987
1.30987
1.28543
1.30499
1.26100
1.27077
1.23656
1.22678
1.21701
1.20723
1.19257
1.18768
1.18280
1.17302
1.19257
1.22190
1.28543
1.36852
1.50538
1.62268
1.79374
1.87683
1.97458
2.04301
2.07722
2.08700
2.06745
2.03812
1.98925
1.94037
1.88172
1.84262
1.78886
1.76442
1.70088
1.67644
1.62757
1.58847
1.54936
1.51515
1.48583
1.45650
1.44184
1.42717
1.42717
1.42229
1.42717
1.43206
1.45650
1.45161
1.49071
1.45650
1.46628
1.45161
1.44673
1.43206
1.41740
1.40274
1.38319
1.36364
1.34409
1.32942
1.30987
1.29521
1.27566
1.28055
1.25122
1.27566
1.22190
1.22678
1.20235
1.19746
1.18280
1.17791
1.17302
1.16325
1.15836
1.14858
1.15347
1.16325
1.20235
1.25611
1.37341
1.48583
1.66667
1.76442
1.90127
1.99902
2.06745
2.11144
2.11632
2.10166
2.06745
2.02346
1.96970
1.92082
1.86217
1.82307
1.77419
1.75953
1.69110
1.69110
1.61290
1.57869
1.54448
1.52004
1.49560
1.48583
1.48583
1.48094
1.49071
1.50049
1.52493
1.52981
1.56403
1.55914
1.59824
1.57869
1.57869
1.58358
1.57869
1.57380
1.55914
1.54936
1.53470
1.52004
1.50049
1.49560
1.47605
1.47605
1.45161
1.48094
1.43206
1.42717
1.41251
1.40762
1.39785
1.38319
1.37830
1.36852
1.35875
1.35386
1.35875
1.37830
1.44184
1.50538
1.65200
1.74976
1.89150
2.02835
2.14565
2.24340
2.30205
2.33138
2.33138
2.31183
2.26295
2.21896
2.15054
2.12121
2.04301
2.01857
1.95015
1.91105
1.87683
1.83284
1.79863
1.75464
1.72532
1.69110
1.67155
1.64712
1.64223
1.63245
1.65689
1.63245
1.67155
1.64223
1.64712
1.65200
1.65689
1.65200
1.64712
1.64223
1.62757
1.61779
1.59335
1.58358
1.55425
1.56403
1.51515
1.52493
1.47116
1.45650
1.44184
1.42717
1.41251
1.39785
1.38319
1.36852
1.35875
1.33920
1.34409
1.31965
1.34897
1.30499
1.31965
1.35386
1.42717
1.52493
1.64712
1.78397
1.91105
2.02346
2.10655
2.17009
2.18964
2.19453
2.16031
2.15054
2.07722
2.03324
1.95992
1.91105
1.86217
1.81818
1.77908
1.73998
1.70088
1.65689
1.62268
1.57869
1.55425
1.52004
1.52004
1.48094
1.50538
1.46139
1.46139
1.46628
1.46628
1.46628
1.46628
1.46628
1.45650
1.45650
1.44184
1.43206
1.41251
1.40762
1.36852
1.39296
1.32942
1.30987
1.29032
1.27077
1.25611
1.24145
1.22678
1.21212
1.19746
1.18280
1.17302
1.15347
1.14858
1.12903
1.14858
1.10948
1.11437
1.13392
1.17302
1.24145
1.33920
1.44673
1.56403
1.67644
1.75953
1.82796
1.86217
1.88661
1.86217
1.87683
1.79863
1.75464
1.70577
1.66667
1.62268
1.58847
1.55425
1.51515
1.48583
1.45161
1.42229
1.38319
1.35875
1.31965
1.33431
1.28543
1.29521
1.27077
1.27077
1.27566
1.28543
1.29521
1.30010
1.30010
1.30010
1.30010
1.28543
1.28543
1.26588
1.27566
1.23656
1.25122
1.19746
1.17791
1.15836
1.13881
1.12414
1.10459
1.09971
1.08504
1.08016
1.07038
1.07527
1.05572
1.07038
1.03128
1.05083
1.01173
1.00684
1.00684
1.03617
1.08504
1.16325
1.25611
1.35875
1.46628
1.54936
1.62268
1.65689
1.70577
1.68133
1.69110
1.64712
1.62268
1.59335
1.55914
1.53470
1.50538
1.48583
1.45650
1.44184
1.40762
1.39785
1.34409
1.33431
1.29032
1.27077
1.25122
1.24145
1.24145
1.23656
1.24145
1.24145
1.24633
1.24633
1.26588
1.24145
1.27566
1.22678
1.22190
1.20723
1.19257
1.17302
1.16325
1.14858
1.12903
1.11926
1.10948
1.10459
1.08504
1.10459
1.07038
1.08504
1.05572
1.04106
1.02639
1.01173
0.99707
0.97752
0.96285
0.94330
0.93842
0.91887
0.95308
0.96285
1.03128
1.11926
1.23656
1.34409
1.43695
1.51026
1.55425
1.57869
1.57380
1.56891
1.53470
1.53959
1.47116
1.44673
1.41251
1.38319
1.35875
1.32942
1.30499
1.27566
1.24145
1.20723
1.17791
1.14858
1.13881
1.10459
1.12903
1.09482
1.09971
1.09971
1.10948
1.12414
1.12903
1.13881
1.13881
1.14369
1.14369
1.13881
1.12414
1.11926
1.09482
1.10459
1.05083
1.06061
1.01173
0.99218
0.97752
0.95797
0.94819
0.93353
0.91887
0.90420
0.88954
0.86510
0.85044
0.82111
0.81623
0.78690
0.81623
0.76735
0.77713
0.80156
0.86022
0.94819
1.06061
1.18280
1.29521
1.39785
1.46628
1.51515
1.52981
1.53470
1.51515
1.52004
1.47605
1.48094
1.45161
1.44673
1.44673
1.44184
1.43695
1.42229
1.40762
1.38319
1.36364
1.33431
1.31965
1.29521
1.30499
1.28543
1.33431
1.29521
1.30499
1.30987
1.31476
1.30987
1.30987
1.30987
1.30010
1.30010
1.29032
1.29521
1.28055
1.29521
1.26100
1.29032
1.23167
1.22190
1.20723
1.19257
1.18280
1.17791
1.17791
1.16813
1.16813
1.16325
1.16813
1.16813
1.18768
1.17791
1.22678
1.20235
1.23167
1.27566
1.34897
1.44673
1.55914
1.67155
1.77419
1.85728
1.91105
1.95015
1.95992
1.96970
1.93060
1.94037
1.88172
1.85239
1.82796
1.80352
1.80841
1.76442
1.77419
1.72532
1.70088
1.67644
1.65200
1.63245
1.61779
1.61290
1.60313
1.60313
1.60802
1.62268
1.63245
1.65689
1.66178
1.71554
1.68622
1.69599
1.70088
1.69599
1.69110
1.67644
1.66667
1.65689
1.64223
1.62268
1.61290
1.59824
1.60313
1.57380
1.60802
1.56403
1.54936
1.53959
1.52981
1.51515
1.50049
1.49560
1.48094
1.47605
1.46628
1.46628
1.46139
1.50049
1.53470
1.64712
1.70577
1.81329
1.92082
2.01857
2.09677
2.14565
2.17986
2.18475
2.17986
2.15543
2.14565
2.10655
2.12121
2.05279
2.02835
2.00880
1.98436
1.96970
1.95015
1.92571
1.90127
1.87683
1.85239
1.83773
1.81818
1.82307
1.80352
1.84751
1.80841
1.81329
1.82307
1.82307
1.82796
1.82796
1.83284
1.82307
1.81818
1.80352
1.79863
1.77419
1.78397
1.73998
1.73021
1.70577
1.68133
1.66667
1.65200
1.63245
1.61779
1.60802
1.59335
1.58847
1.57380
1.56891
1.54936
1.54936
1.52004
1.55425
1.50049
1.50049
1.51026
1.55425
1.61290
1.69599
1.79863
1.90127
1.99902
2.07234
2.14565
2.17986
2.21896
2.19941
2.21408
2.16520
2.14076
2.11144
2.08700
2.06745
2.04790
2.03324
2.01369
2.00880
1.97947
1.98436
1.92571
1.90127
1.87683
1.86217
1.84751
1.84262
1.84751
1.85239
1.86217
1.87195
1.88172
1.88172
1.89638
1.88172
1.90616
1.86217
1.86217
1.83773
1.81818
1.79863
1.77419
1.75464
1.73509
1.72043
1.70088
1.69599
1.68133
1.69110
1.67155
1.67644
1.65689
1.64223
1.63245
1.61779
1.60313
1.58847
1.57380
1.55914
1.55425
1.54936
1.56891
1.58847
1.66667
1.71554
1.82307
1.90616
2.00391
2.09677
2.16520
2.21896
2.24829
2.26295
2.26295
2.25318
2.22874
2.21408
2.17498
2.17986
2.11632
2.09189
2.07234
2.04301
2.01857
1.98925
1.95992
1.93060
1.90616
1.88172
1.87683
1.86706
1.87683
1.86706
1.90616
1.87683
1.88172
1.88172
1.88661
1.88661
1.87683
1.87195
1.85728
1.84751
1.82307
1.81329
1.78886
1.78397
1.75464
1.77908
1.72043
1.70577
1.68622
1.67644
1.66178
1.65200
1.64223
1.63245
1.62757
1.60802
1.60313
1.58358
1.58847
1.55914
1.58847
1.53470
1.52493
1.52493
1.53959
1.57380
1.63734
1.72532
1.82307
1.93548
2.03324
2.13587
2.19453
2.27761
2.27273
2.27761
2.27273
2.25318
2.22874
2.18964
2.15543
2.12121
2.08700
2.04790
2.01857
1.97458
1.95503
1.89638
1.89638
1.82307
1.79863
1.77908
1.76442
1.75953
1.75953
1.76442
1.76442
1.77419
1.77419
1.77908
1.76931
1.78397
1.75464
1.76931
1.72532
1.70577
1.69110
1.66667
1.64712
1.62757
1.61290
1.58847
1.57380
1.54936
1.55425
1.52004
1.54936
1.50049
1.49071
1.48094
1.46628
1.45161
1.43695
1.42229
1.40762
1.39296
1.37830
1.37341
1.35875
1.37341
1.38319
1.47116
1.50538
1.60313
1.71554
1.82796
1.92571
2.01369
2.07722
2.11144
2.13099
2.12121
2.11144
2.07234
2.06745
1.99413
1.95503
1.91593
1.87195
1.83773
1.79374
1.75464
1.71554
1.68133
1.64223
1.62268
1.59824
1.59824
1.57380
1.59335
1.56891
1.59824
1.57380
1.57869
1.58847
1.59335
1.59335
1.59335
1.58847
1.57869
1.56891
1.54936
1.53959
1.51026
1.52493
1.47116
1.44673
1.42717
1.40762
1.38807
1.37341
1.36364
1.34897
1.33431
1.31476
1.30010
1.27566
1.28055
1.23656
1.24145
1.19746
1.18768
1.17302
1.17302
1.19257
1.24633
1.33431
1.45161
1.59824
1.73021
