2022-12-14 18:45:11.743386, 1.62756
2022-12-14 18:45:11.743386, 1.65689
2022-12-14 18:45:11.744376, 1.69599
2022-12-14 18:45:11.776335, 1.73509
2022-12-14 18:45:11.777289, 1.74486
2022-12-14 18:45:11.777289, 1.76441
2022-12-14 18:45:11.810235, 1.77908
2022-12-14 18:45:11.811229, 1.78396
2022-12-14 18:45:11.844110, 1.76441
2022-12-14 18:45:11.844110, 1.74975
2022-12-14 18:45:11.845110, 1.73998
2022-12-14 18:45:11.877064, 1.73020
2022-12-14 18:45:11.878019, 1.70576
2022-12-14 18:45:11.878019, 1.72531
2022-12-14 18:45:11.910797, 1.69110
2022-12-14 18:45:11.911759, 1.68132
2022-12-14 18:45:11.944640, 1.66666
2022-12-14 18:45:11.944859, 1.66177
2022-12-14 18:45:11.945257, 1.65689
2022-12-14 18:45:11.978574, 1.66666
2022-12-14 18:45:11.978904, 1.65200
2022-12-14 18:45:11.978904, 1.64222
2022-12-14 18:45:12.012126, 1.65200
2022-12-14 18:45:12.012475, 1.66177
2022-12-14 18:45:12.045637, 1.63734
2022-12-14 18:45:12.045876, 1.63245
2022-12-14 18:45:12.045876, 1.63734
2022-12-14 18:45:12.079173, 1.64711
2022-12-14 18:45:12.079470, 1.64711
2022-12-14 18:45:12.079996, 1.66666
2022-12-14 18:45:12.112764, 1.64711
2022-12-14 18:45:12.113767, 1.66177
2022-12-14 18:45:12.145024, 1.66177
2022-12-14 18:45:12.146017, 1.65200
2022-12-14 18:45:12.146017, 1.65689
2022-12-14 18:45:12.179727, 1.66666
2022-12-14 18:45:12.180055, 1.65689
2022-12-14 18:45:12.180782, 1.65200
2022-12-14 18:45:12.213354, 1.65200
2022-12-14 18:45:12.213354, 1.65689
2022-12-14 18:45:12.246942, 1.65200
2022-12-14 18:45:12.247228, 1.64711
2022-12-14 18:45:12.247841, 1.66666
2022-12-14 18:45:12.280445, 1.64222
2022-12-14 18:45:12.280737, 1.64222
2022-12-14 18:45:12.281260, 1.62756
2022-12-14 18:45:12.313907, 1.62756
2022-12-14 18:45:12.314302, 1.63734
2022-12-14 18:45:12.346736, 1.63734
2022-12-14 18:45:12.346736, 1.62267
2022-12-14 18:45:12.347733, 1.62267
2022-12-14 18:45:12.379851, 1.62756
2022-12-14 18:45:12.380811, 1.63245
2022-12-14 18:45:12.380811, 1.62267
2022-12-14 18:45:12.414301, 1.62267
2022-12-14 18:45:12.414301, 1.62756
2022-12-14 18:45:12.447212, 1.63245
2022-12-14 18:45:12.448210, 1.61779
2022-12-14 18:45:12.448210, 1.62267
2022-12-14 18:45:12.481423, 1.62756
2022-12-14 18:45:12.481741, 1.62756
2022-12-14 18:45:12.482744, 1.61779
2022-12-14 18:45:12.514889, 1.62267
2022-12-14 18:45:12.514889, 1.62756
2022-12-14 18:45:12.548865, 1.63245
2022-12-14 18:45:12.549131, 1.62267
2022-12-14 18:45:12.549643, 1.62267
2022-12-14 18:45:12.582427, 1.63245
2022-12-14 18:45:12.582756, 1.65689
2022-12-14 18:45:12.582756, 1.67155
2022-12-14 18:45:12.615701, 1.71065
2022-12-14 18:45:12.615701, 1.74486
2022-12-14 18:45:12.648604, 1.77908
2022-12-14 18:45:12.648604, 1.78885
2022-12-14 18:45:12.649613, 1.82795
2022-12-14 18:45:12.682319, 1.79863
2022-12-14 18:45:12.682738, 1.79863
2022-12-14 18:45:12.682738, 1.77419
2022-12-14 18:45:12.716299, 1.74975
2022-12-14 18:45:12.716674, 1.73509
2022-12-14 18:45:12.750035, 1.73020
2022-12-14 18:45:12.750273, 1.70576
2022-12-14 18:45:12.750273, 1.70087
2022-12-14 18:45:12.783485, 1.68621
2022-12-14 18:45:12.783776, 1.68621
2022-12-14 18:45:12.784240, 1.67155
2022-12-14 18:45:12.817175, 1.66666
2022-12-14 18:45:12.817546, 1.66666
2022-12-14 18:45:12.850691, 1.66666
2022-12-14 18:45:12.850959, 1.66177
2022-12-14 18:45:12.850959, 1.65200
2022-12-14 18:45:12.884130, 1.66177
2022-12-14 18:45:12.884130, 1.65200
2022-12-14 18:45:12.885133, 1.64711
2022-12-14 18:45:12.916607, 1.64222
2022-12-14 18:45:12.917616, 1.64711
2022-12-14 18:45:12.950682, 1.66666
2022-12-14 18:45:12.950930, 1.65200
2022-12-14 18:45:12.951423, 1.64711
2022-12-14 18:45:12.984543, 1.65200
2022-12-14 18:45:12.984888, 1.67155
2022-12-14 18:45:12.985541, 1.69110
2022-12-14 18:45:13.018147, 1.65689
2022-12-14 18:45:13.018494, 1.65689
2022-12-14 18:45:13.051642, 1.66177
2022-12-14 18:45:13.051642, 1.65689
2022-12-14 18:45:13.052408, 1.64711
2022-12-14 18:45:13.085276, 1.65200
2022-12-14 18:45:13.085594, 1.66666
2022-12-14 18:45:13.086596, 1.64711
2022-12-14 18:45:13.118688, 1.63734
2022-12-14 18:45:13.119082, 1.63245
2022-12-14 18:45:13.152359, 1.63245
2022-12-14 18:45:13.152359, 1.63734
2022-12-14 18:45:13.153361, 1.62267
2022-12-14 18:45:13.185811, 1.63245
2022-12-14 18:45:13.186838, 1.62756
2022-12-14 18:45:13.186838, 1.66177
2022-12-14 18:45:13.218710, 1.61779
2022-12-14 18:45:13.218710, 1.61779
2022-12-14 18:45:13.252431, 1.62267
2022-12-14 18:45:13.252790, 1.63734
2022-12-14 18:45:13.252790, 1.62756
2022-12-14 18:45:13.286410, 1.61290
2022-12-14 18:45:13.286726, 1.61779
2022-12-14 18:45:13.287728, 1.62756
2022-12-14 18:45:13.319981, 1.60801
2022-12-14 18:45:13.320324, 1.61290
2022-12-14 18:45:13.353614, 1.62267
2022-12-14 18:45:13.353897, 1.62267
2022-12-14 18:45:13.353897, 1.61290
2022-12-14 18:45:13.387024, 1.61290
2022-12-14 18:45:13.387314, 1.61779
2022-12-14 18:45:13.387831, 1.62267
2022-12-14 18:45:13.420595, 1.61779
2022-12-14 18:45:13.420966, 1.61290
2022-12-14 18:45:13.454009, 1.61290
2022-12-14 18:45:13.454538, 1.63245
2022-12-14 18:45:13.454538, 1.63245
2022-12-14 18:45:13.486550, 1.65200
2022-12-14 18:45:13.487559, 1.69599
2022-12-14 18:45:13.487559, 1.73020
2022-12-14 18:45:13.520600, 1.74975
2022-12-14 18:45:13.520954, 1.76441
2022-12-14 18:45:13.554507, 1.77908
2022-12-14 18:45:13.554746, 1.80840
2022-12-14 18:45:13.555748, 1.78396
2022-12-14 18:45:13.588199, 1.76441
2022-12-14 18:45:13.588522, 1.74975
2022-12-14 18:45:13.589525, 1.73998
2022-12-14 18:45:13.621689, 1.71554
2022-12-14 18:45:13.622063, 1.69110
2022-12-14 18:45:13.655256, 1.68621
2022-12-14 18:45:13.655497, 1.67644
2022-12-14 18:45:13.655497, 1.67155
2022-12-14 18:45:13.688799, 1.65689
2022-12-14 18:45:13.689151, 1.65200
2022-12-14 18:45:13.689675, 1.66177
2022-12-14 18:45:13.722243, 1.65200
2022-12-14 18:45:13.722988, 1.64711
2022-12-14 18:45:13.754767, 1.66666
2022-12-14 18:45:13.755793, 1.64222
2022-12-14 18:45:13.755793, 1.63734
2022-12-14 18:45:13.789207, 1.62756
2022-12-14 18:45:13.789527, 1.63245
2022-12-14 18:45:13.790541, 1.65689
2022-12-14 18:45:13.822795, 1.63734
2022-12-14 18:45:13.822795, 1.62756
2022-12-14 18:45:13.856477, 1.63245
2022-12-14 18:45:13.856477, 1.64711
2022-12-14 18:45:13.857478, 1.65200
2022-12-14 18:45:13.889936, 1.63734
2022-12-14 18:45:13.890228, 1.64711
2022-12-14 18:45:13.890228, 1.65200
2022-12-14 18:45:13.923405, 1.65689
2022-12-14 18:45:13.924123, 1.66666
2022-12-14 18:45:13.956993, 1.64222
2022-12-14 18:45:13.957680, 1.64222
2022-12-14 18:45:13.957882, 1.64711
2022-12-14 18:45:13.990497, 1.63245
2022-12-14 18:45:13.991234, 1.62756
2022-12-14 18:45:13.991234, 1.62756
2022-12-14 18:45:14.024789, 1.63245
2022-12-14 18:45:14.024789, 1.62267
2022-12-14 18:45:14.056321, 1.62756
2022-12-14 18:45:14.057336, 1.64711
2022-12-14 18:45:14.057336, 1.63245
2022-12-14 18:45:14.090694, 1.65200
2022-12-14 18:45:14.090694, 1.61779
2022-12-14 18:45:14.090694, 1.61779
2022-12-14 18:45:14.123885, 1.62267
2022-12-14 18:45:14.123885, 1.61779
2022-12-14 18:45:14.157856, 1.61290
2022-12-14 18:45:14.158195, 1.61779
2022-12-14 18:45:14.159196, 1.65689
2022-12-14 18:45:14.191425, 1.61290
2022-12-14 18:45:14.191990, 1.60801
2022-12-14 18:45:14.192603, 1.61290
2022-12-14 18:45:14.224590, 1.61779
2022-12-14 18:45:14.225041, 1.61290
2022-12-14 18:45:14.258716, 1.61290
2022-12-14 18:45:14.259039, 1.62756
2022-12-14 18:45:14.259039, 1.64711
2022-12-14 18:45:14.291862, 1.61290
2022-12-14 18:45:14.292281, 1.60801
2022-12-14 18:45:14.292281, 1.61290
2022-12-14 18:45:14.325410, 1.61779
2022-12-14 18:45:14.325786, 1.61779
2022-12-14 18:45:14.359098, 1.60801
2022-12-14 18:45:14.360045, 1.61290
2022-12-14 18:45:14.360045, 1.63734
2022-12-14 18:45:14.392459, 1.65689
2022-12-14 18:45:14.392459, 1.68132
2022-12-14 18:45:14.393125, 1.72531
2022-12-14 18:45:14.426270, 1.76441
2022-12-14 18:45:14.426645, 1.76930
2022-12-14 18:45:14.459134, 1.76441
2022-12-14 18:45:14.459134, 1.76441
2022-12-14 18:45:14.460104, 1.76441
2022-12-14 18:45:14.493337, 1.75953
2022-12-14 18:45:14.493337, 1.73020
2022-12-14 18:45:14.494340, 1.71065
2022-12-14 18:45:14.526837, 1.70087
2022-12-14 18:45:14.527267, 1.71065
2022-12-14 18:45:14.560428, 1.67155
2022-12-14 18:45:14.560682, 1.65689
2022-12-14 18:45:14.560682, 1.65689
2022-12-14 18:45:14.593998, 1.65689
2022-12-14 18:45:14.594314, 1.64222
2022-12-14 18:45:14.594839, 1.64222
2022-12-14 18:45:14.627292, 1.64222
2022-12-14 18:45:14.628297, 1.64222
2022-12-14 18:45:14.659901, 1.63245
2022-12-14 18:45:14.660896, 1.62756
2022-12-14 18:45:14.661105, 1.62756
2022-12-14 18:45:14.693899, 1.63734
2022-12-14 18:45:14.694901, 1.62756
2022-12-14 18:45:14.694901, 1.62267
2022-12-14 18:45:14.728052, 1.63245
2022-12-14 18:45:14.728052, 1.64222
2022-12-14 18:45:14.761572, 1.65200
2022-12-14 18:45:14.761811, 1.63734
2022-12-14 18:45:14.761811, 1.64711
2022-12-14 18:45:14.794608, 1.65689
2022-12-14 18:45:14.794608, 1.65200
2022-12-14 18:45:14.795572, 1.64711
2022-12-14 18:45:14.828379, 1.64711
2022-12-14 18:45:14.828379, 1.65200
2022-12-14 18:45:14.861391, 1.64711
2022-12-14 18:45:14.862343, 1.64711
2022-12-14 18:45:14.862343, 1.64711
2022-12-14 18:45:14.895678, 1.65200
2022-12-14 18:45:14.895968, 1.66666
2022-12-14 18:45:14.896572, 1.62756
2022-12-14 18:45:14.929277, 1.62756
2022-12-14 18:45:14.929277, 1.63734
2022-12-14 18:45:14.962777, 1.62756
2022-12-14 18:45:14.962777, 1.61779
2022-12-14 18:45:14.963780, 1.61779
2022-12-14 18:45:14.996211, 1.62756
2022-12-14 18:45:14.996507, 1.61779
2022-12-14 18:45:14.996507, 1.61290
2022-12-14 18:45:15.029879, 1.61779
2022-12-14 18:45:15.030224, 1.62756
2022-12-14 18:45:15.063441, 1.63245
2022-12-14 18:45:15.063722, 1.63734
2022-12-14 18:45:15.064336, 1.63245
2022-12-14 18:45:15.096846, 1.63734
2022-12-14 18:45:15.096846, 1.65200
2022-12-14 18:45:15.097846, 1.60801
2022-12-14 18:45:15.130405, 1.61290
2022-12-14 18:45:15.130405, 1.62267
2022-12-14 18:45:15.163969, 1.62267
2022-12-14 18:45:15.164210, 1.61290
2022-12-14 18:45:15.164210, 1.61290
2022-12-14 18:45:15.197564, 1.61779
2022-12-14 18:45:15.197883, 1.61290
2022-12-14 18:45:15.198455, 1.60801
2022-12-14 18:45:15.231098, 1.61290
2022-12-14 18:45:15.231486, 1.63245
2022-12-14 18:45:15.264505, 1.66666
2022-12-14 18:45:15.265002, 1.68132
2022-12-14 18:45:15.266004, 1.74486
2022-12-14 18:45:15.297723, 1.74975
2022-12-14 18:45:15.297723, 1.76930
2022-12-14 18:45:15.297723, 1.76930
2022-12-14 18:45:15.331612, 1.76930
2022-12-14 18:45:15.331955, 1.76441
2022-12-14 18:45:15.365353, 1.75953
2022-12-14 18:45:15.365589, 1.73020
2022-12-14 18:45:15.366201, 1.71065
2022-12-14 18:45:15.398751, 1.69599
2022-12-14 18:45:15.399070, 1.69599
2022-12-14 18:45:15.400073, 1.66666
2022-12-14 18:45:15.432342, 1.66177
2022-12-14 18:45:15.432684, 1.66177
2022-12-14 18:45:15.465827, 1.66177
2022-12-14 18:45:15.466120, 1.64711
2022-12-14 18:45:15.466799, 1.66666
2022-12-14 18:45:15.499271, 1.64711
2022-12-14 18:45:15.499271, 1.64222
2022-12-14 18:45:15.500275, 1.62756
2022-12-14 18:45:15.533660, 1.62267
2022-12-14 18:45:15.533660, 1.62267
2022-12-14 18:45:15.565477, 1.63734
2022-12-14 18:45:15.566053, 1.61779
2022-12-14 18:45:15.566053, 1.61779
2022-12-14 18:45:15.599838, 1.62267
2022-12-14 18:45:15.600130, 1.63734
2022-12-14 18:45:15.600733, 1.63245
2022-12-14 18:45:15.633460, 1.63245
2022-12-14 18:45:15.633460, 1.64222
2022-12-14 18:45:15.667057, 1.64711
2022-12-14 18:45:15.667305, 1.65200
2022-12-14 18:45:15.667305, 1.65689
2022-12-14 18:45:15.700613, 1.64711
2022-12-14 18:45:15.700936, 1.65200
2022-12-14 18:45:15.701463, 1.64711
2022-12-14 18:45:15.734260, 1.63734
2022-12-14 18:45:15.734260, 1.63245
2022-12-14 18:45:15.767823, 1.63734
2022-12-14 18:45:15.768096, 1.63245
2022-12-14 18:45:15.768667, 1.61779
2022-12-14 18:45:15.801348, 1.62267
2022-12-14 18:45:15.801348, 1.62267
2022-12-14 18:45:15.802361, 1.62267
2022-12-14 18:45:15.834723, 1.61779
2022-12-14 18:45:15.835729, 1.62267
2022-12-14 18:45:15.867611, 1.65200
2022-12-14 18:45:15.867611, 1.65200
2022-12-14 18:45:15.868609, 1.60801
2022-12-14 18:45:15.901650, 1.60801
2022-12-14 18:45:15.902004, 1.61290
2022-12-14 18:45:15.902004, 1.61779
2022-12-14 18:45:15.935254, 1.60312
2022-12-14 18:45:15.935254, 1.61290
2022-12-14 18:45:15.968798, 1.62267
2022-12-14 18:45:15.969161, 1.61290
2022-12-14 18:45:15.969161, 1.63245
2022-12-14 18:45:16.002420, 1.60312
2022-12-14 18:45:16.002420, 1.61290
2022-12-14 18:45:16.003421, 1.61779
2022-12-14 18:45:16.035693, 1.60801
2022-12-14 18:45:16.035693, 1.60801
2022-12-14 18:45:16.068951, 1.61290
2022-12-14 18:45:16.068951, 1.61290
2022-12-14 18:45:16.069953, 1.61290
2022-12-14 18:45:16.102050, 1.62756
2022-12-14 18:45:16.103058, 1.65689
2022-12-14 18:45:16.103058, 1.70087
2022-12-14 18:45:16.135199, 1.73509
2022-12-14 18:45:16.136193, 1.75464
2022-12-14 18:45:16.170002, 1.77908
2022-12-14 18:45:16.170282, 1.79374
2022-12-14 18:45:16.170893, 1.77908
2022-12-14 18:45:16.203482, 1.76930
2022-12-14 18:45:16.203770, 1.76441
2022-12-14 18:45:16.203770, 1.75464
2022-12-14 18:45:16.236998, 1.72531
2022-12-14 18:45:16.236998, 1.71554
2022-12-14 18:45:16.270587, 1.69599
2022-12-14 18:45:16.270850, 1.69110
2022-12-14 18:45:16.271370, 1.70087
2022-12-14 18:45:16.304031, 1.66177
2022-12-14 18:45:16.304351, 1.65689
2022-12-14 18:45:16.304351, 1.66177
2022-12-14 18:45:16.337592, 1.66666
2022-12-14 18:45:16.338462, 1.64222
2022-12-14 18:45:16.370776, 1.64222
2022-12-14 18:45:16.370776, 1.64711
2022-12-14 18:45:16.371783, 1.64222
2022-12-14 18:45:16.404234, 1.63734
2022-12-14 18:45:16.404607, 1.66177
2022-12-14 18:45:16.404607, 1.63734
2022-12-14 18:45:16.438208, 1.63734
2022-12-14 18:45:16.438208, 1.63245
2022-12-14 18:45:16.470847, 1.63734
2022-12-14 18:45:16.470847, 1.64711
2022-12-14 18:45:16.471814, 1.65200
2022-12-14 18:45:16.505214, 1.64711
2022-12-14 18:45:16.505510, 1.65200
2022-12-14 18:45:16.506512, 1.66666
2022-12-14 18:45:16.538788, 1.67155
2022-12-14 18:45:16.539129, 1.67644
2022-12-14 18:45:16.572418, 1.65200
2022-12-14 18:45:16.572655, 1.65200
2022-12-14 18:45:16.572655, 1.65200
2022-12-14 18:45:16.605739, 1.63734
2022-12-14 18:45:16.605739, 1.63734
2022-12-14 18:45:16.606678, 1.64222
2022-12-14 18:45:16.639433, 1.64222
2022-12-14 18:45:16.639433, 1.62756
2022-12-14 18:45:16.672447, 1.62756
2022-12-14 18:45:16.672690, 1.64711
2022-12-14 18:45:16.672690, 1.64222
2022-12-14 18:45:16.706504, 1.61779
2022-12-14 18:45:16.706826, 1.61779
2022-12-14 18:45:16.707827, 1.62267
2022-12-14 18:45:16.739991, 1.62756
2022-12-14 18:45:16.740364, 1.61779
2022-12-14 18:45:16.773539, 1.61779
2022-12-14 18:45:16.773812, 1.61779
2022-12-14 18:45:16.773812, 1.62756
2022-12-14 18:45:16.807101, 1.61779
2022-12-14 18:45:16.807423, 1.64711
2022-12-14 18:45:16.807423, 1.64711
2022-12-14 18:45:16.840501, 1.64711
2022-12-14 18:45:16.841422, 1.62756
2022-12-14 18:45:16.874227, 1.61290
2022-12-14 18:45:16.875229, 1.61290
2022-12-14 18:45:16.875229, 1.62267
2022-12-14 18:45:16.906461, 1.61290
2022-12-14 18:45:16.907494, 1.61779
2022-12-14 18:45:16.907494, 1.61779
2022-12-14 18:45:16.940763, 1.62756
2022-12-14 18:45:16.941120, 1.62267
2022-12-14 18:45:16.974510, 1.62756
2022-12-14 18:45:16.974946, 1.65689
2022-12-14 18:45:16.975601, 1.69599
2022-12-14 18:45:17.008186, 1.72531
2022-12-14 18:45:17.008811, 1.75464
2022-12-14 18:45:17.008811, 1.77419
2022-12-14 18:45:17.041702, 1.79863
2022-12-14 18:45:17.042334, 1.79374
2022-12-14 18:45:17.075387, 1.77419
2022-12-14 18:45:17.075910, 1.76930
2022-12-14 18:45:17.076506, 1.78885
2022-12-14 18:45:17.108690, 1.73998
2022-12-14 18:45:17.109073, 1.71065
2022-12-14 18:45:17.109073, 1.69599
2022-12-14 18:45:17.142489, 1.69599
2022-12-14 18:45:17.142489, 1.68132
2022-12-14 18:45:17.175715, 1.66666
2022-12-14 18:45:17.175715, 1.66666
2022-12-14 18:45:17.176721, 1.67155
2022-12-14 18:45:17.208333, 1.66666
2022-12-14 18:45:17.209363, 1.66666
2022-12-14 18:45:17.209363, 1.64711
2022-12-14 18:45:17.242277, 1.65200
2022-12-14 18:45:17.242921, 1.64711
2022-12-14 18:45:17.275781, 1.63245
2022-12-14 18:45:17.275781, 1.63245
2022-12-14 18:45:17.276788, 1.67155
2022-12-14 18:45:17.309921, 1.63734
2022-12-14 18:45:17.310247, 1.62756
2022-12-14 18:45:17.310247, 1.63734
2022-12-14 18:45:17.343421, 1.64222
2022-12-14 18:45:17.343421, 1.65200
2022-12-14 18:45:17.376910, 1.64222
2022-12-14 18:45:17.377174, 1.65689
2022-12-14 18:45:17.377681, 1.65689
2022-12-14 18:45:17.410419, 1.66177
2022-12-14 18:45:17.410758, 1.65200
2022-12-14 18:45:17.411507, 1.64711
2022-12-14 18:45:17.444047, 1.64711
2022-12-14 18:45:17.444416, 1.65200
2022-12-14 18:45:17.477457, 1.64711
2022-12-14 18:45:17.478468, 1.64711
2022-12-14 18:45:17.478468, 1.63734
2022-12-14 18:45:17.510639, 1.64222
2022-12-14 18:45:17.510639, 1.62756
2022-12-14 18:45:17.511638, 1.62756
2022-12-14 18:45:17.544540, 1.62756
2022-12-14 18:45:17.544540, 1.63245
2022-12-14 18:45:17.578165, 1.62267
2022-12-14 18:45:17.578403, 1.62267
2022-12-14 18:45:17.579002, 1.65200
2022-12-14 18:45:17.611756, 1.63245
2022-12-14 18:45:17.612078, 1.61779
2022-12-14 18:45:17.612760, 1.61290
2022-12-14 18:45:17.645230, 1.61779
2022-12-14 18:45:17.645579, 1.62267
2022-12-14 18:45:17.678596, 1.61290
2022-12-14 18:45:17.678863, 1.61290
2022-12-14 18:45:17.679479, 1.61290
2022-12-14 18:45:17.711962, 1.62756
2022-12-14 18:45:17.712291, 1.63245
2022-12-14 18:45:17.713293, 1.60801
2022-12-14 18:45:17.745456, 1.61290
2022-12-14 18:45:17.745833, 1.61779
2022-12-14 18:45:17.779512, 1.61779
2022-12-14 18:45:17.779512, 1.60801
2022-12-14 18:45:17.780511, 1.61290
2022-12-14 18:45:17.812557, 1.61779
2022-12-14 18:45:17.812851, 1.61779
2022-12-14 18:45:17.812851, 1.61779
2022-12-14 18:45:17.845474, 1.64222
2022-12-14 18:45:17.846428, 1.68132
2022-12-14 18:45:17.879836, 1.71065
2022-12-14 18:45:17.880074, 1.73509
2022-12-14 18:45:17.881077, 1.75953
2022-12-14 18:45:17.913606, 1.80840
2022-12-14 18:45:17.913926, 1.79374
2022-12-14 18:45:17.914601, 1.77908
2022-12-14 18:45:17.947124, 1.76930
2022-12-14 18:45:17.947124, 1.75953
2022-12-14 18:45:17.980602, 1.73998
2022-12-14 18:45:17.980838, 1.71065
2022-12-14 18:45:17.981297, 1.69599
2022-12-14 18:45:18.014179, 1.68621
2022-12-14 18:45:18.014512, 1.71065
2022-12-14 18:45:18.015186, 1.69110
2022-12-14 18:45:18.047731, 1.68621
2022-12-14 18:45:18.048107, 1.65689
2022-12-14 18:45:18.081170, 1.65689
2022-12-14 18:45:18.081631, 1.64222
2022-12-14 18:45:18.082635, 1.63734
2022-12-14 18:45:18.114219, 1.63734
2022-12-14 18:45:18.114219, 1.64222
2022-12-14 18:45:18.115215, 1.62756
2022-12-14 18:45:18.148344, 1.62756
2022-12-14 18:45:18.148720, 1.66177
2022-12-14 18:45:18.181703, 1.63245
2022-12-14 18:45:18.181703, 1.62267
2022-12-14 18:45:18.182708, 1.63245
2022-12-14 18:45:18.215429, 1.63245
2022-12-14 18:45:18.215749, 1.64711
2022-12-14 18:45:18.216751, 1.64222
2022-12-14 18:45:18.248952, 1.64222
2022-12-14 18:45:18.249295, 1.65200
2022-12-14 18:45:18.282520, 1.67644
2022-12-14 18:45:18.282785, 1.68132
2022-12-14 18:45:18.283787, 1.65200
2022-12-14 18:45:18.316009, 1.64711
2022-12-14 18:45:18.316357, 1.65689
2022-12-14 18:45:18.316932, 1.64222
2022-12-14 18:45:18.349471, 1.63245
2022-12-14 18:45:18.349471, 1.63734
2022-12-14 18:45:18.382248, 1.64711
2022-12-14 18:45:18.382248, 1.63734
2022-12-14 18:45:18.383134, 1.65200
2022-12-14 18:45:18.416583, 1.62756
2022-12-14 18:45:18.416930, 1.63245
2022-12-14 18:45:18.416930, 1.62756
2022-12-14 18:45:18.450182, 1.61779
2022-12-14 18:45:18.450554, 1.62267
2022-12-14 18:45:18.483640, 1.63245
2022-12-14 18:45:18.483883, 1.62756
2022-12-14 18:45:18.484498, 1.62267
2022-12-14 18:45:18.517239, 1.64711
2022-12-14 18:45:18.517533, 1.65200
2022-12-14 18:45:18.518005, 1.61779
2022-12-14 18:45:18.550797, 1.61290
2022-12-14 18:45:18.551169, 1.61290
2022-12-14 18:45:18.584171, 1.61779
2022-12-14 18:45:18.584171, 1.61779
2022-12-14 18:45:18.585173, 1.60801
2022-12-14 18:45:18.616634, 1.61290
2022-12-14 18:45:18.617669, 1.62267
2022-12-14 18:45:18.617669, 1.62756
2022-12-14 18:45:18.651219, 1.61290
2022-12-14 18:45:18.651562, 1.61290
2022-12-14 18:45:18.684738, 1.61779
2022-12-14 18:45:18.684975, 1.62756
2022-12-14 18:45:18.685589, 1.63245
2022-12-14 18:45:18.718494, 1.65689
2022-12-14 18:45:18.718825, 1.70087
2022-12-14 18:45:18.719431, 1.75464
2022-12-14 18:45:18.751877, 1.74975
2022-12-14 18:45:18.752250, 1.77419
2022-12-14 18:45:18.785566, 1.78396
2022-12-14 18:45:18.785830, 1.78396
2022-12-14 18:45:18.786832, 1.76441
2022-12-14 18:45:18.818917, 1.74975
2022-12-14 18:45:18.819223, 1.73998
2022-12-14 18:45:18.820226, 1.75953
2022-12-14 18:45:18.851076, 1.70576
2022-12-14 18:45:18.852083, 1.69110
2022-12-14 18:45:18.885979, 1.67644
2022-12-14 18:45:18.886256, 1.67644
2022-12-14 18:45:18.886256, 1.65689
2022-12-14 18:45:18.919584, 1.65200
2022-12-14 18:45:18.919905, 1.65200
2022-12-14 18:45:18.920909, 1.65200
2022-12-14 18:45:18.953215, 1.63734
2022-12-14 18:45:18.953598, 1.64711
2022-12-14 18:45:18.986594, 1.62756
2022-12-14 18:45:18.986860, 1.63734
2022-12-14 18:45:18.987431, 1.62267
2022-12-14 18:45:19.020319, 1.62756
2022-12-14 18:45:19.020319, 1.61779
2022-12-14 18:45:19.021319, 1.63245
2022-12-14 18:45:19.053693, 1.62756
2022-12-14 18:45:19.053693, 1.63245
2022-12-14 18:45:19.086273, 1.63245
2022-12-14 18:45:19.086273, 1.64711
2022-12-14 18:45:19.087302, 1.64222
2022-12-14 18:45:19.120044, 1.64222
2022-12-14 18:45:19.120415, 1.65200
2022-12-14 18:45:19.120415, 1.68621
2022-12-14 18:45:19.154252, 1.64711
2022-12-14 18:45:19.154597, 1.63734
2022-12-14 18:45:19.187774, 1.63734
2022-12-14 18:45:19.188013, 1.63734
2022-12-14 18:45:19.188013, 1.63245
2022-12-14 18:45:19.221416, 1.62267
2022-12-14 18:45:19.221708, 1.62756
2022-12-14 18:45:19.222186, 1.63734
2022-12-14 18:45:19.254933, 1.65200
2022-12-14 18:45:19.255325, 1.62267
2022-12-14 18:45:19.288401, 1.61779
2022-12-14 18:45:19.288669, 1.62267
2022-12-14 18:45:19.289177, 1.62267
2022-12-14 18:45:19.321814, 1.61290
2022-12-14 18:45:19.321814, 1.61290
2022-12-14 18:45:19.322816, 1.62756
2022-12-14 18:45:19.354497, 1.62267
2022-12-14 18:45:19.355506, 1.61290
2022-12-14 18:45:19.387779, 1.61779
2022-12-14 18:45:19.388579, 1.63245
2022-12-14 18:45:19.388579, 1.63245
2022-12-14 18:45:19.422460, 1.60801
2022-12-14 18:45:19.422795, 1.61290
2022-12-14 18:45:19.422795, 1.61290
2022-12-14 18:45:19.456020, 1.61779
2022-12-14 18:45:19.456020, 1.60801
2022-12-14 18:45:19.489637, 1.60801
2022-12-14 18:45:19.489874, 1.60801
2022-12-14 18:45:19.490481, 1.62267
2022-12-14 18:45:19.523210, 1.63245
2022-12-14 18:45:19.523501, 1.66177
2022-12-14 18:45:19.524061, 1.70087
2022-12-14 18:45:19.556840, 1.76441
2022-12-14 18:45:19.556840, 1.75464
2022-12-14 18:45:19.590244, 1.76930
2022-12-14 18:45:19.591247, 1.77908
2022-12-14 18:45:19.591247, 1.78396
2022-12-14 18:45:19.623059, 1.75953
2022-12-14 18:45:19.623059, 1.74486
2022-12-14 18:45:19.624056, 1.73509
2022-12-14 18:45:19.656734, 1.72531
2022-12-14 18:45:19.656734, 1.71065
2022-12-14 18:45:19.690613, 1.68132
2022-12-14 18:45:19.690880, 1.67644
2022-12-14 18:45:19.691595, 1.67644
2022-12-14 18:45:19.724169, 1.66177
2022-12-14 18:45:19.724169, 1.65200
2022-12-14 18:45:19.725169, 1.64711
2022-12-14 18:45:19.757787, 1.66177
2022-12-14 18:45:19.757787, 1.66177
2022-12-14 18:45:19.791388, 1.63245
2022-12-14 18:45:19.791672, 1.62756
2022-12-14 18:45:19.791672, 1.63245
2022-12-14 18:45:19.824773, 1.62756
2022-12-14 18:45:19.825203, 1.64222
2022-12-14 18:45:19.825203, 1.62267
2022-12-14 18:45:19.857347, 1.63245
2022-12-14 18:45:19.858160, 1.65689
2022-12-14 18:45:19.891880, 1.63245
2022-12-14 18:45:19.892115, 1.63734
2022-12-14 18:45:19.892115, 1.65200
2022-12-14 18:45:19.925332, 1.66177
2022-12-14 18:45:19.926071, 1.64222
2022-12-14 18:45:19.926071, 1.64711
2022-12-14 18:45:19.958977, 1.65200
2022-12-14 18:45:19.959666, 1.65200
2022-12-14 18:45:19.992529, 1.63734
2022-12-14 18:45:19.993310, 1.63734
2022-12-14 18:45:19.993310, 1.64222
2022-12-14 18:45:20.026074, 1.63245
2022-12-14 18:45:20.026074, 1.62267
2022-12-14 18:45:20.026998, 1.63734
2022-12-14 18:45:20.059713, 1.64222
2022-12-14 18:45:20.059713, 1.62756
2022-12-14 18:45:20.092989, 1.62267
2022-12-14 18:45:20.093996, 1.61779
2022-12-14 18:45:20.093996, 1.61779
2022-12-14 18:45:20.125642, 1.62756
2022-12-14 18:45:20.126641, 1.61290
2022-12-14 18:45:20.126641, 1.60801
2022-12-14 18:45:20.159924, 1.61779
2022-12-14 18:45:20.160782, 1.61779
2022-12-14 18:45:20.193555, 1.61290
2022-12-14 18:45:20.193555, 1.60801
2022-12-14 18:45:20.194428, 1.62756
2022-12-14 18:45:20.226598, 1.64711
2022-12-14 18:45:20.226598, 1.60801
2022-12-14 18:45:20.227520, 1.60801
2022-12-14 18:45:20.260709, 1.61290
2022-12-14 18:45:20.261097, 1.61779
2022-12-14 18:45:20.293768, 1.60801
2022-12-14 18:45:20.294071, 1.61779
2022-12-14 18:45:20.294071, 1.64222
2022-12-14 18:45:20.327369, 1.68132
2022-12-14 18:45:20.327692, 1.71065
2022-12-14 18:45:20.328384, 1.73998
2022-12-14 18:45:20.361205, 1.79374
2022-12-14 18:45:20.361578, 1.80351
2022-12-14 18:45:20.394556, 1.79374
2022-12-14 18:45:20.395389, 1.78885
2022-12-14 18:45:20.395389, 1.77908
2022-12-14 18:45:20.427656, 1.76930
2022-12-14 18:45:20.428161, 1.74486
2022-12-14 18:45:20.428161, 1.72531
2022-12-14 18:45:20.461829, 1.71065
2022-12-14 18:45:20.462174, 1.70576
2022-12-14 18:45:20.494173, 1.69599
2022-12-14 18:45:20.495170, 1.67644
2022-12-14 18:45:20.495170, 1.67155
2022-12-14 18:45:20.528171, 1.67155
2022-12-14 18:45:20.528171, 1.66177
2022-12-14 18:45:20.529167, 1.65200
2022-12-14 18:45:20.562495, 1.65200
2022-12-14 18:45:20.562979, 1.65200
2022-12-14 18:45:20.595917, 1.64222
2022-12-14 18:45:20.595917, 1.62756
2022-12-14 18:45:20.596809, 1.63734
2022-12-14 18:45:20.629476, 1.65200
2022-12-14 18:45:20.629859, 1.63734
2022-12-14 18:45:20.630430, 1.63245
2022-12-14 18:45:20.662967, 1.66177
2022-12-14 18:45:20.663438, 1.64711
2022-12-14 18:45:20.696285, 1.64711
2022-12-14 18:45:20.696677, 1.64711
2022-12-14 18:45:20.697236, 1.65200
2022-12-14 18:45:20.729613, 1.65689
2022-12-14 18:45:20.729613, 1.65689
2022-12-14 18:45:20.730614, 1.63734
2022-12-14 18:45:20.762476, 1.64222
2022-12-14 18:45:20.763470, 1.65200
2022-12-14 18:45:20.797140, 1.65200
2022-12-14 18:45:20.797436, 1.63734
2022-12-14 18:45:20.798042, 1.63734
2022-12-14 18:45:20.830544, 1.65200
2022-12-14 18:45:20.830544, 1.63245
2022-12-14 18:45:20.831544, 1.61779
2022-12-14 18:45:20.863962, 1.61779
2022-12-14 18:45:20.864143, 1.61779
2022-12-14 18:45:20.897532, 1.62756
2022-12-14 18:45:20.897532, 1.61290
2022-12-14 18:45:20.898499, 1.61779
2022-12-14 18:45:20.930899, 1.61290
2022-12-14 18:45:20.930899, 1.62267
2022-12-14 18:45:20.931918, 1.60801
2022-12-14 18:45:20.964163, 1.60801
2022-12-14 18:45:20.964163, 1.61290
2022-12-14 18:45:20.998280, 1.61290
2022-12-14 18:45:20.998544, 1.61290
2022-12-14 18:45:20.999220, 1.60801
2022-12-14 18:45:21.031698, 1.60801
2022-12-14 18:45:21.031698, 1.61779
2022-12-14 18:45:21.032700, 1.60801
2022-12-14 18:45:21.065129, 1.60312
2022-12-14 18:45:21.065129, 1.60801
2022-12-14 18:45:21.097960, 1.61290
2022-12-14 18:45:21.098920, 1.61290
2022-12-14 18:45:21.098920, 1.60801
2022-12-14 18:45:21.131924, 1.62756
2022-12-14 18:45:21.131924, 1.66177
2022-12-14 18:45:21.131924, 1.70576
2022-12-14 18:45:21.165910, 1.72531
2022-12-14 18:45:21.165910, 1.74486
2022-12-14 18:45:21.199381, 1.77908
2022-12-14 18:45:21.199381, 1.79863
2022-12-14 18:45:21.200199, 1.81329
2022-12-14 18:45:21.232992, 1.78396
2022-12-14 18:45:21.233285, 1.77419
2022-12-14 18:45:21.234287, 1.74975
2022-12-14 18:45:21.266456, 1.72531
2022-12-14 18:45:21.266456, 1.71554
2022-12-14 18:45:21.300136, 1.70576
2022-12-14 18:45:21.300136, 1.69110
2022-12-14 18:45:21.301137, 1.67155
2022-12-14 18:45:21.333497, 1.67155
2022-12-14 18:45:21.334118, 1.67644
2022-12-14 18:45:21.335122, 1.67155
2022-12-14 18:45:21.366688, 1.66666
2022-12-14 18:45:21.366688, 1.66666
2022-12-14 18:45:21.400578, 1.68132
2022-12-14 18:45:21.400578, 1.64711
2022-12-14 18:45:21.401488, 1.63245
2022-12-14 18:45:21.434346, 1.63245
2022-12-14 18:45:21.434642, 1.63245
2022-12-14 18:45:21.435250, 1.64222
2022-12-14 18:45:21.467706, 1.62267
2022-12-14 18:45:21.467706, 1.62267
2022-12-14 18:45:21.501411, 1.63734
2022-12-14 18:45:21.501652, 1.63734
2022-12-14 18:45:21.501652, 1.63245
2022-12-14 18:45:21.534809, 1.63245
2022-12-14 18:45:21.535101, 1.67644
2022-12-14 18:45:21.535101, 1.65200
2022-12-14 18:45:21.568306, 1.63734
2022-12-14 18:45:21.568306, 1.64222
2022-12-14 18:45:21.601950, 1.64222
2022-12-14 18:45:21.602190, 1.65200
2022-12-14 18:45:21.602716, 1.62756
2022-12-14 18:45:21.635329, 1.62756
2022-12-14 18:45:21.636113, 1.62756
2022-12-14 18:45:21.636113, 1.62756
2022-12-14 18:45:21.668818, 1.61290
2022-12-14 18:45:21.668818, 1.61290
2022-12-14 18:45:21.702386, 1.62267
2022-12-14 18:45:21.702627, 1.65200
2022-12-14 18:45:21.702627, 1.60801
2022-12-14 18:45:21.736053, 1.60801
2022-12-14 18:45:21.736342, 1.60801
2022-12-14 18:45:21.737344, 1.62267
2022-12-14 18:45:21.769706, 1.60801
2022-12-14 18:45:21.770048, 1.63734
2022-12-14 18:45:21.803143, 1.60312
2022-12-14 18:45:21.803429, 1.61290
2022-12-14 18:45:21.803990, 1.60801
2022-12-14 18:45:21.836633, 1.60312
2022-12-14 18:45:21.836926, 1.60312
2022-12-14 18:45:21.836926, 1.61290
2022-12-14 18:45:21.870037, 1.60312
2022-12-14 18:45:21.870855, 1.60801
2022-12-14 18:45:21.903584, 1.59824
2022-12-14 18:45:21.903584, 1.60312
2022-12-14 18:45:21.904586, 1.59824
2022-12-14 18:45:21.937145, 1.59335
2022-12-14 18:45:21.938196, 1.61290
2022-12-14 18:45:21.938196, 1.61779
2022-12-14 18:45:21.969937, 1.61779
2022-12-14 18:45:21.970894, 1.63734
2022-12-14 18:45:22.004179, 1.62267
2022-12-14 18:45:22.004421, 1.66177
2022-12-14 18:45:22.004421, 1.69599
2022-12-14 18:45:22.037823, 1.71554
2022-12-14 18:45:22.038117, 1.76930
2022-12-14 18:45:22.038117, 1.77908
2022-12-14 18:45:22.071269, 1.77908
2022-12-14 18:45:22.071269, 1.76930
2022-12-14 18:45:22.104937, 1.75464
2022-12-14 18:45:22.105225, 1.74975
2022-12-14 18:45:22.105790, 1.73020
2022-12-14 18:45:22.138472, 1.70576
2022-12-14 18:45:22.138765, 1.69110
2022-12-14 18:45:22.138765, 1.68132
2022-12-14 18:45:22.171721, 1.68132
2022-12-14 18:45:22.171721, 1.65689
2022-12-14 18:45:22.205139, 1.66177
2022-12-14 18:45:22.205139, 1.65689
2022-12-14 18:45:22.206146, 1.65200
2022-12-14 18:45:22.238266, 1.63734
2022-12-14 18:45:22.238266, 1.63734
2022-12-14 18:45:22.239263, 1.63734
2022-12-14 18:45:22.272066, 1.63734
2022-12-14 18:45:22.272524, 1.62267
2022-12-14 18:45:22.306092, 1.62267
2022-12-14 18:45:22.306092, 1.65689
2022-12-14 18:45:22.307001, 1.62756
2022-12-14 18:45:22.339557, 1.61779
2022-12-14 18:45:22.339557, 1.62267
2022-12-14 18:45:22.340559, 1.63245
2022-12-14 18:45:22.372408, 1.66666
2022-12-14 18:45:22.372874, 1.63245
2022-12-14 18:45:22.406032, 1.63734
2022-12-14 18:45:22.406032, 1.64222
2022-12-14 18:45:22.407053, 1.64711
2022-12-14 18:45:22.440253, 1.64222
2022-12-14 18:45:22.440253, 1.63734
2022-12-14 18:45:22.441275, 1.65200
2022-12-14 18:45:22.472889, 1.65689
2022-12-14 18:45:22.473897, 1.62756
2022-12-14 18:45:22.506591, 1.62267
2022-12-14 18:45:22.506591, 1.62267
2022-12-14 18:45:22.507590, 1.62756
2022-12-14 18:45:22.540746, 1.61779
2022-12-14 18:45:22.541067, 1.61290
2022-12-14 18:45:22.541736, 1.61290
2022-12-14 18:45:22.573741, 1.62267
2022-12-14 18:45:22.574173, 1.61290
2022-12-14 18:45:22.607870, 1.61779
2022-12-14 18:45:22.608110, 1.63734
2022-12-14 18:45:22.608110, 1.61779
2022-12-14 18:45:22.641501, 1.61290
2022-12-14 18:45:22.641501, 1.60312
2022-12-14 18:45:22.642402, 1.60801
2022-12-14 18:45:22.674201, 1.61779
2022-12-14 18:45:22.674201, 1.60801
2022-12-14 18:45:22.708558, 1.60312
2022-12-14 18:45:22.709567, 1.60801
2022-12-14 18:45:22.709567, 1.62267
2022-12-14 18:45:22.741386, 1.62756
2022-12-14 18:45:22.741386, 1.60312
2022-12-14 18:45:22.741386, 1.60312
2022-12-14 18:45:22.775205, 1.61290
2022-12-14 18:45:22.775335, 1.60801
2022-12-14 18:45:22.808996, 1.60312
2022-12-14 18:45:22.809235, 1.60312
2022-12-14 18:45:22.809235, 1.61290
2022-12-14 18:45:22.842622, 1.61290
2022-12-14 18:45:22.842912, 1.60801
2022-12-14 18:45:22.843913, 1.61779
2022-12-14 18:45:22.875946, 1.64222
2022-12-14 18:45:22.876533, 1.67155
2022-12-14 18:45:22.909690, 1.69599
2022-12-14 18:45:22.910548, 1.72531
2022-12-14 18:45:22.910761, 1.75464
2022-12-14 18:45:22.943236, 1.76930
2022-12-14 18:45:22.943236, 1.78396
2022-12-14 18:45:22.944186, 1.77908
2022-12-14 18:45:22.976507, 1.75953
2022-12-14 18:45:22.976901, 1.73998
2022-12-14 18:45:23.009809, 1.71065
2022-12-14 18:45:23.010838, 1.69599
2022-12-14 18:45:23.010838, 1.68621
2022-12-14 18:45:23.043124, 1.71554
2022-12-14 18:45:23.043124, 1.66177
2022-12-14 18:45:23.044122, 1.65689
2022-12-14 18:45:23.077247, 1.66177
2022-12-14 18:45:23.077587, 1.67155
2022-12-14 18:45:23.110363, 1.67155
2022-12-14 18:45:23.110662, 1.63734
2022-12-14 18:45:23.111220, 1.63734
2022-12-14 18:45:23.144165, 1.64222
2022-12-14 18:45:23.144503, 1.62756
2022-12-14 18:45:23.145063, 1.62267
2022-12-14 18:45:23.177672, 1.63734
2022-12-14 18:45:23.178106, 1.67155
2022-12-14 18:45:23.210772, 1.62756
2022-12-14 18:45:23.210772, 1.62756
2022-12-14 18:45:23.211781, 1.64222
2022-12-14 18:45:23.244880, 1.64711
2022-12-14 18:45:23.245453, 1.64711
2022-12-14 18:45:23.246041, 1.64711
2022-12-14 18:45:23.277951, 1.65689
2022-12-14 18:45:23.278595, 1.66177
2022-12-14 18:45:23.311234, 1.65689
2022-12-14 18:45:23.312243, 1.65689
2022-12-14 18:45:23.312243, 1.65689
2022-12-14 18:45:23.344517, 1.66177
2022-12-14 18:45:23.345513, 1.66666
2022-12-14 18:45:23.345513, 1.64222
2022-12-14 18:45:23.378923, 1.63734
2022-12-14 18:45:23.378923, 1.64711
2022-12-14 18:45:23.412571, 1.63734
2022-12-14 18:45:23.412810, 1.62756
2022-12-14 18:45:23.412810, 1.62756
2022-12-14 18:45:23.445965, 1.63245
2022-12-14 18:45:23.446283, 1.62756
2022-12-14 18:45:23.447284, 1.62267
2022-12-14 18:45:23.479614, 1.62267
2022-12-14 18:45:23.479983, 1.63245
2022-12-14 18:45:23.513016, 1.63245
2022-12-14 18:45:23.513281, 1.62756
2022-12-14 18:45:23.514284, 1.64711
2022-12-14 18:45:23.546637, 1.65689
2022-12-14 18:45:23.546958, 1.62756
2022-12-14 18:45:23.547585, 1.61779
2022-12-14 18:45:23.580114, 1.61779
2022-12-14 18:45:23.580555, 1.62267
2022-12-14 18:45:23.613662, 1.62267
2022-12-14 18:45:23.613996, 1.61290
2022-12-14 18:45:23.614457, 1.61290
2022-12-14 18:45:23.647059, 1.61779
2022-12-14 18:45:23.648062, 1.62267
2022-12-14 18:45:23.648062, 1.61290
2022-12-14 18:45:23.679957, 1.61290
2022-12-14 18:45:23.680961, 1.63245
2022-12-14 18:45:23.714078, 1.64711
2022-12-14 18:45:23.714442, 1.66177
2022-12-14 18:45:23.714442, 1.72043
2022-12-14 18:45:23.747629, 1.71554
2022-12-14 18:45:23.747953, 1.74975
2022-12-14 18:45:23.748624, 1.78885
2022-12-14 18:45:23.780969, 1.77419
2022-12-14 18:45:23.781361, 1.76930
2022-12-14 18:45:23.814516, 1.76441
2022-12-14 18:45:23.814780, 1.73998
2022-12-14 18:45:23.815782, 1.72043
2022-12-14 18:45:23.848451, 1.70576
2022-12-14 18:45:23.848740, 1.70087
2022-12-14 18:45:23.849343, 1.67644
2022-12-14 18:45:23.881902, 1.67155
2022-12-14 18:45:23.882236, 1.66177
2022-12-14 18:45:23.915469, 1.69599
2022-12-14 18:45:23.915749, 1.66177
2022-12-14 18:45:23.916426, 1.66666
2022-12-14 18:45:23.949046, 1.64222
2022-12-14 18:45:23.949365, 1.64711
2022-12-14 18:45:23.949365, 1.63734
2022-12-14 18:45:23.982479, 1.62756
2022-12-14 18:45:23.982870, 1.62756
2022-12-14 18:45:24.015060, 1.63734
2022-12-14 18:45:24.016057, 1.63245
2022-12-14 18:45:24.016262, 1.63734
2022-12-14 18:45:24.049691, 1.62756
2022-12-14 18:45:24.049981, 1.63734
2022-12-14 18:45:24.049981, 1.63734
2022-12-14 18:45:24.083077, 1.63734
2022-12-14 18:45:24.083456, 1.64711
2022-12-14 18:45:24.116554, 1.67644
2022-12-14 18:45:24.116794, 1.67644
2022-12-14 18:45:24.116794, 1.64711
2022-12-14 18:45:24.149932, 1.64711
2022-12-14 18:45:24.150289, 1.65689
2022-12-14 18:45:24.150289, 1.65200
2022-12-14 18:45:24.183653, 1.63734
2022-12-14 18:45:24.184000, 1.63734
2022-12-14 18:45:24.217271, 1.64222
2022-12-14 18:45:24.217507, 1.63734
2022-12-14 18:45:24.217986, 1.62756
2022-12-14 18:45:24.250753, 1.62756
2022-12-14 18:45:24.251758, 1.62756
2022-12-14 18:45:24.251758, 1.62756
2022-12-14 18:45:24.284004, 1.61779
2022-12-14 18:45:24.284004, 1.61779
2022-12-14 18:45:24.317745, 1.62756
2022-12-14 18:45:24.317745, 1.63245
2022-12-14 18:45:24.318609, 1.62756
2022-12-14 18:45:24.351366, 1.61779
2022-12-14 18:45:24.351663, 1.61779
2022-12-14 18:45:24.351663, 1.62267
2022-12-14 18:45:24.385079, 1.61290
2022-12-14 18:45:24.385450, 1.61290
2022-12-14 18:45:24.418610, 1.61779
2022-12-14 18:45:24.418886, 1.62267
2022-12-14 18:45:24.419361, 1.61290
2022-12-14 18:45:24.452077, 1.60801
2022-12-14 18:45:24.452077, 1.61290
2022-12-14 18:45:24.453186, 1.62267
2022-12-14 18:45:24.485662, 1.61290
2022-12-14 18:45:24.486034, 1.62756
2022-12-14 18:45:24.519042, 1.65689
2022-12-14 18:45:24.519042, 1.69599
2022-12-14 18:45:24.520045, 1.72531
2022-12-14 18:45:24.552249, 1.73998
2022-12-14 18:45:24.552249, 1.76441
2022-12-14 18:45:24.553247, 1.77908
2022-12-14 18:45:24.585342, 1.77419
2022-12-14 18:45:24.585342, 1.75953
2022-12-14 18:45:24.619597, 1.77419
2022-12-14 18:45:24.619834, 1.74975
2022-12-14 18:45:24.619834, 1.72043
2022-12-14 18:45:24.653204, 1.70087
2022-12-14 18:45:24.653497, 1.69110
2022-12-14 18:45:24.654104, 1.68621
2022-12-14 18:45:24.686740, 1.67644
2022-12-14 18:45:24.687081, 1.66177
2022-12-14 18:45:24.720254, 1.66177
2022-12-14 18:45:24.720520, 1.66666
2022-12-14 18:45:24.721111, 1.66177
2022-12-14 18:45:24.753713, 1.67644
2022-12-14 18:45:24.753713, 1.64222
2022-12-14 18:45:24.754713, 1.64711
2022-12-14 18:45:24.787245, 1.63734
2022-12-14 18:45:24.787245, 1.63245
2022-12-14 18:45:24.820729, 1.62756
2022-12-14 18:45:24.820729, 1.64222
2022-12-14 18:45:24.821623, 1.66666
2022-12-14 18:45:24.853467, 1.63245
2022-12-14 18:45:24.854479, 1.63734
2022-12-14 18:45:24.854479, 1.64711
2022-12-14 18:45:24.887390, 1.65200
2022-12-14 18:45:24.887390, 1.64222
2022-12-14 18:45:24.921306, 1.65200
2022-12-14 18:45:24.921555, 1.66177
2022-12-14 18:45:24.921555, 1.66177
2022-12-14 18:45:24.954897, 1.66177
2022-12-14 18:45:24.955190, 1.65689
2022-12-14 18:45:24.955190, 1.68132
2022-12-14 18:45:24.988531, 1.65200
2022-12-14 18:45:24.988877, 1.63734
2022-12-14 18:45:25.022085, 1.63245
2022-12-14 18:45:25.022325, 1.63734
2022-12-14 18:45:25.022895, 1.63734
2022-12-14 18:45:25.055547, 1.62267
2022-12-14 18:45:25.055886, 1.61779
2022-12-14 18:45:25.055886, 1.62756
2022-12-14 18:45:25.089026, 1.63245
2022-12-14 18:45:25.089026, 1.61779
2022-12-14 18:45:25.122206, 1.61779
2022-12-14 18:45:25.123214, 1.62267
2022-12-14 18:45:25.123214, 1.63245
2022-12-14 18:45:25.155911, 1.61779
2022-12-14 18:45:25.155911, 1.62267
2022-12-14 18:45:25.156911, 1.63734
2022-12-14 18:45:25.189581, 1.63245
2022-12-14 18:45:25.189926, 1.61779
2022-12-14 18:45:25.223197, 1.61779
2022-12-14 18:45:25.223436, 1.61779
2022-12-14 18:45:25.223436, 1.62756
2022-12-14 18:45:25.256708, 1.61779
2022-12-14 18:45:25.256708, 1.61290
2022-12-14 18:45:25.257582, 1.61779
2022-12-14 18:45:25.290260, 1.62267
2022-12-14 18:45:25.291300, 1.62267
2022-12-14 18:45:25.323796, 1.64222
2022-12-14 18:45:25.323796, 1.67155
2022-12-14 18:45:25.324796, 1.71065
2022-12-14 18:45:25.357451, 1.74486
2022-12-14 18:45:25.358058, 1.76441
2022-12-14 18:45:25.358058, 1.77908
2022-12-14 18:45:25.389929, 1.79374
2022-12-14 18:45:25.390935, 1.78396
2022-12-14 18:45:25.423926, 1.76930
2022-12-14 18:45:25.424147, 1.75464
2022-12-14 18:45:25.424551, 1.75464
2022-12-14 18:45:25.457948, 1.73020
2022-12-14 18:45:25.457948, 1.71065
2022-12-14 18:45:25.458953, 1.69599
2022-12-14 18:45:25.491621, 1.70087
2022-12-14 18:45:25.492012, 1.70087
2022-12-14 18:45:25.525158, 1.68132
2022-12-14 18:45:25.525396, 1.68132
2022-12-14 18:45:25.525917, 1.69599
2022-12-14 18:45:25.558767, 1.66177
2022-12-14 18:45:25.559100, 1.65200
2022-12-14 18:45:25.560101, 1.64711
2022-12-14 18:45:25.592101, 1.65200
2022-12-14 18:45:25.592499, 1.64711
2022-12-14 18:45:25.625870, 1.63734
2022-12-14 18:45:25.625870, 1.63245
2022-12-14 18:45:25.626873, 1.64711
2022-12-14 18:45:25.657796, 1.64711
2022-12-14 18:45:25.658805, 1.63245
2022-12-14 18:45:25.658805, 1.63734
2022-12-14 18:45:25.692549, 1.64711
2022-12-14 18:45:25.692549, 1.65689
2022-12-14 18:45:25.726125, 1.67155
2022-12-14 18:45:25.726640, 1.65200
2022-12-14 18:45:25.727230, 1.65689
2022-12-14 18:45:25.759676, 1.65689
2022-12-14 18:45:25.759676, 1.64222
2022-12-14 18:45:25.760678, 1.64711
2022-12-14 18:45:25.793244, 1.64711
2022-12-14 18:45:25.793244, 1.64711
2022-12-14 18:45:25.826553, 1.63245
2022-12-14 18:45:25.826553, 1.63245
2022-12-14 18:45:25.827555, 1.62756
2022-12-14 18:45:25.859818, 1.63245
2022-12-14 18:45:25.859818, 1.62267
2022-12-14 18:45:25.860822, 1.62267
2022-12-14 18:45:25.893159, 1.64222
2022-12-14 18:45:25.893512, 1.63245
2022-12-14 18:45:25.925932, 1.62267
2022-12-14 18:45:25.926969, 1.61779
2022-12-14 18:45:25.926969, 1.61290
2022-12-14 18:45:25.960319, 1.62267
2022-12-14 18:45:25.960319, 1.61779
2022-12-14 18:45:25.960319, 1.61290
2022-12-14 18:45:25.994294, 1.61779
2022-12-14 18:45:25.995140, 1.61779
2022-12-14 18:45:26.027819, 1.61290
2022-12-14 18:45:26.028124, 1.60801
2022-12-14 18:45:26.028736, 1.60801
2022-12-14 18:45:26.061384, 1.62267
2022-12-14 18:45:26.061384, 1.61290
2022-12-14 18:45:26.062299, 1.60801
2022-12-14 18:45:26.094964, 1.62267
2022-12-14 18:45:26.095436, 1.62756
2022-12-14 18:45:26.128318, 1.61290
2022-12-14 18:45:26.128318, 1.60801
2022-12-14 18:45:26.129225, 1.61779
2022-12-14 18:45:26.161405, 1.64711
2022-12-14 18:45:26.161405, 1.67155
2022-12-14 18:45:26.162413, 1.70087
2022-12-14 18:45:26.195194, 1.73020
2022-12-14 18:45:26.196202, 1.76441
2022-12-14 18:45:26.228524, 1.77908
2022-12-14 18:45:26.228809, 1.77419
2022-12-14 18:45:26.229377, 1.76930
2022-12-14 18:45:26.262164, 1.76930
2022-12-14 18:45:26.262564, 1.74975
2022-12-14 18:45:26.263164, 1.72043
2022-12-14 18:45:26.296020, 1.73998
2022-12-14 18:45:26.296366, 1.70576
2022-12-14 18:45:26.329215, 1.68621
2022-12-14 18:45:26.329485, 1.66666
2022-12-14 18:45:26.329485, 1.66177
2022-12-14 18:45:26.363052, 1.66177
2022-12-14 18:45:26.363344, 1.66177
2022-12-14 18:45:26.363344, 1.64711
2022-12-14 18:45:26.396734, 1.64222
2022-12-14 18:45:26.397126, 1.64711
2022-12-14 18:45:26.430173, 1.64711
2022-12-14 18:45:26.430438, 1.62756
2022-12-14 18:45:26.431455, 1.63245
2022-12-14 18:45:26.463321, 1.62756
2022-12-14 18:45:26.463956, 1.63245
2022-12-14 18:45:26.463956, 1.62267
2022-12-14 18:45:26.497329, 1.62267
2022-12-14 18:45:26.497676, 1.63734
2022-12-14 18:45:26.529836, 1.66666
2022-12-14 18:45:26.530833, 1.63245
2022-12-14 18:45:26.530833, 1.63734
2022-12-14 18:45:26.564377, 1.64711
2022-12-14 18:45:26.564666, 1.65200
2022-12-14 18:45:26.564666, 1.64711
2022-12-14 18:45:26.597818, 1.64711
2022-12-14 18:45:26.597818, 1.67155
2022-12-14 18:45:26.631474, 1.64711
2022-12-14 18:45:26.631788, 1.66666
2022-12-14 18:45:26.631788, 1.65200
2022-12-14 18:45:26.664873, 1.63245
2022-12-14 18:45:26.665258, 1.63245
2022-12-14 18:45:26.665786, 1.62267
2022-12-14 18:45:26.698529, 1.61779
2022-12-14 18:45:26.698529, 1.61779
2022-12-14 18:45:26.730895, 1.62267
2022-12-14 18:45:26.731904, 1.61290
2022-12-14 18:45:26.731904, 1.60801
2022-12-14 18:45:26.764439, 1.61290
2022-12-14 18:45:26.765438, 1.62267
2022-12-14 18:45:26.765798, 1.62756
2022-12-14 18:45:26.798599, 1.60801
2022-12-14 18:45:26.799086, 1.60801
2022-12-14 18:45:26.832136, 1.61779
2022-12-14 18:45:26.832407, 1.60801
2022-12-14 18:45:26.833409, 1.60312
2022-12-14 18:45:26.866223, 1.60801
2022-12-14 18:45:26.866514, 1.61779
2022-12-14 18:45:26.866514, 1.62756
2022-12-14 18:45:26.899702, 1.60312
2022-12-14 18:45:26.900075, 1.60312
2022-12-14 18:45:26.933139, 1.61290
2022-12-14 18:45:26.933139, 1.60801
2022-12-14 18:45:26.933911, 1.60312
2022-12-14 18:45:26.966632, 1.60801
2022-12-14 18:45:26.966951, 1.61290
2022-12-14 18:45:26.967623, 1.61779
2022-12-14 18:45:27.000334, 1.63734
2022-12-14 18:45:27.000712, 1.64222
2022-12-14 18:45:27.033676, 1.66666
2022-12-14 18:45:27.033959, 1.65689
2022-12-14 18:45:27.034960, 1.68132
2022-12-14 18:45:27.067404, 1.71554
2022-12-14 18:45:27.067404, 1.74975
2022-12-14 18:45:27.068406, 1.78885
2022-12-14 18:45:27.100878, 1.78885
2022-12-14 18:45:27.101227, 1.77419
2022-12-14 18:45:27.134318, 1.76441
2022-12-14 18:45:27.134557, 1.75953
2022-12-14 18:45:27.135167, 1.73020
2022-12-14 18:45:27.167975, 1.71065
2022-12-14 18:45:27.168267, 1.70087
2022-12-14 18:45:27.168868, 1.69110
2022-12-14 18:45:27.201536, 1.70087
2022-12-14 18:45:27.201881, 1.66177
2022-12-14 18:45:27.235020, 1.66666
2022-12-14 18:45:27.235020, 1.66177
2022-12-14 18:45:27.235792, 1.64711
2022-12-14 18:45:27.268661, 1.64222
2022-12-14 18:45:27.268978, 1.64222
2022-12-14 18:45:27.269980, 1.65200
2022-12-14 18:45:27.302179, 1.63245
2022-12-14 18:45:27.302557, 1.66177
2022-12-14 18:45:27.335588, 1.63245
2022-12-14 18:45:27.336163, 1.63734
2022-12-14 18:45:27.336163, 1.62756
2022-12-14 18:45:27.368214, 1.63245
2022-12-14 18:45:27.369211, 1.63734
2022-12-14 18:45:27.369211, 1.65200
2022-12-14 18:45:27.401672, 1.64222
2022-12-14 18:45:27.402672, 1.63734
2022-12-14 18:45:27.436292, 1.64711
2022-12-14 18:45:27.436532, 1.65689
2022-12-14 18:45:27.437141, 1.65200
2022-12-14 18:45:27.469702, 1.64711
2022-12-14 18:45:27.469996, 1.64711
2022-12-14 18:45:27.470603, 1.65689
2022-12-14 18:45:27.503400, 1.64711
2022-12-14 18:45:27.503773, 1.63734
2022-12-14 18:45:27.536799, 1.63734
2022-12-14 18:45:27.537066, 1.64222
2022-12-14 18:45:27.538069, 1.63734
2022-12-14 18:45:27.570436, 1.62267
2022-12-14 18:45:27.570436, 1.62267
2022-12-14 18:45:27.571438, 1.63734
2022-12-14 18:45:27.603811, 1.63245
2022-12-14 18:45:27.604813, 1.62267
2022-12-14 18:45:27.636816, 1.62756
2022-12-14 18:45:27.636816, 1.66177
2022-12-14 18:45:27.637824, 1.64711
2022-12-14 18:45:27.670396, 1.61779
2022-12-14 18:45:27.670771, 1.61779
2022-12-14 18:45:27.670771, 1.62267
2022-12-14 18:45:27.704352, 1.62267
2022-12-14 18:45:27.704723, 1.61290
2022-12-14 18:45:27.738189, 1.61779
2022-12-14 18:45:27.738456, 1.62267
2022-12-14 18:45:27.739127, 1.62267
2022-12-14 18:45:27.771422, 1.61290
2022-12-14 18:45:27.771422, 1.61290
2022-12-14 18:45:27.772248, 1.61779
2022-12-14 18:45:27.804979, 1.62267
2022-12-14 18:45:27.804979, 1.61290
2022-12-14 18:45:27.838591, 1.61779
2022-12-14 18:45:27.838830, 1.63245
2022-12-14 18:45:27.839351, 1.65200
2022-12-14 18:45:27.871989, 1.62756
2022-12-14 18:45:27.872764, 1.65200
2022-12-14 18:45:27.872764, 1.66666
2022-12-14 18:45:27.905570, 1.70576
2022-12-14 18:45:27.905570, 1.72043
2022-12-14 18:45:27.939063, 1.73020
2022-12-14 18:45:27.939331, 1.75953
2022-12-14 18:45:27.940040, 1.78396
2022-12-14 18:45:27.972595, 1.77419
2022-12-14 18:45:27.972595, 1.78396
2022-12-14 18:45:27.973596, 1.77419
2022-12-14 18:45:28.006322, 1.75953
2022-12-14 18:45:28.006692, 1.73020
2022-12-14 18:45:28.039705, 1.71065
2022-12-14 18:45:28.039705, 1.70087
2022-12-14 18:45:28.040613, 1.70576
2022-12-14 18:45:28.073246, 1.67155
2022-12-14 18:45:28.073246, 1.66666
2022-12-14 18:45:28.074336, 1.66666
2022-12-14 18:45:28.106867, 1.66666
2022-12-14 18:45:28.107270, 1.66666
2022-12-14 18:45:28.140257, 1.67644
2022-12-14 18:45:28.140594, 1.64222
2022-12-14 18:45:28.141596, 1.64711
2022-12-14 18:45:28.173336, 1.63734
2022-12-14 18:45:28.173336, 1.62756
2022-12-14 18:45:28.173336, 1.62756
2022-12-14 18:45:28.207347, 1.64222
2022-12-14 18:45:28.207690, 1.63734
2022-12-14 18:45:28.240872, 1.63245
2022-12-14 18:45:28.241113, 1.63734
2022-12-14 18:45:28.241113, 1.65200
2022-12-14 18:45:28.274521, 1.66177
2022-12-14 18:45:28.274812, 1.66666
2022-12-14 18:45:28.274812, 1.65689
2022-12-14 18:45:28.308259, 1.66666
2022-12-14 18:45:28.308603, 1.66177
2022-12-14 18:45:28.341406, 1.65200
2022-12-14 18:45:28.341704, 1.65200
2022-12-14 18:45:28.342345, 1.66177
2022-12-14 18:45:28.375136, 1.65200
2022-12-14 18:45:28.375883, 1.64222
2022-12-14 18:45:28.375883, 1.63734
2022-12-14 18:45:28.407839, 1.64711
2022-12-14 18:45:28.408848, 1.64222
2022-12-14 18:45:28.441007, 1.62756
2022-12-14 18:45:28.442004, 1.62756
2022-12-14 18:45:28.442401, 1.63245
2022-12-14 18:45:28.475717, 1.63734
2022-12-14 18:45:28.476060, 1.62267
2022-12-14 18:45:28.476060, 1.62267
2022-12-14 18:45:28.509324, 1.62267
2022-12-14 18:45:28.509710, 1.62756
2022-12-14 18:45:28.542752, 1.62267
2022-12-14 18:45:28.542995, 1.61779
2022-12-14 18:45:28.542995, 1.62267
2022-12-14 18:45:28.576526, 1.62267
2022-12-14 18:45:28.576856, 1.61290
2022-12-14 18:45:28.577428, 1.61290
2022-12-14 18:45:28.609844, 1.61290
2022-12-14 18:45:28.610186, 1.61779
2022-12-14 18:45:28.642283, 1.60801
2022-12-14 18:45:28.642283, 1.61290
2022-12-14 18:45:28.643278, 1.62267
2022-12-14 18:45:28.676645, 1.62756
2022-12-14 18:45:28.676645, 1.61779
2022-12-14 18:45:28.677648, 1.62267
2022-12-14 18:45:28.710242, 1.65200
2022-12-14 18:45:28.710585, 1.64711
2022-12-14 18:45:28.743786, 1.66177
2022-12-14 18:45:28.743786, 1.69599
2022-12-14 18:45:28.744791, 1.73020
2022-12-14 18:45:28.777481, 1.76441
2022-12-14 18:45:28.777802, 1.77419
2022-12-14 18:45:28.778805, 1.77908
2022-12-14 18:45:28.811026, 1.78396
2022-12-14 18:45:28.811370, 1.77908
2022-12-14 18:45:28.844479, 1.75953
2022-12-14 18:45:28.845278, 1.73998
2022-12-14 18:45:28.845278, 1.72043
2022-12-14 18:45:28.878010, 1.72043
2022-12-14 18:45:28.878801, 1.69599
2022-12-14 18:45:28.878801, 1.67644
2022-12-14 18:45:28.912309, 1.67155
2022-12-14 18:45:28.912309, 1.67155
2022-12-14 18:45:28.944378, 1.66666
2022-12-14 18:45:28.945387, 1.65200
2022-12-14 18:45:28.945387, 1.64711
2022-12-14 18:45:28.977676, 1.65200
2022-12-14 18:45:28.978633, 1.64711
2022-12-14 18:45:28.978633, 1.64711
2022-12-14 18:45:29.011853, 1.66177
2022-12-14 18:45:29.012447, 1.63734
2022-12-14 18:45:29.045523, 1.63734
2022-12-14 18:45:29.045816, 1.62756
2022-12-14 18:45:29.046602, 1.63734
2022-12-14 18:45:29.079375, 1.64222
2022-12-14 18:45:29.079375, 1.64711
2022-12-14 18:45:29.080379, 1.64222
2022-12-14 18:45:29.112551, 1.65200
2022-12-14 18:45:29.112551, 1.66177
2022-12-14 18:45:29.146115, 1.68132
2022-12-14 18:45:29.146635, 1.65200
2022-12-14 18:45:29.147233, 1.65200
2022-12-14 18:45:29.179258, 1.65689
2022-12-14 18:45:29.179258, 1.65689
2022-12-14 18:45:29.180265, 1.64222
2022-12-14 18:45:29.213128, 1.64222
2022-12-14 18:45:29.213128, 1.64222
2022-12-14 18:45:29.245542, 1.64222
2022-12-14 18:45:29.246498, 1.62756
2022-12-14 18:45:29.247008, 1.62267
2022-12-14 18:45:29.280313, 1.63245
2022-12-14 18:45:29.280629, 1.63734
2022-12-14 18:45:29.281311, 1.63245
2022-12-14 18:45:29.313324, 1.61779
2022-12-14 18:45:29.313735, 1.61779
2022-12-14 18:45:29.347384, 1.62756
2022-12-14 18:45:29.347670, 1.61290
2022-12-14 18:45:29.347670, 1.61290
2022-12-14 18:45:29.380783, 1.61290
2022-12-14 18:45:29.381077, 1.61779
2022-12-14 18:45:29.382079, 1.61290
2022-12-14 18:45:29.414394, 1.61290
2022-12-14 18:45:29.414739, 1.64222
2022-12-14 18:45:29.447931, 1.61779
2022-12-14 18:45:29.448205, 1.60801
2022-12-14 18:45:29.449216, 1.60801
2022-12-14 18:45:29.481340, 1.60801
2022-12-14 18:45:29.481793, 1.61290
2022-12-14 18:45:29.482810, 1.60801
2022-12-14 18:45:29.514685, 1.60312
2022-12-14 18:45:29.515041, 1.61290
2022-12-14 18:45:29.548670, 1.62267
2022-12-14 18:45:29.548949, 1.61779
2022-12-14 18:45:29.549951, 1.63245
2022-12-14 18:45:29.582075, 1.66177
2022-12-14 18:45:29.582366, 1.72043
2022-12-14 18:45:29.582366, 1.73998
2022-12-14 18:45:29.615632, 1.75953
2022-12-14 18:45:29.616068, 1.77419
2022-12-14 18:45:29.649071, 1.79374
2022-12-14 18:45:29.649071, 1.78885
2022-12-14 18:45:29.650016, 1.77419
2022-12-14 18:45:29.682626, 1.75953
2022-12-14 18:45:29.682626, 1.76930
2022-12-14 18:45:29.683476, 1.73509
2022-12-14 18:45:29.716243, 1.71065
2022-12-14 18:45:29.716623, 1.69599
2022-12-14 18:45:29.749798, 1.69110
2022-12-14 18:45:29.750044, 1.68132
2022-12-14 18:45:29.750602, 1.66177
2022-12-14 18:45:29.783306, 1.66177
2022-12-14 18:45:29.783629, 1.66177
2022-12-14 18:45:29.783629, 1.65200
2022-12-14 18:45:29.816428, 1.64711
2022-12-14 18:45:29.816428, 1.67155
2022-12-14 18:45:29.850029, 1.64222
2022-12-14 18:45:29.850029, 1.63734
2022-12-14 18:45:29.850029, 1.62756
2022-12-14 18:45:29.882732, 1.62267
2022-12-14 18:45:29.883725, 1.63245
2022-12-14 18:45:29.883725, 1.63245
2022-12-14 18:45:29.917418, 1.62267
2022-12-14 18:45:29.917810, 1.63245
2022-12-14 18:45:29.950873, 1.63734
2022-12-14 18:45:29.950873, 1.64711
2022-12-14 18:45:29.951874, 1.64222
2022-12-14 18:45:29.984431, 1.64222
2022-12-14 18:45:29.984725, 1.64711
2022-12-14 18:45:29.985247, 1.65200
2022-12-14 18:45:30.017820, 1.64222
2022-12-14 18:45:30.017820, 1.63734
2022-12-14 18:45:30.051624, 1.64222
2022-12-14 18:45:30.051864, 1.64711
2022-12-14 18:45:30.052425, 1.63245
2022-12-14 18:45:30.084820, 1.63245
2022-12-14 18:45:30.085311, 1.65689
2022-12-14 18:45:30.085311, 1.62756
2022-12-14 18:45:30.117598, 1.61779
2022-12-14 18:45:30.118385, 1.61290
2022-12-14 18:45:30.152235, 1.61779
2022-12-14 18:45:30.152473, 1.62267
2022-12-14 18:45:30.152473, 1.61290
2022-12-14 18:45:30.185655, 1.60801
2022-12-14 18:45:30.186006, 1.61290
2022-12-14 18:45:30.186613, 1.63734
2022-12-14 18:45:30.219153, 1.60801
2022-12-14 18:45:30.219498, 1.60312
2022-12-14 18:45:30.252647, 1.60801
2022-12-14 18:45:30.252888, 1.60801
2022-12-14 18:45:30.253368, 1.60312
2022-12-14 18:45:30.286238, 1.60312
2022-12-14 18:45:30.286530, 1.62756
2022-12-14 18:45:30.286530, 1.60801
2022-12-14 18:45:30.319693, 1.60312
2022-12-14 18:45:30.319693, 1.59335
2022-12-14 18:45:30.353283, 1.59824
2022-12-14 18:45:30.353523, 1.60312
2022-12-14 18:45:30.353523, 1.60312
2022-12-14 18:45:30.386721, 1.59335
2022-12-14 18:45:30.387753, 1.59824
2022-12-14 18:45:30.387753, 1.60801
2022-12-14 18:45:30.420242, 1.60801
2022-12-14 18:45:30.420242, 1.60312
2022-12-14 18:45:30.453831, 1.62756
2022-12-14 18:45:30.453831, 1.66666
2022-12-14 18:45:30.454832, 1.70087
2022-12-14 18:45:30.487412, 1.73020
2022-12-14 18:45:30.487707, 1.75953
2022-12-14 18:45:30.488339, 1.79374
2022-12-14 18:45:30.521162, 1.79374
2022-12-14 18:45:30.521603, 1.77419
2022-12-14 18:45:30.554620, 1.76930
2022-12-14 18:45:30.554903, 1.75464
2022-12-14 18:45:30.554903, 1.73509
2022-12-14 18:45:30.588064, 1.71065
2022-12-14 18:45:30.588064, 1.69110
2022-12-14 18:45:30.589066, 1.71554
2022-12-14 18:45:30.621789, 1.68132
2022-12-14 18:45:30.621789, 1.66177
2022-12-14 18:45:30.654589, 1.65200
2022-12-14 18:45:30.654589, 1.65200
2022-12-14 18:45:30.655588, 1.65200
2022-12-14 18:45:30.688354, 1.64222
2022-12-14 18:45:30.688354, 1.64222
2022-12-14 18:45:30.689277, 1.66666
2022-12-14 18:45:30.721799, 1.63734
2022-12-14 18:45:30.721799, 1.61779
2022-12-14 18:45:30.755224, 1.61779
2022-12-14 18:45:30.755224, 1.62756
2022-12-14 18:45:30.756092, 1.62756
2022-12-14 18:45:30.788354, 1.61779
2022-12-14 18:45:30.788354, 1.62267
2022-12-14 18:45:30.789354, 1.62267
2022-12-14 18:45:30.822707, 1.63734
2022-12-14 18:45:30.823079, 1.62756
2022-12-14 18:45:30.856328, 1.63245
2022-12-14 18:45:30.856594, 1.63734
2022-12-14 18:45:30.857596, 1.64711
2022-12-14 18:45:30.889694, 1.64222
2022-12-14 18:45:30.890014, 1.64222
2022-12-14 18:45:30.890529, 1.66666
2022-12-14 18:45:30.923298, 1.65689
2022-12-14 18:45:30.924300, 1.62756
2022-12-14 18:45:30.955709, 1.62267
2022-12-14 18:45:30.956713, 1.61779
2022-12-14 18:45:30.956713, 1.62267
2022-12-14 18:45:30.990339, 1.61290
2022-12-14 18:45:30.990339, 1.60801
2022-12-14 18:45:30.991292, 1.63734
2022-12-14 18:45:31.023943, 1.64222
2022-12-14 18:45:31.023943, 1.60801
2022-12-14 18:45:31.057556, 1.59824
2022-12-14 18:45:31.057794, 1.59824
2022-12-14 18:45:31.058404, 1.60801
2022-12-14 18:45:31.090908, 1.60312
2022-12-14 18:45:31.090908, 1.59335
2022-12-14 18:45:31.091787, 1.60312
2022-12-14 18:45:31.124672, 1.60801
2022-12-14 18:45:31.125040, 1.59824
2022-12-14 18:45:31.158097, 1.58846
2022-12-14 18:45:31.158706, 1.59335
2022-12-14 18:45:31.158706, 1.59824
2022-12-14 18:45:31.191210, 1.60312
2022-12-14 18:45:31.191210, 1.59335
2022-12-14 18:45:31.192218, 1.60312
2022-12-14 18:45:31.225192, 1.62756
2022-12-14 18:45:31.225581, 1.59824
2022-12-14 18:45:31.258722, 1.58846
2022-12-14 18:45:31.258963, 1.59335
2022-12-14 18:45:31.258963, 1.59824
2022-12-14 18:45:31.292322, 1.60312
2022-12-14 18:45:31.292613, 1.58846
2022-12-14 18:45:31.292613, 1.59335
2022-12-14 18:45:31.325795, 1.60312
2022-12-14 18:45:31.326182, 1.61779
2022-12-14 18:45:31.359301, 1.62756
2022-12-14 18:45:31.359301, 1.66177
2022-12-14 18:45:31.360302, 1.70576
2022-12-14 18:45:31.392780, 1.73998
2022-12-14 18:45:31.392780, 1.75464
2022-12-14 18:45:31.393782, 1.76441
2022-12-14 18:45:31.426213, 1.78885
2022-12-14 18:45:31.427107, 1.78885
2022-12-14 18:45:31.458911, 1.75464
2022-12-14 18:45:31.459922, 1.73998
2022-12-14 18:45:31.459922, 1.72531
2022-12-14 18:45:31.493004, 1.71554
2022-12-14 18:45:31.493306, 1.69110
2022-12-14 18:45:31.493306, 1.69110
2022-12-14 18:45:31.526888, 1.66666
2022-12-14 18:45:31.527233, 1.66666
2022-12-14 18:45:31.560498, 1.64711
2022-12-14 18:45:31.560770, 1.64222
2022-12-14 18:45:31.561772, 1.64222
2022-12-14 18:45:31.593909, 1.64222
2022-12-14 18:45:31.593909, 1.63734
2022-12-14 18:45:31.594731, 1.62756
2022-12-14 18:45:31.627654, 1.63245
2022-12-14 18:45:31.627997, 1.65200
2022-12-14 18:45:31.660985, 1.61779
2022-12-14 18:45:31.660985, 1.61290
2022-12-14 18:45:31.661986, 1.62267
2022-12-14 18:45:31.694640, 1.64222
2022-12-14 18:45:31.694640, 1.62756
2022-12-14 18:45:31.695645, 1.62267
2022-12-14 18:45:31.727211, 1.64222
2022-12-14 18:45:31.728218, 1.67644
2022-12-14 18:45:31.760572, 1.64222
2022-12-14 18:45:31.761355, 1.63734
2022-12-14 18:45:31.761820, 1.64222
2022-12-14 18:45:31.795080, 1.64711
2022-12-14 18:45:31.795401, 1.64711
2022-12-14 18:45:31.796402, 1.63245
2022-12-14 18:45:31.828763, 1.63734
2022-12-14 18:45:31.829149, 1.64222
2022-12-14 18:45:31.862262, 1.64222
2022-12-14 18:45:31.863063, 1.65200
2022-12-14 18:45:31.863292, 1.62267
2022-12-14 18:45:31.895705, 1.62756
2022-12-14 18:45:31.895705, 1.62267
2022-12-14 18:45:31.896658, 1.61290
2022-12-14 18:45:31.929387, 1.61779
2022-12-14 18:45:31.930220, 1.62267
2022-12-14 18:45:31.962862, 1.62267
2022-12-14 18:45:31.962862, 1.61290
2022-12-14 18:45:31.963864, 1.62267
2022-12-14 18:45:31.995886, 1.62756
2022-12-14 18:45:31.995886, 1.61779
2022-12-14 18:45:31.996884, 1.60801
2022-12-14 18:45:32.029261, 1.60801
2022-12-14 18:45:32.029261, 1.61290
2022-12-14 18:45:32.063343, 1.61779
2022-12-14 18:45:32.063343, 1.60801
2022-12-14 18:45:32.064214, 1.60801
2022-12-14 18:45:32.096933, 1.60801
2022-12-14 18:45:32.096933, 1.61290
2022-12-14 18:45:32.098037, 1.60801
2022-12-14 18:45:32.130353, 1.60801
2022-12-14 18:45:32.130353, 1.62756
2022-12-14 18:45:32.164058, 1.63245
2022-12-14 18:45:32.164058, 1.62756
2022-12-14 18:45:32.165082, 1.60801
2022-12-14 18:45:32.197143, 1.61290
2022-12-14 18:45:32.197143, 1.62756
2022-12-14 18:45:32.198065, 1.64222
2022-12-14 18:45:32.230413, 1.67155
2022-12-14 18:45:32.230413, 1.71065
2022-12-14 18:45:32.264126, 1.75464
2022-12-14 18:45:32.264126, 1.76930
2022-12-14 18:45:32.265122, 1.77419
2022-12-14 18:45:32.297758, 1.77908
2022-12-14 18:45:32.298168, 1.77908
2022-12-14 18:45:32.298587, 1.75953
2022-12-14 18:45:32.331176, 1.74486
2022-12-14 18:45:32.331526, 1.72531
2022-12-14 18:45:32.365024, 1.72043
2022-12-14 18:45:32.365294, 1.71065
2022-12-14 18:45:32.365973, 1.68132
2022-12-14 18:45:32.398656, 1.67155
2022-12-14 18:45:32.398976, 1.67155
2022-12-14 18:45:32.398976, 1.66177
2022-12-14 18:45:32.432086, 1.64711
2022-12-14 18:45:32.432433, 1.64711
2022-12-14 18:45:32.465555, 1.65200
2022-12-14 18:45:32.465555, 1.63734
2022-12-14 18:45:32.466573, 1.63245
2022-12-14 18:45:32.499221, 1.62756
2022-12-14 18:45:32.499544, 1.63734
2022-12-14 18:45:32.500114, 1.64711
2022-12-14 18:45:32.532604, 1.62267
2022-12-14 18:45:32.533642, 1.62756
2022-12-14 18:45:32.565723, 1.63734
2022-12-14 18:45:32.565723, 1.64711
2022-12-14 18:45:32.565723, 1.66666
2022-12-14 18:45:32.599761, 1.64222
2022-12-14 18:45:32.600052, 1.65689
2022-12-14 18:45:32.601054, 1.65689
2022-12-14 18:45:32.633342, 1.64711
2022-12-14 18:45:32.633717, 1.65200
2022-12-14 18:45:32.666870, 1.65689
2022-12-14 18:45:32.667108, 1.66177
2022-12-14 18:45:32.667725, 1.64711
2022-12-14 18:45:32.699942, 1.64711
2022-12-14 18:45:32.699942, 1.66177
2022-12-14 18:45:32.700940, 1.65689
2022-12-14 18:45:32.734184, 1.62756
2022-12-14 18:45:32.734451, 1.62756
2022-12-14 18:45:32.767409, 1.62756
2022-12-14 18:45:32.767409, 1.63245
2022-12-14 18:45:32.768410, 1.62267
2022-12-14 18:45:32.800764, 1.61779
2022-12-14 18:45:32.800764, 1.62267
2022-12-14 18:45:32.801760, 1.62756
2022-12-14 18:45:32.834245, 1.61290
2022-12-14 18:45:32.834717, 1.61290
2022-12-14 18:45:32.867662, 1.61779
2022-12-14 18:45:32.867662, 1.62267
2022-12-14 18:45:32.868567, 1.61290
2022-12-14 18:45:32.901194, 1.62267
2022-12-14 18:45:32.901485, 1.61290
2022-12-14 18:45:32.901485, 1.61779
2022-12-14 18:45:32.935229, 1.60312
2022-12-14 18:45:32.935574, 1.60312
2022-12-14 18:45:32.968696, 1.60801
2022-12-14 18:45:32.968960, 1.61290
2022-12-14 18:45:32.969562, 1.60801
2022-12-14 18:45:33.002127, 1.60312
2022-12-14 18:45:33.002573, 1.61290
2022-12-14 18:45:33.003575, 1.62756
2022-12-14 18:45:33.035525, 1.65200
2022-12-14 18:45:33.035525, 1.66177
2022-12-14 18:45:33.068310, 1.69599
2022-12-14 18:45:33.069312, 1.73998
2022-12-14 18:45:33.069312, 1.79374
2022-12-14 18:45:33.102864, 1.78396
2022-12-14 18:45:33.103182, 1.78885
2022-12-14 18:45:33.103182, 1.79374
2022-12-14 18:45:33.136272, 1.77908
2022-12-14 18:45:33.136645, 1.75464
2022-12-14 18:45:33.169808, 1.73998
2022-12-14 18:45:33.170074, 1.73509
2022-12-14 18:45:33.170765, 1.71554
2022-12-14 18:45:33.203308, 1.70576
2022-12-14 18:45:33.203601, 1.68132
2022-12-14 18:45:33.204075, 1.69110
2022-12-14 18:45:33.236885, 1.67644
2022-12-14 18:45:33.237228, 1.69599
2022-12-14 18:45:33.270544, 1.65689
2022-12-14 18:45:33.270784, 1.66177
2022-12-14 18:45:33.271263, 1.65689
2022-12-14 18:45:33.303635, 1.64222
2022-12-14 18:45:33.304659, 1.64222
2022-12-14 18:45:33.304659, 1.64222
2022-12-14 18:45:33.337413, 1.64222
2022-12-14 18:45:33.337758, 1.63734
2022-12-14 18:45:33.370956, 1.63734
2022-12-14 18:45:33.370956, 1.64222
2022-12-14 18:45:33.371958, 1.64711
2022-12-14 18:45:33.404501, 1.64222
2022-12-14 18:45:33.404501, 1.64711
2022-12-14 18:45:33.405499, 1.66177
2022-12-14 18:45:33.438283, 1.66666
2022-12-14 18:45:33.438660, 1.65689
2022-12-14 18:45:33.471776, 1.65689
2022-12-14 18:45:33.472040, 1.66666
2022-12-14 18:45:33.472620, 1.66666
2022-12-14 18:45:33.505311, 1.64711
2022-12-14 18:45:33.505311, 1.65200
2022-12-14 18:45:33.506304, 1.65200
2022-12-14 18:45:33.538786, 1.65689
2022-12-14 18:45:33.539162, 1.64222
2022-12-14 18:45:33.572267, 1.65200
2022-12-14 18:45:33.572893, 1.63734
2022-12-14 18:45:33.573901, 1.65689
2022-12-14 18:45:33.604689, 1.65200
2022-12-14 18:45:33.605724, 1.62756
2022-12-14 18:45:33.605724, 1.63245
2022-12-14 18:45:33.638326, 1.63734
2022-12-14 18:45:33.639324, 1.62267
2022-12-14 18:45:33.672271, 1.62267
2022-12-14 18:45:33.672271, 1.62267
2022-12-14 18:45:33.672271, 1.63245
2022-12-14 18:45:33.706010, 1.61779
2022-12-14 18:45:33.706602, 1.61779
2022-12-14 18:45:33.707201, 1.61779
2022-12-14 18:45:33.739945, 1.62756
2022-12-14 18:45:33.740318, 1.61779
2022-12-14 18:45:33.773630, 1.62267
2022-12-14 18:45:33.773897, 1.64222
2022-12-14 18:45:33.774899, 1.64222
2022-12-14 18:45:33.806373, 1.61779
2022-12-14 18:45:33.806373, 1.61290
2022-12-14 18:45:33.807383, 1.61290
2022-12-14 18:45:33.840738, 1.62756
2022-12-14 18:45:33.840738, 1.63245
2022-12-14 18:45:33.873111, 1.64711
2022-12-14 18:45:33.873111, 1.68132
2022-12-14 18:45:33.874113, 1.73020
2022-12-14 18:45:33.907195, 1.75953
2022-12-14 18:45:33.907769, 1.77419
2022-12-14 18:45:33.907769, 1.79374
2022-12-14 18:45:33.941278, 1.80840
2022-12-14 18:45:33.941667, 1.81329
2022-12-14 18:45:33.974788, 1.77908
2022-12-14 18:45:33.975094, 1.76441
2022-12-14 18:45:33.975094, 1.75953
2022-12-14 18:45:34.007549, 1.73509
2022-12-14 18:45:34.007549, 1.71554
2022-12-14 18:45:34.008556, 1.70087
2022-12-14 18:45:34.041846, 1.70576
2022-12-14 18:45:34.042229, 1.69599
2022-12-14 18:45:34.075426, 1.68132
2022-12-14 18:45:34.075689, 1.67155
2022-12-14 18:45:34.075689, 1.67155
2022-12-14 18:45:34.107888, 1.67155
2022-12-14 18:45:34.108896, 1.66177
2022-12-14 18:45:34.109893, 1.67644
2022-12-14 18:45:34.141310, 1.65689
2022-12-14 18:45:34.142317, 1.65689
2022-12-14 18:45:34.175405, 1.64711
2022-12-14 18:45:34.175646, 1.64222
2022-12-14 18:45:34.176085, 1.68132
2022-12-14 18:45:34.208939, 1.65200
2022-12-14 18:45:34.208939, 1.64711
2022-12-14 18:45:34.208939, 1.65200
2022-12-14 18:45:34.242914, 1.66177
2022-12-14 18:45:34.243261, 1.67155
2022-12-14 18:45:34.276470, 1.68621
2022-12-14 18:45:34.276740, 1.66177
2022-12-14 18:45:34.277318, 1.66666
2022-12-14 18:45:34.309776, 1.67155
2022-12-14 18:45:34.310115, 1.65689
2022-12-14 18:45:34.310115, 1.65200
2022-12-14 18:45:34.343558, 1.65689
2022-12-14 18:45:34.343903, 1.66177
2022-12-14 18:45:34.377126, 1.64711
2022-12-14 18:45:34.377126, 1.64222
2022-12-14 18:45:34.378127, 1.64222
2022-12-14 18:45:34.410127, 1.64711
2022-12-14 18:45:34.410708, 1.63734
2022-12-14 18:45:34.411703, 1.63245
2022-12-14 18:45:34.443433, 1.63245
2022-12-14 18:45:34.443433, 1.64222
2022-12-14 18:45:34.476974, 1.63245
2022-12-14 18:45:34.477403, 1.64711
2022-12-14 18:45:34.477403, 1.65200
2022-12-14 18:45:34.510983, 1.63245
2022-12-14 18:45:34.511299, 1.62267
2022-12-14 18:45:34.511299, 1.61779
2022-12-14 18:45:34.544827, 1.62267
2022-12-14 18:45:34.545205, 1.62756
2022-12-14 18:45:34.578384, 1.61779
2022-12-14 18:45:34.578623, 1.61290
2022-12-14 18:45:34.579151, 1.61779
2022-12-14 18:45:34.611578, 1.63245
2022-12-14 18:45:34.611578, 1.63734
2022-12-14 18:45:34.612578, 1.61290
2022-12-14 18:45:34.645219, 1.61290
2022-12-14 18:45:34.646251, 1.62267
2022-12-14 18:45:34.678271, 1.61779
2022-12-14 18:45:34.678488, 1.61290
2022-12-14 18:45:34.678894, 1.62756
2022-12-14 18:45:34.711225, 1.65689
2022-12-14 18:45:34.712036, 1.68621
2022-12-14 18:45:34.712425, 1.71554
2022-12-14 18:45:34.745028, 1.75953
2022-12-14 18:45:34.745977, 1.78885
2022-12-14 18:45:34.779440, 1.79863
2022-12-14 18:45:34.779440, 1.79374
2022-12-14 18:45:34.780440, 1.78885
2022-12-14 18:45:34.812990, 1.78396
2022-12-14 18:45:34.813311, 1.76930
2022-12-14 18:45:34.813311, 1.74975
2022-12-14 18:45:34.846512, 1.73020
2022-12-14 18:45:34.847276, 1.72043
2022-12-14 18:45:34.880096, 1.71065
2022-12-14 18:45:34.880915, 1.69110
2022-12-14 18:45:34.880915, 1.68132
2022-12-14 18:45:34.913304, 1.67644
2022-12-14 18:45:34.913304, 1.67644
2022-12-14 18:45:34.914191, 1.66666
2022-12-14 18:45:34.946779, 1.66177
2022-12-14 18:45:34.946779, 1.66177
2022-12-14 18:45:34.980305, 1.66177
2022-12-14 18:45:34.980305, 1.64711
2022-12-14 18:45:34.981240, 1.64222
2022-12-14 18:45:35.013956, 1.65200
2022-12-14 18:45:35.014707, 1.68132
2022-12-14 18:45:35.015070, 1.63734
2022-12-14 18:45:35.047493, 1.64222
2022-12-14 18:45:35.047909, 1.65200
2022-12-14 18:45:35.081083, 1.65200
2022-12-14 18:45:35.081387, 1.64711
2022-12-14 18:45:35.081387, 1.65200
2022-12-14 18:45:35.114428, 1.68621
2022-12-14 18:45:35.114814, 1.66177
2022-12-14 18:45:35.114814, 1.65200
2022-12-14 18:45:35.148198, 1.65200
2022-12-14 18:45:35.149206, 1.65200
2022-12-14 18:45:35.181416, 1.65200
2022-12-14 18:45:35.182424, 1.64711
2022-12-14 18:45:35.182424, 1.64222
2022-12-14 18:45:35.214514, 1.64222
2022-12-14 18:45:35.214514, 1.64222
2022-12-14 18:45:35.215510, 1.63245
2022-12-14 18:45:35.248524, 1.62267
2022-12-14 18:45:35.248952, 1.62267
2022-12-14 18:45:35.282213, 1.63245
2022-12-14 18:45:35.282493, 1.63245
2022-12-14 18:45:35.282493, 1.61779
2022-12-14 18:45:35.315833, 1.61779
2022-12-14 18:45:35.316157, 1.62267
2022-12-14 18:45:35.317159, 1.62267
2022-12-14 18:45:35.349356, 1.61779
2022-12-14 18:45:35.349728, 1.62756
2022-12-14 18:45:35.382436, 1.61779
2022-12-14 18:45:35.382436, 1.61779
2022-12-14 18:45:35.383437, 1.60801
2022-12-14 18:45:35.416340, 1.60801
2022-12-14 18:45:35.416633, 1.61779
2022-12-14 18:45:35.417208, 1.61779
2022-12-14 18:45:35.449955, 1.61290
2022-12-14 18:45:35.450400, 1.60312
2022-12-14 18:45:35.483456, 1.61290
2022-12-14 18:45:35.483788, 1.61290
2022-12-14 18:45:35.483788, 1.60312
2022-12-14 18:45:35.516908, 1.60801
2022-12-14 18:45:35.517430, 1.61779
2022-12-14 18:45:35.517430, 1.62267
2022-12-14 18:45:35.549676, 1.60312
2022-12-14 18:45:35.550673, 1.60801
2022-12-14 18:45:35.583976, 1.62756
2022-12-14 18:45:35.583976, 1.65689
2022-12-14 18:45:35.584986, 1.68132
2022-12-14 18:45:35.617204, 1.71554
2022-12-14 18:45:35.617204, 1.76441
2022-12-14 18:45:35.618208, 1.77908
2022-12-14 18:45:35.650544, 1.77908
2022-12-14 18:45:35.650544, 1.78396
2022-12-14 18:45:35.684636, 1.78396
2022-12-14 18:45:35.684903, 1.77419
2022-12-14 18:45:35.685906, 1.74486
2022-12-14 18:45:35.718109, 1.76441
2022-12-14 18:45:35.718453, 1.72043
2022-12-14 18:45:35.718453, 1.71065
2022-12-14 18:45:35.751570, 1.68621
2022-12-14 18:45:35.751963, 1.67644
2022-12-14 18:45:35.785141, 1.67644
2022-12-14 18:45:35.785383, 1.70087
2022-12-14 18:45:35.786385, 1.68132
2022-12-14 18:45:35.818751, 1.65689
2022-12-14 18:45:35.819084, 1.65689
2022-12-14 18:45:35.819612, 1.68621
2022-12-14 18:45:35.852210, 1.64222
2022-12-14 18:45:35.852210, 1.63734
2022-12-14 18:45:35.885207, 1.63734
2022-12-14 18:45:35.885207, 1.64222
2022-12-14 18:45:35.886202, 1.63245
2022-12-14 18:45:35.918905, 1.63734
2022-12-14 18:45:35.919207, 1.63734
2022-12-14 18:45:35.919809, 1.64711
2022-12-14 18:45:35.952928, 1.64222
2022-12-14 18:45:35.953275, 1.65689
2022-12-14 18:45:35.986293, 1.65200
2022-12-14 18:45:35.986293, 1.65689
2022-12-14 18:45:35.987298, 1.65689
2022-12-14 18:45:36.019861, 1.64711
2022-12-14 18:45:36.020154, 1.64711
2022-12-14 18:45:36.020154, 1.65689
2022-12-14 18:45:36.053408, 1.65200
2022-12-14 18:45:36.053753, 1.64222
2022-12-14 18:45:36.086892, 1.64222
2022-12-14 18:45:36.087168, 1.67155
2022-12-14 18:45:36.088169, 1.65689
2022-12-14 18:45:36.120456, 1.63734
2022-12-14 18:45:36.120777, 1.62756
2022-12-14 18:45:36.121302, 1.63245
2022-12-14 18:45:36.154251, 1.62756
2022-12-14 18:45:36.154251, 1.61779
2022-12-14 18:45:36.187268, 1.61779
2022-12-14 18:45:36.187500, 1.62756
2022-12-14 18:45:36.187500, 1.62756
2022-12-14 18:45:36.221067, 1.61290
2022-12-14 18:45:36.221362, 1.61779
2022-12-14 18:45:36.221362, 1.62756
2022-12-14 18:45:36.254697, 1.62756
2022-12-14 18:45:36.255040, 1.61779
2022-12-14 18:45:36.288147, 1.62756
2022-12-14 18:45:36.288386, 1.61779
2022-12-14 18:45:36.289388, 1.62267
2022-12-14 18:45:36.321734, 1.60801
2022-12-14 18:45:36.322026, 1.60801
2022-12-14 18:45:36.322026, 1.60801
2022-12-14 18:45:36.355210, 1.62267
2022-12-14 18:45:36.355210, 1.61290
2022-12-14 18:45:36.388755, 1.61779
2022-12-14 18:45:36.388995, 1.62756
2022-12-14 18:45:36.389605, 1.61779
2022-12-14 18:45:36.422316, 1.60801
2022-12-14 18:45:36.422655, 1.60801
2022-12-14 18:45:36.423226, 1.62756
2022-12-14 18:45:36.455812, 1.65200
2022-12-14 18:45:36.455812, 1.66666
2022-12-14 18:45:36.489145, 1.70087
2022-12-14 18:45:36.490154, 1.76441
2022-12-14 18:45:36.490154, 1.77419
2022-12-14 18:45:36.522829, 1.77419
2022-12-14 18:45:36.523121, 1.77419
2022-12-14 18:45:36.523121, 1.77419
2022-12-14 18:45:36.556379, 1.77419
2022-12-14 18:45:36.556379, 1.74486
2022-12-14 18:45:36.590074, 1.72531
2022-12-14 18:45:36.590312, 1.73998
2022-12-14 18:45:36.590930, 1.71065
2022-12-14 18:45:36.623596, 1.68132
2022-12-14 18:45:36.623931, 1.67155
2022-12-14 18:45:36.624416, 1.66666
2022-12-14 18:45:36.657073, 1.66666
2022-12-14 18:45:36.657073, 1.68621
2022-12-14 18:45:36.690573, 1.67155
2022-12-14 18:45:36.690813, 1.64711
2022-12-14 18:45:36.691341, 1.64711
2022-12-14 18:45:36.724106, 1.63734
2022-12-14 18:45:36.725108, 1.62756
2022-12-14 18:45:36.725108, 1.62267
2022-12-14 18:45:36.756917, 1.64222
2022-12-14 18:45:36.756917, 1.63245
2022-12-14 18:45:36.791036, 1.62267
2022-12-14 18:45:36.791275, 1.62756
2022-12-14 18:45:36.791275, 1.64222
2022-12-14 18:45:36.824624, 1.65689
2022-12-14 18:45:36.824624, 1.63734
2022-12-14 18:45:36.825624, 1.64711
2022-12-14 18:45:36.858246, 1.65689
2022-12-14 18:45:36.858589, 1.65689
2022-12-14 18:45:36.891823, 1.64222
2022-12-14 18:45:36.892063, 1.64711
2022-12-14 18:45:36.892063, 1.65689
2022-12-14 18:45:36.925336, 1.66666
2022-12-14 18:45:36.925629, 1.66666
2022-12-14 18:45:36.926104, 1.63245
2022-12-14 18:45:36.958862, 1.63245
2022-12-14 18:45:36.959230, 1.63245
2022-12-14 18:45:36.992575, 1.62267
2022-12-14 18:45:36.992842, 1.61779
2022-12-14 18:45:36.993366, 1.62267
2022-12-14 18:45:37.025982, 1.62267
2022-12-14 18:45:37.025982, 1.61290
2022-12-14 18:45:37.026985, 1.61779
2022-12-14 18:45:37.059065, 1.64711
2022-12-14 18:45:37.059065, 1.61779
2022-12-14 18:45:37.092934, 1.60801
2022-12-14 18:45:37.093174, 1.60801
2022-12-14 18:45:37.093174, 1.60801
2022-12-14 18:45:37.126609, 1.61290
2022-12-14 18:45:37.126899, 1.60312
2022-12-14 18:45:37.126899, 1.60312
2022-12-14 18:45:37.160168, 1.60801
2022-12-14 18:45:37.160510, 1.61779
2022-12-14 18:45:37.193702, 1.63245
2022-12-14 18:45:37.193939, 1.59824
2022-12-14 18:45:37.194419, 1.60312
2022-12-14 18:45:37.227147, 1.61290
2022-12-14 18:45:37.227468, 1.60312
2022-12-14 18:45:37.228141, 1.59824
2022-12-14 18:45:37.260670, 1.60312
2022-12-14 18:45:37.261037, 1.60801
2022-12-14 18:45:37.294229, 1.61290
2022-12-14 18:45:37.294229, 1.63245
2022-12-14 18:45:37.295009, 1.66666
2022-12-14 18:45:37.326805, 1.71065
2022-12-14 18:45:37.327821, 1.76930
2022-12-14 18:45:37.327960, 1.75953
2022-12-14 18:45:37.360561, 1.77908
2022-12-14 18:45:37.361040, 1.79374
2022-12-14 18:45:37.394742, 1.77908
2022-12-14 18:45:37.395019, 1.76441
2022-12-14 18:45:37.395019, 1.74975
2022-12-14 18:45:37.428491, 1.74486
2022-12-14 18:45:37.428810, 1.72531
2022-12-14 18:45:37.429492, 1.70087
2022-12-14 18:45:37.461903, 1.69110
2022-12-14 18:45:37.462288, 1.70087
2022-12-14 18:45:37.495533, 1.70576
2022-12-14 18:45:37.495771, 1.66177
2022-12-14 18:45:37.495771, 1.65689
2022-12-14 18:45:37.529019, 1.66177
2022-12-14 18:45:37.529344, 1.65689
2022-12-14 18:45:37.529344, 1.64222
2022-12-14 18:45:37.562367, 1.64222
2022-12-14 18:45:37.562874, 1.64711
2022-12-14 18:45:37.595655, 1.64711
2022-12-14 18:45:37.595655, 1.64222
2022-12-14 18:45:37.595655, 1.62756
2022-12-14 18:45:37.629221, 1.63734
2022-12-14 18:45:37.629221, 1.63734
2022-12-14 18:45:37.630221, 1.63734
2022-12-14 18:45:37.662956, 1.63734
2022-12-14 18:45:37.663305, 1.64711
2022-12-14 18:45:37.696588, 1.65200
2022-12-14 18:45:37.696878, 1.64222
2022-12-14 18:45:37.696878, 1.65689
2022-12-14 18:45:37.730049, 1.65200
2022-12-14 18:45:37.730049, 1.65689
2022-12-14 18:45:37.731061, 1.64711
2022-12-14 18:45:37.763712, 1.64711
2022-12-14 18:45:37.763712, 1.64711
2022-12-14 18:45:37.797117, 1.64711
2022-12-14 18:45:37.797117, 1.63245
2022-12-14 18:45:37.798118, 1.64222
2022-12-14 18:45:37.830746, 1.66177
2022-12-14 18:45:37.830746, 1.64711
2022-12-14 18:45:37.831776, 1.65200
2022-12-14 18:45:37.863089, 1.62267
2022-12-14 18:45:37.864090, 1.62267
2022-12-14 18:45:37.897242, 1.62756
2022-12-14 18:45:37.897466, 1.61290
2022-12-14 18:45:37.897466, 1.61290
2022-12-14 18:45:37.931223, 1.61290
2022-12-14 18:45:37.932028, 1.61779
2022-12-14 18:45:37.932028, 1.61290
2022-12-14 18:45:37.964646, 1.60801
2022-12-14 18:45:37.965361, 1.60801
2022-12-14 18:45:37.998356, 1.61779
2022-12-14 18:45:37.998728, 1.62756
2022-12-14 18:45:37.999150, 1.61290
2022-12-14 18:45:38.031786, 1.64222
2022-12-14 18:45:38.032104, 1.64222
2022-12-14 18:45:38.032790, 1.60801
2022-12-14 18:45:38.065489, 1.59824
2022-12-14 18:45:38.065489, 1.60312
2022-12-14 18:45:38.097878, 1.60801
2022-12-14 18:45:38.098887, 1.60801
2022-12-14 18:45:38.098887, 1.59824
2022-12-14 18:45:38.132411, 1.60312
2022-12-14 18:45:38.132732, 1.61290
2022-12-14 18:45:38.133734, 1.62267
2022-12-14 18:45:38.165568, 1.63734
2022-12-14 18:45:38.166034, 1.67155
2022-12-14 18:45:38.199103, 1.72043
2022-12-14 18:45:38.199409, 1.74486
2022-12-14 18:45:38.199409, 1.79863
2022-12-14 18:45:38.232668, 1.78885
2022-12-14 18:45:38.233007, 1.79863
2022-12-14 18:45:38.233007, 1.78885
2022-12-14 18:45:38.266522, 1.76441
2022-12-14 18:45:38.266894, 1.74975
2022-12-14 18:45:38.299473, 1.74486
2022-12-14 18:45:38.299473, 1.74486
2022-12-14 18:45:38.300480, 1.71065
2022-12-14 18:45:38.333299, 1.69110
2022-12-14 18:45:38.333299, 1.68132
2022-12-14 18:45:38.334295, 1.67644
2022-12-14 18:45:38.366662, 1.65689
2022-12-14 18:45:38.366978, 1.65200
2022-12-14 18:45:38.400617, 1.65200
2022-12-14 18:45:38.400856, 1.65200
2022-12-14 18:45:38.401471, 1.63734
2022-12-14 18:45:38.434054, 1.63245
2022-12-14 18:45:38.434054, 1.63245
2022-12-14 18:45:38.435003, 1.63734
2022-12-14 18:45:38.467583, 1.61779
2022-12-14 18:45:38.467953, 1.61779
2022-12-14 18:45:38.501213, 1.62756
2022-12-14 18:45:38.501478, 1.62756
2022-12-14 18:45:38.502084, 1.62756
2022-12-14 18:45:38.534675, 1.62267
2022-12-14 18:45:38.534967, 1.62756
2022-12-14 18:45:38.534967, 1.64711
2022-12-14 18:45:38.568190, 1.63245
2022-12-14 18:45:38.568190, 1.63245
2022-12-14 18:45:38.600976, 1.64222
2022-12-14 18:45:38.600976, 1.67644
2022-12-14 18:45:38.601972, 1.63734
2022-12-14 18:45:38.634964, 1.63245
2022-12-14 18:45:38.635258, 1.63245
2022-12-14 18:45:38.635674, 1.63734
2022-12-14 18:45:38.668907, 1.62267
2022-12-14 18:45:38.669302, 1.61779
2022-12-14 18:45:38.702389, 1.61290
2022-12-14 18:45:38.702683, 1.62267
2022-12-14 18:45:38.702683, 1.61779
2022-12-14 18:45:38.735932, 1.60801
2022-12-14 18:45:38.736327, 1.60801
2022-12-14 18:45:38.737330, 1.61290
2022-12-14 18:45:38.769366, 1.60312
2022-12-14 18:45:38.769366, 1.59824
2022-12-14 18:45:38.802032, 1.59824
2022-12-14 18:45:38.803029, 1.63245
2022-12-14 18:45:38.803029, 1.59824
2022-12-14 18:45:38.836569, 1.59335
2022-12-14 18:45:38.836890, 1.58846
2022-12-14 18:45:38.837455, 1.59335
2022-12-14 18:45:38.870108, 1.59824
2022-12-14 18:45:38.870487, 1.59335
2022-12-14 18:45:38.903268, 1.58846
2022-12-14 18:45:38.903268, 1.59824
2022-12-14 18:45:38.904271, 1.59335
2022-12-14 18:45:38.936184, 1.58357
2022-12-14 18:45:38.937221, 1.58846
2022-12-14 18:45:38.937221, 1.60312
2022-12-14 18:45:38.970319, 1.59824
2022-12-14 18:45:38.970732, 1.58357
2022-12-14 18:45:39.004150, 1.58846
2022-12-14 18:45:39.004390, 1.59335
2022-12-14 18:45:39.005004, 1.59335
2022-12-14 18:45:39.037646, 1.58846
2022-12-14 18:45:39.037938, 1.60312
2022-12-14 18:45:39.037938, 1.64222
2022-12-14 18:45:39.071246, 1.67155
2022-12-14 18:45:39.071593, 1.69110
2022-12-14 18:45:39.104694, 1.73020
2022-12-14 18:45:39.104961, 1.75953
2022-12-14 18:45:39.105963, 1.76930
2022-12-14 18:45:39.138340, 1.75953
2022-12-14 18:45:39.138635, 1.75464
2022-12-14 18:45:39.139104, 1.74486
2022-12-14 18:45:39.171707, 1.73509
2022-12-14 18:45:39.171707, 1.70087
2022-12-14 18:45:39.205264, 1.72043
2022-12-14 18:45:39.205551, 1.67644
2022-12-14 18:45:39.205551, 1.67155
2022-12-14 18:45:39.238754, 1.65200
2022-12-14 18:45:39.239572, 1.64222
2022-12-14 18:45:39.239572, 1.63734
2022-12-14 18:45:39.272131, 1.64222
2022-12-14 18:45:39.272131, 1.62756
2022-12-14 18:45:39.306005, 1.62267
2022-12-14 18:45:39.306245, 1.62267
2022-12-14 18:45:39.306854, 1.62267
2022-12-14 18:45:39.339556, 1.61290
2022-12-14 18:45:39.339556, 1.60312
2022-12-14 18:45:39.340559, 1.60312
2022-12-14 18:45:39.373176, 1.60801
2022-12-14 18:45:39.373563, 1.60312
2022-12-14 18:45:39.406678, 1.62267
2022-12-14 18:45:39.406950, 1.60801
2022-12-14 18:45:39.407476, 1.61290
2022-12-14 18:45:39.440191, 1.62267
2022-12-14 18:45:39.440481, 1.61290
2022-12-14 18:45:39.441084, 1.61779
2022-12-14 18:45:39.473710, 1.63245
2022-12-14 18:45:39.474056, 1.64222
2022-12-14 18:45:39.507289, 1.62267
2022-12-14 18:45:39.507553, 1.62756
2022-12-14 18:45:39.508554, 1.63245
2022-12-14 18:45:39.540903, 1.62756
2022-12-14 18:45:39.540903, 1.61779
2022-12-14 18:45:39.541906, 1.61779
2022-12-14 18:45:39.573763, 1.62267
2022-12-14 18:45:39.573763, 1.61779
2022-12-14 18:45:39.607634, 1.62756
2022-12-14 18:45:39.607874, 1.60312
2022-12-14 18:45:39.607874, 1.61290
2022-12-14 18:45:39.641313, 1.60312
2022-12-14 18:45:39.641313, 1.59824
2022-12-14 18:45:39.642265, 1.59824
2022-12-14 18:45:39.674780, 1.60312
2022-12-14 18:45:39.675131, 1.60312
2022-12-14 18:45:39.708523, 1.59824
2022-12-14 18:45:39.708789, 1.62756
2022-12-14 18:45:39.709303, 1.60312
2022-12-14 18:45:39.742045, 1.59824
2022-12-14 18:45:39.742368, 1.58846
2022-12-14 18:45:39.743041, 1.58846
2022-12-14 18:45:39.775578, 1.59824
2022-12-14 18:45:39.775949, 1.60312
2022-12-14 18:45:39.809101, 1.59335
2022-12-14 18:45:39.809368, 1.59335
2022-12-14 18:45:39.810369, 1.59824
2022-12-14 18:45:39.842494, 1.60801
2022-12-14 18:45:39.842494, 1.60312
2022-12-14 18:45:39.843508, 1.61290
2022-12-14 18:45:39.875705, 1.59335
2022-12-14 18:45:39.875705, 1.60312
2022-12-14 18:45:39.909063, 1.58846
2022-12-14 18:45:39.909063, 1.59335
2022-12-14 18:45:39.910061, 1.59824
2022-12-14 18:45:39.942256, 1.62267
2022-12-14 18:45:39.942256, 1.64222
2022-12-14 18:45:39.943252, 1.67644
2022-12-14 18:45:39.975629, 1.71554
2022-12-14 18:45:39.976629, 1.74486
2022-12-14 18:45:40.010317, 1.74975
2022-12-14 18:45:40.010582, 1.75464
2022-12-14 18:45:40.011585, 1.75464
2022-12-14 18:45:40.043838, 1.76441
2022-12-14 18:45:40.044166, 1.73020
2022-12-14 18:45:40.044646, 1.70576
2022-12-14 18:45:40.077239, 1.69599
2022-12-14 18:45:40.077239, 1.69110
2022-12-14 18:45:40.110329, 1.66666
2022-12-14 18:45:40.110329, 1.65200
2022-12-14 18:45:40.111358, 1.64711
2022-12-14 18:45:40.143425, 1.64711
2022-12-14 18:45:40.143986, 1.63734
2022-12-14 18:45:40.143986, 1.62756
2022-12-14 18:45:40.177684, 1.62756
2022-12-14 18:45:40.178027, 1.63245
2022-12-14 18:45:40.211429, 1.62267
2022-12-14 18:45:40.211667, 1.61779
2022-12-14 18:45:40.211667, 1.63245
2022-12-14 18:45:40.245027, 1.61779
2022-12-14 18:45:40.245319, 1.61290
2022-12-14 18:45:40.245880, 1.60312
2022-12-14 18:45:40.278395, 1.60801
2022-12-14 18:45:40.278802, 1.62267
2022-12-14 18:45:40.312012, 1.62756
2022-12-14 18:45:40.312278, 1.65200
2022-12-14 18:45:40.312858, 1.62756
2022-12-14 18:45:40.345335, 1.64222
2022-12-14 18:45:40.346337, 1.64222
2022-12-14 18:45:40.346337, 1.63245
2022-12-14 18:45:40.379057, 1.63734
2022-12-14 18:45:40.379057, 1.64222
2022-12-14 18:45:40.412243, 1.64222
2022-12-14 18:45:40.412767, 1.63245
2022-12-14 18:45:40.413353, 1.63245
2022-12-14 18:45:40.444708, 1.63245
2022-12-14 18:45:40.445661, 1.63245
2022-12-14 18:45:40.445661, 1.61779
2022-12-14 18:45:40.479404, 1.63245
2022-12-14 18:45:40.479404, 1.63245
2022-12-14 18:45:40.512697, 1.63245
2022-12-14 18:45:40.512697, 1.63245
2022-12-14 18:45:40.513699, 1.60801
2022-12-14 18:45:40.546148, 1.61290
2022-12-14 18:45:40.546148, 1.61290
2022-12-14 18:45:40.547149, 1.60312
2022-12-14 18:45:40.580106, 1.60312
2022-12-14 18:45:40.580492, 1.60801
2022-12-14 18:45:40.613398, 1.61290
2022-12-14 18:45:40.613398, 1.59824
2022-12-14 18:45:40.614404, 1.59824
2022-12-14 18:45:40.647078, 1.59335
2022-12-14 18:45:40.647375, 1.59824
2022-12-14 18:45:40.647375, 1.58357
2022-12-14 18:45:40.680565, 1.58846
2022-12-14 18:45:40.680565, 1.58846
2022-12-14 18:45:40.714164, 1.59824
2022-12-14 18:45:40.714431, 1.60801
2022-12-14 18:45:40.715126, 1.56891
2022-12-14 18:45:40.747689, 1.56891
2022-12-14 18:45:40.747982, 1.57380
2022-12-14 18:45:40.747982, 1.56402
2022-12-14 18:45:40.781250, 1.58357
2022-12-14 18:45:40.781597, 1.61779
2022-12-14 18:45:40.814830, 1.66666
2022-12-14 18:45:40.814830, 1.69599
2022-12-14 18:45:40.815845, 1.70576
2022-12-14 18:45:40.848180, 1.71065
2022-12-14 18:45:40.848716, 1.71554
2022-12-14 18:45:40.848716, 1.69599
2022-12-14 18:45:40.881082, 1.68132
2022-12-14 18:45:40.881726, 1.68621
2022-12-14 18:45:40.915399, 1.66177
2022-12-14 18:45:40.916228, 1.63734
2022-12-14 18:45:40.916228, 1.62267
2022-12-14 18:45:40.948980, 1.62267
2022-12-14 18:45:40.949774, 1.62267
2022-12-14 18:45:40.950228, 1.61779
2022-12-14 18:45:40.982547, 1.60801
2022-12-14 18:45:40.983279, 1.60312
2022-12-14 18:45:41.016051, 1.60801
2022-12-14 18:45:41.016051, 1.60312
2022-12-14 18:45:41.017080, 1.59335
2022-12-14 18:45:41.049537, 1.58846
2022-12-14 18:45:41.049537, 1.59335
2022-12-14 18:45:41.050573, 1.59335
2022-12-14 18:45:41.083197, 1.59335
2022-12-14 18:45:41.083197, 1.61290
2022-12-14 18:45:41.116217, 1.63734
2022-12-14 18:45:41.116217, 1.60801
2022-12-14 18:45:41.117214, 1.60312
2022-12-14 18:45:41.149521, 1.61290
2022-12-14 18:45:41.149521, 1.62267
2022-12-14 18:45:41.150518, 1.62756
2022-12-14 18:45:41.183409, 1.62267
2022-12-14 18:45:41.183409, 1.62267
2022-12-14 18:45:41.216741, 1.63245
2022-12-14 18:45:41.216980, 1.63734
2022-12-14 18:45:41.216980, 1.62267
2022-12-14 18:45:41.250423, 1.62267
2022-12-14 18:45:41.250423, 1.62267
2022-12-14 18:45:41.251432, 1.63245
2022-12-14 18:45:41.283757, 1.62267
2022-12-14 18:45:41.284144, 1.62267
2022-12-14 18:45:41.317586, 1.62267
2022-12-14 18:45:41.317586, 1.62267
2022-12-14 18:45:41.318568, 1.60801
2022-12-14 18:45:41.350436, 1.61290
2022-12-14 18:45:41.351444, 1.61779
2022-12-14 18:45:41.351444, 1.61779
2022-12-14 18:45:41.383883, 1.60801
2022-12-14 18:45:41.384657, 1.60801
2022-12-14 18:45:41.418432, 1.61779
2022-12-14 18:45:41.418671, 1.61779
2022-12-14 18:45:41.418671, 1.61290
2022-12-14 18:45:41.451907, 1.60801
2022-12-14 18:45:41.452197, 1.61290
2022-12-14 18:45:41.452805, 1.62267
2022-12-14 18:45:41.485523, 1.60801
2022-12-14 18:45:41.485908, 1.60801
2022-12-14 18:45:41.519097, 1.61290
2022-12-14 18:45:41.519365, 1.61779
2022-12-14 18:45:41.519940, 1.61779
2022-12-14 18:45:41.552545, 1.62267
2022-12-14 18:45:41.552839, 1.64711
2022-12-14 18:45:41.552839, 1.69110
2022-12-14 18:45:41.585991, 1.71554
2022-12-14 18:45:41.586600, 1.73998
2022-12-14 18:45:41.618748, 1.76441
2022-12-14 18:45:41.618748, 1.77908
2022-12-14 18:45:41.619659, 1.80351
2022-12-14 18:45:41.652774, 1.78396
2022-12-14 18:45:41.653185, 1.77419
2022-12-14 18:45:41.653185, 1.75953
2022-12-14 18:45:41.686429, 1.73998
2022-12-14 18:45:41.686808, 1.71554
2022-12-14 18:45:41.720145, 1.71065
2022-12-14 18:45:41.720410, 1.71065
2022-12-14 18:45:41.721412, 1.73509
2022-12-14 18:45:41.753696, 1.69110
2022-12-14 18:45:41.754078, 1.70087
2022-12-14 18:45:41.754689, 1.69599
2022-12-14 18:45:41.787186, 1.69110
2022-12-14 18:45:41.787582, 1.68132
2022-12-14 18:45:41.820793, 1.68132
2022-12-14 18:45:41.821062, 1.68132
2022-12-14 18:45:41.822065, 1.68132
2022-12-14 18:45:41.854137, 1.66177
2022-12-14 18:45:41.854137, 1.65689
2022-12-14 18:45:41.855158, 1.66177
2022-12-14 18:45:41.887688, 1.66177
2022-12-14 18:45:41.888696, 1.66177
2022-12-14 18:45:41.920926, 1.66666
2022-12-14 18:45:41.921265, 1.65689
2022-12-14 18:45:41.921265, 1.66666
2022-12-14 18:45:41.953886, 1.65689
2022-12-14 18:45:41.954881, 1.66177
2022-12-14 18:45:41.954881, 1.67155
2022-12-14 18:45:41.987817, 1.67644
2022-12-14 18:45:41.987817, 1.67155
2022-12-14 18:45:42.021561, 1.66666
2022-12-14 18:45:42.021844, 1.66666
2022-12-14 18:45:42.022846, 1.67644
2022-12-14 18:45:42.055492, 1.66666
2022-12-14 18:45:42.055810, 1.66177
2022-12-14 18:45:42.056813, 1.66177
2022-12-14 18:45:42.088899, 1.66666
2022-12-14 18:45:42.089242, 1.65200
2022-12-14 18:45:42.122406, 1.64222
2022-12-14 18:45:42.122669, 1.65200
2022-12-14 18:45:42.123669, 1.65689
2022-12-14 18:45:42.155826, 1.64711
2022-12-14 18:45:42.156585, 1.64222
2022-12-14 18:45:42.156585, 1.66666
2022-12-14 18:45:42.189024, 1.66177
2022-12-14 18:45:42.189024, 1.64711
2022-12-14 18:45:42.223100, 1.61779
2022-12-14 18:45:42.223100, 1.61779
2022-12-14 18:45:42.224100, 1.62756
2022-12-14 18:45:42.256565, 1.62267
2022-12-14 18:45:42.256908, 1.62267
2022-12-14 18:45:42.256908, 1.62756
2022-12-14 18:45:42.290111, 1.64711
2022-12-14 18:45:42.290453, 1.66666
2022-12-14 18:45:42.323663, 1.69110
2022-12-14 18:45:42.323933, 1.73020
2022-12-14 18:45:42.324508, 1.78396
2022-12-14 18:45:42.357199, 1.79863
2022-12-14 18:45:42.357533, 1.80351
2022-12-14 18:45:42.358140, 1.80840
2022-12-14 18:45:42.390627, 1.81329
2022-12-14 18:45:42.390627, 1.79374
2022-12-14 18:45:42.423611, 1.77419
2022-12-14 18:45:42.423611, 1.74975
2022-12-14 18:45:42.424621, 1.74486
2022-12-14 18:45:42.457890, 1.73020
2022-12-14 18:45:42.458216, 1.70576
2022-12-14 18:45:42.459219, 1.70087
2022-12-14 18:45:42.491401, 1.70087
2022-12-14 18:45:42.491748, 1.69599
2022-12-14 18:45:42.524901, 1.67644
2022-12-14 18:45:42.525189, 1.68132
2022-12-14 18:45:42.526191, 1.68621
2022-12-14 18:45:42.558470, 1.67644
2022-12-14 18:45:42.558802, 1.66666
2022-12-14 18:45:42.559364, 1.66177
2022-12-14 18:45:42.592037, 1.69110
2022-12-14 18:45:42.592426, 1.66177
2022-12-14 18:45:42.625375, 1.64711
2022-12-14 18:45:42.625375, 1.64711
2022-12-14 18:45:42.626377, 1.65689
2022-12-14 18:45:42.658140, 1.69599
2022-12-14 18:45:42.659180, 1.66177
2022-12-14 18:45:42.659180, 1.66177
2022-12-14 18:45:42.692462, 1.67155
2022-12-14 18:45:42.692808, 1.68132
2022-12-14 18:45:42.726055, 1.67155
2022-12-14 18:45:42.726296, 1.66666
2022-12-14 18:45:42.726296, 1.69110
2022-12-14 18:45:42.759581, 1.71065
2022-12-14 18:45:42.759870, 1.69110
2022-12-14 18:45:42.759870, 1.68132
2022-12-14 18:45:42.793338, 1.66177
2022-12-14 18:45:42.793724, 1.66666
2022-12-14 18:45:42.826800, 1.65689
2022-12-14 18:45:42.827063, 1.65200
2022-12-14 18:45:42.827734, 1.65200
2022-12-14 18:45:42.859301, 1.66177
2022-12-14 18:45:42.860299, 1.65689
2022-12-14 18:45:42.860299, 1.65200
2022-12-14 18:45:42.893683, 1.65200
2022-12-14 18:45:42.894176, 1.65689
2022-12-14 18:45:42.926039, 1.64711
2022-12-14 18:45:42.927067, 1.63734
2022-12-14 18:45:42.927067, 1.63245
2022-12-14 18:45:42.960635, 1.63734
2022-12-14 18:45:42.960635, 1.63245
2022-12-14 18:45:42.961668, 1.63734
2022-12-14 18:45:42.994475, 1.64711
2022-12-14 18:45:42.994860, 1.68132
2022-12-14 18:45:43.027988, 1.70087
2022-12-14 18:45:43.028262, 1.73020
2022-12-14 18:45:43.028262, 1.74975
2022-12-14 18:45:43.061515, 1.79374
2022-12-14 18:45:43.061848, 1.77908
2022-12-14 18:45:43.062372, 1.77908
2022-12-14 18:45:43.094959, 1.77419
2022-12-14 18:45:43.095304, 1.77419
2022-12-14 18:45:43.128540, 1.76441
2022-12-14 18:45:43.128540, 1.73998
2022-12-14 18:45:43.129541, 1.73509
2022-12-14 18:45:43.161884, 1.75464
2022-12-14 18:45:43.161884, 1.72043
2022-12-14 18:45:43.162887, 1.70576
2022-12-14 18:45:43.194680, 1.71065
2022-12-14 18:45:43.195718, 1.69110
2022-12-14 18:45:43.228864, 1.67155
2022-12-14 18:45:43.228864, 1.64711
2022-12-14 18:45:43.229867, 1.63734
2022-12-14 18:45:43.262556, 1.65689
2022-12-14 18:45:43.262849, 1.63245
2022-12-14 18:45:43.262849, 1.61290
2022-12-14 18:45:43.296243, 1.63245
2022-12-14 18:45:43.296629, 1.60312
2022-12-14 18:45:43.329818, 1.60801
2022-12-14 18:45:43.330057, 1.60801
2022-12-14 18:45:43.330574, 1.60801
2022-12-14 18:45:43.363254, 1.62267
2022-12-14 18:45:43.363594, 1.64222
2022-12-14 18:45:43.363594, 1.63734
2022-12-14 18:45:43.396793, 1.65200
2022-12-14 18:45:43.397167, 1.65200
2022-12-14 18:45:43.430187, 1.69110
2022-12-14 18:45:43.430187, 1.64711
2022-12-14 18:45:43.431188, 1.64222
2022-12-14 18:45:43.463603, 1.65200
2022-12-14 18:45:43.463603, 1.68621
2022-12-14 18:45:43.463603, 1.64222
2022-12-14 18:45:43.497172, 1.63734
2022-12-14 18:45:43.497549, 1.63734
2022-12-14 18:45:43.530773, 1.64711
2022-12-14 18:45:43.531011, 1.64222
2022-12-14 18:45:43.531620, 1.63734
2022-12-14 18:45:43.564374, 1.64222
2022-12-14 18:45:43.564665, 1.64711
2022-12-14 18:45:43.564665, 1.63734
2022-12-14 18:45:43.597853, 1.63245
2022-12-14 18:45:43.597853, 1.61779
2022-12-14 18:45:43.631619, 1.62267
2022-12-14 18:45:43.631856, 1.61290
2022-12-14 18:45:43.631856, 1.60801
2022-12-14 18:45:43.664851, 1.61290
2022-12-14 18:45:43.664851, 1.62267
2022-12-14 18:45:43.665890, 1.61290
2022-12-14 18:45:43.697788, 1.64711
2022-12-14 18:45:43.698798, 1.64711
2022-12-14 18:45:43.731386, 1.68621
2022-12-14 18:45:43.731386, 1.71554
2022-12-14 18:45:43.731386, 1.73509
2022-12-14 18:45:43.765613, 1.76441
2022-12-14 18:45:43.765945, 1.76930
2022-12-14 18:45:43.765945, 1.76441
2022-12-14 18:45:43.799184, 1.74486
2022-12-14 18:45:43.799525, 1.73020
2022-12-14 18:45:43.832660, 1.72043
2022-12-14 18:45:43.833447, 1.71065
2022-12-14 18:45:43.833788, 1.68132
2022-12-14 18:45:43.866258, 1.66177
2022-12-14 18:45:43.867045, 1.64711
2022-12-14 18:45:43.867045, 1.62756
2022-12-14 18:45:43.899732, 1.60312
2022-12-14 18:45:43.899732, 1.60312
2022-12-14 18:45:43.933185, 1.61290
2022-12-14 18:45:43.933877, 1.61779
2022-12-14 18:45:43.933877, 1.61290
2022-12-14 18:45:43.965796, 1.62267
2022-12-14 18:45:43.966805, 1.64711
2022-12-14 18:45:43.966805, 1.67155
2022-12-14 18:45:43.999079, 1.63245
2022-12-14 18:45:44.000036, 1.62756
2022-12-14 18:45:44.033659, 1.62756
2022-12-14 18:45:44.033659, 1.62756
2022-12-14 18:45:44.034697, 1.61290
2022-12-14 18:45:44.067169, 1.61779
2022-12-14 18:45:44.067542, 1.62756
2022-12-14 18:45:44.067542, 1.63734
2022-12-14 18:45:44.100776, 1.63245
2022-12-14 18:45:44.101388, 1.63734
2022-12-14 18:45:44.134313, 1.64222
2022-12-14 18:45:44.134646, 1.64711
2022-12-14 18:45:44.134646, 1.63734
2022-12-14 18:45:44.167512, 1.64711
2022-12-14 18:45:44.167512, 1.66177
2022-12-14 18:45:44.168520, 1.65689
2022-12-14 18:45:44.200443, 1.65689
2022-12-14 18:45:44.201439, 1.65200
2022-12-14 18:45:44.234766, 1.66666
2022-12-14 18:45:44.235078, 1.70087
2022-12-14 18:45:44.235078, 1.68132
2022-12-14 18:45:44.268547, 1.68621
2022-12-14 18:45:44.268837, 1.66666
2022-12-14 18:45:44.268837, 1.68132
2022-12-14 18:45:44.302014, 1.66666
2022-12-14 18:45:44.302386, 1.65200
2022-12-14 18:45:44.335176, 1.65200
2022-12-14 18:45:44.335458, 1.65689
2022-12-14 18:45:44.335986, 1.64711
2022-12-14 18:45:44.369031, 1.64711
2022-12-14 18:45:44.369031, 1.64711
2022-12-14 18:45:44.370064, 1.65689
2022-12-14 18:45:44.402448, 1.65200
2022-12-14 18:45:44.403116, 1.65689
2022-12-14 18:45:44.435715, 1.68621
2022-12-14 18:45:44.436036, 1.72043
2022-12-14 18:45:44.436036, 1.74486
2022-12-14 18:45:44.469627, 1.75953
2022-12-14 18:45:44.469918, 1.76441
2022-12-14 18:45:44.469918, 1.76930
2022-12-14 18:45:44.503091, 1.75464
2022-12-14 18:45:44.503435, 1.73020
2022-12-14 18:45:44.536664, 1.71554
2022-12-14 18:45:44.536902, 1.71065
2022-12-14 18:45:44.536902, 1.69599
2022-12-14 18:45:44.570274, 1.66666
2022-12-14 18:45:44.570565, 1.67155
2022-12-14 18:45:44.570565, 1.67155
2022-12-14 18:45:44.603656, 1.68621
2022-12-14 18:45:44.603656, 1.67644
2022-12-14 18:45:44.637313, 1.68621
2022-12-14 18:45:44.637610, 1.70087
2022-12-14 18:45:44.638612, 1.69599
2022-12-14 18:45:44.670646, 1.64711
2022-12-14 18:45:44.671712, 1.63734
2022-12-14 18:45:44.672705, 1.63245
2022-12-14 18:45:44.704345, 1.63245
2022-12-14 18:45:44.704688, 1.62267
2022-12-14 18:45:44.737773, 1.62267
2022-12-14 18:45:44.737773, 1.63734
2022-12-14 18:45:44.738773, 1.64711
2022-12-14 18:45:44.771477, 1.63734
2022-12-14 18:45:44.771867, 1.64222
2022-12-14 18:45:44.772869, 1.65689
2022-12-14 18:45:44.805028, 1.66177
2022-12-14 18:45:44.805464, 1.66177
2022-12-14 18:45:44.838439, 1.68621
2022-12-14 18:45:44.838439, 1.67644
2022-12-14 18:45:44.839439, 1.66177
2022-12-14 18:45:44.872092, 1.65689
2022-12-14 18:45:44.872420, 1.61779
2022-12-14 18:45:44.872969, 1.61290
2022-12-14 18:45:44.905489, 1.62267
2022-12-14 18:45:44.905932, 1.61290
2022-12-14 18:45:44.938930, 1.60801
2022-12-14 18:45:44.938930, 1.60801
2022-12-14 18:45:44.939932, 1.62267
2022-12-14 18:45:44.971654, 1.61779
2022-12-14 18:45:44.972662, 1.63734
2022-12-14 18:45:44.973657, 1.63734
2022-12-14 18:45:45.005501, 1.64222
2022-12-14 18:45:45.006503, 1.59824
2022-12-14 18:45:45.039224, 1.58357
2022-12-14 18:45:45.039508, 1.58357
2022-12-14 18:45:45.039508, 1.59335
2022-12-14 18:45:45.073144, 1.58846
2022-12-14 18:45:45.073434, 1.58357
2022-12-14 18:45:45.074098, 1.59335
2022-12-14 18:45:45.106639, 1.61779
2022-12-14 18:45:45.106983, 1.62756
2022-12-14 18:45:45.140222, 1.64222
2022-12-14 18:45:45.140222, 1.68132
2022-12-14 18:45:45.141223, 1.71554
2022-12-14 18:45:45.173652, 1.73509
2022-12-14 18:45:45.173945, 1.73509
2022-12-14 18:45:45.174946, 1.73509
2022-12-14 18:45:45.207213, 1.73020
2022-12-14 18:45:45.207604, 1.70576
2022-12-14 18:45:45.240734, 1.67155
2022-12-14 18:45:45.241012, 1.66177
2022-12-14 18:45:45.242014, 1.64222
2022-12-14 18:45:45.273415, 1.63734
2022-12-14 18:45:45.274408, 1.62756
2022-12-14 18:45:45.274408, 1.62756
2022-12-14 18:45:45.307846, 1.63245
2022-12-14 18:45:45.307846, 1.63245
2022-12-14 18:45:45.341224, 1.61779
2022-12-14 18:45:45.341224, 1.61290
2022-12-14 18:45:45.342225, 1.61779
2022-12-14 18:45:45.374903, 1.61779
2022-12-14 18:45:45.374903, 1.60312
2022-12-14 18:45:45.375907, 1.60312
2022-12-14 18:45:45.408020, 1.60312
2022-12-14 18:45:45.408020, 1.61290
2022-12-14 18:45:45.441624, 1.62756
2022-12-14 18:45:45.441894, 1.61779
2022-12-14 18:45:45.442895, 1.61290
2022-12-14 18:45:45.475534, 1.61290
2022-12-14 18:45:45.475856, 1.60312
2022-12-14 18:45:45.475856, 1.61290
2022-12-14 18:45:45.509054, 1.61779
2022-12-14 18:45:45.510057, 1.62267
2022-12-14 18:45:45.541819, 1.61779
2022-12-14 18:45:45.542821, 1.61779
2022-12-14 18:45:45.542821, 1.62267
2022-12-14 18:45:45.575469, 1.62267
2022-12-14 18:45:45.575469, 1.60801
2022-12-14 18:45:45.576467, 1.59824
2022-12-14 18:45:45.609678, 1.59824
2022-12-14 18:45:45.610055, 1.60312
2022-12-14 18:45:45.643171, 1.59335
2022-12-14 18:45:45.643445, 1.59335
2022-12-14 18:45:45.643445, 1.59335
2022-12-14 18:45:45.676650, 1.60312
2022-12-14 18:45:45.676944, 1.59824
2022-12-14 18:45:45.677417, 1.60312
2022-12-14 18:45:45.710202, 1.61290
2022-12-14 18:45:45.710546, 1.61779
2022-12-14 18:45:45.743785, 1.61290
2022-12-14 18:45:45.744068, 1.63245
2022-12-14 18:45:45.744591, 1.59824
2022-12-14 18:45:45.777206, 1.63734
2022-12-14 18:45:45.777206, 1.59335
2022-12-14 18:45:45.778206, 1.58846
2022-12-14 18:45:45.810742, 1.59824
2022-12-14 18:45:45.810742, 1.61779
2022-12-14 18:45:45.844326, 1.62267
2022-12-14 18:45:45.844565, 1.61779
2022-12-14 18:45:45.844565, 1.62756
2022-12-14 18:45:45.877910, 1.64711
2022-12-14 18:45:45.878202, 1.66666
2022-12-14 18:45:45.878202, 1.68621
2022-12-14 18:45:45.911426, 1.71554
2022-12-14 18:45:45.911772, 1.74975
2022-12-14 18:45:45.945145, 1.79374
2022-12-14 18:45:45.945410, 1.75953
2022-12-14 18:45:45.945410, 1.74486
2022-12-14 18:45:45.978702, 1.74486
2022-12-14 18:45:45.979023, 1.72531
2022-12-14 18:45:45.979706, 1.70087
2022-12-14 18:45:46.012208, 1.72043
2022-12-14 18:45:46.012552, 1.69110
2022-12-14 18:45:46.045790, 1.68621
2022-12-14 18:45:46.045790, 1.66666
2022-12-14 18:45:46.046795, 1.66177
2022-12-14 18:45:46.078633, 1.66177
2022-12-14 18:45:46.078633, 1.65689
2022-12-14 18:45:46.079506, 1.64222
2022-12-14 18:45:46.112240, 1.62756
2022-12-14 18:45:46.112667, 1.62756
2022-12-14 18:45:46.146277, 1.62267
2022-12-14 18:45:46.146514, 1.60801
2022-12-14 18:45:46.146514, 1.60801
2022-12-14 18:45:46.178505, 1.62267
2022-12-14 18:45:46.179506, 1.59824
2022-12-14 18:45:46.179506, 1.57869
2022-12-14 18:45:46.212296, 1.58357
2022-12-14 18:45:46.213292, 1.59335
2022-12-14 18:45:46.246822, 1.60801
2022-12-14 18:45:46.247060, 1.61779
2022-12-14 18:45:46.247060, 1.60801
2022-12-14 18:45:46.280390, 1.61779
2022-12-14 18:45:46.280968, 1.62756
2022-12-14 18:45:46.281971, 1.63245
2022-12-14 18:45:46.313511, 1.61290
2022-12-14 18:45:46.313511, 1.60801
2022-12-14 18:45:46.346870, 1.61290
2022-12-14 18:45:46.346870, 1.60312
2022-12-14 18:45:46.347624, 1.59824
2022-12-14 18:45:46.380954, 1.58846
2022-12-14 18:45:46.381247, 1.59335
2022-12-14 18:45:46.381850, 1.58357
2022-12-14 18:45:46.414571, 1.56891
2022-12-14 18:45:46.414920, 1.57869
2022-12-14 18:45:46.448219, 1.57380
2022-12-14 18:45:46.448456, 1.56891
2022-12-14 18:45:46.448456, 1.56402
2022-12-14 18:45:46.481684, 1.58846
2022-12-14 18:45:46.481976, 1.56891
2022-12-14 18:45:46.482541, 1.56402
2022-12-14 18:45:46.515143, 1.58357
2022-12-14 18:45:46.515517, 1.55425
2022-12-14 18:45:46.548473, 1.56402
2022-12-14 18:45:46.549256, 1.57869
2022-12-14 18:45:46.549256, 1.54936
2022-12-14 18:45:46.582034, 1.54936
2022-12-14 18:45:46.582034, 1.58357
2022-12-14 18:45:46.583035, 1.55913
2022-12-14 18:45:46.615143, 1.54936
2022-12-14 18:45:46.616171, 1.55425
2022-12-14 18:45:46.648781, 1.56402
2022-12-14 18:45:46.648781, 1.55913
2022-12-14 18:45:46.648781, 1.55913
2022-12-14 18:45:46.682612, 1.56402
2022-12-14 18:45:46.682933, 1.58846
2022-12-14 18:45:46.683935, 1.62756
2022-12-14 18:45:46.716203, 1.62267
2022-12-14 18:45:46.716574, 1.66177
2022-12-14 18:45:46.749604, 1.70576
2022-12-14 18:45:46.749604, 1.73998
2022-12-14 18:45:46.750610, 1.74486
2022-12-14 18:45:46.783347, 1.74975
2022-12-14 18:45:46.783347, 1.73509
2022-12-14 18:45:46.784348, 1.72043
2022-12-14 18:45:46.816888, 1.69110
2022-12-14 18:45:46.817233, 1.67644
2022-12-14 18:45:46.849998, 1.67644
2022-12-14 18:45:46.849998, 1.70087
2022-12-14 18:45:46.851033, 1.67155
2022-12-14 18:45:46.883833, 1.65200
2022-12-14 18:45:46.883833, 1.64711
2022-12-14 18:45:46.884834, 1.64711
2022-12-14 18:45:46.916209, 1.63245
2022-12-14 18:45:46.917175, 1.62756
2022-12-14 18:45:46.950381, 1.63245
2022-12-14 18:45:46.950381, 1.63245
2022-12-14 18:45:46.951378, 1.61779
2022-12-14 18:45:46.984254, 1.60312
2022-12-14 18:45:46.985069, 1.60312
2022-12-14 18:45:46.985410, 1.60312
2022-12-14 18:45:47.017815, 1.59335
2022-12-14 18:45:47.018548, 1.59335
2022-12-14 18:45:47.050695, 1.59824
2022-12-14 18:45:47.051703, 1.60801
2022-12-14 18:45:47.052468, 1.60312
2022-12-14 18:45:47.085234, 1.60801
2022-12-14 18:45:47.085234, 1.62267
2022-12-14 18:45:47.085934, 1.63734
2022-12-14 18:45:47.118569, 1.62267
2022-12-14 18:45:47.118569, 1.60801
2022-12-14 18:45:47.152126, 1.60801
2022-12-14 18:45:47.152126, 1.61290
2022-12-14 18:45:47.153121, 1.60312
2022-12-14 18:45:47.184665, 1.59335
2022-12-14 18:45:47.185673, 1.59335
2022-12-14 18:45:47.185673, 1.60312
2022-12-14 18:45:47.218531, 1.60312
2022-12-14 18:45:47.219185, 1.59824
2022-12-14 18:45:47.252442, 1.60312
2022-12-14 18:45:47.252716, 1.61290
2022-12-14 18:45:47.252716, 1.61779
2022-12-14 18:45:47.286206, 1.62756
2022-12-14 18:45:47.286528, 1.63245
2022-12-14 18:45:47.286528, 1.61290
2022-12-14 18:45:47.319617, 1.60801
2022-12-14 18:45:47.319963, 1.59824
2022-12-14 18:45:47.353042, 1.59824
2022-12-14 18:45:47.353320, 1.60312
2022-12-14 18:45:47.353320, 1.59824
2022-12-14 18:45:47.386703, 1.58846
2022-12-14 18:45:47.387023, 1.58357
2022-12-14 18:45:47.388025, 1.61290
2022-12-14 18:45:47.420344, 1.59824
2022-12-14 18:45:47.421342, 1.59335
2022-12-14 18:45:47.453036, 1.60312
2022-12-14 18:45:47.453036, 1.62267
2022-12-14 18:45:47.454044, 1.62267
2022-12-14 18:45:47.487282, 1.61290
2022-12-14 18:45:47.487598, 1.63245
2022-12-14 18:45:47.488272, 1.67155
2022-12-14 18:45:47.520837, 1.71065
2022-12-14 18:45:47.521208, 1.70087
2022-12-14 18:45:47.554346, 1.73509
2022-12-14 18:45:47.554586, 1.74975
2022-12-14 18:45:47.554586, 1.76441
2022-12-14 18:45:47.587892, 1.75464
2022-12-14 18:45:47.587892, 1.74486
2022-12-14 18:45:47.588892, 1.73998
2022-12-14 18:45:47.621360, 1.73509
2022-12-14 18:45:47.621360, 1.73020
2022-12-14 18:45:47.654999, 1.70087
2022-12-14 18:45:47.655266, 1.69599
2022-12-14 18:45:47.656269, 1.69110
2022-12-14 18:45:47.688454, 1.67155
2022-12-14 18:45:47.689171, 1.66666
2022-12-14 18:45:47.690173, 1.66177
2022-12-14 18:45:47.721387, 1.66177
2022-12-14 18:45:47.721387, 1.64222
2022-12-14 18:45:47.755501, 1.63245
2022-12-14 18:45:47.755741, 1.63734
2022-12-14 18:45:47.756742, 1.64711
2022-12-14 18:45:47.789148, 1.63245
2022-12-14 18:45:47.789468, 1.65200
2022-12-14 18:45:47.790471, 1.65200
2022-12-14 18:45:47.822739, 1.63245
2022-12-14 18:45:47.823186, 1.63734
2022-12-14 18:45:47.856236, 1.64222
2022-12-14 18:45:47.856555, 1.65200
2022-12-14 18:45:47.857293, 1.67644
2022-12-14 18:45:47.889802, 1.69599
2022-12-14 18:45:47.890099, 1.68132
2022-12-14 18:45:47.890099, 1.68132
2022-12-14 18:45:47.923426, 1.70087
2022-12-14 18:45:47.923798, 1.68132
2022-12-14 18:45:47.956819, 1.66666
2022-12-14 18:45:47.957087, 1.66666
2022-12-14 18:45:47.957654, 1.67155
2022-12-14 18:45:47.990269, 1.66177
2022-12-14 18:45:47.990611, 1.64711
2022-12-14 18:45:47.991083, 1.64711
2022-12-14 18:45:48.023425, 1.64711
2022-12-14 18:45:48.023994, 1.64711
2022-12-14 18:45:48.056360, 1.63734
2022-12-14 18:45:48.057347, 1.63734
2022-12-14 18:45:48.057347, 1.64222
2022-12-14 18:45:48.090901, 1.64711
2022-12-14 18:45:48.091193, 1.63734
2022-12-14 18:45:48.091193, 1.63734
2022-12-14 18:45:48.124428, 1.64222
2022-12-14 18:45:48.124816, 1.63734
2022-12-14 18:45:48.157923, 1.62267
2022-12-14 18:45:48.158208, 1.62267
2022-12-14 18:45:48.158208, 1.62756
2022-12-14 18:45:48.191396, 1.63245
2022-12-14 18:45:48.191686, 1.62267
2022-12-14 18:45:48.192243, 1.62267
2022-12-14 18:45:48.224951, 1.62756
2022-12-14 18:45:48.225338, 1.63245
2022-12-14 18:45:48.258462, 1.62267
2022-12-14 18:45:48.258700, 1.62756
2022-12-14 18:45:48.259165, 1.64222
2022-12-14 18:45:48.291981, 1.67155
2022-12-14 18:45:48.291981, 1.70087
2022-12-14 18:45:48.293008, 1.73509
2022-12-14 18:45:48.325572, 1.77908
2022-12-14 18:45:48.325572, 1.80840
2022-12-14 18:45:48.359063, 1.80840
2022-12-14 18:45:48.359301, 1.80351
2022-12-14 18:45:48.359917, 1.83773
2022-12-14 18:45:48.392643, 1.80351
2022-12-14 18:45:48.392934, 1.76930
2022-12-14 18:45:48.392934, 1.74975
2022-12-14 18:45:48.426176, 1.73509
2022-12-14 18:45:48.426522, 1.72531
2022-12-14 18:45:48.459744, 1.71065
2022-12-14 18:45:48.459981, 1.69110
2022-12-14 18:45:48.460592, 1.68621
2022-12-14 18:45:48.493249, 1.71554
2022-12-14 18:45:48.493541, 1.69110
2022-12-14 18:45:48.494017, 1.68621
2022-12-14 18:45:48.526797, 1.66177
2022-12-14 18:45:48.527140, 1.67155
2022-12-14 18:45:48.560363, 1.66177
2022-12-14 18:45:48.560601, 1.65200
2022-12-14 18:45:48.560601, 1.65200
2022-12-14 18:45:48.593779, 1.65689
2022-12-14 18:45:48.594468, 1.65689
2022-12-14 18:45:48.594468, 1.66666
2022-12-14 18:45:48.627046, 1.64711
2022-12-14 18:45:48.627046, 1.66177
2022-12-14 18:45:48.660996, 1.65689
2022-12-14 18:45:48.661233, 1.65689
2022-12-14 18:45:48.661233, 1.66177
2022-12-14 18:45:48.694692, 1.68132
2022-12-14 18:45:48.695020, 1.69110
2022-12-14 18:45:48.695630, 1.66666
2022-12-14 18:45:48.727996, 1.67155
2022-12-14 18:45:48.728341, 1.67644
2022-12-14 18:45:48.761749, 1.67644
2022-12-14 18:45:48.762027, 1.66666
2022-12-14 18:45:48.762494, 1.66177
2022-12-14 18:45:48.795216, 1.66666
2022-12-14 18:45:48.795513, 1.67155
2022-12-14 18:45:48.795513, 1.65200
2022-12-14 18:45:48.828714, 1.64711
2022-12-14 18:45:48.828714, 1.66666
2022-12-14 18:45:48.862179, 1.66177
2022-12-14 18:45:48.862777, 1.63245
2022-12-14 18:45:48.862777, 1.62756
2022-12-14 18:45:48.894973, 1.63245
2022-12-14 18:45:48.894973, 1.63734
2022-12-14 18:45:48.895976, 1.61779
2022-12-14 18:45:48.928100, 1.62267
2022-12-14 18:45:48.929097, 1.62756
2022-12-14 18:45:48.962810, 1.64711
2022-12-14 18:45:48.963076, 1.64222
2022-12-14 18:45:48.964079, 1.61779
2022-12-14 18:45:48.996318, 1.61779
2022-12-14 18:45:48.996613, 1.61779
2022-12-14 18:45:48.997138, 1.60801
2022-12-14 18:45:49.029858, 1.61290
2022-12-14 18:45:49.030229, 1.62756
2022-12-14 18:45:49.063572, 1.61779
2022-12-14 18:45:49.063837, 1.60801
2022-12-14 18:45:49.064407, 1.60801
2022-12-14 18:45:49.097067, 1.61290
2022-12-14 18:45:49.097389, 1.62267
2022-12-14 18:45:49.097389, 1.63734
2022-12-14 18:45:49.130496, 1.67155
2022-12-14 18:45:49.130900, 1.71554
2022-12-14 18:45:49.162708, 1.75953
2022-12-14 18:45:49.163717, 1.78396
2022-12-14 18:45:49.163717, 1.80351
2022-12-14 18:45:49.197388, 1.81329
2022-12-14 18:45:49.197388, 1.83284
2022-12-14 18:45:49.198340, 1.79863
2022-12-14 18:45:49.231102, 1.77908
2022-12-14 18:45:49.231445, 1.75953
2022-12-14 18:45:49.264675, 1.74975
2022-12-14 18:45:49.264913, 1.73020
2022-12-14 18:45:49.265521, 1.73509
2022-12-14 18:45:49.298071, 1.69599
2022-12-14 18:45:49.298071, 1.69110
2022-12-14 18:45:49.299017, 1.68132
2022-12-14 18:45:49.331606, 1.66666
2022-12-14 18:45:49.331995, 1.66177
2022-12-14 18:45:49.365033, 1.67155
2022-12-14 18:45:49.365033, 1.66177
2022-12-14 18:45:49.365841, 1.66177
2022-12-14 18:45:49.398180, 1.64222
2022-12-14 18:45:49.399220, 1.64711
2022-12-14 18:45:49.399220, 1.64711
2022-12-14 18:45:49.431575, 1.62756
2022-12-14 18:45:49.431575, 1.62756
2022-12-14 18:45:49.465551, 1.63245
2022-12-14 18:45:49.465789, 1.63734
2022-12-14 18:45:49.465789, 1.63734
2022-12-14 18:45:49.498124, 1.63245
2022-12-14 18:45:49.499074, 1.67644
2022-12-14 18:45:49.499074, 1.65200
2022-12-14 18:45:49.532825, 1.64222
2022-12-14 18:45:49.533175, 1.64711
2022-12-14 18:45:49.566319, 1.65689
2022-12-14 18:45:49.566555, 1.66177
2022-12-14 18:45:49.567019, 1.66177
2022-12-14 18:45:49.599866, 1.64222
2022-12-14 18:45:49.600204, 1.64711
2022-12-14 18:45:49.600875, 1.64711
2022-12-14 18:45:49.633493, 1.63734
2022-12-14 18:45:49.634041, 1.63734
2022-12-14 18:45:49.665664, 1.63734
2022-12-14 18:45:49.666672, 1.64222
2022-12-14 18:45:49.666672, 1.63734
2022-12-14 18:45:49.700412, 1.63245
2022-12-14 18:45:49.700702, 1.62756
2022-12-14 18:45:49.700702, 1.63245
2022-12-14 18:45:49.734039, 1.62267
2022-12-14 18:45:49.734383, 1.61779
2022-12-14 18:45:49.767633, 1.62267
2022-12-14 18:45:49.767873, 1.63734
2022-12-14 18:45:49.767873, 1.63245
2022-12-14 18:45:49.801208, 1.61290
2022-12-14 18:45:49.801498, 1.61290
2022-12-14 18:45:49.801498, 1.62267
2022-12-14 18:45:49.834648, 1.61290
2022-12-14 18:45:49.835414, 1.60801
2022-12-14 18:45:49.868019, 1.61290
2022-12-14 18:45:49.868019, 1.62267
2022-12-14 18:45:49.869020, 1.61779
2022-12-14 18:45:49.901802, 1.60312
2022-12-14 18:45:49.901802, 1.60801
2022-12-14 18:45:49.902805, 1.61779
2022-12-14 18:45:49.934752, 1.61290
2022-12-14 18:45:49.934752, 1.60312
2022-12-14 18:45:49.968555, 1.60801
2022-12-14 18:45:49.969488, 1.62756
2022-12-14 18:45:49.969755, 1.64711
2022-12-14 18:45:50.002213, 1.67644
2022-12-14 18:45:50.002974, 1.72531
2022-12-14 18:45:50.002974, 1.76930
2022-12-14 18:45:50.035548, 1.79863
2022-12-14 18:45:50.035548, 1.80351
2022-12-14 18:45:50.069352, 1.80840
2022-12-14 18:45:50.069352, 1.81329
2022-12-14 18:45:50.070360, 1.79863
2022-12-14 18:45:50.102948, 1.76930
2022-12-14 18:45:50.102948, 1.76441
2022-12-14 18:45:50.103950, 1.74486
2022-12-14 18:45:50.135769, 1.72531
2022-12-14 18:45:50.135769, 1.70087
2022-12-14 18:45:50.168961, 1.69110
2022-12-14 18:45:50.169968, 1.69110
2022-12-14 18:45:50.169968, 1.68621
2022-12-14 18:45:50.202362, 1.66177
2022-12-14 18:45:50.203065, 1.66177
2022-12-14 18:45:50.203065, 1.66177
2022-12-14 18:45:50.236828, 1.66666
2022-12-14 18:45:50.236828, 1.63734
2022-12-14 18:45:50.269827, 1.63245
2022-12-14 18:45:50.270857, 1.63734
2022-12-14 18:45:50.271043, 1.63734
2022-12-14 18:45:50.303465, 1.62267
2022-12-14 18:45:50.303465, 1.61779
2022-12-14 18:45:50.304475, 1.62267
2022-12-14 18:45:50.336838, 1.63245
2022-12-14 18:45:50.337318, 1.61779
2022-12-14 18:45:50.370997, 1.62267
2022-12-14 18:45:50.371264, 1.63245
2022-12-14 18:45:50.371959, 1.63734
2022-12-14 18:45:50.404381, 1.63734
2022-12-14 18:45:50.405184, 1.63734
2022-12-14 18:45:50.405184, 1.64222
2022-12-14 18:45:50.437372, 1.64711
2022-12-14 18:45:50.438368, 1.66666
2022-12-14 18:45:50.471717, 1.63734
2022-12-14 18:45:50.471996, 1.63734
2022-12-14 18:45:50.471996, 1.64711
2022-12-14 18:45:50.505134, 1.66177
2022-12-14 18:45:50.505134, 1.62756
2022-12-14 18:45:50.506088, 1.62756
2022-12-14 18:45:50.538641, 1.63245
2022-12-14 18:45:50.538984, 1.62267
2022-12-14 18:45:50.572244, 1.62267
2022-12-14 18:45:50.572535, 1.64222
2022-12-14 18:45:50.573149, 1.62756
2022-12-14 18:45:50.605715, 1.61779
2022-12-14 18:45:50.606043, 1.61290
2022-12-14 18:45:50.606598, 1.61290
2022-12-14 18:45:50.639239, 1.61779
2022-12-14 18:45:50.639693, 1.61290
2022-12-14 18:45:50.672761, 1.60801
2022-12-14 18:45:50.672999, 1.61290
2022-12-14 18:45:50.673474, 1.62756
2022-12-14 18:45:50.706393, 1.64222
2022-12-14 18:45:50.707401, 1.60312
2022-12-14 18:45:50.707401, 1.60312
2022-12-14 18:45:50.739460, 1.60801
2022-12-14 18:45:50.739460, 1.60801
2022-12-14 18:45:50.773514, 1.60312
2022-12-14 18:45:50.773757, 1.60801
2022-12-14 18:45:50.774759, 1.61779
2022-12-14 18:45:50.806876, 1.60801
2022-12-14 18:45:50.807168, 1.59824
2022-12-14 18:45:50.807168, 1.60801
2022-12-14 18:45:50.840461, 1.63734
2022-12-14 18:45:50.840902, 1.66666
2022-12-14 18:45:50.873996, 1.69599
2022-12-14 18:45:50.874333, 1.73509
2022-12-14 18:45:50.874845, 1.77908
2022-12-14 18:45:50.907602, 1.80351
2022-12-14 18:45:50.907928, 1.80351
2022-12-14 18:45:50.908608, 1.80351
2022-12-14 18:45:50.941105, 1.80351
2022-12-14 18:45:50.941105, 1.80840
2022-12-14 18:45:50.974138, 1.76441
2022-12-14 18:45:50.974138, 1.74486
2022-12-14 18:45:50.975134, 1.73509
2022-12-14 18:45:51.007454, 1.72531
2022-12-14 18:45:51.007454, 1.69599
2022-12-14 18:45:51.008454, 1.68621
2022-12-14 18:45:51.041177, 1.68132
2022-12-14 18:45:51.041569, 1.68132
2022-12-14 18:45:51.074681, 1.66666
2022-12-14 18:45:51.074920, 1.67644
2022-12-14 18:45:51.074920, 1.66666
2022-12-14 18:45:51.108691, 1.65200
2022-12-14 18:45:51.109013, 1.63734
2022-12-14 18:45:51.110015, 1.62756
2022-12-14 18:45:51.142315, 1.63245
2022-12-14 18:45:51.142704, 1.62756
2022-12-14 18:45:51.175642, 1.61290
2022-12-14 18:45:51.175880, 1.61779
2022-12-14 18:45:51.176356, 1.61779
2022-12-14 18:45:51.209263, 1.63245
2022-12-14 18:45:51.209604, 1.62267
2022-12-14 18:45:51.209604, 1.62756
2022-12-14 18:45:51.242789, 1.63734
2022-12-14 18:45:51.243169, 1.64711
2022-12-14 18:45:51.276297, 1.65689
2022-12-14 18:45:51.276297, 1.64711
2022-12-14 18:45:51.277300, 1.65689
2022-12-14 18:45:51.308559, 1.66177
2022-12-14 18:45:51.309561, 1.65689
2022-12-14 18:45:51.310171, 1.64711
2022-12-14 18:45:51.343445, 1.64711
2022-12-14 18:45:51.343787, 1.65689
2022-12-14 18:45:51.376932, 1.65689
2022-12-14 18:45:51.377171, 1.65200
2022-12-14 18:45:51.378173, 1.67644
2022-12-14 18:45:51.410326, 1.67155
2022-12-14 18:45:51.410326, 1.67644
2022-12-14 18:45:51.411278, 1.66666
2022-12-14 18:45:51.443930, 1.67155
2022-12-14 18:45:51.444276, 1.64222
2022-12-14 18:45:51.477567, 1.64222
2022-12-14 18:45:51.477839, 1.63245
2022-12-14 18:45:51.478364, 1.63245
2022-12-14 18:45:51.511020, 1.64222
2022-12-14 18:45:51.511312, 1.63734
2022-12-14 18:45:51.511918, 1.62756
2022-12-14 18:45:51.544656, 1.62756
2022-12-14 18:45:51.545031, 1.63245
2022-12-14 18:45:51.577953, 1.63245
2022-12-14 18:45:51.578984, 1.62267
2022-12-14 18:45:51.578984, 1.61779
2022-12-14 18:45:51.611226, 1.62756
2022-12-14 18:45:51.611492, 1.63245
2022-12-14 18:45:51.611894, 1.62267
2022-12-14 18:45:51.645168, 1.63245
2022-12-14 18:45:51.645513, 1.64222
2022-12-14 18:45:51.678724, 1.67155
2022-12-14 18:45:51.678962, 1.69599
2022-12-14 18:45:51.678962, 1.73020
2022-12-14 18:45:51.712224, 1.77419
2022-12-14 18:45:51.712516, 1.81329
2022-12-14 18:45:51.712516, 1.81818
2022-12-14 18:45:51.745815, 1.82795
2022-12-14 18:45:51.746188, 1.86217
2022-12-14 18:45:51.779368, 1.82795
2022-12-14 18:45:51.779368, 1.80351
2022-12-14 18:45:51.780270, 1.78396
2022-12-14 18:45:51.812814, 1.76930
2022-12-14 18:45:51.812814, 1.76441
2022-12-14 18:45:51.813815, 1.74486
2022-12-14 18:45:51.846586, 1.72043
2022-12-14 18:45:51.846586, 1.72043
2022-12-14 18:45:51.879382, 1.71065
2022-12-14 18:45:51.879382, 1.69110
2022-12-14 18:45:51.880246, 1.68621
2022-12-14 18:45:51.913436, 1.68621
2022-12-14 18:45:51.913725, 1.70576
2022-12-14 18:45:51.913725, 1.66666
2022-12-14 18:45:51.947098, 1.65689
2022-12-14 18:45:51.947440, 1.65200
2022-12-14 18:45:51.980545, 1.66177
2022-12-14 18:45:51.980785, 1.64222
2022-12-14 18:45:51.980785, 1.63734
2022-12-14 18:45:52.014081, 1.64222
2022-12-14 18:45:52.014376, 1.64711
2022-12-14 18:45:52.014844, 1.66666
2022-12-14 18:45:52.047713, 1.64222
2022-12-14 18:45:52.048057, 1.65200
2022-12-14 18:45:52.081159, 1.66666
2022-12-14 18:45:52.081428, 1.66177
2022-12-14 18:45:52.081428, 1.66177
2022-12-14 18:45:52.114662, 1.66666
2022-12-14 18:45:52.115346, 1.67644
2022-12-14 18:45:52.115346, 1.67155
2022-12-14 18:45:52.147261, 1.66666
2022-12-14 18:45:52.148269, 1.66666
2022-12-14 18:45:52.181570, 1.67155
2022-12-14 18:45:52.181844, 1.67155
2022-12-14 18:45:52.181844, 1.69110
2022-12-14 18:45:52.215352, 1.65689
2022-12-14 18:45:52.215676, 1.66666
2022-12-14 18:45:52.216283, 1.66177
2022-12-14 18:45:52.248827, 1.64711
2022-12-14 18:45:52.249208, 1.65200
2022-12-14 18:45:52.282478, 1.65689
2022-12-14 18:45:52.282744, 1.65689
2022-12-14 18:45:52.283359, 1.64222
2022-12-14 18:45:52.315873, 1.64222
2022-12-14 18:45:52.316202, 1.64711
2022-12-14 18:45:52.316202, 1.64711
2022-12-14 18:45:52.349436, 1.63734
2022-12-14 18:45:52.349436, 1.63734
2022-12-14 18:45:52.382432, 1.63734
2022-12-14 18:45:52.382432, 1.64222
2022-12-14 18:45:52.383434, 1.62756
2022-12-14 18:45:52.415946, 1.62756
2022-12-14 18:45:52.415946, 1.63245
2022-12-14 18:45:52.416941, 1.64222
2022-12-14 18:45:52.449554, 1.63245
2022-12-14 18:45:52.449554, 1.65689
2022-12-14 18:45:52.482854, 1.70087
2022-12-14 18:45:52.482854, 1.73020
2022-12-14 18:45:52.483883, 1.77419
