67.53899444444444
67.8683190821256
68.53665437624323
69.49718456947996
69.49718456947996
69.15817391304347
70.95916802536232
73.15466560990336
74.20251672979796
72.74053327391562
70.21571105169339
70.21571105169339
71.67769450757575
73.80801325757575
73.44830317164178
71.31798442164178
69.85600096575942
69.85600096575942
70.87346663740122
70.53445598096474
68.88578475376738
68.19764371980675
69.61627292827944
71.62465424141075
72.31279527537139
70.56484142921754
69.51699030932294
69.51699030932294
69.8463149470041
69.196942421999
68.17947675035721
68.86761778431784
72.119717284545
76.35628338623992
81.01966771459813
83.7684661016949
85.72919090909089
85.72919090909089
83.40097369597615
78.580858544461
75.03032729446099
74.60974612047897
74.250036034545
72.78805257866266
70.18532560344059
70.54503568937454
72.40152261747912
73.44937373737372
73.08966365143976
71.23317672333518
71.23317672333519
72.74053327391562
73.44937373737372
72.40152261747913
69.55665250793297
68.84781204447485
68.5184874067937
67.90469693795325
66.00806975194371
66.00806975194371
68.31908386568387
72.47942737047897
75.4114789833822
74.7026385199241
71.13938135146532
66.14156610219845
63.14262567987568
62.2589379020979
62.8098082051282
62.8098082051282
61.994096410256404
62.57515138742535
63.97191815946609
65.07423139577932
63.94230611558008
84.01163920858657
104.37542583732056
106.4411894736842
86.98564684951816
66.91631375651167
65.40142042317834
64.49317641861037
64.19872288288288
62.62772238905571
60.77012045378711
59.932648709315366
62.38733698092031
64.84202525252525
66.58774100156495
66.2851082009561
67.24563839419282
67.56568628151676
67.27123274578926
64.1014831081081
62.586589774774765
63.183676111111104
64.79580921921922
65.37686419638817
65.68802186461977
66.91631375651167
68.17947675035721
67.56568628151676
65.49992264515313
64.23675965130758
64.85055012014803
65.68802186461977
65.10696688745082
64.19872288288288
65.42701477477476
66.31070255255256
65.7450418128655
65.42499392554154
66.38552411877826
67.54827119480166
66.6400271902337
65.67949699699699
66.64002719023371
67.54827119480166
67.54827119480166
66.89889866979655
67.54827119480166
67.85942886303326
66.66458341702388
65.10696688745082
65.10696688745082
66.30181233346022
66.30181233346022
65.39356832889226
65.39356832889226
67.2901955149018
68.5184874067937
68.20732973856208
66.90778888888889
66.90778888888889
66.60515608828005
65.44240901225666
64.21411712036476
65.47728011421032
67.9395680399069
69.83619522591644
69.83619522591644
69.49718456947996
69.8463149470041
69.51699030932295
68.2538273154774
66.60515608828005
66.93448072596121
68.88578475376738
70.18532560344059
71.98631971575944
74.75608737745097
78.78914518678161
81.36021954022988
83.25383620689654
84.23329310344826
83.31913333333333
78.6557490049751
74.72285285112896
73.06593826779563
74.17879134615384
73.09917279411764
70.96885404411763
68.83853529411763
68.49952463768115
67.8683190821256
65.80255544576195
88.19663080808081
100.68352332015809
100.68352332015809
75.89435968379446
61.44993095512083
62.00080125815113
63.74651700719082
66.01521089201877
66.59626586918772
65.12236112493272
64.50857065609227
63.37664537589303
62.839992879266845
62.2589379020979
64.00465365113759
65.40142042317834
64.85055012014803
64.23675965130758
65.17059800747197
66.60515608828005
66.02410111111111
65.39289555555555
65.70405322378716
65.9906546652286
64.29125509257904
63.38301108801108
64.94062761758413
66.95118485846533
66.95118485846533
66.62186022078416
67.61024340222575
68.83853529411763
67.90469693795325
66.00806975194371
65.68802186461977
66.30181233346022
66.01521089201877
64.54130614776378
64.54130614776378
65.12236112493272
65.12236112493272
64.50857065609227
65.77173364993781
67.24563839419281
67.24563839419282
65.68802186461977
65.68802186461977
65.68802186461977
64.85055012014803
62.581856235320075
62.28740269959257
62.83827300262287
63.09640964656964
63.09640964656964
64.61130297990297
66.9419081081081
67.53899444444444
66.60515608828005
66.60515608828005
66.91631375651167
66.33525877934272
64.00465365113759
63.09640964656964
64.29125509257904
65.39356832889226
64.82790758920521
63.91966358463726
65.14795547652915
66.31070255255256
65.47323080808081
63.67927817650186
64.3104837320574
65.7450418128655
66.02410111111111
64.50920777777777
64.82036544600939
67.71243453691847
71.35764662025181
75.91426060927066
76.6674036016949
74.86640948937607
70.30979550035721
66.95118485846533
65.10696688745082
63.63306214319582
63.34646070175438
63.63306214319582
65.75633941245593
67.60055738347042
68.50880138803836
67.85942886303326
67.21005633802815
68.19843951946974
68.5184874067937
67.90469693795325
66.00806975194371
64.77977786005182
65.08241066066066
65.08241066066066
64.51674992097361
63.08219184016552
63.99043584473347
65.46434058898848
66.89889866979655
67.21894655712049
68.55646011608623
70.56484142921754
71.23317672333518
70.21571105169339
68.83853529411763
68.83853529411763
69.50687058823527
68.87566503267973
67.88728185123813
68.23641222876229
70.61557163047169
71.60395481191327
97.57052664027148
114.95806753095974
115.30719790848389
88.99149570260153
70.18532560344059
71.29817868179879
73.56189500058437
74.98052420905707
73.86767113069885
71.26494415547678
72.04181253154516
72.77230070605722
74.1909299145299
73.04328344988345
72.67250536130535
72.30172727272726
72.30172727272726
70.9245515151515
68.03248242424242
66.02410111111111
65.70405322378716
65.9906546652286
64.82790758920521
62.81735034832403
63.11180388405153
63.390863182297146
63.65570467413864
61.74911803030302
61.19824772727272
84.72500025252525
103.63807403301304
102.86341266937669
78.56199878048778
60.42358636363635
62.035719471744464
63.647852579852575
64.19872288288288
64.79580921921922
66.35342574879226
67.23711352657004
66.6400271902337
64.79580921921922
64.79580921921922
64.50920777777777
63.183676111111104
61.74911803030302
61.19824772727272
62.24472009569378
62.24472009569378
63.67927817650186
65.47323080808081
66.31070255255256
66.00806975194371
66.00806975194371
67.23636164383561
67.23636164383561
88.6973505327245
101.3214616438356
101.3214616438356
80.18979739262787
69.31364012767061
72.77230070605722
75.37502768127929
76.55912544802867
75.78225707196029
72.53015757173313
68.369814066938
65.9906546652286
64.79580921921922
63.95833747474747
63.65570467413864
65.17059800747197
66.60515608828005
66.31070255255256
65.08241066066066
65.08241066066066
65.67949699699699
65.39289555555555
64.23014847953216
63.92751567892333
63.648456380677715
62.85366724010476
61.19876382411725
61.764424563804305
62.55921370437726
63.35400284495021
63.35400284495021
64.82790758920521
65.9906546652286
65.42499392554154
63.67927817650186
63.67927817650186
64.53939245191643
63.76473108828005
60.38592487912972
58.4793382352941
58.989158107088976
60.410428099642964
61.18508946327933
62.88448903592891
64.84202525252525
65.39289555555555
64.23014847953216
64.23014847953216
64.23014847953216
62.93820728395061
60.72898783950616
61.0155892809476
62.30753047652915
63.08219184016552
63.37664537589303
64.85055012014803
65.68802186461977
64.82790758920521
63.91966358463726
62.81735034832403
61.77087797990297
60.668564743589734
62.99916987179486
67.21677062937061
70.21571105169339
70.21571105169339
67.90469693795325
65.72146831050227
63.65570467413864
63.65570467413864
65.17059800747197
66.60515608828005
66.02410111111111
64.50920777777777
64.50920777777777
64.79580921921922
63.98009742434742
62.54553934353934
62.54553934353934
64.55609658442052
65.9906546652286
65.70405322378716
64.79580921921922
64.19872288288288
63.38301108801108
62.022561207751075
62.31701474347858
64.32757198435976
65.98247540034728
65.12236112493272
65.12236112493272
65.73615159377316
66.30181233346022
65.10696688745082
65.42701477477476
65.72146831050227
65.44240901225666
63.37664537589303
63.08219184016552
63.647852579852575
63.647852579852575
62.54553934353934
62.839992879266845
63.11180388405153
63.648456380677715
63.95108918128655
65.42499392554154
65.42499392554154
65.12236112493272
65.12236112493272
65.68802186461977
65.10696688745082
65.10696688745082
66.33525877934272
67.5301042253521
66.62186022078416
65.10696688745082
65.10696688745082
64.82036544600939
64.54130614776378
62.02092903508771
62.02092903508771
62.88104331050227
64.20657497716894
63.65570467413864
63.65570467413864
65.17059800747197
66.60515608828005
66.31070255255256
65.08241066066066
65.39356832889226
65.9906546652286
65.70405322378716
63.95833747474747
63.95833747474747
64.84202525252525
65.39289555555555
63.69349598290598
62.530748906882586
63.725594352891974
64.82790758920521
64.03311844863225
61.5127413359562
61.22613989451476
60.974456666666654
60.48950605691056
60.48950605691056
63.32993105691056
66.02410111111111
66.02410111111111
65.39289555555555
65.70405322378716
65.9906546652286
64.03311844863225
63.12487444406431
63.72196078040065
64.51674992097361
62.90461681286549
61.7418697368421
62.60198401225666
63.92751567892333
64.49317641861037
65.75633941245593
66.64002719023371
66.07436645054665
64.51674992097361
64.21411712036476
63.94230611558008
63.65570467413864
64.26949514297908
66.01521089201877
66.30181233346022
67.2901955149018
67.9395680399069
68.84781204447485
67.54827119480166
67.21894655712049
66.60515608828005
66.00806975194371
65.07423139577932
66.00806975194371
66.91631375651167
67.21894655712049
67.21894655712049
68.20732973856208
68.83853529411763
67.90469693795325
66.91631375651167
67.24563839419282
67.85942886303326
67.54827119480166
67.54827119480166
68.53665437624323
68.23402157563442
66.67640504606135
66.33739438962488
67.60055738347042
68.50880138803836
67.24563839419282
67.24563839419282
68.58315195315855
69.51699030932295
68.55646011608623
67.53899444444444
68.55646011608623
71.31798442164178
75.10521775497511
77.01980369623655
76.2666607038123
73.14776266459661
70.54503568937454
69.1678599317988
67.8683190821256
68.55646011608623
100.68264632298278
105.55041798023325
128.59302289682674
99.39888830283341
102.45095993698756
83.57341917331368
85.82389738497184
82.7718257508177
80.52134753915954
76.71599347217389
72.80875200816013
69.8767003952569
69.16785993179879
68.20732973856208
67.2734913823977
65.09026275494672
65.40142042317834
64.82036544600939
64.26949514297908
62.52377939393939
62.81038083538083
62.54553934353934
62.022561207751075
60.92024797143784
60.92024797143784
60.92024797143784
60.410428099642964
60.947080596269146
61.47005873205741
60.98510812230131
59.45368514412416
59.188843652282664
59.42832543487827
59.19461429764642
58.199843816095445
59.491785011676996
60.98510812230131
61.721741959905515
59.95660784449651
59.18194648086014
59.18194648086014
59.90060822784809
59.90060822784809
60.42358636363635
62.33017300747197
63.10483437110834
62.33017300747197
62.035719471744464
62.30753047652915
62.81735034832403
61.71503711201079
62.57515138742535
63.67746462373859
63.41932797979182
62.022561207751075
62.31701474347858
63.97191815946609
64.50857065609227
63.37664537589303
62.51653110047847
63.67927817650186
65.11383625730994
64.57718376068377
61.88301370648321
59.925477489886866
60.46212998651305
61.19876382411725
60.70161176910865
60.980671067354265
62.63557448334178
64.49317641861037
63.67746462373859
63.38301108801108
63.67746462373859
63.41932797979182
61.807194871683706
61.807194871683706
62.60198401225666
62.85366724010476
61.721741959905515
63.19564670416052
65.15318292075686
65.9906546652286
66.31070255255256
67.27123274578926
66.7055720061022
63.8651470061022
62.30753047652915
62.30753047652915
62.30753047652915
62.60198401225666
64.07588875651166
65.68802186461977
64.82790758920521
64.82790758920521
64.26224684951816
62.49711273410915
60.75139698506946
59.704924616648405
60.42358636363635
60.974456666666654
61.74911803030302
62.2589379020979
63.45378334810729
63.45378334810729
63.19564670416052
62.581856235320075
62.31701474347858
62.57515138742535
62.57515138742535
63.11180388405153
62.85366724010476
61.9935529646902
61.721741959905515
88.3705543202927
100.5793986185383
100.851209623323
74.46053390688257
60.72026663045982
60.99932592870543
60.99932592870543
89.80245305361305
101.05594638694637
101.59259888357255
73.02895354126055
60.44992854126055
61.0155892809476
62.035719471744464
61.317057724756516
59.95660784449651
59.95660784449651
59.95660784449651
59.704924616648405
59.97673562143309
61.205217240215916
60.95974841305542
60.95974841305542
61.224589904896916
60.98510812230131
60.713297117516625
60.44845562567513
60.21474448844328
60.21474448844328
59.45945578948791
60.429800764323964
61.864358845132045
63.72196078040065
64.24493891618891
63.94230611558008
63.37664537589303
62.11703340250056
60.98510812230131
60.98510812230131
61.47005873205741
62.02092903508771
62.586589774774765
63.09640964656964
61.525409152742476
61.81986268846998
62.63557448334178
62.88104331050227
62.02092903508771
60.947080596269146
59.347300998568
58.300828630146945
56.879558637592964
57.309751470588225
58.35622383900928
60.851342270381835
83.99684877192982
100.0589827988576
100.94267057663538
80.57888394790137
63.72196078040065
62.28740269959257
60.92695281933256
59.50568282677858
59.77749383156326
60.57228297213622
62.25168960863697
63.414436684660366
63.69349598290598
63.95833747474747
63.65570467413864
63.10483437110834
62.33017300747197
61.47005873205741
61.205217240215916
60.95974841305542
61.525409152742476
62.06206164936866
63.63306214319582
64.23014847953216
64.50920777777777
63.183676111111104
62.02092903508771
60.69539736842104
59.74858903508771
59.476778030303024
59.476778030303024
60.17811753647586
61.0155892809476
61.525409152742476
62.54553934353934
62.839992879266845
71.36788891656288
65.85918588625984
64.99907161084528
55.715886874593885
59.280341776554664
58.48555263598171
59.24084133493708
60.16495927248247
60.16495927248247
60.980671067354265
61.477823122362864
60.74118928475866
60.19031898172836
59.69316692671976
59.23130920314253
58.708331067354266
59.205483122362864
59.433629708708246
59.691766352655016
59.19461429764642
59.66780721747387
60.48351901234567
61.50364920314253
62.2589379020979
62.54553934353934
62.54553934353934
61.317057724756516
60.479585980284774
60.21474448844328
60.687937408270734
59.913276044634365
61.0155892809476
61.5127413359562
61.5127413359562
62.42098534052415
63.781435220784154
65.10696688745082
63.361251138411134
63.361251138411134
61.317057724756516
59.15521205879457
58.05289882248133
57.82475223613595
59.21193653846153
60.027648333333325
62.02092903508771
62.530748906882586
62.530748906882586
61.994096410256404
60.76561479147358
59.949902996601786
58.72142137781896
58.95513251505081
58.69699587110404
58.930707008335894
58.46884928475866
58.46884928475866
58.00699156118143
59.205483122362864
58.23513814752681
58.69699587110404
59.21997400689231
59.938635753880256
60.17811753647586
59.655139400687595
58.708331067354266
58.708331067354266
59.78217950617283
60.980671067354265
62.272612262935816
62.85366724010476
62.60198401225666
61.5555116438356
60.69539736842104
60.69539736842104
61.47005873205741
60.67526959148446
61.44993095512083
61.721741959905515
60.98510812230131
61.822579866773054
63.296484611028056
64.82790758920521
63.725594352891974
62.530748906882586
60.99932592870543
59.77084430992261
59.491785011676996
59.97673562143309
61.205217240215916
61.205217240215916
61.45690046806402
62.55921370437726
62.55921370437726
62.06206164936866
62.06206164936866
61.0155892809476
61.0155892809476
60.72898783950616
60.980671067354265
61.22613989451476
61.807194871683706
62.065331515630476
61.81986268846998
60.42309591642924
60.95974841305542
60.72026663045982
59.96497793150445
59.1701887909315
58.05535980298645
57.354020296813616
57.354020296813616
58.23513814752681
59.691766352655016
60.21474448844328
59.76381947072535
58.30719126559714
56.58572156862745
56.15552873563218
56.85686824180502
58.578337938774716
59.69316692671976
60.713297117516625
60.44845562567513
59.76381947072535
59.24084133493708
58.01235971615426
57.582166883159
57.84030352710577
58.31349644693322
60.687937408270734
62.38733698092031
63.95833747474747
64.50920777777777
64.82036544600939
64.00465365113759
61.29193768214534
59.023243797317384
58.765107153370614
59.205483122362864
59.72846125815113
58.991827420546926
59.21997400689231
59.491785011676996
60.75139698506946
62.24472009569378
63.10483437110834
61.38336467413864
59.89004156351432
57.98345491967871
57.98345491967871
58.702116666666655
60.027648333333325
61.48427653846153
62.530748906882586
63.414436684660366
63.156300040713596
62.361510900140644
69.1900073647871
82.89871083906665
94.57681261121854
85.05414609237155
72.14023175866495
60.46212998651305
60.000272262935816
60.000272262935816
60.000272262935816
60.947080596269146
60.947080596269146
61.205217240215916
62.25168960863697
62.81735034832403
61.822579866773054
59.60652073364612
58.50420749733288
58.042349773755646
58.72698592870543
59.263638425331614
60.21044675866494
60.947080596269146
61.807194871683706
62.05887809953181
61.807194871683706
61.5127413359562
61.5127413359562
61.0277907262001
60.74118928475866
60.74118928475866
62.272612262935816
63.467457708945204
64.82790758920521
93.60589772078416
109.99859438859589
110.59568072493224
81.02290145278033
60.72264336996696
59.023243797317384
58.526091742308786
59.42832543487827
59.42832543487827
59.42832543487827
59.19461429764642
58.43932559869105
57.515207661145666
58.48555263598171
57.784213129808876
57.354020296813616
57.354020296813616
57.354020296813616
83.25521378340366
94.30953594771242
95.01087545388523
68.90191838317817
56.87725124403336
57.37440329904196
58.012359716154265
57.343837160816626
56.84668510580803
57.531321260757814
59.42832543487827
58.95513251505081
57.4294452034586
57.17130855951183
57.64450147933928
59.4096705735271
60.77012045378711
61.267272508795706
62.28740269959257
62.28740269959257
62.035719471744464
61.5127413359562
60.152291455696194
60.92695281933256
62.88448903592891
89.53330139631609
108.64161503267972
107.20705695187164
82.21314800747197
61.61151126048402
61.34666976864253
59.949902996601786
60.42309591642924
59.66780721747387
59.932648709315366
59.45945578948791
60.21474448844328
60.48655549322797
61.45690046806402
60.947080596269146
61.5127413359562
83.2369778449502
104.13959258853995
102.28199065327135
81.91820402453735
62.34112094761427
63.63306214319582
64.23014847953216
64.51674992097361
81.45963588588589
98.16349022192924
97.06117698561599
77.47203905458151
86.87714178924523
98.29710691745035
100.67154787878786
72.10790253647586
61.50364920314253
62.34112094761427
63.63306214319582
63.08219184016552
63.67927817650186
62.88448903592891
61.39116592530459
60.2284188492812
59.7312667942726
59.06274423893497
58.79093323415028
59.81106342494714
77.46613636363635
102.25529999999998
101.9904585081585
87.04810153846154
61.735959766309634
61.22613989451476
61.5127413359562
62.30753047652915
62.06206164936866
61.496400909681604
62.356515185096164
86.90339790114555
103.84628386605783
102.71435858585858
80.3195313408053
63.65570467413864
63.65570467413864
90.06729454545453
106.7311212121212
107.86304649232045
80.8704016438356
81.79411709099007
102.99477166337067
103.57582664053962
85.4374142236882
61.38336467413864
60.25143939393939
59.476778030303024
59.938635753880256
60.21044675866494
59.263638425331614
58.80178070175438
58.80178070175438
67.77154385964911
100.1462804187889
99.09980805036784
91.85151458944281
59.036402061310774
58.089593727977444
57.82475223613595
58.72698592870543
58.95513251505081
58.95513251505081
76.54868952015575
95.25670960047702
126.17481795448862
119.19527429498882
132.63384418746196
115.16630266378316
140.00385113483065
117.6136388181151
103.40778328882695
69.76670374859707
60.980671067354265
60.50747814752681
96.10747148086014
109.81617495513969
110.04988609237154
72.87889226521105
59.96497793150445
60.204459714100054
60.95974841305542
61.525409152742476
61.05221623291502
59.15521205879457
57.54307895068646
56.874556395348826
58.261740697674405
58.51342392552251
89.72507072784809
101.65485572784809
102.17783386363635
73.3998437320574
61.979878603852285
61.979878603852285
62.839992879266845
62.839992879266845
82.96794625922021
99.05071794871793
99.58737044534412
78.43928687459388
86.01375354126054
97.54630617283948
98.83824736842104
73.52610559626915
82.92300033311125
98.14441660105382
124.793228961441
119.08519786096252
101.21752962689774
73.59837229167452
98.6258932706955
108.24862769295804
108.02048110661266
95.04324800637957
100.98067988394583
101.2088264702912
72.17198820815175
58.46328473387219
59.18194648086014
58.300828630146945
57.33048365531089
80.43772487152711
94.61652946922825
109.29557791834387
103.29694309747647
89.99925635048854
94.02822798169422
92.38415769745649
110.21142583979326
109.33067390180877
94.37595766249254
76.7824006573876
70.97979965419563
92.44589951924286
118.49467512899895
121.14905643896975
97.78595239980206
70.83494309747648
56.62908756818833
57.06946353718058
57.28706107480028
57.53252990196078
56.67179505347592
55.63216237373736
55.14721176398126
54.175414354401596
54.57709061702786
54.343379479796006
78.0253348147836
91.76266299660179
109.58993113893857
109.58993113893857
98.70661850735962
81.11306150225468
60.72026663045982
61.28592737014687
61.77087797990297
89.57923462325961
101.92748821727915
103.83407486111477
76.56237071438431
63.37664537589303
64.3104837320574
63.51569459148446
62.022371480860144
60.2284188492812
60.48655549322797
61.45690046806402
62.31701474347858
63.132726538350376
62.88104331050227
62.02092903508771
60.947080596269146
60.2284188492812
59.95660784449651
59.45945578948791
59.23130920314253
58.45664783950616
57.755308333333325
58.21716605691056
59.54269772357723
60.48950605691056
61.22613989451476
61.22613989451476
60.74118928475866
60.48950605691056
59.938635753880256
59.036402061310774
58.317740314322826
58.05289882248133
58.95513251505081
59.67379426203876
60.776107498352
61.0155892809476
59.62840497862202
58.01627187051391
57.54307895068646
58.21160150602409
58.46328473387219
58.46328473387219
59.433629708708246
61.39116592530459
64.01641431612816
65.09026275494672
65.72146831050227
63.81488166666666
61.319763235294104
58.4793382352941
56.87955863759296
56.879558637592964
57.654220001229326
58.76904898917437
59.938635753880256
59.67379426203876
58.77156056946928
58.05289882248133
57.05812834093036
56.845533045554795
56.845533045554795
56.16089689060502
55.75003856695784
56.468700313945796
57.153336468895574
57.77679008791831
58.28660995971318
58.28660995971318
58.95513251505081
59.77084430992261
60.255794919678706
60.48950605691056
60.21044675866494
59.491785011676996
59.258073874445145
58.21160150602409
59.18194648086014
59.90060822784809
60.947080596269146
59.97673562143309
58.80714885672721
57.275725878550055
56.39460802783686
56.845533045554795
56.611821908322945
56.200963584675776
56.434674721907626
56.206528135562245
56.409622875092374
57.40439335664335
58.10573286281618
58.966467711301036
59.23130920314253
59.23130920314253
59.00853077176998
58.74368927992848
57.6019738047634
57.601973804763404
56.14534559963519
56.3629431372549
57.287061074800285
59.55940107480028
60.48351901234567
60.72898783950616
61.0155892809476
61.261058108108095
62.035719471744464
60.17811753647586
58.79093323415028
58.01627187051391
57.54307895068646
59.704924616648405
60.75139698506946
61.721741959905515
62.55921370437726
62.022561207751075
61.77087797990297
61.77087797990297
61.261058108108095
60.09147134340222
57.309751470588225
