1.62756
1.65689
1.69599
1.73509
1.74486
1.76441
1.77908
1.78396
1.76441
1.74975
1.73998
1.73020
1.70576
1.72531
1.69110
1.68132
1.66666
1.66177
1.65689
1.66666
1.65200
1.64222
1.65200
1.66177
1.63734
1.63245
1.63734
1.64711
1.64711
1.66666
1.64711
1.66177
1.66177
1.65200
1.65689
1.66666
1.65689
1.65200
1.65200
1.65689
1.65200
1.64711
1.66666
1.64222
1.64222
1.62756
1.62756
1.63734
1.63734
1.62267
1.62267
1.62756
1.63245
1.62267
1.62267
1.62756
1.63245
1.61779
1.62267
1.62756
1.62756
1.61779
1.62267
1.62756
1.63245
1.62267
1.62267
1.63245
1.65689
1.67155
1.71065
1.74486
1.77908
1.78885
1.82795
1.79863
1.79863
1.77419
1.74975
1.73509
1.73020
1.70576
1.70087
1.68621
1.68621
1.67155
1.66666
1.66666
1.66666
1.66177
1.65200
1.66177
1.65200
1.64711
1.64222
1.64711
1.66666
1.65200
1.64711
1.65200
1.67155
1.69110
1.65689
1.65689
1.66177
1.65689
1.64711
1.65200
1.66666
1.64711
1.63734
1.63245
1.63245
1.63734
1.62267
1.63245
1.62756
1.66177
1.61779
1.61779
1.62267
1.63734
1.62756
1.61290
1.61779
1.62756
1.60801
1.61290
1.62267
1.62267
1.61290
1.61290
1.61779
1.62267
1.61779
1.61290
1.61290
1.63245
1.63245
1.65200
1.69599
1.73020
1.74975
1.76441
1.77908
1.80840
1.78396
1.76441
1.74975
1.73998
1.71554
1.69110
1.68621
1.67644
1.67155
1.65689
1.65200
1.66177
1.65200
1.64711
1.66666
1.64222
1.63734
1.62756
1.63245
1.65689
1.63734
1.62756
1.63245
1.64711
1.65200
1.63734
1.64711
1.65200
1.65689
1.66666
1.64222
1.64222
1.64711
1.63245
1.62756
1.62756
1.63245
1.62267
1.62756
1.64711
1.63245
1.65200
1.61779
1.61779
1.62267
1.61779
1.61290
1.61779
1.65689
1.61290
1.60801
1.61290
1.61779
1.61290
1.61290
1.62756
1.64711
1.61290
1.60801
1.61290
1.61779
1.61779
1.60801
1.61290
1.63734
1.65689
1.68132
1.72531
1.76441
1.76930
1.76441
1.76441
1.76441
1.75953
1.73020
1.71065
1.70087
1.71065
1.67155
1.65689
1.65689
1.65689
1.64222
1.64222
1.64222
1.64222
1.63245
1.62756
1.62756
1.63734
1.62756
1.62267
1.63245
1.64222
1.65200
1.63734
1.64711
1.65689
1.65200
1.64711
1.64711
1.65200
1.64711
1.64711
1.64711
1.65200
1.66666
1.62756
1.62756
1.63734
1.62756
1.61779
1.61779
1.62756
1.61779
1.61290
1.61779
1.62756
1.63245
1.63734
1.63245
1.63734
1.65200
1.60801
1.61290
1.62267
1.62267
1.61290
1.61290
1.61779
1.61290
1.60801
1.61290
1.63245
1.66666
1.68132
1.74486
1.74975
1.76930
1.76930
1.76930
1.76441
1.75953
1.73020
1.71065
1.69599
1.69599
1.66666
1.66177
1.66177
1.66177
1.64711
1.66666
1.64711
1.64222
1.62756
1.62267
1.62267
1.63734
1.61779
1.61779
1.62267
1.63734
1.63245
1.63245
1.64222
1.64711
1.65200
1.65689
1.64711
1.65200
1.64711
1.63734
1.63245
1.63734
1.63245
1.61779
1.62267
1.62267
1.62267
1.61779
1.62267
1.65200
1.65200
1.60801
1.60801
1.61290
1.61779
1.60312
1.61290
1.62267
1.61290
1.63245
1.60312
1.61290
1.61779
1.60801
1.60801
1.61290
1.61290
1.61290
1.62756
1.65689
1.70087
1.73509
1.75464
1.77908
1.79374
1.77908
1.76930
1.76441
1.75464
1.72531
1.71554
1.69599
1.69110
1.70087
1.66177
1.65689
1.66177
1.66666
1.64222
1.64222
1.64711
1.64222
1.63734
1.66177
1.63734
1.63734
1.63245
1.63734
1.64711
1.65200
1.64711
1.65200
1.66666
1.67155
1.67644
1.65200
1.65200
1.65200
1.63734
1.63734
1.64222
1.64222
1.62756
1.62756
1.64711
1.64222
1.61779
1.61779
1.62267
1.62756
1.61779
1.61779
1.61779
1.62756
1.61779
1.64711
1.64711
1.64711
1.62756
1.61290
1.61290
1.62267
1.61290
1.61779
1.61779
1.62756
1.62267
1.62756
1.65689
1.69599
1.72531
1.75464
1.77419
1.79863
1.79374
1.77419
1.76930
1.78885
1.73998
1.71065
1.69599
1.69599
1.68132
1.66666
1.66666
1.67155
1.66666
1.66666
1.64711
1.65200
1.64711
1.63245
1.63245
1.67155
1.63734
1.62756
1.63734
1.64222
1.65200
1.64222
1.65689
1.65689
1.66177
1.65200
1.64711
1.64711
1.65200
1.64711
1.64711
1.63734
1.64222
1.62756
1.62756
1.62756
1.63245
1.62267
1.62267
1.65200
1.63245
1.61779
1.61290
1.61779
1.62267
1.61290
1.61290
1.61290
1.62756
1.63245
1.60801
1.61290
1.61779
1.61779
1.60801
1.61290
1.61779
1.61779
1.61779
1.64222
1.68132
1.71065
1.73509
1.75953
1.80840
1.79374
1.77908
1.76930
1.75953
1.73998
1.71065
1.69599
1.68621
1.71065
1.69110
1.68621
1.65689
1.65689
1.64222
1.63734
1.63734
1.64222
1.62756
1.62756
1.66177
1.63245
1.62267
1.63245
1.63245
1.64711
1.64222
1.64222
1.65200
1.67644
1.68132
1.65200
1.64711
1.65689
1.64222
1.63245
1.63734
1.64711
1.63734
1.65200
1.62756
1.63245
1.62756
1.61779
1.62267
1.63245
1.62756
1.62267
1.64711
1.65200
1.61779
1.61290
1.61290
1.61779
1.61779
1.60801
1.61290
1.62267
1.62756
1.61290
1.61290
1.61779
1.62756
1.63245
1.65689
1.70087
1.75464
1.74975
1.77419
1.78396
1.78396
1.76441
1.74975
1.73998
1.75953
1.70576
1.69110
1.67644
1.67644
1.65689
1.65200
1.65200
1.65200
1.63734
1.64711
1.62756
1.63734
1.62267
1.62756
1.61779
1.63245
1.62756
1.63245
1.63245
1.64711
1.64222
1.64222
1.65200
1.68621
1.64711
1.63734
1.63734
1.63734
1.63245
1.62267
1.62756
1.63734
1.65200
1.62267
1.61779
1.62267
1.62267
1.61290
1.61290
1.62756
1.62267
1.61290
1.61779
1.63245
1.63245
1.60801
1.61290
1.61290
1.61779
1.60801
1.60801
1.60801
1.62267
1.63245
1.66177
1.70087
1.76441
1.75464
1.76930
1.77908
1.78396
1.75953
1.74486
1.73509
1.72531
1.71065
1.68132
1.67644
1.67644
1.66177
1.65200
1.64711
1.66177
1.66177
1.63245
1.62756
1.63245
1.62756
1.64222
1.62267
1.63245
1.65689
1.63245
1.63734
1.65200
1.66177
1.64222
1.64711
1.65200
1.65200
1.63734
1.63734
1.64222
1.63245
1.62267
1.63734
1.64222
1.62756
1.62267
1.61779
1.61779
1.62756
1.61290
1.60801
1.61779
1.61779
1.61290
1.60801
1.62756
1.64711
1.60801
1.60801
1.61290
1.61779
1.60801
1.61779
1.64222
1.68132
1.71065
1.73998
1.79374
1.80351
1.79374
1.78885
1.77908
1.76930
1.74486
1.72531
1.71065
1.70576
1.69599
1.67644
1.67155
1.67155
1.66177
1.65200
1.65200
1.65200
1.64222
1.62756
1.63734
1.65200
1.63734
1.63245
1.66177
1.64711
1.64711
1.64711
1.65200
1.65689
1.65689
1.63734
1.64222
1.65200
1.65200
1.63734
1.63734
1.65200
1.63245
1.61779
1.61779
1.61779
1.62756
1.61290
1.61779
1.61290
1.62267
1.60801
1.60801
1.61290
1.61290
1.61290
1.60801
1.60801
1.61779
1.60801
1.60312
1.60801
1.61290
1.61290
1.60801
1.62756
1.66177
1.70576
1.72531
1.74486
1.77908
1.79863
1.81329
1.78396
1.77419
1.74975
1.72531
1.71554
1.70576
1.69110
1.67155
1.67155
1.67644
1.67155
1.66666
1.66666
1.68132
1.64711
1.63245
1.63245
1.63245
1.64222
1.62267
1.62267
1.63734
1.63734
1.63245
1.63245
1.67644
1.65200
1.63734
1.64222
1.64222
1.65200
1.62756
1.62756
1.62756
1.62756
1.61290
1.61290
1.62267
1.65200
1.60801
1.60801
1.60801
1.62267
1.60801
1.63734
1.60312
1.61290
1.60801
1.60312
1.60312
1.61290
1.60312
1.60801
1.59824
1.60312
1.59824
1.59335
1.61290
1.61779
1.61779
1.63734
1.62267
1.66177
1.69599
1.71554
1.76930
1.77908
1.77908
1.76930
1.75464
1.74975
1.73020
1.70576
1.69110
1.68132
1.68132
1.65689
1.66177
1.65689
1.65200
1.63734
1.63734
1.63734
1.63734
1.62267
1.62267
1.65689
1.62756
1.61779
1.62267
1.63245
1.66666
1.63245
1.63734
1.64222
1.64711
1.64222
1.63734
1.65200
1.65689
1.62756
1.62267
1.62267
1.62756
1.61779
1.61290
1.61290
1.62267
1.61290
1.61779
1.63734
1.61779
1.61290
1.60312
1.60801
1.61779
1.60801
1.60312
1.60801
1.62267
1.62756
1.60312
1.60312
1.61290
1.60801
1.60312
1.60312
1.61290
1.61290
1.60801
1.61779
1.64222
1.67155
1.69599
1.72531
1.75464
1.76930
1.78396
1.77908
1.75953
1.73998
1.71065
1.69599
1.68621
1.71554
1.66177
1.65689
1.66177
1.67155
1.67155
1.63734
1.63734
1.64222
1.62756
1.62267
1.63734
1.67155
1.62756
1.62756
1.64222
1.64711
1.64711
1.64711
1.65689
1.66177
1.65689
1.65689
1.65689
1.66177
1.66666
1.64222
1.63734
1.64711
1.63734
1.62756
1.62756
1.63245
1.62756
1.62267
1.62267
1.63245
1.63245
1.62756
1.64711
1.65689
1.62756
1.61779
1.61779
1.62267
1.62267
1.61290
1.61290
1.61779
1.62267
1.61290
1.61290
1.63245
1.64711
1.66177
1.72043
1.71554
1.74975
1.78885
1.77419
1.76930
1.76441
1.73998
1.72043
1.70576
1.70087
1.67644
1.67155
1.66177
1.69599
1.66177
1.66666
1.64222
1.64711
1.63734
1.62756
1.62756
1.63734
1.63245
1.63734
1.62756
1.63734
1.63734
1.63734
1.64711
1.67644
1.67644
1.64711
1.64711
1.65689
1.65200
1.63734
1.63734
1.64222
1.63734
1.62756
1.62756
1.62756
1.62756
1.61779
1.61779
1.62756
1.63245
1.62756
1.61779
1.61779
1.62267
1.61290
1.61290
1.61779
1.62267
1.61290
1.60801
1.61290
1.62267
1.61290
1.62756
1.65689
1.69599
1.72531
1.73998
1.76441
1.77908
1.77419
1.75953
1.77419
1.74975
1.72043
1.70087
1.69110
1.68621
1.67644
1.66177
1.66177
1.66666
1.66177
1.67644
1.64222
1.64711
1.63734
1.63245
1.62756
1.64222
1.66666
1.63245
1.63734
1.64711
1.65200
1.64222
1.65200
1.66177
1.66177
1.66177
1.65689
1.68132
1.65200
1.63734
1.63245
1.63734
1.63734
1.62267
1.61779
1.62756
1.63245
1.61779
1.61779
1.62267
1.63245
1.61779
1.62267
1.63734
1.63245
1.61779
1.61779
1.61779
1.62756
1.61779
1.61290
1.61779
1.62267
1.62267
1.64222
1.67155
1.71065
1.74486
1.76441
1.77908
1.79374
1.78396
1.76930
1.75464
1.75464
1.73020
1.71065
1.69599
1.70087
1.70087
1.68132
1.68132
1.69599
1.66177
1.65200
1.64711
1.65200
1.64711
1.63734
1.63245
1.64711
1.64711
1.63245
1.63734
1.64711
1.65689
1.67155
1.65200
1.65689
1.65689
1.64222
1.64711
1.64711
1.64711
1.63245
1.63245
1.62756
1.63245
1.62267
1.62267
1.64222
1.63245
1.62267
1.61779
1.61290
1.62267
1.61779
1.61290
1.61779
1.61779
1.61290
1.60801
1.60801
1.62267
1.61290
1.60801
1.62267
1.62756
1.61290
1.60801
1.61779
1.64711
1.67155
1.70087
1.73020
1.76441
1.77908
1.77419
1.76930
1.76930
1.74975
1.72043
1.73998
1.70576
1.68621
1.66666
1.66177
1.66177
1.66177
1.64711
1.64222
1.64711
1.64711
1.62756
1.63245
1.62756
1.63245
1.62267
1.62267
1.63734
1.66666
1.63245
1.63734
1.64711
1.65200
1.64711
1.64711
1.67155
1.64711
1.66666
1.65200
1.63245
1.63245
1.62267
1.61779
1.61779
1.62267
1.61290
1.60801
1.61290
1.62267
1.62756
1.60801
1.60801
1.61779
1.60801
1.60312
1.60801
1.61779
1.62756
1.60312
1.60312
1.61290
1.60801
1.60312
1.60801
1.61290
1.61779
1.63734
1.64222
1.66666
1.65689
1.68132
1.71554
1.74975
1.78885
1.78885
1.77419
1.76441
1.75953
1.73020
1.71065
1.70087
1.69110
1.70087
1.66177
1.66666
1.66177
1.64711
1.64222
1.64222
1.65200
1.63245
1.66177
1.63245
1.63734
1.62756
1.63245
1.63734
1.65200
1.64222
1.63734
1.64711
1.65689
1.65200
1.64711
1.64711
1.65689
1.64711
1.63734
1.63734
1.64222
1.63734
1.62267
1.62267
1.63734
1.63245
1.62267
1.62756
1.66177
1.64711
1.61779
1.61779
1.62267
1.62267
1.61290
1.61779
1.62267
1.62267
1.61290
1.61290
1.61779
1.62267
1.61290
1.61779
1.63245
1.65200
1.62756
1.65200
1.66666
1.70576
1.72043
1.73020
1.75953
1.78396
1.77419
1.78396
1.77419
1.75953
1.73020
1.71065
1.70087
1.70576
1.67155
1.66666
1.66666
1.66666
1.66666
1.67644
1.64222
1.64711
1.63734
1.62756
1.62756
1.64222
1.63734
1.63245
1.63734
1.65200
1.66177
1.66666
1.65689
1.66666
1.66177
1.65200
1.65200
1.66177
1.65200
1.64222
1.63734
1.64711
1.64222
1.62756
1.62756
1.63245
1.63734
1.62267
1.62267
1.62267
1.62756
1.62267
1.61779
1.62267
1.62267
1.61290
1.61290
1.61290
1.61779
1.60801
1.61290
1.62267
1.62756
1.61779
1.62267
1.65200
1.64711
1.66177
1.69599
1.73020
1.76441
1.77419
1.77908
1.78396
1.77908
1.75953
1.73998
1.72043
1.72043
1.69599
1.67644
1.67155
1.67155
1.66666
1.65200
1.64711
1.65200
1.64711
1.64711
1.66177
1.63734
1.63734
1.62756
1.63734
1.64222
1.64711
1.64222
1.65200
1.66177
1.68132
1.65200
1.65200
1.65689
1.65689
1.64222
1.64222
1.64222
1.64222
1.62756
1.62267
1.63245
1.63734
1.63245
1.61779
1.61779
1.62756
1.61290
1.61290
1.61290
1.61779
1.61290
1.61290
1.64222
1.61779
1.60801
1.60801
1.60801
1.61290
1.60801
1.60312
1.61290
1.62267
1.61779
1.63245
1.66177
1.72043
1.73998
1.75953
1.77419
1.79374
1.78885
1.77419
1.75953
1.76930
1.73509
1.71065
1.69599
1.69110
1.68132
1.66177
1.66177
1.66177
1.65200
1.64711
1.67155
1.64222
1.63734
1.62756
1.62267
1.63245
1.63245
1.62267
1.63245
1.63734
1.64711
1.64222
1.64222
1.64711
1.65200
1.64222
1.63734
1.64222
1.64711
1.63245
1.63245
1.65689
1.62756
1.61779
1.61290
1.61779
1.62267
1.61290
1.60801
1.61290
1.63734
1.60801
1.60312
1.60801
1.60801
1.60312
1.60312
1.62756
1.60801
1.60312
1.59335
1.59824
1.60312
1.60312
1.59335
1.59824
1.60801
1.60801
1.60312
1.62756
1.66666
1.70087
1.73020
1.75953
1.79374
1.79374
1.77419
1.76930
1.75464
1.73509
1.71065
1.69110
1.71554
1.68132
1.66177
1.65200
1.65200
1.65200
1.64222
1.64222
1.66666
1.63734
1.61779
1.61779
1.62756
1.62756
1.61779
1.62267
1.62267
1.63734
1.62756
1.63245
1.63734
1.64711
1.64222
1.64222
1.66666
1.65689
1.62756
1.62267
1.61779
1.62267
1.61290
1.60801
1.63734
1.64222
1.60801
1.59824
1.59824
1.60801
1.60312
1.59335
1.60312
1.60801
1.59824
1.58846
1.59335
1.59824
1.60312
1.59335
1.60312
1.62756
1.59824
1.58846
1.59335
1.59824
1.60312
1.58846
1.59335
1.60312
1.61779
1.62756
1.66177
1.70576
1.73998
1.75464
1.76441
1.78885
1.78885
1.75464
1.73998
1.72531
1.71554
1.69110
1.69110
1.66666
1.66666
1.64711
1.64222
1.64222
1.64222
1.63734
1.62756
1.63245
1.65200
1.61779
1.61290
1.62267
1.64222
1.62756
1.62267
1.64222
1.67644
1.64222
1.63734
1.64222
1.64711
1.64711
1.63245
1.63734
1.64222
1.64222
1.65200
1.62267
1.62756
1.62267
1.61290
1.61779
1.62267
1.62267
1.61290
1.62267
1.62756
1.61779
1.60801
1.60801
1.61290
1.61779
1.60801
1.60801
1.60801
1.61290
1.60801
1.60801
1.62756
1.63245
1.62756
1.60801
1.61290
1.62756
1.64222
1.67155
1.71065
1.75464
1.76930
1.77419
1.77908
1.77908
1.75953
1.74486
1.72531
1.72043
1.71065
1.68132
1.67155
1.67155
1.66177
1.64711
1.64711
1.65200
1.63734
1.63245
1.62756
1.63734
1.64711
1.62267
1.62756
1.63734
1.64711
1.66666
1.64222
1.65689
1.65689
1.64711
1.65200
1.65689
1.66177
1.64711
1.64711
1.66177
1.65689
1.62756
1.62756
1.62756
1.63245
1.62267
1.61779
1.62267
1.62756
1.61290
1.61290
1.61779
1.62267
1.61290
1.62267
1.61290
1.61779
1.60312
1.60312
1.60801
1.61290
1.60801
1.60312
1.61290
1.62756
1.65200
1.66177
1.69599
1.73998
1.79374
1.78396
1.78885
1.79374
1.77908
1.75464
1.73998
1.73509
1.71554
1.70576
1.68132
1.69110
1.67644
1.69599
1.65689
1.66177
1.65689
1.64222
1.64222
1.64222
1.64222
1.63734
1.63734
1.64222
1.64711
1.64222
1.64711
1.66177
1.66666
1.65689
1.65689
1.66666
1.66666
1.64711
1.65200
1.65200
1.65689
1.64222
1.65200
1.63734
1.65689
1.65200
1.62756
1.63245
1.63734
1.62267
1.62267
1.62267
1.63245
1.61779
1.61779
1.61779
1.62756
1.61779
1.62267
1.64222
1.64222
1.61779
1.61290
1.61290
1.62756
1.63245
1.64711
1.68132
1.73020
1.75953
1.77419
1.79374
1.80840
1.81329
1.77908
1.76441
1.75953
1.73509
1.71554
1.70087
1.70576
1.69599
1.68132
1.67155
1.67155
1.67155
1.66177
1.67644
1.65689
1.65689
1.64711
1.64222
1.68132
1.65200
1.64711
1.65200
1.66177
1.67155
1.68621
1.66177
1.66666
1.67155
1.65689
1.65200
1.65689
1.66177
1.64711
1.64222
1.64222
1.64711
1.63734
1.63245
1.63245
1.64222
1.63245
1.64711
1.65200
1.63245
1.62267
1.61779
1.62267
1.62756
1.61779
1.61290
1.61779
1.63245
1.63734
1.61290
1.61290
1.62267
1.61779
1.61290
1.62756
1.65689
1.68621
1.71554
1.75953
1.78885
1.79863
1.79374
1.78885
1.78396
1.76930
1.74975
1.73020
1.72043
1.71065
1.69110
1.68132
1.67644
1.67644
1.66666
1.66177
1.66177
1.66177
1.64711
1.64222
1.65200
1.68132
1.63734
1.64222
1.65200
1.65200
1.64711
1.65200
1.68621
1.66177
1.65200
1.65200
1.65200
1.65200
1.64711
1.64222
1.64222
1.64222
1.63245
1.62267
1.62267
1.63245
1.63245
1.61779
1.61779
1.62267
1.62267
1.61779
1.62756
1.61779
1.61779
1.60801
1.60801
1.61779
1.61779
1.61290
1.60312
1.61290
1.61290
1.60312
1.60801
1.61779
1.62267
1.60312
1.60801
1.62756
1.65689
1.68132
1.71554
1.76441
1.77908
1.77908
1.78396
1.78396
1.77419
1.74486
1.76441
1.72043
1.71065
1.68621
1.67644
1.67644
1.70087
1.68132
1.65689
1.65689
1.68621
1.64222
1.63734
1.63734
1.64222
1.63245
1.63734
1.63734
1.64711
1.64222
1.65689
1.65200
1.65689
1.65689
1.64711
1.64711
1.65689
1.65200
1.64222
1.64222
1.67155
1.65689
1.63734
1.62756
1.63245
1.62756
1.61779
1.61779
1.62756
1.62756
1.61290
1.61779
1.62756
1.62756
1.61779
1.62756
1.61779
1.62267
1.60801
1.60801
1.60801
1.62267
1.61290
1.61779
1.62756
1.61779
1.60801
1.60801
1.62756
1.65200
1.66666
1.70087
1.76441
1.77419
1.77419
1.77419
1.77419
1.77419
1.74486
1.72531
1.73998
1.71065
1.68132
1.67155
1.66666
1.66666
1.68621
1.67155
1.64711
1.64711
1.63734
1.62756
1.62267
1.64222
1.63245
1.62267
1.62756
1.64222
1.65689
1.63734
1.64711
1.65689
1.65689
1.64222
1.64711
1.65689
1.66666
1.66666
1.63245
1.63245
1.63245
1.62267
1.61779
1.62267
1.62267
1.61290
1.61779
1.64711
1.61779
1.60801
1.60801
1.60801
1.61290
1.60312
1.60312
1.60801
1.61779
1.63245
1.59824
1.60312
1.61290
1.60312
1.59824
1.60312
1.60801
1.61290
1.63245
1.66666
1.71065
1.76930
1.75953
1.77908
1.79374
1.77908
1.76441
1.74975
1.74486
1.72531
1.70087
1.69110
1.70087
1.70576
1.66177
1.65689
1.66177
1.65689
1.64222
1.64222
1.64711
1.64711
1.64222
1.62756
1.63734
1.63734
1.63734
1.63734
1.64711
1.65200
1.64222
1.65689
1.65200
1.65689
1.64711
1.64711
1.64711
1.64711
1.63245
1.64222
1.66177
1.64711
1.65200
1.62267
1.62267
1.62756
1.61290
1.61290
1.61290
1.61779
1.61290
1.60801
1.60801
1.61779
1.62756
1.61290
1.64222
1.64222
1.60801
1.59824
1.60312
1.60801
1.60801
1.59824
1.60312
1.61290
1.62267
1.63734
1.67155
1.72043
1.74486
1.79863
1.78885
1.79863
1.78885
1.76441
1.74975
1.74486
1.74486
1.71065
1.69110
1.68132
1.67644
1.65689
1.65200
1.65200
1.65200
1.63734
1.63245
1.63245
1.63734
1.61779
1.61779
1.62756
1.62756
1.62756
1.62267
1.62756
1.64711
1.63245
1.63245
1.64222
1.67644
1.63734
1.63245
1.63245
1.63734
1.62267
1.61779
1.61290
1.62267
1.61779
1.60801
1.60801
1.61290
1.60312
1.59824
1.59824
1.63245
1.59824
1.59335
1.58846
1.59335
1.59824
1.59335
1.58846
1.59824
1.59335
1.58357
1.58846
1.60312
1.59824
1.58357
1.58846
1.59335
1.59335
1.58846
1.60312
1.64222
1.67155
1.69110
1.73020
1.75953
1.76930
1.75953
1.75464
1.74486
1.73509
1.70087
1.72043
1.67644
1.67155
1.65200
1.64222
1.63734
1.64222
1.62756
1.62267
1.62267
1.62267
1.61290
1.60312
1.60312
1.60801
1.60312
1.62267
1.60801
1.61290
1.62267
1.61290
1.61779
1.63245
1.64222
1.62267
1.62756
1.63245
1.62756
1.61779
1.61779
1.62267
1.61779
1.62756
1.60312
1.61290
1.60312
1.59824
1.59824
1.60312
1.60312
1.59824
1.62756
1.60312
1.59824
1.58846
1.58846
1.59824
1.60312
1.59335
1.59335
1.59824
1.60801
1.60312
1.61290
1.59335
1.60312
1.58846
1.59335
1.59824
1.62267
1.64222
1.67644
1.71554
1.74486
1.74975
1.75464
1.75464
1.76441
1.73020
1.70576
1.69599
1.69110
1.66666
1.65200
1.64711
1.64711
1.63734
1.62756
1.62756
1.63245
1.62267
1.61779
1.63245
1.61779
1.61290
1.60312
1.60801
1.62267
1.62756
1.65200
1.62756
1.64222
1.64222
1.63245
1.63734
1.64222
1.64222
1.63245
1.63245
1.63245
1.63245
1.61779
1.63245
1.63245
1.63245
1.63245
1.60801
1.61290
1.61290
1.60312
1.60312
1.60801
1.61290
1.59824
1.59824
1.59335
1.59824
1.58357
1.58846
1.58846
1.59824
1.60801
1.56891
1.56891
1.57380
1.56402
1.58357
1.61779
1.66666
1.69599
1.70576
1.71065
1.71554
1.69599
1.68132
1.68621
1.66177
1.63734
1.62267
1.62267
1.62267
1.61779
1.60801
1.60312
1.60801
1.60312
1.59335
1.58846
1.59335
1.59335
1.59335
1.61290
1.63734
1.60801
1.60312
1.61290
1.62267
1.62756
1.62267
1.62267
1.63245
1.63734
1.62267
1.62267
1.62267
1.63245
1.62267
1.62267
1.62267
1.62267
1.60801
1.61290
1.61779
1.61779
1.60801
1.60801
1.61779
1.61779
1.61290
1.60801
1.61290
1.62267
1.60801
1.60801
1.61290
1.61779
1.61779
1.62267
1.64711
1.69110
1.71554
1.73998
1.76441
1.77908
1.80351
1.78396
1.77419
1.75953
1.73998
1.71554
1.71065
1.71065
1.73509
1.69110
1.70087
1.69599
1.69110
1.68132
1.68132
1.68132
1.68132
1.66177
1.65689
1.66177
1.66177
1.66177
1.66666
1.65689
1.66666
1.65689
1.66177
1.67155
1.67644
1.67155
1.66666
1.66666
1.67644
1.66666
1.66177
1.66177
1.66666
1.65200
1.64222
1.65200
1.65689
1.64711
1.64222
1.66666
1.66177
1.64711
1.61779
1.61779
1.62756
1.62267
1.62267
1.62756
1.64711
1.66666
1.69110
1.73020
1.78396
1.79863
1.80351
1.80840
1.81329
1.79374
1.77419
1.74975
1.74486
1.73020
1.70576
1.70087
1.70087
1.69599
1.67644
1.68132
1.68621
1.67644
1.66666
1.66177
1.69110
1.66177
1.64711
1.64711
1.65689
1.69599
1.66177
1.66177
1.67155
1.68132
1.67155
1.66666
1.69110
1.71065
1.69110
1.68132
1.66177
1.66666
1.65689
1.65200
1.65200
1.66177
1.65689
1.65200
1.65200
1.65689
1.64711
1.63734
1.63245
1.63734
1.63245
1.63734
1.64711
1.68132
1.70087
1.73020
1.74975
1.79374
1.77908
1.77908
1.77419
1.77419
1.76441
1.73998
1.73509
1.75464
1.72043
1.70576
1.71065
1.69110
1.67155
1.64711
1.63734
1.65689
1.63245
1.61290
1.63245
1.60312
1.60801
1.60801
1.60801
1.62267
1.64222
1.63734
1.65200
1.65200
1.69110
1.64711
1.64222
1.65200
1.68621
1.64222
1.63734
1.63734
1.64711
1.64222
1.63734
1.64222
1.64711
1.63734
1.63245
1.61779
1.62267
1.61290
1.60801
1.61290
1.62267
1.61290
1.64711
1.64711
1.68621
1.71554
1.73509
1.76441
1.76930
1.76441
1.74486
1.73020
1.72043
1.71065
1.68132
1.66177
1.64711
1.62756
1.60312
1.60312
1.61290
1.61779
1.61290
1.62267
1.64711
1.67155
1.63245
1.62756
1.62756
1.62756
1.61290
1.61779
1.62756
1.63734
1.63245
1.63734
1.64222
1.64711
1.63734
1.64711
1.66177
1.65689
1.65689
1.65200
1.66666
1.70087
1.68132
1.68621
1.66666
1.68132
1.66666
1.65200
1.65200
1.65689
1.64711
1.64711
1.64711
1.65689
1.65200
1.65689
1.68621
1.72043
1.74486
1.75953
1.76441
1.76930
1.75464
1.73020
1.71554
1.71065
1.69599
1.66666
1.67155
1.67155
1.68621
1.67644
1.68621
1.70087
1.69599
1.64711
1.63734
1.63245
1.63245
1.62267
1.62267
1.63734
1.64711
1.63734
1.64222
1.65689
1.66177
1.66177
1.68621
1.67644
1.66177
1.65689
1.61779
1.61290
1.62267
1.61290
1.60801
1.60801
1.62267
1.61779
1.63734
1.63734
1.64222
1.59824
1.58357
1.58357
1.59335
1.58846
1.58357
1.59335
1.61779
1.62756
1.64222
1.68132
1.71554
1.73509
1.73509
1.73509
1.73020
1.70576
1.67155
1.66177
1.64222
1.63734
1.62756
1.62756
1.63245
1.63245
1.61779
1.61290
1.61779
1.61779
1.60312
1.60312
1.60312
1.61290
1.62756
1.61779
1.61290
1.61290
1.60312
1.61290
1.61779
1.62267
1.61779
1.61779
1.62267
1.62267
1.60801
1.59824
1.59824
1.60312
1.59335
1.59335
1.59335
1.60312
1.59824
1.60312
1.61290
1.61779
1.61290
1.63245
1.59824
1.63734
1.59335
1.58846
1.59824
1.61779
1.62267
1.61779
1.62756
1.64711
1.66666
1.68621
1.71554
1.74975
1.79374
1.75953
1.74486
1.74486
1.72531
1.70087
1.72043
1.69110
1.68621
1.66666
1.66177
1.66177
1.65689
1.64222
1.62756
1.62756
1.62267
1.60801
1.60801
1.62267
1.59824
1.57869
1.58357
1.59335
1.60801
1.61779
1.60801
1.61779
1.62756
1.63245
1.61290
1.60801
1.61290
1.60312
1.59824
1.58846
1.59335
1.58357
1.56891
1.57869
1.57380
1.56891
1.56402
1.58846
1.56891
1.56402
1.58357
1.55425
1.56402
1.57869
1.54936
1.54936
1.58357
1.55913
1.54936
1.55425
1.56402
1.55913
1.55913
1.56402
1.58846
1.62756
1.62267
1.66177
1.70576
1.73998
1.74486
1.74975
1.73509
1.72043
1.69110
1.67644
1.67644
1.70087
1.67155
1.65200
1.64711
1.64711
1.63245
1.62756
1.63245
1.63245
1.61779
1.60312
1.60312
1.60312
1.59335
1.59335
1.59824
1.60801
1.60312
1.60801
1.62267
1.63734
1.62267
1.60801
1.60801
1.61290
1.60312
1.59335
1.59335
1.60312
1.60312
1.59824
1.60312
1.61290
1.61779
1.62756
1.63245
1.61290
1.60801
1.59824
1.59824
1.60312
1.59824
1.58846
1.58357
1.61290
1.59824
1.59335
1.60312
1.62267
1.62267
1.61290
1.63245
1.67155
1.71065
1.70087
1.73509
1.74975
1.76441
1.75464
1.74486
1.73998
1.73509
1.73020
1.70087
1.69599
1.69110
1.67155
1.66666
1.66177
1.66177
1.64222
1.63245
1.63734
1.64711
1.63245
1.65200
1.65200
1.63245
1.63734
1.64222
1.65200
1.67644
1.69599
1.68132
1.68132
1.70087
1.68132
1.66666
1.66666
1.67155
1.66177
1.64711
1.64711
1.64711
1.64711
1.63734
1.63734
1.64222
1.64711
1.63734
1.63734
1.64222
1.63734
1.62267
1.62267
1.62756
1.63245
1.62267
1.62267
1.62756
1.63245
1.62267
1.62756
1.64222
1.67155
1.70087
1.73509
1.77908
1.80840
1.80840
1.80351
1.83773
1.80351
1.76930
1.74975
1.73509
1.72531
1.71065
1.69110
1.68621
1.71554
1.69110
1.68621
1.66177
1.67155
1.66177
1.65200
1.65200
1.65689
1.65689
1.66666
1.64711
1.66177
1.65689
1.65689
1.66177
1.68132
1.69110
1.66666
1.67155
1.67644
1.67644
1.66666
1.66177
1.66666
1.67155
1.65200
1.64711
1.66666
1.66177
1.63245
1.62756
1.63245
1.63734
1.61779
1.62267
1.62756
1.64711
1.64222
1.61779
1.61779
1.61779
1.60801
1.61290
1.62756
1.61779
1.60801
1.60801
1.61290
1.62267
1.63734
1.67155
1.71554
1.75953
1.78396
1.80351
1.81329
1.83284
1.79863
1.77908
1.75953
1.74975
1.73020
1.73509
1.69599
1.69110
1.68132
1.66666
1.66177
1.67155
1.66177
1.66177
1.64222
1.64711
1.64711
1.62756
1.62756
1.63245
1.63734
1.63734
1.63245
1.67644
1.65200
1.64222
1.64711
1.65689
1.66177
1.66177
1.64222
1.64711
1.64711
1.63734
1.63734
1.63734
1.64222
1.63734
1.63245
1.62756
1.63245
1.62267
1.61779
1.62267
1.63734
1.63245
1.61290
1.61290
1.62267
1.61290
1.60801
1.61290
1.62267
1.61779
1.60312
1.60801
1.61779
1.61290
1.60312
1.60801
1.62756
1.64711
1.67644
1.72531
1.76930
1.79863
1.80351
1.80840
1.81329
1.79863
1.76930
1.76441
1.74486
1.72531
1.70087
1.69110
1.69110
1.68621
1.66177
1.66177
1.66177
1.66666
1.63734
1.63245
1.63734
1.63734
1.62267
1.61779
1.62267
1.63245
1.61779
1.62267
1.63245
1.63734
1.63734
1.63734
1.64222
1.64711
1.66666
1.63734
1.63734
1.64711
1.66177
1.62756
1.62756
1.63245
1.62267
1.62267
1.64222
1.62756
1.61779
1.61290
1.61290
1.61779
1.61290
1.60801
1.61290
1.62756
1.64222
1.60312
1.60312
1.60801
1.60801
1.60312
1.60801
1.61779
1.60801
1.59824
1.60801
1.63734
1.66666
1.69599
1.73509
1.77908
1.80351
1.80351
1.80351
1.80351
1.80840
1.76441
1.74486
1.73509
1.72531
1.69599
1.68621
1.68132
1.68132
1.66666
1.67644
1.66666
1.65200
1.63734
1.62756
1.63245
1.62756
1.61290
1.61779
1.61779
1.63245
1.62267
1.62756
1.63734
1.64711
1.65689
1.64711
1.65689
1.66177
1.65689
1.64711
1.64711
1.65689
1.65689
1.65200
1.67644
1.67155
1.67644
1.66666
1.67155
1.64222
1.64222
1.63245
1.63245
1.64222
1.63734
1.62756
1.62756
1.63245
1.63245
1.62267
1.61779
1.62756
1.63245
1.62267
1.63245
1.64222
1.67155
1.69599
1.73020
1.77419
1.81329
1.81818
1.82795
1.86217
1.82795
1.80351
1.78396
1.76930
1.76441
1.74486
1.72043
1.72043
1.71065
1.69110
1.68621
1.68621
1.70576
1.66666
1.65689
1.65200
1.66177
1.64222
1.63734
1.64222
1.64711
1.66666
1.64222
1.65200
1.66666
1.66177
1.66177
1.66666
1.67644
1.67155
1.66666
1.66666
1.67155
1.67155
1.69110
1.65689
1.66666
1.66177
1.64711
1.65200
1.65689
1.65689
1.64222
1.64222
1.64711
1.64711
1.63734
1.63734
1.63734
1.64222
1.62756
1.62756
1.63245
1.64222
1.63245
1.65689
1.70087
1.73020
1.77419
1.78396
1.81329
1.84261
1.83773
1.85728
1.83284
1.82306
1.78885
1.77419
1.75953
1.75464
1.75464
1.73998
1.73998
1.73998
1.70576
1.68132
1.67644
1.68132
1.66666
1.65200
1.65200
1.66666
1.65200
1.63734
1.64222
1.65200
1.65689
1.65200
1.68621
1.66666
1.67155
1.66177
1.66666
1.68621
1.67155
1.66177
1.65689
1.66177
1.66177
1.65200
1.65200
1.67644
1.65200
1.63734
1.63734
1.64222
1.64711
1.66177
1.63245
1.63734
1.64222
1.62756
1.63734
1.62756
1.63734
1.62267
1.62267
1.62267
1.62756
1.62267
1.62756
1.65200
1.70576
1.70576
1.74486
1.78396
1.84261
1.84261
1.84261
1.83773
1.82795
1.80840
1.77908
1.77419
1.75464
1.73509
1.72043
1.71554
1.72043
1.70576
1.69599
1.67155
1.67644
1.66177
1.64711
1.64711
1.65689
1.63734
1.65689
1.63245
1.63734
1.64222
1.63734
1.64222
1.64711
1.65689
1.64711
1.68132
1.65689
1.66177
1.65200
1.64711
1.65200
1.65200
1.63734
1.63245
1.66177
1.64222
1.62756
1.62267
1.63245
1.66177
1.61779
1.61779
1.61779
1.62756
1.61290
1.60801
1.60801
1.62267
1.60801
1.60312
1.60801
1.63245
1.60801
1.60312
1.60801
1.61779
1.63245
1.63245
1.67155
1.72043
1.75464
1.80840
1.80840
1.82306
1.81329
1.79374
1.77908
1.76930
1.75464
1.72043
1.70576
1.70087
1.70576
1.69110
1.69599
1.66177
1.65689
1.63734
1.63245
1.63245
1.63245
1.61290
1.60801
1.63245
1.61779
1.60312
1.60312
1.61290
1.62267
1.61779
1.62756
1.63245
1.63734
1.62756
1.63245
1.63245
1.63734
1.62756
1.62267
1.62267
1.62756
1.61290
1.61779
1.60801
1.61779
1.60801
1.60312
1.60801
1.61290
1.59824
1.59335
1.59824
1.60801
1.59335
1.58846
1.58846
1.59824
1.59335
1.60801
1.58357
1.59335
1.58846
1.57869
1.59335
1.60312
1.62756
1.65200
1.69599
1.73998
1.76930
1.77419
1.78396
1.78396
1.77908
1.75464
1.73998
1.72531
1.71554
1.69110
1.68132
1.68132
1.70576
1.67644
1.64711
1.64222
1.64222
1.62756
1.62267
1.62267
1.62756
1.60801
1.60312
1.61290
1.64222
1.61290
1.61779
1.63734
1.64222
1.64222
1.65689
1.64222
1.64711
1.64222
1.63734
1.63245
1.63734
1.62756
1.61779
1.62756
1.63245
1.62267
1.62267
1.64222
1.65689
1.64711
1.64222
1.60801
1.61779
1.61779
1.60312
1.60312
1.61290
1.61290
1.59824
1.59824
1.60801
1.60801
1.59824
1.60801
1.63734
1.64222
1.66177
1.70087
1.76441
1.77419
1.77908
1.79374
1.79863
1.79863
1.77419
1.75464
1.74975
1.73509
1.71554
1.70576
1.70087
1.69599
1.68132
1.67155
1.66666
1.66666
1.65689
1.67155
1.64222
1.64222
1.63245
1.62756
1.64222
1.64222
1.64222
1.64222
1.64711
1.66177
1.67155
1.67644
1.68621
1.66666
1.66177
1.65200
1.65200
1.65689
1.65200
1.64222
1.64222
1.64711
1.64222
1.62756
1.62267
1.63245
1.63245
1.62756
1.62756
1.64711
1.63245
1.61290
1.61290
1.61779
1.61779
1.60801
1.61290
1.61779
1.63245
1.62267
1.65689
1.65689
1.73020
1.75953
1.76441
1.79374
1.81818
1.84261
1.81329
1.80351
1.78885
1.76441
1.74975
1.76441
1.73998
1.71554
1.70576
1.70087
1.70087
1.68621
1.67644
1.67155
1.68132
1.67155
1.67644
1.67644
1.65689
1.65200
1.64711
1.67155
1.66177
1.66666
1.66666
1.70087
1.67644
1.67644
1.66666
1.66666
1.67155
1.67155
1.66177
1.67644
1.67155
1.68621
1.67644
1.64222
1.64711
1.64711
1.65689
1.63245
1.63734
1.63734
1.62267
1.61779
1.62756
1.63245
1.65200
1.62756
1.61779
1.62267
1.61290
1.61290
1.61779
1.62267
1.61290
1.62267
1.64222
1.67644
1.70576
1.73998
1.77419
1.82795
1.81818
1.81329
1.81329
1.80840
1.78885
1.76930
1.76441
1.74975
1.73509
1.71554
1.71554
1.71065
1.70576
1.68621
1.68621
1.68621
1.68132
1.66666
1.67155
1.68621
1.66177
1.65200
1.65689
1.66666
1.70087
1.66666
1.67155
1.68132
1.68621
1.68621
1.70087
1.70087
1.67644
1.66177
1.65689
1.66177
1.65689
1.64711
1.64222
1.64711
1.64222
1.63734
1.66177
1.63245
1.63734
1.62267
1.61779
1.62267
1.62756
1.62267
1.61290
1.61290
1.62267
1.60801
1.60801
1.61779
1.63245
1.60801
1.60312
1.60312
1.61290
1.60312
1.60801
1.65200
1.65689
1.68621
1.71554
1.75464
1.78885
1.80351
1.79863
1.79374
1.79374
1.77908
1.75464
1.75953
1.73020
1.72043
1.70087
1.69599
1.69110
1.68621
1.67155
1.66666
1.67155
1.66666
1.64711
1.64222
1.64711
1.66177
1.63245
1.63734
1.64711
1.65200
1.64711
1.65689
1.68621
1.66177
1.65200
1.64711
1.65200
1.66177
1.64222
1.64711
1.66177
1.64222
1.62756
1.62267
1.62267
1.62756
1.61779
1.60801
1.61290
1.63734
1.62756
1.60312
1.60312
1.60801
1.60312
1.62267
1.59335
1.60312
1.59824
1.58846
1.60312
1.59824
1.59824
1.59335
1.61779
1.59335
1.59335
1.58846
1.59335
1.60801
1.63734
1.64222
1.67644
1.72043
1.74975
1.76441
1.77419
1.77419
1.77419
1.74975
1.73509
1.72531
1.71554
1.70087
1.68621
1.67155
1.67155
1.65689
1.65200
1.65689
1.65689
1.64222
1.63734
1.64711
1.64711
1.62756
1.62267
1.62756
1.64222
1.63734
1.66666
1.64222
1.65689
1.65200
1.64711
1.64711
1.65689
1.64711
1.64222
1.64222
1.64711
1.63245
1.62756
1.62756
1.64222
1.64711
1.63734
1.61290
1.62267
1.64711
1.62756
1.60801
1.61290
1.60801
1.59824
1.59824
1.60801
1.60801
1.59335
1.59335
1.60312
1.60801
1.59824
1.62267
1.59824
1.60312
1.59335
1.59824
1.61779
1.64711
1.66666
1.70576
1.76441
1.76930
1.76441
1.76930
1.76930
1.76441
1.73998
1.72531
1.73998
1.71554
1.68621
1.67644
1.67644
1.67644
1.66177
1.65200
1.65200
1.65689
1.64222
1.63734
1.63734
1.63734
1.63245
1.62756
1.63734
1.64711
1.66666
1.64222
1.64711
1.65689
1.65689
1.64711
1.64711
1.64711
1.64711
1.63734
1.63734
1.64222
1.63734
1.62267
1.62267
1.62756
1.62756
1.61779
1.61779
1.61779
1.62267
1.61290
1.61290
1.61290
1.61779
1.60312
1.61779
1.60801
1.63734
1.59824
1.59824
1.60312
1.60801
1.59824
1.59824
1.60312
1.60801
1.60312
1.60312
1.61290
1.63245
1.64711
1.68621
1.71065
1.75464
1.76930
1.77908
1.78396
1.78885
1.79374
1.77419
1.74486
1.73509
1.71554
1.69599
1.69599
1.69110
1.68132
1.66666
1.66177
1.66666
1.65689
1.64711
1.64222
1.64711
1.64711
1.63734
1.63245
1.64222
1.64222
1.63734
1.64711
1.68621
1.65689
1.64711
1.64711
1.65200
1.65200
1.64222
1.64222
1.65689
1.65200
1.62756
1.62267
1.62756
1.62756
1.61779
1.61290
1.61779
1.61779
1.60801
1.60312
1.60801
1.61779
1.60312
1.61779
1.59824
1.60801
1.59824
1.58846
1.59335
1.60801
1.60312
1.58846
1.59335
1.60312
1.59335
1.58846
1.58846
1.60312
1.60312
1.59824
1.60312
1.61779
1.63734
1.66177
1.70087
1.73509
1.76441
1.76930
1.77908
1.78396
1.77419
1.75464
1.73509
1.73020
1.72043
1.69110
1.67644
1.69110
1.67644
1.65689
1.65200
1.65200
1.65689
1.65689
1.66177
1.63245
1.63245
1.61779
1.61779
1.61779
1.62756
1.61779
1.62267
1.63245
1.64222
1.63734
1.62756
1.63245
1.63734
1.62756
1.62267
1.62267
1.63245
1.62267
1.62267
1.61290
1.61779
1.60801
1.59824
1.59824
1.60312
1.60312
1.59824
1.61290
1.59824
1.59335
1.58357
1.58357
1.59335
1.59824
1.59335
1.58357
1.58846
1.58357
1.57380
1.57380
1.58357
1.58846
1.60801
1.57380
1.58357
1.58357
1.57380
1.57869
1.58846
1.60312
1.61290
1.65200
1.69110
1.72043
1.73020
1.78396
1.76441
1.76930
1.74486
1.73020
1.71554
1.71065
1.69110
1.66666
1.66177
1.66177
1.64222
1.63734
1.63245
1.63734
1.62267
1.61779
1.61290
1.61779
1.60801
1.60312
1.60312
1.61290
1.60801
1.60801
1.61290
1.63245
1.63734
1.62756
1.62756
1.63245
1.62756
1.62267
1.62267
1.62267
1.61779
1.59824
1.59824
1.60801
1.59824
1.59335
1.59335
1.59824
1.59824
1.58846
1.59824
1.62267
1.58846
1.57869
1.57869
1.58357
1.58357
1.57380
1.57869
1.58357
1.57869
1.56891
1.56891
1.56891
1.58357
1.56402
1.57380
1.57869
1.58357
1.58846
1.60801
1.64222
1.69599
1.70576
1.72531
1.73998
1.75953
1.73509
1.72043
1.71065
1.69599
1.67644
1.65200
1.63734
1.63734
1.64222
1.61290
1.61290
1.62267
1.59824
1.58846
1.58846
1.59335
1.58846
1.57380
1.58357
1.58846
1.59335
1.58846
1.59335
1.60312
1.60801
1.60312
1.59824
1.60801
1.60801
1.60312
1.60312
1.60801
1.60801
1.59824
1.59824
1.60312
1.60312
1.59335
1.59335
1.59335
1.59335
1.58357
1.59335
1.60312
1.60312
1.59335
1.59335
1.61779
1.61290
1.59824
1.61779
1.61779
1.62756
1.61779
1.61290
1.61779
1.60312
1.59824
1.63734
1.63734
1.68132
1.69110
1.71065
1.73509
1.75953
1.75953
1.78396
1.76930
1.74486
1.72043
1.69599
1.68621
1.68621
1.67155
1.66666
1.66666
1.66666
1.65689
1.64711
1.64222
1.65200
1.65200
1.64222
1.64711
1.65689
1.66666
1.67155
1.69110
1.67155
1.67644
1.66666
1.67155
1.67644
1.68132
1.66666
1.67155
1.66666
1.66177
1.64711
1.64222
1.64711
1.65200
1.63734
1.64222
1.64222
1.64711
1.63245
1.63245
1.63245
1.63734
1.62267
1.61779
1.62267
1.62756
1.61779
1.61290
1.60801
1.62267
1.61290
1.61779
1.63245
1.66666
1.69110
1.72043
1.74975
1.77908
1.80351
1.77908
1.76930
1.76930
1.75464
1.73020
1.74486
1.72531
1.70087
1.68132
1.67644
1.68132
1.67644
1.66177
1.65200
1.65689
1.65200
1.63245
1.62756
1.63245
1.65200
1.61779
1.62267
1.66666
1.65200
1.64222
1.65200
1.66177
1.68621
1.66177
1.64711
1.64711
1.64711
1.63734
1.63245
1.62756
1.63245
1.61290
1.60312
1.60801
1.62267
1.60312
1.59824
1.60801
1.60801
1.60801
1.61290
1.60312
1.60801
1.60312
1.59824
1.60312
1.61779
1.62756
1.60312
1.60312
1.61779
1.63734
1.65689
1.69599
1.74486
1.78885
1.78396
1.79374
1.79863
1.78396
1.75953
1.73998
1.73020
1.72531
1.70087
1.68621
1.68621
1.68132
1.66666
1.66177
1.66177
1.66177
1.64222
1.63734
1.64222
1.65200
1.63245
1.63245
1.63734
1.65200
1.64711
1.65200
1.65689
1.66177
1.65200
1.64711
1.65200
1.65689
1.64222
1.63734
1.64222
1.64222
1.63245
1.63734
1.64711
1.62267
1.61290
1.60801
1.60801
1.61290
1.60312
1.59824
1.60312
1.61779
1.60312
1.59824
1.59824
1.61290
1.61290
1.61290
1.60312
1.60801
1.61290
1.60312
1.60801
1.61290
1.61779
1.61779
1.63734
1.67644
1.71554
1.73998
1.76930
1.79863
1.80840
1.82795
1.79374
1.77908
1.76441
1.73509
1.71554
1.72043
1.70576
1.69110
1.68621
1.68621
1.68621
1.67644
1.67155
1.66666
1.67155
1.65689
1.64711
1.66177
1.65200
1.64222
1.63734
1.64222
1.66177
1.67644
1.65200
1.65689
1.66666
1.65689
1.64711
1.65200
1.65689
1.65200
1.65200
1.64711
1.63734
1.63245
1.62267
1.61779
1.62756
1.62267
1.61290
1.62267
1.64711
1.65200
1.61779
1.61779
1.62756
1.62756
1.61779
1.61779
1.62756
1.62756
1.61779
1.61779
1.62267
1.62756
1.60801
1.61290
1.61779
1.62267
1.61290
1.61290
1.62267
1.63245
1.63245
1.65689
1.68621
1.73020
1.75464
1.77908
1.80840
1.81818
1.79863
1.77908
1.76930
1.75953
1.73509
1.71065
1.70576
1.70087
1.71065
1.68621
1.70087
1.68621
1.67644
1.68621
1.69110
1.66177
1.65200
1.64222
1.64222
1.65200
1.65200
1.64222
1.64711
1.65689
1.65689
1.65200
1.66177
1.67155
1.67644
1.65689
1.66177
1.67155
1.65689
1.65200
1.66177
1.63245
1.63245
1.61779
1.61779
1.62267
1.62756
1.61290
1.61290
1.61779
1.62756
1.62756
1.60801
1.61290
1.61779
1.60801
1.60801
1.61290
1.63734
1.60312
1.60312
1.60801
1.61779
1.60801
1.60312
1.61290
1.62267
1.61779
1.61290
1.61779
1.62267
1.61779
1.61290
1.61290
1.63245
1.63245
1.65689
1.69110
1.74486
1.76930
1.78396
1.79863
1.80840
1.79863
1.80840
1.76441
1.75464
1.73509
1.73998
1.70087
1.69599
1.72043
1.69599
1.69599
1.66666
1.70087
1.67155
1.65200
1.65689
1.65689
1.64222
1.64222
1.64222
1.65200
1.65200
1.64711
1.65200
1.66177
1.65689
1.67155
1.68621
1.67155
1.64711
1.64711
1.64711
1.64711
1.63734
1.62756
1.63245
1.63734
1.62756
1.61779
1.61779
1.62267
1.61779
1.61290
1.62267
1.63734
1.63245
1.60312
1.60312
1.61290
1.60801
1.60312
1.60312
1.61290
1.61290
1.61779
1.62756
1.60801
1.60801
1.59824
1.60312
1.60801
1.60801
1.60312
1.60312
1.60312
1.60312
1.60312
1.61779
1.60801
1.61779
1.61779
1.64711
1.68621
1.73020
1.75953
1.78396
1.79863
1.80840
1.78885
1.77419
1.76441
1.74975
1.72531
1.70576
1.69599
1.69599
1.68132
1.67155
1.66666
1.66666
1.66177
1.65200
1.65200
1.66177
1.63734
1.63245
1.63245
1.64222
1.65689
1.63734
1.64711
1.66177
1.66666
1.65689
1.66177
1.67155
1.66177
1.65689
1.65200
1.65689
1.65200
1.63245
1.63245
1.63734
1.63245
1.62267
1.61779
1.62756
1.62267
1.61779
1.62756
1.64222
1.64711
1.63734
1.63245
1.61290
1.61779
1.60312
1.60801
1.60801
1.61779
1.59824
1.60312
1.61290
1.61779
1.60801
1.60801
1.62756
1.62756
1.62756
1.63734
1.62756
1.63245
1.61290
1.61290
1.63734
1.67644
1.73509
1.73998
1.77419
1.80351
1.80840
1.80351
1.79374
1.78885
1.76441
1.76441
1.73020
1.72043
1.70576
1.68621
1.67644
1.68132
1.67644
1.66666
1.65689
1.66177
1.65200
1.64222
1.64222
1.67155
1.63734
1.63245
1.63245
1.65200
1.64711
1.64711
1.64711
1.65689
1.66666
1.65200
1.65200
1.65200
1.66177
1.64711
1.64222
1.64711
1.65689
1.62756
1.62756
1.62756
1.62756
1.61779
1.61290
1.62267
1.63734
1.61779
1.60801
1.60801
1.61779
1.60801
1.60312
1.60312
1.61290
1.61290
1.62267
1.60312
1.60801
1.59824
1.59335
1.59824
1.60801
1.60312
1.61779
1.59824
1.60801
1.60312
1.59824
1.59824
1.61290
1.62267
1.63734
1.67644
1.73020
1.76930
1.78396
1.80351
1.81818
1.81329
1.78885
1.76930
1.76441
1.73998
1.71065
1.72531
1.69110
1.68621
1.66666
1.66177
1.65689
1.66177
1.64711
1.64711
1.67155
1.64222
1.62756
1.64222
1.62756
1.63734
1.62267
1.62756
1.64711
1.64711
1.67644
1.64711
1.65200
1.66177
1.66666
1.63734
1.63734
1.64711
1.63734
1.62756
1.63245
1.63245
1.62756
1.63245
1.61779
1.62267
1.61779
1.60801
1.60801
1.60801
1.60801
1.61290
1.62267
1.60801
1.60801
1.59824
1.59824
1.60801
1.61290
1.61779
1.59335
1.59824
1.60312
1.59335
1.59335
1.59335
1.60312
1.59335
1.62267
1.62756
1.63245
1.60801
1.62756
1.59824
1.60801
1.60801
1.62756
1.66666
1.71554
1.74486
1.77419
1.79374
1.82306
1.80840
1.78885
1.76930
1.75953
1.73020
1.73020
1.70087
1.69110
1.67155
1.66177
1.65689
1.66177
1.64711
1.63734
1.63245
1.63245
1.63245
1.61779
1.62267
1.62267
1.65200
1.61290
1.61779
1.66666
1.63245
1.63245
1.64711
1.64711
1.64711
1.64222
1.66666
1.64222
1.63734
1.62756
1.62267
1.63245
1.62756
1.63245
1.61290
1.61779
1.61779
1.60312
1.60312
1.60801
1.63245
1.59335
1.59335
1.59824
1.60312
1.58357
1.59824
1.58846
1.59824
1.58846
1.58357
1.59335
1.62267
1.60312
1.58357
1.58846
1.59335
1.58846
1.58357
1.59335
1.60312
1.59824
1.58846
1.58846
1.60312
1.59824
1.60801
1.63245
1.68132
1.71554
1.73998
1.76441
1.78885
1.78396
1.77419
1.75953
1.76441
1.73509
1.70576
1.69599
1.69599
1.68132
1.66177
1.65689
1.65689
1.64711
1.63245
1.63245
1.63734
1.65200
1.61779
1.61290
1.61779
1.65200
1.61290
1.62267
1.63734
1.63734
1.63245
1.64222
1.65200
1.67155
1.66666
1.64222
1.64222
1.65200
1.63734
1.63245
1.63245
1.63734
1.62267
1.62267
1.62267
1.62756
1.61779
1.61290
1.61290
1.62267
1.61290
1.60312
1.60312
1.61290
1.60312
1.60312
1.60801
1.61290
1.60801
1.60312
1.60312
1.61290
1.60801
1.59824
1.60312
1.61290
1.61290
1.63245
1.63245
1.61779
1.61290
1.61290
1.63734
1.67644
1.71554
1.73998
1.75953
1.78396
1.78885
1.77419
1.76930
1.77908
1.74975
1.72043
1.70576
1.69599
1.69599
1.67155
1.66177
1.69110
1.67644
1.66177
1.64711
1.65200
1.68132
1.63734
1.63245
1.63245
1.63734
1.62756
1.63245
1.64711
1.67644
1.64711
1.65200
1.65689
1.66666
1.65689
1.65200
1.65200
1.65689
1.65200
1.64711
1.64222
1.64711
1.63734
1.63245
1.62756
1.63734
1.63245
1.62267
1.62267
1.62756
1.62756
1.61779
1.61779
1.62267
1.62267
1.60801
1.61290
1.62267
1.62267
1.60801
1.60801
1.62267
1.62267
1.60801
1.61779
1.62756
1.62267
1.61779
1.63734
1.61779
1.62756
1.66177
1.66177
1.73020
1.74975
1.76441
1.79863
1.80840
1.80840
1.79374
1.77908
1.76441
1.76930
1.72531
1.71554
1.70576
1.71065
1.69110
1.68132
1.68132
1.68132
1.67155
1.66177
1.66177
1.66177
1.65689
1.64711
1.66177
1.65689
1.65689
1.65200
1.66177
1.70087
1.70576
1.68621
1.67155
1.67644
1.67644
1.66666
1.66666
1.67155
1.66666
1.65689
1.65200
1.65689
1.65200
1.63734
1.63734
1.64222
1.64222
1.63245
1.63245
1.63734
1.63734
1.62267
1.62267
1.62756
1.63245
1.61779
1.61779
1.62267
1.63245
1.63245
1.61779
1.61779
1.65689
1.64711
1.64711
1.61779
1.62267
1.61779
1.61290
1.61779
1.62267
1.63245
1.66177
1.65200
1.71554
1.73509
1.75464
1.78885
1.81329
1.81329
1.80351
1.80351
1.79374
1.76930
1.74486
1.73020
1.75953
1.71065
1.70087
1.69599
1.69599
1.68621
1.67644
1.66666
1.67155
1.66666
1.65200
1.65200
1.66177
1.66177
1.65689
1.64711
1.65200
1.68621
1.65200
1.65689
1.66177
1.67155
1.66666
1.68132
1.67155
1.67644
1.64711
1.64711
1.64711
1.65200
1.63734
1.63245
1.63245
1.64222
1.62267
1.62756
1.63245
1.63245
1.61779
1.61290
1.61779
1.61779
1.61290
1.61290
1.63245
1.61779
1.61290
1.60801
1.61290
1.61779
1.60801
1.59824
1.60312
1.61290
1.60801
1.60312
1.60801
1.62756
1.61779
1.61779
1.60801
1.61290
1.60801
1.61290
1.63245
1.67155
1.70576
1.73509
1.76441
1.79374
1.80840
1.78885
1.77419
1.76930
1.75953
1.73509
1.71554
1.70576
1.69599
1.67644
1.66666
1.66666
1.66666
1.65200
1.65200
1.65200
1.65200
1.63245
1.63734
1.63734
1.63734
1.63245
1.63245
1.66666
1.64711
1.64222
1.65200
1.68132
1.66177
1.65200
1.64711
1.65200
1.65689
1.67644
1.64222
1.63734
1.63734
1.65689
1.65689
1.65200
1.65689
1.65200
1.61290
1.61290
1.61779
1.61290
1.60801
1.61290
1.61779
1.61290
1.62756
1.63734
1.63734
1.63734
1.59824
1.59824
1.60312
1.60801
1.59335
1.59824
1.60312
1.60801
1.60312
1.59824
1.59824
1.60801
1.59335
1.60312
1.60801
1.63245
1.64711
1.67644
1.71554
1.76930
1.76930
1.77419
1.78396
1.78396
1.76441
1.77419
1.73020
1.72043
1.69599
1.68132
1.67644
1.67155
1.66177
1.65200
1.65200
1.65200
1.63734
1.62756
1.63245
1.63734
1.64222
1.62267
1.62756
1.64222
1.64222
1.65689
1.64222
1.65689
1.65689
1.65200
1.65689
1.66177
1.65689
1.64711
1.64711
1.64711
1.64222
1.63245
1.63245
1.63245
1.63734
1.62267
1.61779
1.62267
1.62756
1.61779
1.61779
1.61779
1.62267
1.61290
1.61290
1.61290
1.61779
1.60801
1.60801
1.61290
1.61779
1.60801
1.60801
1.61290
1.61779
1.60801
1.60801
1.60801
1.61779
1.62267
1.64222
1.67644
1.72043
1.76441
1.77419
1.79374
1.80351
1.79374
1.77908
1.76930
1.75953
1.74975
1.72043
1.70576
1.70576
1.69110
1.68132
1.67155
1.67155
1.66666
1.65200
1.64711
1.65689
1.66177
1.63734
1.63734
1.64711
1.65200
1.65200
1.65200
1.66177
1.66666
1.65689
1.66177
1.66666
1.66666
1.65689
1.65200
1.65200
1.65689
1.64222
1.64222
1.64222
1.64222
1.63245
1.63734
1.65689
1.65689
1.61779
1.61779
1.61779
1.62267
1.61290
1.60801
1.61290
1.62267
1.61290
1.63245
1.61290
1.61779
1.61290
1.60312
1.60801
1.61779
1.61290
1.60801
1.60801
1.61779
1.61290
1.61779
1.64222
1.68132
1.71554
1.73998
1.77419
1.79863
1.80351
1.79374
1.78396
1.77908
1.77419
1.73020
1.72043
1.71554
1.71554
1.68621
1.67644
1.67644
1.67644
1.66177
1.65689
1.65689
1.65689
1.64222
1.64222
1.64222
1.65689
1.63734
1.64222
1.64222
1.67644
1.64711
1.65200
1.65689
1.66177
1.65200
1.66177
1.64711
1.67155
1.63734
1.63245
1.63245
1.63734
1.62756
1.62267
1.62267
1.62756
1.64222
1.64222
1.60801
1.61779
1.60801
1.60801
1.59824
1.60801
1.60801
1.60312
1.60801
1.60801
1.60801
1.59824
1.59824
1.60801
1.60312
1.59335
1.61779
1.60312
1.60312
1.59335
1.59335
1.60312
1.60801
1.60801
1.62756
1.66666
1.70576
1.72531
1.75953
1.77908
1.79374
1.77419
1.76441
1.78885
1.74975
1.71554
1.70087
1.69599
1.68621
1.67155
1.66177
1.66177
1.66666
1.65200
1.64711
1.64711
1.64711
1.63734
1.62756
1.63245
1.64222
1.63734
1.65689
1.63245
1.64222
1.64222
1.63734
1.64222
1.65200
1.64222
1.63734
1.64222
1.64222
1.63245
1.62267
1.61779
1.62756
1.62756
1.60312
1.61290
1.62267
1.60801
1.59824
1.59824
1.59824
1.59824
1.58846
1.59824
1.60801
1.62756
1.58846
1.58846
1.59335
1.59824
1.58846
1.58357
1.58846
1.59824
1.58357
1.58846
1.59824
1.62756
1.58846
1.58357
1.58846
1.59824
1.58846
1.58846
1.59335
1.61290
1.62267
1.65200
1.69110
1.73020
1.74486
1.75464
1.76441
1.76930
1.74975
1.73020
1.74486
1.71554
1.69110
1.67644
1.67155
1.67155
1.66177
1.65200
1.64711
1.65200
1.64711
1.63245
1.63245
1.63734
1.63245
1.62267
1.62267
1.63245
1.63245
1.62756
1.63734
1.64222
1.65200
1.64222
1.64711
1.64711
1.64711
1.63245
1.63245
1.63245
1.63245
1.61779
1.61290
1.61290
1.62267
1.60801
1.61290
1.63245
1.64711
1.60312
1.60312
1.60312
1.61290
1.59824
1.59824
1.59824
1.60801
1.59824
1.59824
1.59824
1.60801
1.59824
1.59824
1.59824
1.60801
1.60312
1.59824
1.59824
1.60801
1.59824
1.59335
1.59824
1.61779
1.62756
1.63734
1.67644
1.71554
1.73998
1.75464
1.79374
1.79863
1.77419
1.74975
1.73020
1.72531
1.71065
1.71065
1.68132
1.67644
1.67155
1.65689
1.65689
1.65689
1.65689
1.65689
1.66666
1.67155
1.67155
1.62756
1.62756
1.63734
1.64222
1.63734
1.63734
1.64711
1.65689
1.64711
1.64711
1.64711
1.65689
1.64222
1.63734
1.63734
1.64222
1.62756
1.62267
1.62267
1.62756
1.61779
1.61290
1.61779
1.62267
1.60801
1.61290
1.61290
1.62267
1.61779
1.61290
1.60801
1.61290
1.60801
1.59824
1.60312
1.61290
1.60801
1.59824
1.60312
1.60801
1.60801
1.59824
1.60312
1.60801
1.61290
1.60801
1.60801
1.61779
1.63245
1.64711
1.65200
1.69599
1.71554
1.73509
1.76441
1.78396
1.79863
1.78396
1.77419
1.76441
1.75464
1.72531
1.72043
1.70087
1.69599
1.68132
1.67155
1.67155
1.67644
1.66666
1.65689
1.66177
1.69110
1.67155
1.63734
1.64222
1.64711
1.64222
1.64222
1.64711
1.68621
1.65200
1.64711
1.65200
1.65689
1.65200
1.64222
1.64222
1.65200
1.64711
1.63245
1.62756
1.63734
1.63734
1.62756
1.62756
1.62267
1.61779
1.60801
1.60801
1.61290
1.61290
1.60312
1.60312
1.61290
1.61290
1.59824
1.59824
1.60312
1.60801
1.59335
1.59824
1.60312
1.60801
1.59335
1.60312
1.60801
1.61779
1.60312
1.60801
1.60312
1.62267
1.59824
1.59824
1.59824
1.60312
1.59824
1.59335
1.59824
1.60801
1.61290
1.63245
1.66177
1.70576
1.73998
1.75464
1.77908
1.79374
1.81329
1.77419
1.75953
1.74975
1.72531
1.69599
1.68621
1.68132
1.67644
1.66177
1.65200
1.65689
1.65689
1.64222
1.64222
1.64222
1.63734
1.62756
1.63734
1.62756
1.63245
1.61779
1.62756
1.63734
1.64222
1.63734
1.64222
1.64711
1.64711
1.63245
1.63734
1.63734
1.65200
1.63734
1.65200
1.62267
1.62267
1.60801
1.60801
1.60801
1.61290
1.60312
1.60312
1.60801
1.60801
1.59824
1.59335
1.59335
1.59824
1.59335
1.59335
1.62267
1.59335
1.58846
1.58357
1.58846
1.59824
1.58846
1.58357
1.58846
1.62756
1.59335
1.58357
1.58846
1.59335
1.58846
1.58357
1.58357
1.59335
1.59335
1.58357
1.58846
1.59824
1.60801
1.62267
1.65689
1.70087
1.73998
1.74486
1.76441
1.76930
1.76441
1.74486
1.73509
1.71554
1.70576
1.68132
1.69599
1.66177
1.66177
1.64222
1.63734
1.63245
1.64222
1.62267
1.62267
1.62267
1.62756
1.63245
1.60801
1.61290
1.62267
1.61290
1.61290
1.65689
1.63245
1.63245
1.62756
1.63734
1.64222
1.63245
1.62267
1.62267
1.63245
1.62267
1.61290
1.61290
1.61779
1.60801
1.60312
1.60801
1.64222
1.60801
1.59335
1.59335
1.59824
1.59824
1.58846
1.59335
1.59824
1.59824
1.58846
1.58357
1.60312
1.62267
1.59335
1.59335
1.59824
1.59824
1.58846
1.59335
1.60312
1.60312
1.59335
1.59335
1.59824
1.60312
1.59335
1.59824
1.60801
1.62756
1.64222
1.67155
1.72043
1.74975
1.75953
1.76441
1.77419
1.77419
1.75464
1.74486
1.72043
1.71065
1.68621
1.70087
1.66177
1.66177
1.64711
1.64222
1.64222
1.64222
1.63245
1.62267
1.62756
1.64222
1.65689
1.61779
1.61779
1.62756
1.62756
1.62756
1.66177
1.67155
1.64711
1.64222
1.64711
1.65200
1.65200
1.63734
1.63734
1.63734
1.63734
1.62267
1.62267
1.62267
1.62756
1.60801
1.61290
1.62267
1.62267
1.61290
1.61290
1.60801
1.61779
1.60312
1.63734
1.63734
1.61290
1.60312
1.60312
1.60801
1.61290
1.60312
1.60312
1.60312
1.61290
1.60312
1.59824
1.60312
1.61290
1.60801
1.61290
1.63245
1.66177
1.69110
1.72043
1.75464
1.78396
1.80840
1.79374
1.77908
1.77419
1.75464
1.73020
1.72043
1.71554
1.69599
1.67644
1.67155
1.67644
1.70087
1.68132
1.67155
1.68621
1.68621
1.64222
1.63734
1.63734
1.63734
1.62756
1.65200
1.63734
1.64711
1.64222
1.64711
1.66666
1.67155
1.67155
1.64711
1.65200
1.65200
1.63734
1.63245
1.63734
1.63734
1.62756
1.62267
1.62267
1.62756
1.62267
1.61290
1.64711
1.65200
1.64222
1.62756
1.63734
1.62756
1.61290
1.60312
1.60801
1.61290
1.60801
1.60312
1.60312
1.60801
1.60801
1.59824
1.60312
1.60801
1.60801
1.60312
1.60801
1.61779
1.62267
1.63734
1.66666
1.71554
1.75464
1.76441
1.78396
1.80351
1.80351
1.77908
1.76930
1.76441
1.73998
1.71554
1.70087
1.69599
1.69599
1.67155
1.67155
1.67155
1.67155
1.65689
1.65200
1.67644
1.64711
1.63734
1.63734
1.63734
1.64222
1.64222
1.66666
1.64711
1.65689
1.65200
1.65689
1.66666
1.69110
1.65200
1.64711
1.64222
1.64711
1.63734
1.63245
1.63245
1.63734
1.62756
1.62267
1.62267
1.62756
1.62267
1.61290
1.61290
1.62267
1.61290
1.60312
1.61290
1.62756
1.64222
1.59824
1.59824
1.60801
1.60801
1.59824
1.59824
1.60312
1.60801
1.59824
1.59335
1.60312
1.60312
1.59335
1.60312
1.61779
1.65200
1.68621
1.72043
1.75953
1.76930
1.77908
1.79374
1.79374
1.78885
1.76930
1.74975
1.73020
1.72043
1.69599
1.68621
1.67644
1.67644
1.68132
1.68132
1.68132
1.66177
1.66666
1.65689
1.62756
1.63734
1.62756
1.62756
1.62756
1.63734
1.65200
1.63245
1.63734
1.65200
1.67644
1.64222
1.64222
1.64711
1.64711
1.63245
1.64711
1.63245
1.62756
1.61779
1.61290
1.61779
1.61290
1.60312
1.60801
1.63245
1.60801
1.59824
1.59824
1.59824
1.59824
1.58846
1.59335
1.59824
1.60801
1.58357
1.58846
1.59335
1.59824
1.58357
1.58357
1.58846
1.59335
1.58846
1.61290
1.62267
1.59335
1.58846
1.59824
1.62267
1.66177
1.69110
1.72531
1.76441
1.78396
1.78396
1.77419
1.76441
1.79374
1.74486
1.71065
1.69599
1.69110
1.68132
1.65689
1.65689
1.67644
1.66177
1.66177
1.66666
1.67155
1.65689
1.62267
1.62267
1.62756
1.62756
1.62267
1.62756
1.63734
1.64222
1.64222
1.64222
1.65200
1.66177
1.65200
1.65200
1.64711
1.64711
1.65689
1.62756
1.65689
1.63245
1.61779
1.61290
1.61779
1.62267
1.60801
1.60801
1.61290
1.61779
1.60312
1.60312
1.60312
1.61290
1.60312
1.60312
1.60312
1.61290
1.60312
1.60312
1.60801
1.61290
1.60312
1.61290
1.61779
1.61779
1.63734
1.62267
1.63734
1.67644
1.70576
1.73020
1.77419
1.78885
1.79374
1.78396
1.77419
1.76930
1.74486
1.73998
1.71065
1.69599
1.69110
1.67155
1.66666
1.66666
1.66177
1.65200
1.65200
1.65200
1.65200
1.63734
1.63734
1.64222
1.64711
1.64711
1.63734
1.64711
1.65689
1.65200
1.65200
1.66177
1.66666
1.65200
1.65200
1.65200
1.65200
1.64222
1.63734
1.63734
1.63734
1.62756
1.62267
1.62756
1.63245
1.61779
1.61779
1.61779
1.61779
1.61290
1.61290
1.61779
1.62756
1.62756
1.61779
1.61290
1.61779
1.61779
1.60801
1.60801
1.61779
1.61290
1.60801
1.60801
1.61779
1.61290
1.60801
1.62267
1.65200
1.68132
1.71065
1.74486
1.77908
1.79863
1.79374
1.79374
1.81818
1.77908
1.74975
1.73509
1.72043
1.71065
1.69110
1.69599
1.68621
1.68621
1.66666
1.67155
1.67644
1.67155
1.68621
1.64711
1.64711
1.64711
1.64222
1.64222
1.64222
1.65689
1.64711
1.65200
1.66177
1.66177
1.65689
1.65200
1.65200
1.66177
1.65200
1.64222
1.64222
1.64711
1.63734
1.63245
1.62756
1.63734
1.63245
1.62756
1.64222
1.62267
1.62267
1.61290
1.61290
1.61779
1.61290
1.60312
1.60312
1.62267
1.61290
1.60312
1.60312
1.61290
1.61290
1.60312
1.60801
1.60801
1.61290
1.60312
1.60312
1.60801
1.61290
1.60801
1.60801
1.62756
1.63245
1.64711
1.68132
1.71554
1.75464
1.76930
1.79374
1.79863
1.79863
1.77908
1.76441
1.74486
1.74975
1.71065
1.69599
1.68621
1.68132
1.66666
1.65689
1.65689
1.66666
1.65200
1.64222
1.64222
1.64222
1.64222
1.65200
1.62756
1.63734
1.63734
1.63245
1.63734
1.64711
1.64711
1.63734
1.64222
1.64711
1.64222
1.63734
1.64222
1.66666
1.63245
1.61779
1.61290
1.62267
1.61779
1.60801
1.60801
1.63245
1.61290
1.59824
1.59824
1.60312
1.60312
1.59335
1.61290
1.59335
1.59824
1.58846
1.58846
1.59335
1.61290
1.58846
1.58846
1.59335
1.59824
1.58846
1.58846
1.59335
1.60312
1.60312
1.58846
1.59335
1.63245
1.62267
1.58846
1.59335
1.59824
1.59335
1.59335
1.60801
1.63734
1.66666
1.69110
1.73020
1.76441
1.77419
1.79863
1.77419
1.76930
1.74486
1.71554
1.70576
1.71554
1.68132
1.66177
1.65689
1.65689
1.65200
1.63734
1.63734
1.63734
1.63734
1.61779
1.61779
1.62267
1.63245
1.64711
1.61779
1.62756
1.63734
1.62267
1.63734
1.63734
1.64711
1.63734
1.63734
1.63734
1.64222
1.63245
1.62756
1.62756
1.62756
1.61779
1.60801
1.61290
1.61779
1.61290
1.60312
1.60312
1.61779
1.60312
1.59824
1.60312
1.62267
1.62756
1.62756
1.59824
1.60801
1.59824
1.59335
1.59824
1.60312
1.59824
1.59335
1.59824
1.60312
1.60312
1.59824
1.59824
1.60801
1.61290
1.60801
1.60312
1.63734
1.65689
1.65200
1.70576
1.73998
1.74975
1.75953
1.76930
1.77908
1.77419
1.74975
1.73998
1.72531
1.71065
1.68132
1.67155
1.66177
1.66177
1.64711
1.64222
1.63734
1.64711
1.63245
1.62756
1.62756
1.63245
1.62267
1.62267
1.62267
1.63245
1.62756
1.62756
1.64222
1.68132
1.64711
1.64222
1.64711
1.65200
1.64711
1.63734
1.63734
1.64222
1.63245
1.61779
1.61779
1.62756
1.62267
1.60801
1.60801
1.62267
1.61290
1.61290
1.63734
1.61290
1.61290
1.59824
1.60312
1.60801
1.61290
1.60312
1.60312
1.60801
1.61290
1.59824
1.60312
1.60801
1.61779
1.60312
1.60312
1.60801
1.61290
1.60801
1.60801
1.61779
1.64222
1.66666
1.70087
1.73509
1.80351
1.78885
1.78885
1.79374
1.79374
1.76930
1.74975
1.73509
1.73509
1.70576
1.68621
1.68132
1.68132
1.66666
1.66177
1.65689
1.66177
1.65689
1.64222
1.64711
1.65200
1.67644
1.63245
1.63245
1.64222
1.65200
1.64222
1.64711
1.65689
1.65689
1.65200
1.65689
1.66666
1.66177
1.64711
1.65200
1.67644
1.66177
1.64711
1.66177
1.66666
1.63734
1.62267
1.61779
1.62267
1.63245
1.61779
1.61779
1.61779
1.62267
1.61290
1.61290
1.61290
1.62267
1.61290
1.62756
1.64222
1.62267
1.61290
1.60801
1.60801
1.61779
1.60801
1.60801
1.60801
1.61779
1.61290
1.61290
1.62267
1.64711
1.67644
1.70576
1.75464
1.78396
1.79863
1.79863
1.79863
1.79863
1.77908
1.77908
1.73998
1.72531
1.71065
1.69110
1.68621
1.68621
1.67155
1.66666
1.66666
1.67155
1.66666
1.65200
1.64222
1.64222
1.64222
1.63245
1.63734
1.64222
1.65200
1.64222
1.66177
1.65689
1.66177
1.65200
1.65200
1.65689
1.66177
1.64711
1.66177
1.63734
1.64222
1.62756
1.62267
1.62267
1.63245
1.61779
1.61290
1.61779
1.63245
1.64711
1.60312
1.60312
1.61290
1.60801
1.60312
1.60312
1.61290
1.63734
1.59824
1.59824
1.60801
1.60312
1.59335
1.58846
1.60312
1.60312
1.59335
1.60312
1.61779
1.63245
1.59335
1.60312
1.63245
1.65689
1.68621
1.72531
1.75953
1.78396
1.77908
1.78885
1.77908
1.75953
1.73020
1.71554
1.70087
1.70087
1.66666
1.66177
1.66177
1.66177
1.64222
1.64222
1.64222
1.64222
1.63245
1.63734
1.62756
1.62756
1.61779
1.61290
1.62756
1.64711
1.62756
1.62756
1.63245
1.64222
1.64222
1.63734
1.67155
1.64222
1.63245
1.62756
1.62756
1.62756
1.62267
1.61290
1.61290
1.61779
1.61290
1.60312
1.60312
1.61290
1.61290
1.62756
1.59824
1.60801
1.60801
1.59335
1.58846
1.60312
1.60312
1.59335
1.59335
1.61290
1.62267
1.59335
1.59335
1.59824
1.60312
1.59335
1.59335
1.59824
1.60312
1.60312
1.62756
1.66177
1.70087
1.72531
1.74975
1.76930
1.81329
1.77419
1.75953
1.74486
1.73509
1.71065
1.69110
1.68132
1.67644
1.66177
1.65200
1.65200
1.65200
1.64222
1.63734
1.63245
1.63734
1.62756
1.61290
1.63734
1.63245
1.62756
1.62756
1.63245
1.64711
1.66177
1.64222
1.64222
1.65200
1.64711
1.63734
1.63734
1.64222
1.63734
1.62267
1.62267
1.62756
1.62756
1.61290
1.61779
1.62267
1.62267
1.61290
1.61779
1.62267
1.62756
1.63734
1.63734
1.63734
1.62267
1.60801
1.61779
1.63245
1.62756
1.61779
1.62267
1.63734
1.63245
1.61779
1.63734
1.64222
1.63245
1.62267
1.63734
1.66177
1.70576
1.73509
1.76441
1.80351
1.79374
1.78396
1.76441
1.75464
1.77419
1.73020
1.70087
1.69110
1.70087
1.70576
1.66666
1.66177
1.66177
1.65689
1.65200
1.64711
1.68132
1.65200
1.65200
1.65689
1.66177
1.64222
1.63734
1.64222
1.65200
1.65689
1.65200
1.65689
1.66177
1.66666
1.65200
1.64711
1.64222
1.64711
1.63734
1.63245
1.63245
1.63734
1.62756
1.62267
1.62756
1.63245
1.61779
1.61779
1.62267
1.63734
1.63245
1.61779
1.61290
1.61779
1.61290
1.60801
1.61290
1.61779
1.61290
1.60801
1.60801
1.62267
1.61290
1.60312
1.61290
1.62267
1.62267
1.63245
1.66177
1.70087
1.73998
1.75953
1.78396
1.80351
1.82795
1.78396
1.76930
1.75953
1.73998
1.71554
1.72531
1.70087
1.72531
1.70576
1.68132
1.66666
1.69599
1.68621
1.66666
1.68132
1.66666
1.64222
1.64222
1.64222
1.64711
1.64222
1.66666
1.64711
1.65689
1.65200
1.65200
1.65200
1.66177
1.65200
1.65200
1.65689
1.66177
1.67644
1.65200
1.63245
1.64222
1.62756
1.62267
1.62267
1.62756
1.61779
1.61290
1.61290
1.62267
1.61779
1.60801
1.60801
1.61779
1.62267
1.62267
1.60801
1.61290
1.61290
1.60312
1.60801
1.60801
1.60801
1.60312
1.60312
1.61290
1.61290
1.60312
1.60312
1.61290
1.61779
1.61779
1.64222
1.67155
1.71554
1.76930
1.77419
1.79374
1.81329
1.79374
1.78885
1.77419
1.76930
1.73020
1.71554
1.70576
1.70087
1.68132
1.66666
1.67155
1.66666
1.66177
1.65200
1.65689
1.68621
1.67644
1.63734
1.64222
1.64711
1.64222
1.63245
1.67644
1.65200
1.65200
1.64711
1.67644
1.69110
1.65689
1.64711
1.64711
1.65200
1.64222
1.62756
1.63245
1.63734
1.63245
1.61779
1.61779
1.63245
1.62267
1.61779
1.60801
1.60801
1.61290
1.59824
1.59335
1.60312
1.62267
1.59335
1.59335
1.59824
1.60312
1.59335
1.59335
1.59824
1.60312
1.59335
1.59824
1.60801
1.60312
1.59335
1.59335
1.59824
1.60312
1.59335
1.59335
1.59824
1.60801
1.60801
1.62756
1.66177
1.70576
1.73998
1.75953
1.77908
1.78885
1.77908
1.76441
1.75953
1.73998
1.71554
1.69110
1.68132
1.68132
1.66177
1.65200
1.64711
1.65200
1.64711
1.63734
1.65689
1.63734
1.62756
1.61779
1.61779
1.62756
1.62756
1.63245
1.62756
1.63734
1.64222
1.63245
1.64222
1.64711
1.64711
1.65689
1.63245
1.63245
1.66666
1.62756
1.61290
1.61290
1.61779
1.60801
1.60312
1.60801
1.61290
1.59824
1.59824
1.60312
1.60801
1.59335
1.59335
1.60312
1.60801
1.60312
1.62267
1.59335
1.60312
1.59824
1.59335
1.59335
1.60312
1.59824
1.59335
1.59335
1.60312
1.60312
1.58846
1.59335
1.60312
1.61290
1.62756
1.66177
1.70087
1.73998
1.74975
1.76930
1.78885
1.79374
1.75953
1.74486
1.73509
1.71554
1.72043
1.68132
1.67155
1.66666
1.65200
1.64222
1.64711
1.64711
1.63245
1.62756
1.62756
1.63245
1.61779
1.61779
1.62756
1.65200
1.62756
1.63245
1.64222
1.64711
1.64222
1.64711
1.65200
1.65689
1.64711
1.64222
1.64222
1.64222
1.63734
1.63245
1.63245
1.63245
1.62756
1.61779
1.62267
1.62756
1.61779
1.61290
1.61290
1.62267
1.62267
1.62267
1.61779
1.61290
1.63245
1.60312
1.60801
1.61290
1.64222
1.63734
1.60801
1.61290
1.61290
1.60312
1.60312
1.61290
1.61779
1.61290
1.63245
1.66666
1.70576
1.72531
1.75953
1.78885
1.80351
1.79374
1.78396
1.76930
1.75953
1.72531
1.71065
1.71065
1.69599
1.68132
1.66666
1.66666
1.66666
1.65200
1.65200
1.65200
1.65200
1.64222
1.63734
1.64222
1.64711
1.64711
1.63734
1.64222
1.65200
1.65200
1.65200
1.65689
1.66666
1.65689
1.65200
1.65200
1.65689
1.64711
1.63734
1.63734
1.63734
1.63734
1.62756
1.62267
1.63245
1.62756
1.61779
1.61779
1.63245
1.63245
1.61290
1.61290
1.61779
1.61779
1.60801
1.60801
1.61290
1.61779
1.60801
1.60801
1.61290
1.61290
1.60801
1.60801
1.61290
1.61779
1.60801
1.60801
1.61290
1.61779
1.61290
1.61779
1.64222
1.67644
1.70087
1.73998
1.77419
1.80351
1.80351
1.79863
1.79863
1.78885
1.75953
1.73509
1.72043
1.71554
1.70087
1.69599
1.68132
1.68621
1.67155
1.66177
1.67155
1.66177
1.65689
1.64222
1.64222
1.64711
1.65689
1.63734
1.63734
1.65200
1.65689
1.65200
1.65200
1.66177
1.66666
1.65200
1.64711
1.65689
1.65689
1.64222
1.64222
1.67155
1.67155
1.64711
1.62756
1.62756
1.62756
1.61290
1.61290
1.61290
1.61779
1.60801
1.60312
1.60801
1.61779
1.62756
1.60312
1.59824
1.61290
1.60312
1.59824
1.60312
1.61290
1.60312
1.62756
1.59824
1.60312
1.59824
1.59335
1.59824
1.60312
1.60312
1.59824
1.59824
1.61290
1.61779
1.62756
1.66177
1.70087
1.73998
1.75464
1.77908
1.78885
1.78885
1.76441
1.76441
1.73998
1.72043
1.69599
1.68132
1.70087
1.68621
1.66666
1.65200
1.65689
1.65689
1.64222
1.66177
1.64222
1.63245
1.61779
1.61779
1.62267
1.63734
1.62267
1.62267
1.62756
1.65200
1.65200
1.63734
1.64222
1.64711
1.63734
1.63734
1.63734
1.63734
1.62756
1.61779
1.61779
1.61779
1.61290
1.60312
1.60801
1.61290
1.60801
1.59824
1.59824
1.60801
1.62756
1.59335
1.59335
1.59824
1.59824
1.58846
1.59824
1.62756
1.60312
1.58846
1.58846
1.59824
1.60312
1.59335
1.58846
1.60312
1.60312
1.59335
1.59335
1.60312
1.60801
1.60801
1.63245
1.66666
1.71065
1.73509
1.77419
1.77419
1.77908
1.76441
1.74975
1.73998
1.74975
1.71065
1.68621
1.66666
1.66666
1.65200
1.65689
1.66177
1.66177
1.64222
1.64711
1.62756
1.63245
1.62267
1.61779
1.61290
1.63734
1.62267
1.61779
1.63245
1.66177
1.65689
1.66177
1.64222
1.65200
1.65200
1.64222
1.64711
1.65689
1.65200
1.63734
1.63734
1.64711
1.64711
1.63734
1.63734
1.64222
1.64222
1.63245
1.66177
1.64222
1.65689
1.65200
1.61779
1.64711
1.63734
1.60801
1.61290
1.61779
1.62267
1.61290
1.61290
1.61779
1.62267
1.61779
1.61779
1.61779
1.62756
1.61779
1.63245
1.66177
1.73020
1.73509
1.75953
1.78885
1.80840
1.79863
1.78396
1.76930
1.76441
1.74486
1.72043
1.74486
1.71065
1.69110
1.67644
1.67644
1.67644
1.67155
1.66177
1.66177
1.66666
1.65689
1.64711
1.64711
1.65200
1.65200
1.64222
1.65200
1.66666
1.67155
1.68621
1.66666
1.67644
1.67644
1.66177
1.66177
1.66666
1.66666
1.68132
1.65200
1.65200
1.65689
1.64711
1.64222
1.64711
1.65200
1.63734
1.63245
1.63734
1.63734
1.62756
1.62756
1.62756
1.63245
1.62267
1.62267
1.62756
1.63245
1.64222
1.61779
1.65200
1.65200
1.61779
1.61779
1.61779
1.62756
1.62267
1.61779
1.62267
1.63245
1.64711
1.67155
1.71065
1.75953
1.77908
1.79863
1.80840
1.81818
1.80351
1.77908
1.78885
1.76441
1.73509
1.70576
1.69599
1.69110
1.68621
1.67155
1.66666
1.66666
1.66666
1.65200
1.65200
1.65200
1.65689
1.63734
1.63734
1.64222
1.65200
1.63734
1.66666
1.64711
1.65689
1.66666
1.64711
1.64711
1.65200
1.64222
1.63245
1.63734
1.64711
1.64222
1.61779
1.61779
1.62267
1.61290
1.60801
1.63734
1.61290
1.60312
1.59824
1.60312
1.63734
1.59824
1.58846
1.60801
1.60312
1.59824
1.59335
1.60312
1.62267
1.59824
1.58846
1.58846
1.60312
1.60312
1.58357
1.58846
1.59824
1.59824
1.58357
1.58357
1.60801
1.61779
1.58357
1.59335
1.61779
1.64711
1.67644
1.71065
1.74486
1.77419
1.80351
1.77419
1.76930
1.75953
1.72531
1.70576
1.72531
1.68132
1.66666
1.65689
1.68132
1.65200
1.64222
1.63245
1.62756
1.63245
1.62756
1.64222
1.61779
1.62267
1.61290
1.61290
1.61779
1.62756
1.62267
1.63245
1.63245
1.64222
1.64222
1.63245
1.64222
1.65200
1.66177
1.65200
1.64222
1.63734
1.65200
1.63734
1.61290
1.61779
1.61779
1.60312
1.60312
1.61290
1.61290
1.60312
1.60312
1.60312
1.61779
1.62267
1.59824
1.60312
1.60801
1.59335
1.59824
1.59824
1.60801
1.59824
1.59824
1.59824
1.60801
1.59824
1.59824
1.60312
1.61290
1.61779
1.63734
1.67644
1.72043
1.73998
1.79374
1.78396
1.78396
1.76930
1.74975
1.73509
1.72531
1.70576
1.68621
1.67644
1.67644
1.67644
1.66666
1.64711
1.64711
1.64222
1.63245
1.62756
1.63734
1.63245
1.62267
1.62756
1.63245
1.63245
1.63245
1.63734
1.64222
1.65689
1.67155
1.65200
1.65689
1.65689
1.64222
1.63734
1.64711
1.64711
1.63245
1.63245
1.63245
1.63734
1.62267
1.62267
1.62267
1.62756
1.61779
1.61290
1.61779
1.62267
1.61290
1.60801
1.61290
1.61779
1.60801
1.60801
1.61290
1.61779
1.61290
1.60801
1.60801
1.61290
1.61290
1.60801
1.60801
1.61779
1.62756
1.64711
1.67644
1.72531
1.75953
1.76930
1.78396
1.79863
1.82306
1.77419
1.76441
1.74486
1.72531
1.70087
1.68621
1.68621
1.67644
1.66177
1.66177
1.65689
1.66177
1.64711
1.65200
1.66666
1.64222
1.62756
1.62756
1.63245
1.64711
1.62756
1.63245
1.64222
1.65200
1.65200
1.67644
1.65200
1.65689
1.64711
1.64222
1.64222
1.64711
1.63245
1.62756
1.63245
1.64222
1.62756
1.62267
1.62756
1.63245
1.62267
1.61290
1.61290
1.62756
1.62267
1.60801
1.61290
1.62267
1.61779
1.61779
1.61779
1.65200
1.62267
1.63734
1.60801
1.61779
1.61779
1.60801
1.61290
1.61779
1.62267
1.61290
1.61779
1.63245
1.65689
1.68132
1.72043
1.75953
1.81329
1.79863
1.80351
1.80351
1.78885
1.75953
1.73998
1.72531
1.72531
1.69599
1.69110
1.68621
1.67644
1.66177
1.66177
1.69110
1.66177
1.65200
1.64711
1.64222
1.64711
1.64222
1.64711
1.64222
1.65200
1.65200
1.64711
1.65200
1.66177
1.65689
1.65200
1.65689
1.66666
1.66177
1.65200
1.64711
1.65200
1.64222
1.63245
1.65689
1.64711
1.66177
1.64711
1.61779
1.62756
1.62267
1.60801
1.60801
1.61290
1.61290
1.61290
1.63245
1.60801
1.61290
1.59824
1.59824
1.60312
1.60801
1.59824
1.59824
1.60312
1.60801
1.59824
1.59824
1.60312
1.60801
1.60312
1.59824
1.62267
1.66177
1.68132
1.70576
1.73020
1.76441
1.77908
1.78396
1.78885
1.78885
1.78885
1.74486
1.72531
1.71554
1.69599
1.68621
1.67644
1.67644
1.66177
1.67644
1.65689
1.67155
1.66177
1.62756
1.62756
1.63245
1.63245
1.63245
1.61779
1.63245
1.63734
1.62756
1.63734
1.64711
1.64711
1.64222
1.64711
1.67155
1.64711
1.63734
1.63245
1.63245
1.63734
1.62267
1.62267
1.61779
1.62756
1.61290
1.61290
1.61779
1.62267
1.60801
1.60312
1.61290
1.61779
1.60312
1.60312
1.60801
1.61290
1.60801
1.61779
1.62267
1.63245
1.60801
1.59824
1.60312
1.60801
1.60312
1.59824
1.59824
1.60801
1.60312
1.59824
1.61290
1.64222
1.67155
1.70087
1.75953
1.76930
1.78885
1.78396
1.77908
1.79374
1.77908
1.73020
1.71065
1.70087
1.72043
1.67155
1.66177
1.66177
1.66177
1.64711
1.64222
1.64222
1.64222
1.62756
1.62756
1.65200
1.66666
1.62756
1.62756
1.64222
1.65200
1.64711
1.65200
1.65689
1.66666
1.65689
1.65200
1.65200
1.65689
1.64711
1.63734
1.63734
1.64222
1.63734
1.62756
1.62756
1.63245
1.62756
1.61779
1.62267
1.62756
1.62267
1.61290
1.61779
1.62267
1.61779
1.60801
1.61779
1.63245
1.62756
1.61290
1.61290
1.62267
1.61290
1.60312
1.61290
1.61779
1.62267
1.61290
1.62267
1.64711
1.67644
1.70576
1.76441
1.77908
1.79863
1.78885
1.78885
1.78396
1.77908
1.73998
1.72531
1.71554
1.71554
1.68621
1.67644
1.67155
1.67644
1.66177
1.65689
1.65689
1.66177
1.64711
1.64222
1.64711
1.65200
1.67155
1.63734
1.64222
1.65689
1.65200
1.67644
1.66177
1.67155
1.66666
1.65689
1.65689
1.66177
1.65689
1.64711
1.64711
1.64711
1.64222
1.63245
1.63245
1.63734
1.63245
1.62267
1.62267
1.62756
1.63245
1.61779
1.61779
1.62756
1.62756
1.61290
1.61779
1.61779
1.62267
1.60801
1.61290
1.62267
1.62267
1.61290
1.62267
1.62267
1.65689
1.62267
1.61290
1.62267
1.67644
1.66666
1.70087
1.73998
1.79374
1.79863
1.80351
1.79863
1.80351
1.77908
1.75464
1.77419
1.73509
1.71065
1.69599
1.68621
1.68621
1.68132
1.67155
1.66666
1.67644
1.66666
1.66177
1.67644
1.65689
1.65689
1.64711
1.64711
1.66177
1.66666
1.65200
1.65689
1.66666
1.67155
1.66177
1.65689
1.66177
1.66177
1.65200
1.64222
1.64711
1.64711
1.63734
1.63734
1.63245
1.64222
1.63245
1.64711
1.65689
1.65200
1.65200
1.61779
1.61779
1.62267
1.61290
1.61290
1.61779
1.62267
1.61779
1.61779
1.61290
1.61779
1.61290
1.60801
1.60801
1.61290
1.60801
1.60312
1.60801
1.61290
1.60801
1.60801
1.62756
1.66177
1.68621
1.71065
1.74975
1.80840
1.79863
1.78885
1.78396
1.77908
1.76930
1.75953
1.71554
1.70576
1.69599
1.67644
1.67155
1.67155
1.67155
1.65689
1.65200
1.65689
1.65689
1.64222
1.64222
1.64222
1.64711
1.66177
1.63245
1.63734
1.65200
1.64222
1.64222
1.65689
1.66666
1.65689
1.65200
1.67155
1.65689
1.63734
1.63245
1.63245
1.63734
1.62756
1.62267
1.61779
1.62756
1.61779
1.60801
1.60801
1.62267
1.62756
1.64222
1.60801
1.61779
1.61290
1.60312
1.60801
1.61290
1.61290
1.59824
1.60312
1.61290
1.61290
1.59824
1.60312
1.60801
1.60801
1.60312
1.60312
1.61290
1.62267
1.63245
1.66177
1.70087
1.74486
1.74975
1.76930
1.77908
1.77908
1.76441
1.76930
1.73020
1.72043
1.69110
1.68132
1.69110
1.69110
1.66177
1.65200
1.65200
1.65689
1.64711
1.64222
1.64222
1.64711
1.63734
1.63245
1.63734
1.64222
1.63734
1.64222
1.64711
1.65689
1.65689
1.64711
1.65200
1.65689
1.65200
1.64222
1.64222
1.64222
1.64222
1.63245
1.63245
1.63734
1.63245
1.63245
1.65200
1.62756
1.66177
1.61779
1.61779
1.62267
1.62267
1.61290
1.61290
1.61779
1.62267
1.60801
1.61290
1.61779
1.61779
1.60801
1.61290
1.61779
1.62267
1.61290
1.61290
1.62267
1.64222
1.65689
1.68621
1.74975
1.75953
1.76930
1.77419
1.77908
1.77908
1.77419
1.73998
1.72531
1.71554
1.69599
1.69599
1.68132
1.68132
1.66666
1.66177
1.66177
1.66666
1.65689
1.64711
1.64711
1.64711
1.64222
1.63734
1.64222
1.65200
1.66177
1.64222
1.65200
1.66177
1.66177
1.65200
1.65200
1.65689
1.65689
1.64222
1.63734
1.64222
1.64222
1.62756
1.62756
1.62756
1.63245
1.62267
1.62267
1.62267
1.63245
1.61779
1.61779
1.62267
1.62756
1.61779
1.63734
1.64222
1.62267
1.61779
1.63734
1.61290
1.62267
1.61290
1.61290
1.61290
1.62267
1.61779
1.61290
1.61779
1.62267
1.62267
1.62756
1.64711
1.69110
1.72043
1.77419
1.77908
1.79863
1.79863
1.78396
1.76930
1.78396
1.74486
1.72043
1.70576
1.70087
1.72043
1.69110
1.71065
1.68132
1.68132
1.66666
1.66666
1.67644
1.67644
1.67155
1.65689
1.64711
1.65200
1.64711
1.64711
1.65689
1.66666
1.65689
1.65689
1.66666
1.67644
1.66177
1.65689
1.66177
1.66177
1.65689
1.65200
1.64711
1.66666
1.66666
1.62756
1.62756
1.63734
1.62756
1.62267
1.61779
1.62756
1.61779
1.61779
1.61779
1.62267
1.62267
1.61290
1.62267
1.64711
1.65200
1.61290
1.61290
1.61779
1.61779
1.60801
1.60801
1.61779
1.61779
1.60801
1.60801
1.61779
1.61779
1.60801
1.61290
1.62756
1.65689
1.67644
1.71065
1.74486
1.77419
1.77419
1.77419
1.79863
1.76930
1.73509
1.71554
1.70576
1.73020
1.67644
1.66666
1.69110
1.70087
1.67644
1.64711
1.64711
1.65200
1.64222
1.63245
1.63734
1.63734
1.63245
1.62756
1.63245
1.64711
1.64222
1.66177
1.64711
1.65200
1.65200
1.64222
1.63734
1.64711
1.63734
1.63245
1.62756
1.62756
1.62756
1.61290
1.62267
1.62267
1.62267
1.61290
1.61290
1.61779
1.61290
1.60312
1.60312
1.60801
1.61290
1.60312
1.60312
1.60801
1.61290
1.59824
1.59824
1.60312
1.60801
1.59824
1.59824
1.60801
1.61779
1.60801
1.60312
1.61290
1.62267
1.60801
1.60801
1.60801
1.62267
1.63245
1.65689
1.69110
1.73020
1.77908
1.76441
1.77419
1.77908
1.75953
1.73509
1.72043
1.71065
1.71065
1.67155
1.66666
1.66666
1.65689
1.64711
1.64711
1.65200
1.64711
1.63245
1.62756
1.63734
1.63245
1.62267
1.63245
1.66666
1.65689
1.63734
1.64222
1.65200
1.66177
1.65200
1.65200
1.65689
1.65689
1.64222
1.64222
1.64222
1.64222
1.63245
1.65689
1.63245
1.64222
1.63734
1.61779
1.65200
1.65689
1.61779
1.61290
1.61779
1.62267
1.61290
1.60801
1.61290
1.61779
1.61290
1.60801
1.61290
1.61779
1.61290
1.60801
1.61290
1.61779
1.61290
1.60801
1.61290
1.62267
1.62756
1.63734
1.66666
1.70576
1.74975
1.75464
1.77419
1.78396
1.81329
1.78396
1.77908
1.74486
1.72043
1.69599
1.69110
1.71065
1.70087
1.68621
1.66666
1.66666
1.66666
1.65200
1.64711
1.65200
1.65689
1.65200
1.63734
1.63734
1.64222
1.63245
1.64222
1.64711
1.66177
1.65200
1.66666
1.66666
1.68132
1.68621
1.64711
1.64222
1.65200
1.63734
1.63245
1.63245
1.63734
1.62756
1.61779
1.62267
1.62756
1.62267
1.61290
1.61779
1.62756
1.61779
1.61290
1.61779
1.62756
1.62756
1.62267
1.63734
1.64222
1.65200
1.61290
1.61290
1.61779
1.61779
1.60801
1.61290
1.61779
1.61779
1.60801
1.61290
1.63245
1.65689
1.67644
1.71065
1.74975
1.78885
1.78396
1.78885
1.79374
1.78396
1.75953
1.74975
1.73509
1.72043
1.69599
1.69599
1.68621
1.68132
1.66666
1.66177
1.66666
1.67155
1.65689
1.65200
1.65200
1.68132
1.64222
1.64222
1.64711
1.65200
1.66666
1.66177
1.65689
1.66666
1.66177
1.65689
1.66177
1.66666
1.66177
1.65200
1.65200
1.65200
1.64711
1.63734
1.63734
1.64222
1.63734
1.62267
1.62267
1.63245
1.63245
1.62267
1.65200
1.62267
1.62267
1.61290
1.61290
1.61779
1.62267
1.61290
1.61290
1.61779
1.61779
1.60801
1.61290
1.61290
1.62267
1.61290
1.61290
1.62267
1.63245
1.61779
1.61779
1.62267
1.64222
1.65200
1.68621
1.73020
1.76441
1.77908
1.78885
1.81329
1.79863
1.77419
1.75464
1.73509
1.72531
1.71065
1.68621
1.68621
1.68132
1.66666
1.66177
1.65689
1.66177
1.66177
1.65200
1.66666
1.64711
1.64222
1.63245
1.63245
1.63734
1.64222
1.63245
1.64711
1.67644
1.68132
1.64222
1.64222
1.64711
1.64711
1.64222
1.64711
1.64711
1.66177
1.62756
1.61779
1.62267
1.62756
1.61290
1.60801
1.61290
1.61779
1.60312
1.60801
1.60801
1.61779
1.63245
1.59824
1.59824
1.60801
1.59824
1.59824
1.59824
1.60312
1.60312
1.60312
1.62756
1.60312
1.59824
1.59335
1.59824
1.60312
1.59824
1.59335
1.59824
1.61290
1.63734
1.63734
1.65200
1.69110
1.72043
1.74486
1.75953
1.77419
1.76930
1.74975
1.73509
1.72531
1.73020
1.68621
1.67155
1.66666
1.66177
1.64222
1.64222
1.64222
1.64711
1.63245
1.63245
1.63245
1.63245
1.61779
1.62267
1.62267
1.63245
1.64222
1.62756
1.63245
1.64222
1.63734
1.63734
1.64222
1.64711
1.63734
1.63245
1.63245
1.63245
1.62267
1.61779
1.61779
1.62756
1.61779
1.61290
1.61779
1.64711
1.61779
1.62756
1.61779
1.61290
1.60801
1.60312
1.60312
1.61290
1.60801
1.59824
1.60312
1.60801
1.60801
1.59824
1.60312
1.60801
1.61290
1.60312
1.60312
1.61290
1.61290
1.60801
1.62267
1.65200
1.68621
1.70576
1.74975
1.75953
1.76441
1.75953
1.74975
1.74486
1.73998
1.70576
1.68621
1.67644
1.67155
1.65689
1.64711
1.64711
1.65200
1.64222
1.63734
1.63734
1.65200
1.64222
1.62267
1.65200
1.63245
1.62756
1.62756
1.63245
1.64711
1.64711
1.64711
1.65200
1.65689
1.65200
1.64711
1.64711
1.65200
1.64222
1.63245
1.63245
1.63734
1.63245
1.63245
1.65689
1.64711
1.63734
1.62756
1.63734
1.63734
1.63245
1.62267
1.61779
1.62756
1.62756
1.61779
1.61290
1.61779
1.62267
1.61290
1.61779
1.62267
1.62756
1.60801
1.61290
1.61290
1.62267
1.62267
1.64222
1.67155
1.71065
1.73020
1.75464
1.79374
1.78885
1.77908
1.75953
1.74975
1.73998
1.71554
1.71065
1.69110
1.68621
1.67155
1.66177
1.66177
1.66666
1.65689
1.65200
1.65200
1.65689
1.64711
1.63734
1.63734
1.64711
1.64711
1.64222
1.64711
1.66177
1.66177
1.65689
1.66666
1.68621
1.69599
1.68621
1.65200
1.65689
1.65689
1.63734
1.63734
1.64222
1.64222
1.63245
1.62756
1.63245
1.66666
1.62267
1.62756
1.66177
1.64222
1.65200
1.62267
1.62756
1.66177
1.64711
1.61779
1.62267
1.63245
1.61779
1.61779
1.64711
1.65200
1.65200
1.65200
1.63245
1.63245
1.62267
1.62756
1.65200
1.68621
1.72043
1.73509
1.76441
1.78885
1.82306
1.79374
1.77908
1.77419
1.74975
1.72531
1.73020
1.70576
1.69599
1.67644
1.67644
1.68132
1.67644
1.66666
1.66177
1.66666
1.66666
1.65200
1.65200
1.65689
1.65689
1.64222
1.64711
1.68132
1.66177
1.65200
1.65689
1.66177
1.66666
1.65689
1.65689
1.65200
1.66177
1.64222
1.64222
1.65200
1.67155
1.65200
1.65689
1.62267
1.62756
1.62267
1.61779
1.61779
1.61779
1.61290
1.60801
1.61290
1.61779
1.61290
1.60801
1.60801
1.61290
1.60801
1.59824
1.60312
1.60801
1.60801
1.60312
1.60312
1.61290
1.60801
1.59335
1.60312
1.61290
1.62267
1.63245
1.67644
1.72043
1.73509
1.74486
1.76441
1.77419
1.77908
1.75953
1.73998
1.72531
1.71554
1.69110
1.67644
1.67644
1.67155
1.66177
1.65200
1.65689
1.65689
1.64222
1.64222
1.64222
1.64222
1.62756
1.63245
1.63734
1.64711
1.63734
1.63245
1.63734
1.65200
1.64711
1.64222
1.64711
1.65689
1.64711
1.66177
1.65689
1.65200
1.63245
1.62756
1.62756
1.62756
1.62756
1.61779
1.61290
1.62267
1.61779
1.60801
1.60801
1.61779
1.61290
1.60312
1.60801
1.61290
1.61779
1.60312
1.60801
1.61290
1.61779
1.60801
1.60801
1.61290
1.61290
1.60312
1.60312
1.60801
1.61779
1.60312
1.61290
1.62756
1.65200
1.66666
1.69599
1.73509
1.79863
1.79374
1.78396
1.77908
1.76930
1.74486
1.72531
1.71065
1.71554
1.68132
1.67155
1.66666
1.66666
1.66666
1.68132
1.64711
1.65689
1.64711
1.63734
1.63734
1.64222
1.64222
1.64711
1.63734
1.64711
1.65200
1.64711
1.65200
1.66177
1.66177
1.65200
1.65200
1.65689
1.65200
1.64222
1.63734
1.64222
1.64222
1.62756
1.62267
1.62756
1.63245
1.61779
1.61779
1.61779
1.62756
1.61779
1.61290
1.61779
1.62267
1.61290
1.61779
1.62267
1.62756
1.61779
1.63734
1.64222
1.65200
1.64711
1.60801
1.61290
1.64222
1.63245
1.61290
1.61290
1.63734
1.65200
1.68132
1.71554
1.75953
1.77908
1.77908
1.78396
1.78396
1.76441
1.73998
1.74975
1.71554
1.70087
1.67644
1.67155
1.67155
1.66666
1.65200
1.65200
1.65689
1.65689
1.64222
1.64222
1.64222
1.64222
1.63734
1.63245
1.64222
1.64711
1.63734
1.64222
1.65689
1.67644
1.65689
1.68132
1.65200
1.65689
1.64222
1.64222
1.63734
1.64711
1.63245
1.62756
1.62756
1.63734
1.62267
1.61779
1.61779
1.62756
1.62267
1.61290
1.61779
1.61779
1.61779
1.61290
1.60801
1.61779
1.61290
1.60801
1.60801
1.62267
1.61290
1.60801
1.61290
1.62267
1.62267
1.61290
1.61779
1.63734
1.62756
1.63245
1.63734
1.64222
1.68621
1.69599
1.73509
1.76930
1.78885
1.78396
1.78396
1.78885
1.76930
1.73998
1.72043
1.71065
1.70087
1.68132
1.67644
1.67155
1.67155
1.65200
1.65689
1.66666
1.66666
1.65200
1.64711
1.67155
1.64711
1.63734
1.63734
1.64222
1.65200
1.65200
1.64222
1.65200
1.66177
1.65689
1.64711
1.64711
1.65200
1.65200
1.64711
1.64711
1.66177
1.65689
1.65200
1.65689
1.62756
1.63245
1.61779
1.61779
1.62267
1.63734
1.64222
1.61290
1.61779
1.61779
1.60801
1.60801
1.61290
1.61779
1.60801
1.60801
1.61290
1.61290
1.60312
1.60312
1.61290
1.61290
1.60312
1.60801
1.61290
1.61290
1.60312
1.60801
1.61290
1.62756
1.61779
1.64222
1.67644
1.71065
1.72043
1.74975
1.76930
1.78885
1.77908
1.76441
1.74975
1.74486
1.71554
1.69110
1.67644
1.67644
1.66177
1.64711
1.64711
1.68132
1.67155
1.67155
1.66666
1.66666
1.63734
1.62756
1.62756
1.62756
1.63245
1.63245
1.62756
1.63734
1.64222
1.63734
1.64222
1.64711
1.65689
1.65200
1.63734
1.64222
1.64222
1.62756
1.62756
1.62756
1.62756
1.61290
1.61290
1.61779
1.62267
1.60801
1.60801
1.60801
1.61779
1.60312
1.60312
1.60801
1.63245
1.62267
1.60312
1.60312
1.60801
1.60312
1.59824
1.60312
1.60801
1.60312
1.59824
1.60312
1.60801
1.60801
1.59824
1.59824
1.60801
1.60801
1.60801
1.62756
1.66177
1.69599
1.72043
1.74486
1.76930
1.77908
1.76441
1.75464
1.77908
1.73509
1.70087
1.69110
1.68132
1.70087
1.65200
1.66177
1.67155
1.65689
1.65200
1.67155
1.67155
1.63734
1.62267
1.62267
1.62756
1.63245
1.62756
1.63245
1.65200
1.67644
1.64711
1.65200
1.65689
1.66177
1.65200
1.64711
1.65200
1.65689
1.64222
1.63734
1.63734
1.63734
1.63245
1.62756
1.62756
1.63734
1.62756
1.62267
1.62267
1.62756
1.62756
1.61290
1.61779
1.62267
1.61779
1.61290
1.61290
1.62267
1.62267
1.61290
1.61290
1.62267
1.62267
1.61290
1.61290
1.61779
1.62267
1.61779
1.63245
1.66177
1.69599
1.72043
1.74975
1.77908
1.79374
1.77419
1.76441
1.75464
1.74486
1.71554
1.71554
1.69110
1.68621
1.67155
1.66177
1.65689
1.66177
1.65200
1.64711
1.64711
1.65200
1.63734
1.63245
1.64222
1.64711
1.64711
1.63734
1.64222
1.65689
1.65200
1.65200
1.65689
1.66666
1.66177
1.65200
1.65200
1.65200
1.64711
1.64222
1.64222
1.64222
1.64222
1.62756
1.62756
1.63734
1.63734
1.62267
1.62267
1.62756
1.62756
1.62267
1.62267
1.62756
1.62267
1.61779
1.62267
1.62756
1.63245
1.62267
1.63734
1.64222
1.64711
1.62756
1.61779
1.62267
1.63734
1.64222
1.66666
1.70576
1.74486
1.76441
1.78396
1.79374
1.80840
1.77908
1.76441
1.74975
1.73998
1.72043
1.70087
1.69599
1.69110
1.68132
1.67155
1.67155
1.67644
1.67155
1.66177
1.65689
1.65689
1.65689
1.65200
1.65200
1.65689
1.66177
1.66666
1.66666
1.67155
1.66666
1.66177
1.66177
1.66666
1.67155
1.65689
1.65200
1.65689
1.65689
1.64222
1.64222
1.64222
1.64222
1.63245
1.63245
1.63245
1.63734
1.62756
1.62756
1.63245
1.63734
1.62756
1.63734
1.64222
1.66177
1.61779
1.61290
1.61779
1.62267
1.61290
1.61290
1.61779
1.62267
1.61779
1.61290
1.61779
1.64222
1.66177
1.69110
1.72531
1.76441
1.78885
1.78885
1.79374
1.79374
1.77419
1.77419
1.73020
1.72531
1.70576
1.69110
1.68132
1.68132
1.67644
1.69599
1.66666
1.67155
1.66666
1.65200
1.65200
1.65200
1.65200
1.63734
1.64222
1.64711
1.66177
1.64222
1.64711
1.65689
1.66177
1.64711
1.65200
1.66666
1.68132
1.64222
1.63734
1.63734
1.63734
1.62756
1.62267
1.61779
1.62756
1.61290
1.60801
1.61290
1.61779
1.61290
1.60312
1.60801
1.61290
1.60312
1.59824
1.60312
1.61290
1.61779
1.59824
1.59824
1.60312
1.60312
1.59824
1.59824
1.60312
1.60312
1.59335
1.60312
1.62267
1.63734
1.66666
1.72043
1.73998
1.75464
1.75953
1.76441
1.76441
1.75953
1.73020
1.71554
1.69599
1.69110
1.68621
1.65689
1.65689
1.65689
1.64222
1.63734
1.64222
1.64711
1.63245
1.62756
1.62756
1.63245
1.61290
1.62267
1.64711
1.65689
1.62756
1.63245
1.63734
1.64222
1.63734
1.63734
1.63734
1.64222
1.63734
1.65689
1.65200
1.65200
1.63734
1.62267
1.61290
1.61779
1.60801
1.60312
1.60312
1.60801
1.60801
1.60312
1.60312
1.61290
1.60801
1.61779
1.61290
1.64222
1.62756
1.59335
1.61779
1.61290
1.61290
1.62756
1.62756
1.61779
1.60312
1.59335
1.60312
1.61779
1.64711
1.66177
1.70087
1.73509
1.75953
1.75464
1.75464
1.74975
1.74486
1.73509
1.70087
1.68621
1.67644
1.68621
1.65200
1.65200
1.65200
1.63734
1.63734
1.64222
1.64222
1.63245
1.62267
1.62756
1.63245
1.62267
1.62267
1.64222
1.65689
1.64222
1.63734
1.64222
1.65200
1.64711
1.63734
1.63734
1.64222
1.63734
1.62756
1.62756
1.63245
1.62756
1.61779
1.61779
1.61779
1.62267
1.61290
1.61290
1.62267
1.61779
1.60801
1.60801
1.61290
1.61290
1.60801
1.61779
1.62756
1.63734
1.61779
1.63245
1.64711
1.64222
1.62756
1.63245
1.62756
1.65200
1.62756
1.65200
1.68621
1.72531
1.73998
1.75464
1.76930
1.79863
1.75464
1.73998
1.72043
1.71554
1.69110
1.68621
1.67155
1.70087
1.67644
1.65200
1.65200
1.66177
1.65200
1.64222
1.64711
1.64711
1.64222
1.64222
1.66177
1.66666
1.63734
1.63245
1.63734
1.65200
1.65200
1.64222
1.65200
1.65689
1.65200
1.64222
1.63734
1.64222
1.63734
1.62267
1.62267
1.62267
1.62756
1.61779
1.62267
1.62267
1.62267
1.60801
1.61290
1.61290
1.61779
1.60801
1.60801
1.61290
1.61779
1.60801
1.61290
1.61779
1.62267
1.60801
1.60801
1.61290
1.62267
1.61290
1.60801
1.61290
1.62267
1.61779
1.62267
1.64222
1.68132
1.70576
1.73020
1.75953
1.78396
1.77908
1.75953
1.75464
1.74486
1.72043
1.69599
1.70087
1.68621
1.70576
1.67155
1.66666
1.66666
1.66666
1.65689
1.65689
1.65689
1.65200
1.63734
1.64222
1.66177
1.67644
1.66666
1.63734
1.64711
1.65200
1.64711
1.64711
1.64711
1.65689
1.64222
1.64222
1.64222
1.64711
1.63245
1.63734
1.64222
1.66666
1.64222
1.65689
1.65689
1.64711
1.62756
1.62756
1.62267
1.62756
1.62267
1.63245
1.61290
1.62267
1.61290
1.60801
1.61290
1.61779
1.61290
1.60801
1.60801
1.61779
1.61290
1.60312
1.60801
1.61779
1.61779
1.60801
1.60801
1.61290
1.61290
1.61290
1.63245
1.67155
1.70087
1.72531
1.74975
1.76930
1.76930
1.75464
1.74486
1.76441
1.72043
1.69110
1.67644
1.67155
1.66666
1.64711
1.64711
1.64711
1.64711
1.63734
1.64222
1.64222
1.64222
1.63245
1.65689
1.62756
1.65200
1.62756
1.62756
1.63245
1.64222
1.63734
1.63734
1.63734
1.64711
1.63734
1.63734
1.63734
1.64222
1.63245
1.62267
1.62267
1.62756
1.62267
1.61290
1.61290
1.62267
1.61779
1.60801
1.61290
1.62267
1.61290
1.60801
1.61290
1.61779
1.61290
1.60801
1.61290
1.62756
1.61779
1.60801
1.61290
1.62267
1.61779
1.60801
1.61290
1.61290
1.61779
1.60801
1.60801
1.61290
1.62267
1.62267
1.65200
1.69110
1.72043
1.73509
1.75953
1.76930
1.76930
1.74975
1.73509
1.72043
1.71065
1.69599
1.67644
1.66177
1.66177
1.65200
1.64222
1.64222
1.64711
1.63734
1.63734
1.63245
1.63734
1.62756
1.62267
1.63734
1.65200
1.63245
1.63245
1.63734
1.65200
1.65200
1.64711
1.64711
1.65689
1.65200
1.64222
1.64222
1.64711
1.64222
1.62756
1.62756
1.63734
1.63245
1.61779
1.62267
1.63245
1.63245
1.62267
1.62267
1.62756
1.63245
1.61779
1.61779
1.62267
1.63245
1.62756
1.62756
1.65200
1.62756
1.61779
1.61779
1.61779
1.62756
1.61779
1.61290
1.62267
1.64222
1.65200
1.67644
1.71065
1.74486
1.76441
1.76441
1.77419
1.77419
1.75464
1.76441
1.72043
1.70576
1.69110
1.67155
1.67155
1.67155
1.66177
1.65200
1.65200
1.65689
1.65200
1.64222
1.63734
1.64711
1.64222
1.63245
1.63734
1.64711
1.65200
1.64222
1.65689
1.67155
1.66177
1.65689
1.66177
1.67155
1.67155
1.65689
1.67155
1.64711
1.65200
1.63734
1.64222
1.63734
1.63734
1.62756
1.62267
1.63245
1.64711
1.64711
1.63734
1.62267
1.66177
1.64711
1.63734
1.65200
1.62756
1.62267
1.61779
1.61779
1.62267
1.61779
1.61779
1.61779
1.62756
1.62267
1.62756
1.64711
1.68621
1.73998
1.73998
1.76930
1.78885
1.81329
1.77908
1.76930
1.75464
1.73998
1.71554
1.70576
1.69599
1.70087
1.68132
1.67155
1.67644
1.67155
1.67155
1.68132
1.69110
1.68132
1.63734
1.63734
1.63734
1.64711
1.63734
1.64711
1.66177
1.67644
1.65200
1.65689
1.66177
1.66666
1.65200
1.65200
1.65689
1.65689
1.64222
1.64222
1.64711
1.65689
1.63734
1.65200
1.65689
1.63245
1.62267
1.61779
1.62267
1.62756
1.62267
1.61779
1.61779
1.62756
1.61779
1.61290
1.61290
1.62267
1.61290
1.61290
1.61779
1.62756
1.62756
1.61779
1.61779
1.63245
1.63734
1.65200
1.68621
1.72531
1.75464
1.76930
1.80840
1.78885
1.77908
1.75464
1.73509
1.72531
1.73998
1.68132
1.67155
1.67155
1.66666
1.65200
1.64711
1.65200
1.65689
1.64222
1.63734
1.63245
1.64222
1.63245
1.65689
1.62756
1.63245
1.62756
1.62756
1.66666
1.64711
1.63734
1.64222
1.64711
1.65689
1.65200
1.66666
1.63245
1.64222
1.62756
1.62267
1.62267
1.62756
1.62267
1.61779
1.61779
1.61779
1.61779
1.60801
1.61290
1.61779
1.61779
1.61290
1.62267
1.61290
1.61290
1.60312
1.60312
1.60801
1.60801
1.59824
1.60312
1.61779
1.63734
1.65200
1.68132
1.75464
1.75464
1.75953
1.76441
1.76930
1.76441
1.73509
1.74975
1.72043
1.69599
1.67644
1.66177
1.66177
1.66177
1.64222
1.64222
1.64222
1.64711
1.63245
1.62756
1.62756
1.63245
1.62267
1.62267
1.64222
1.63245
1.63245
1.63245
1.64222
1.65200
1.64711
1.64711
1.64711
1.65689
1.64222
1.63245
1.62756
1.63734
1.62756
1.62756
1.61779
1.62267
1.62267
1.61779
1.63734
1.61779
1.61779
1.60801
1.60801
1.61290
1.61290
1.59824
1.59824
1.60312
1.60801
1.60312
1.61290
1.63245
1.66666
1.68132
1.71065
1.73998
1.76441
1.75464
1.74975
1.73998
1.73020
1.72043
1.68621
1.67644
1.67155
1.65200
1.64222
1.64222
1.64222
1.62756
1.61779
1.61779
1.62756
1.61290
1.61290
1.61779
1.63734
1.61290
1.61290
1.61779
1.63734
1.63245
1.63245
1.64711
1.66666
1.65200
1.65689
1.65200
1.64711
1.64711
1.62267
1.62267
1.63245
1.62267
1.60801
1.61779
1.62267
1.63245
1.63245
1.63734
1.60801
1.61290
1.60312
1.59824
1.59824
1.60801
1.59824
1.59824
1.61290
1.63245
1.65200
1.68621
1.71554
1.74975
1.74975
1.75464
1.78396
1.75464
1.72043
1.70576
1.69599
1.72043
1.67155
1.65689
1.66177
1.66666
1.64711
1.64711
1.64711
1.64711
1.63245
1.63245
1.66177
1.66177
1.63734
1.65689
1.62756
1.63734
1.64222
1.63734
1.64222
1.65200
1.65200
1.64222
1.64222
1.65200
1.64711
1.63734
1.63245
1.64222
1.63734
1.62756
1.62756
1.63734
1.63734
1.62756
1.62267
1.62756
1.62756
1.61779
1.61779
1.62756
1.63245
1.61779
1.62267
1.62267
1.63245
1.63734
1.66666
1.70576
1.73998
1.74975
1.76441
1.79374
1.77419
1.74975
1.73020
1.71554
1.70576
1.68621
1.67644
1.66666
1.66666
1.65689
1.65200
1.65200
1.65689
1.64711
1.64222
1.63734
1.64711
1.63734
1.63734
1.66666
1.66666
1.64222
1.63734
1.64222
1.65200
1.65200
1.64711
1.64711
1.65689
1.65200
1.64222
1.64222
1.64222
1.64222
1.62756
1.62756
1.63245
1.63734
1.62267
1.62267
1.63245
1.63245
1.61779
1.62267
1.62756
1.64222
1.63245
1.61779
1.63734
1.66177
1.68132
1.71065
1.74486
1.77419
1.77419
1.79863
1.79863
1.77908
1.74486
1.72043
1.70576
1.70087
1.69110
1.67644
1.67644
1.68132
1.67155
1.66177
1.66177
1.66666
1.65689
1.64711
1.64711
1.65200
1.64711
1.64222
1.64711
1.67155
1.67155
1.65200
1.65689
1.66666
1.66177
1.65200
1.65200
1.66177
1.65200
1.64222
1.63734
1.64222
1.64222
1.63245
1.62756
1.63734
1.63734
1.62267
1.62756
1.62756
1.63245
1.61779
1.62267
1.62756
1.63245
1.62756
1.63245
1.65689
1.70087
1.72043
1.73998
1.78885
1.78885
1.77419
1.75953
1.75464
1.74486
1.71554
1.70087
1.70576
1.68621
1.67644
1.66666
1.67644
1.67155
1.66177
1.65200
1.65200
1.65200
1.64222
1.64222
1.65689
1.64222
1.63734
1.63245
1.63734
1.65200
1.65200
1.64711
1.64711
1.66177
1.66666
1.67155
1.64222
1.64711
1.64222
1.63245
1.63245
1.63734
1.63734
1.62267
1.62267
1.62756
1.62756
1.61779
1.61779
1.62267
1.62756
1.61290
1.61290
1.61779
1.61779
1.61290
1.61290
1.61779
1.62267
1.62267
1.63734
1.66177
1.70087
1.73020
1.74975
1.76930
1.80840
1.76930
1.74486
1.73509
1.72531
1.70087
1.68621
1.67644
1.69110
1.67155
1.66666
1.68132
1.68132
1.67155
1.67155
1.65689
1.68132
1.64222
1.63245
1.63734
1.64222
1.64222
1.63245
1.64222
1.65689
1.66177
1.67644
1.64711
1.68132
1.68621
1.64222
1.64711
1.64222
1.65200
1.66177
1.66177
1.63245
1.64711
1.62756
1.62267
1.62756
1.63245
1.61779
1.61779
1.62267
1.63245
1.61779
1.61779
1.61779
1.62756
1.61779
1.61290
1.61290
1.62267
1.61290
1.61290
1.62267
1.62267
1.61290
1.62267
1.63734
1.66177
1.69110
1.72531
1.74486
1.77419
1.77908
1.76930
1.75464
1.77908
1.72531
1.70576
1.69110
1.69110
1.67155
1.66177
1.65689
1.66177
1.65689
1.64222
1.64711
1.64711
1.64711
1.63245
1.63734
1.64222
1.64711
1.62756
1.63245
1.64222
1.64711
1.63734
1.64711
1.65689
1.65689
1.64711
1.64222
1.64711
1.65200
1.63734
1.62756
1.63245
1.63734
1.62267
1.62267
1.62756
1.63245
1.62756
1.63245
1.62756
1.63245
1.64711
1.61290
1.61779
1.62267
1.61290
1.61290
1.61290
1.62267
1.61779
1.60801
1.61290
1.62267
1.61779
1.61290
1.62267
1.64222
1.67155
1.69599
1.73020
1.77419
1.77419
1.76930
1.76930
1.76441
1.74975
1.72043
1.72531
1.70576
1.68621
1.67155
1.66666
1.66666
1.66666
1.65689
1.65200
1.65200
1.65689
1.64222
1.64222
1.64711
1.65200
1.64222
1.65200
1.67155
1.65689
1.68621
1.68621
1.66177
1.66666
1.66177
1.65689
1.65689
1.66666
1.65200
1.64711
1.64711
1.67155
1.64711
1.64222
1.66177
1.67644
1.66666
1.66177
1.63245
1.64711
1.67155
1.64711
1.65200
1.65200
1.64222
1.65689
1.62756
1.66177
1.64222
1.62756
1.62756
1.63734
1.63734
1.64222
1.67155
1.70087
1.75464
1.74486
1.76441
1.78396
1.78885
1.77419
1.76441
1.74975
1.73509
1.70087
1.69599
1.68621
1.68132
1.67155
1.66177
1.66666
1.66177
1.65689
1.65200
1.68132
1.65200
1.64222
1.63245
1.64222
1.64711
1.64222
1.65689
1.65200
1.66177
1.65689
1.65689
1.65689
1.66666
1.66177
1.64711
1.65200
1.65689
1.65200
1.64222
1.64222
1.64711
1.65200
1.63734
1.62756
1.66177
1.62756
1.62267
1.62267
1.62756
1.62756
1.61779
1.61779
1.62756
1.62267
1.61290
1.61779
1.62267
1.62267
1.61779
1.61779
1.62756
1.63734
1.64222
1.67644
1.71554
1.74975
1.76441
1.80351
1.78885
1.77908
1.75464
1.73509
1.72043
1.71554
1.69599
1.67644
1.69110
1.69110
1.67155
1.67155
1.68621
1.68621
1.65200
1.63734
1.64222
1.64222
1.63734
1.63245
1.62756
1.64222
1.64222
1.65200
1.66666
1.67155
1.65200
1.64711
1.65200
1.65689
1.65200
1.64222
1.64222
1.64222
1.63734
1.62267
1.62756
1.62756
1.62756
1.61779
1.61779
1.62267
1.62267
1.61290
1.61779
1.64711
1.62267
1.60801
1.60801
1.61290
1.61779
1.60312
1.60801
1.60801
1.61290
1.60801
1.61779
1.63734
1.61290
1.60312
1.60801
1.61779
1.63245
1.64711
1.68621
1.72043
1.76441
1.76441
1.77419
1.76441
1.76441
1.73998
1.71554
1.71554
1.70087
1.68132
1.66177
1.65689
1.66177
1.65200
1.64222
1.64222
1.64711
1.64222
1.63245
1.63245
1.63245
1.63245
1.64222
1.65200
1.67155
1.66666
1.63245
1.63734
1.64711
1.65200
1.64222
1.64222
1.64711
1.64711
1.63245
1.63245
1.63245
1.63245
1.61779
1.61290
1.62267
1.62267
1.61290
1.61290
1.61779
1.63245
1.63245
1.62267
1.60312
1.60801
1.59824
1.59824
1.59824
1.60312
1.59824
1.59335
1.60312
1.61290
1.62267
1.62756
1.59824
1.61290
1.59824
1.59824
1.59824
1.61779
1.63245
1.65689
1.69110
1.73020
1.75953
1.75953
1.76441
1.75953
1.74486
1.71554
1.70576
1.70087
1.67644
1.65689
1.67644
1.65689
1.65200
1.64711
1.66666
1.63734
1.63245
1.62267
1.61779
1.62267
1.62267
1.61290
1.61779
1.62267
1.62756
1.62267
1.63734
1.63734
1.64711
1.63734
1.63734
1.64222
1.64711
1.63245
1.63245
1.63245
1.63734
1.62267
1.62267
1.62267
1.62756
1.61779
1.61290
1.61290
1.62267
1.61290
1.60801
1.61290
1.61779
1.61290
1.60801
1.61290
1.61779
1.61290
1.60801
1.60801
1.61779
1.61290
1.60801
1.61290
1.61779
1.61290
1.60312
1.60801
1.61779
1.62756
1.63734
1.66666
1.70576
1.76441
1.75464
1.76930
1.77908
1.76930
1.74975
1.73509
1.74975
1.71065
1.68132
1.67155
1.67155
1.69110
1.65689
1.65200
1.65689
1.66177
1.64711
1.65200
1.66177
1.66177
1.63245
1.63245
1.63734
1.64711
1.64222
1.64222
1.65689
1.66666
1.66177
1.67155
1.66666
1.67644
1.66177
1.65200
1.65689
1.65200
1.64711
1.64222
1.64222
1.64711
1.64222
1.63245
1.63245
1.63734
1.63245
1.62756
1.62756
1.63245
1.62756
1.62267
1.61779
1.62756
1.62756
1.62267
1.62267
1.63245
1.62756
1.61779
1.62267
1.62267
1.62756
1.61779
1.61779
1.62756
1.63734
1.64711
1.68132
1.71554
1.75464
1.76441
1.77908
1.79863
1.78885
1.75953
1.74975
1.73509
1.72531
1.71065
1.68621
1.68132
1.68621
1.67155
1.66666
1.66666
1.67155
1.65689
1.65200
1.64711
1.65200
1.64711
1.64711
1.67155
1.65200
1.65200
1.65200
1.65689
1.66666
1.66666
1.66177
1.66177
1.67155
1.67155
1.65689
1.65200
1.66177
1.65200
1.64222
1.64222
1.64711
1.64711
1.63245
1.63245
1.64222
1.64222
1.62756
1.62756
1.63734
1.63734
1.62756
1.62756
1.63245
1.63245
1.61779
1.61779
1.62267
1.62756
1.62267
1.62267
1.62267
1.63245
1.61779
1.61779
1.62756
1.63245
1.62756
1.62756
1.64711
1.67644
1.70576
1.74486
1.77419
1.79863
1.79863
1.78885
1.78396
1.78396
1.74975
1.73020
1.71554
1.71065
1.69110
1.68132
1.68132
1.68132
1.67155
1.66666
1.66177
1.67155
1.69110
1.64711
1.64711
1.65200
1.65200
1.64222
1.65200
1.67644
1.66177
1.65689
1.66666
1.67155
1.67155
1.66177
1.66177
1.66666
1.66666
1.64711
1.64711
1.65200
1.65200
1.64222
1.64222
1.64222
1.64222
1.62756
1.63245
1.63734
1.64222
1.62756
1.62756
1.63245
1.64222
1.64222
1.63734
1.62267
1.65689
1.62267
1.61779
1.62267
1.62756
1.62267
1.61779
1.61779
1.62756
1.62267
1.61779
1.62267
1.62267
1.62267
1.62267
1.62267
1.63245
1.62756
1.62267
1.63245
1.65689
1.68621
1.72043
1.74486
1.77419
1.79374
1.78885
1.78885
1.77908
1.76441
1.73509
1.72043
1.71065
1.72531
1.67644
1.66666
1.66666
1.66177
1.65200
1.65200
1.65200
1.64711
1.64222
1.63734
1.63734
1.63734
1.62756
1.63734
1.67155
1.64711
1.63734
1.64711
1.65200
1.66666
1.65200
1.65200
1.65689
1.66177
1.65200
1.64711
1.65689
1.67644
1.66177
1.66177
1.63245
1.63245
1.66177
1.65689
1.63245
1.64711
1.63734
1.64711
1.64711
1.62267
1.62267
1.61290
1.64222
1.61779
1.61779
1.61290
1.61290
1.65200
1.65200
1.61290
1.61290
1.61779
1.61779
1.61290
1.61290
1.62267
1.62756
1.61290
1.61779
1.62267
1.62267
1.61290
1.61290
1.64711
1.62756
1.62267
1.65200
1.65689
1.68621
1.73020
1.73020
1.75953
1.78396
1.77908
1.77419
1.76441
1.75464
1.74486
1.71065
1.69599
1.69599
1.67644
1.66666
1.69110
1.67644
1.65200
1.66666
1.64222
1.64711
1.64222
1.63245
1.63245
1.64222
1.63734
1.63245
1.64222
1.68132
1.65200
1.64711
1.65200
1.66666
1.66666
1.65689
1.65689
1.66177
1.65689
1.64222
1.64222
1.66666
1.67155
1.66177
1.63245
1.63734
1.63734
1.62267
1.62267
1.62756
1.63245
1.61779
1.62267
1.62756
1.62756
1.61779
1.61779
1.62267
1.62756
1.61779
1.61779
1.62267
1.62756
1.61779
1.61779
1.61779
1.62756
1.61779
1.61779
1.62267
1.62756
1.62267
1.61779
1.61779
1.63245
1.62756
1.63734
1.65689
1.69599
1.75464
1.75464
1.77419
1.79374
1.78885
1.77419
1.76441
1.75464
1.73998
1.71554
1.70087
1.69599
1.68132
1.66666
1.65689
1.66177
1.65689
1.64711
1.65200
1.65200
1.65200
1.63734
1.66177
1.63734
1.63734
1.62756
1.64711
1.67644
1.65689
1.64711
1.65689
1.66177
1.67155
1.66177
1.65689
1.65689
1.66177
1.64711
1.64222
1.64711
1.64711
1.63734
1.63734
1.63734
1.64222
1.62756
1.62756
1.62756
1.63734
1.62756
1.62267
1.62756
1.63245
1.62756
1.61779
1.61779
1.62756
1.62267
1.61290
1.61779
1.62756
1.62267
1.61290
1.61779
1.62267
1.62267
1.61779
1.61779
1.62756
1.62267
1.61779
1.62267
1.62756
1.62756
1.61779
1.64222
1.67155
1.70576
1.73020
1.79374
1.80351
1.79863
1.78885
1.77908
1.76930
1.75464
1.72531
1.71554
1.70087
1.69599
1.67644
1.66666
1.66177
1.66666
1.65200
1.65200
1.65200
1.65689
1.64711
1.66666
1.63734
1.64222
1.63734
1.63734
1.64222
1.65200
1.64711
1.64711
1.66177
1.67155
1.66177
1.67644
1.65200
1.65689
1.65200
1.63734
1.64222
1.64711
1.63734
1.62756
1.63245
1.63734
1.63245
1.61779
1.62267
1.62756
1.62267
1.61779
1.61779
1.64711
1.62267
1.61290
1.61290
1.61779
1.61779
1.60801
1.60801
1.61290
1.61779
1.60801
1.60801
1.61290
1.62267
1.61290
1.63245
1.60801
1.64711
1.62756
1.60312
1.60801
1.61290
1.60801
1.61290
1.62756
1.66177
1.68621
1.71554
1.74975
1.77908
1.77419
1.76441
1.75953
1.75464
1.73020
1.70576
1.71554
1.69110
1.67155
1.65689
1.65200
1.65689
1.64711
1.63245
1.63245
1.64222
1.63245
1.63245
1.61779
1.62756
1.62756
1.61290
1.65200
1.62756
1.63245
1.62756
1.63734
1.67644
1.65200
1.64222
1.64222
1.64222
1.64222
1.62756
1.62756
1.63245
1.63245
1.61779
1.61779
1.61779
1.62267
1.60801
1.60801
1.60801
1.61779
1.60312
1.60312
1.60312
1.61290
1.60801
1.60801
1.63245
1.63734
1.62756
1.59824
1.59824
1.60801
1.59824
1.59824
1.59824
1.60801
1.59824
1.59824
1.60312
1.60801
1.60312
1.60312
1.60312
1.61290
1.61290
1.62756
1.66177
1.70087
1.73020
1.74975
1.75953
1.77419
1.76930
1.74975
1.73509
1.73509
1.71065
1.68132
1.67155
1.66666
1.66177
1.64711
1.64222
1.64222
1.64711
1.62756
1.62756
1.63734
1.62756
1.61290
1.61779
1.62267
1.62756
1.62267
1.63245
1.65200
1.68132
1.64222
1.64711
1.64711
1.65689
1.64711
1.64222
1.64222
1.64711
1.63245
1.62756
1.62756
1.63245
1.62267
1.61779
1.61779
1.62756
1.61779
1.61779
1.61290
1.62267
1.61290
1.60801
1.60801
1.61290
1.61290
1.60312
1.60801
1.61290
1.61290
1.59824
1.60801
1.61290
1.61290
1.60312
1.60801
1.61290
1.61290
1.60801
1.61779
1.64711
1.67644
1.70576
1.73509
1.75953
1.78396
1.76930
1.76441
1.75464
1.74486
1.71554
1.69599
1.69110
1.68621
1.66666
1.65689
1.65689
1.68132
1.65689
1.65689
1.66177
1.64711
1.65200
1.63245
1.63245
1.63734
1.63245
1.62756
1.63734
1.64711
1.64711
1.65200
1.65689
1.66666
1.66177
1.65689
1.66177
1.67155
1.66177
1.67155
1.64222
1.64711
1.64222
1.64222
1.65689
1.64222
1.63245
1.62267
1.63245
1.66177
1.64222
1.62756
1.64711
1.62267
1.63245
1.61290
1.61290
1.61779
1.61779
1.61290
1.61290
1.61779
1.62267
1.61290
1.61290
1.61779
1.62267
1.61290
1.61290
1.62267
1.66177
1.67155
1.69110
1.72531
1.75953
1.76930
1.77908
1.80351
1.78885
1.76441
1.74486
1.73020
1.73020
1.70087
1.68621
1.71065
1.70087
1.67155
1.66177
1.66177
1.67155
1.66177
1.66177
1.64711
1.65200
1.64711
1.63734
1.63734
1.64711
1.64711
1.64222
1.65200
1.66177
1.66666
1.65689
1.66177
1.66666
1.66177
1.65200
1.65689
1.65200
1.65200
1.64222
1.63734
1.64222
1.64222
1.62756
1.62756
1.63734
1.63245
1.62267
1.61779
1.62267
1.62756
1.61779
1.61779
1.61779
1.62756
1.61779
1.61290
1.62267
1.63245
1.61779
1.62267
1.62756
1.62756
1.61779
1.61290
1.61779
1.62267
1.62756
1.63245
1.64222
1.66177
1.65689
1.68621
1.72043
1.72531
1.77908
1.77419
1.77908
1.78396
1.76441
1.74486
1.73020
1.72043
1.73998
1.68621
1.67155
1.67155
1.67155
1.65200
1.65200
1.66177
1.65689
1.64711
1.65200
1.67155
1.64222
1.63245
1.63245
1.63734
1.64222
1.63245
1.65689
1.64222
1.65200
1.64222
1.64711
1.64711
1.65200
1.63734
1.63734
1.63734
1.64222
1.62756
1.62267
1.61779
1.63245
1.62267
1.61779
1.62267
1.62756
1.62267
1.62267
1.63734
1.64222
1.63245
1.63734
1.60801
1.61779
1.60801
1.60312
1.60312
1.61290
1.60801
1.60312
1.60801
1.61290
1.61290
1.60312
1.60801
1.61290
1.61290
1.60801
1.60801
1.61290
1.61290
1.60801
1.61779
1.64222
1.66666
1.68621
1.73998
1.74486
1.75953
1.75464
1.74975
1.74486
1.73998
1.71065
1.69110
1.68621
1.71065
1.66177
1.68621
1.66177
1.66177
1.65200
1.64711
1.65689
1.66177
1.64711
1.66177
1.63734
1.64222
1.63734
1.63734
1.63734
1.65689
1.65200
1.65200
1.65689
1.66666
1.65689
1.65200
1.65200
1.65200
1.64711
1.63734
1.63734
1.64222
1.63734
1.62756
1.62756
1.63734
1.63245
1.62267
1.62267
1.63245
1.62756
1.61779
1.61779
1.62756
1.62756
1.61779
1.61779
1.61779
1.62267
1.61290
1.61779
1.61779
1.62756
1.61290
1.61290
1.61779
1.62267
1.61290
1.61290
1.61779
1.62267
1.61290
1.61779
1.64222
1.67155
1.68621
1.71554
1.74975
1.76441
1.75464
1.74486
1.74486
1.73509
1.71554
1.70087
1.69110
1.68621
1.66666
1.65689
1.65689
1.66666
1.65689
1.65200
1.65200
1.65689
1.64711
1.63734
1.63734
1.64711
1.63734
1.63734
1.63734
1.64711
1.64711
1.64711
1.65200
1.65689
1.65689
1.64711
1.64711
1.65200
1.65200
1.63734
1.63734
1.63734
1.63734
1.63245
1.63245
1.63734
1.63734
1.62756
1.62267
1.63245
1.63245
1.61779
1.61779
1.62267
1.62756
1.61779
1.61779
1.62267
1.62756
1.61779
1.61779
1.62267
1.62756
1.61779
1.61779
1.61779
1.62756
1.61779
1.61779
1.61779
1.62756
1.61779
1.61779
1.61779
1.62756
1.62267
1.62756
1.65200
1.68621
1.70576
1.73020
1.75464
1.77419
1.78396
1.76441
1.75464
1.74486
1.73020
1.70576
1.72531
1.69599
1.68621
1.66666
1.66666
1.66666
1.66666
1.65689
1.65200
1.65689
1.65689
1.64222
1.64222
1.64222
1.65200
1.64222
1.64711
1.66666
1.67644
1.64711
1.64711
1.65689
1.66177
1.65200
1.65200
1.65200
1.66666
1.65200
1.64711
1.64222
1.64222
1.62756
1.63245
1.63245
1.63734
1.62267
1.61779
1.62267
1.63245
1.64222
1.63245
1.61779
1.62267
1.61290
1.60801
1.60801
1.61779
1.61290
1.60312
1.60801
1.61779
1.61290
1.60312
1.61290
1.61779
1.61290
1.60312
1.60312
1.60801
1.61290
1.60801
1.60801
1.61290
1.61779
1.61779
1.63734
1.63734
1.66666
1.72043
1.72043
1.74486
1.77419
1.75464
1.74486
1.74486
1.73509
1.70576
1.69599
1.68132
1.67644
1.65689
1.68132
1.67644
1.66177
1.66177
1.66666
1.66666
1.65689
1.64711
1.65689
1.62267
1.63245
1.62267
1.62267
1.62267
1.63734
1.63245
1.63245
1.64222
1.65200
1.64711
1.64222
1.64711
1.65200
1.64222
1.63734
1.63734
1.64711
1.65200
1.61779
1.61779
1.62756
1.62267
1.61290
1.61290
1.61779
1.61779
1.60801
1.60801
1.61290
1.61779
1.60801
1.61779
1.62267
1.62267
1.61779
1.60801
1.61779
1.61779
1.60801
1.60801
1.61290
1.61290
1.60312
1.60312
1.60312
1.61290
1.60312
1.59824
1.60801
1.62267
1.62756
1.65200
1.68621
1.73020
1.73020
1.74486
1.75953
1.76441
1.75953
1.73020
1.71554
1.70576
1.70087
1.67155
1.66177
1.66666
1.65689
1.64711
1.64222
1.65200
1.64711
1.64222
1.65689
1.67155
1.63734
1.62267
1.62267
1.63245
1.63734
1.63245
1.63734
1.65689
1.65689
1.65200
1.65200
1.65689
1.65689
1.64711
1.64711
1.64711
1.64711
1.63734
1.63734
1.64222
1.64222
1.62756
1.63245
1.63245
1.63245
1.61779
1.61779
1.62756
1.62756
1.61779
1.63245
1.61779
1.62267
1.61290
1.61290
1.61290
1.65200
1.64222
1.62267
1.62756
1.64711
1.63734
1.62756
1.62756
1.64711
1.64711
1.64222
1.67644
1.67644
1.71554
1.73509
1.74975
1.76441
1.76441
1.75464
1.74486
1.73998
1.72531
1.70087
1.68621
1.68621
1.68621
1.68621
1.68621
1.68621
1.68132
1.65200
1.66177
1.68132
1.67644
1.63245
1.63245
1.63734
1.64222
1.63245
1.63734
1.64711
1.65200
1.64711
1.64711
1.65689
1.66177
1.65200
1.64711
1.64711
1.65200
1.63734
1.63734
1.63734
1.64222
1.62756
1.61779
1.62756
1.63245
1.62267
1.61779
1.62267
1.62756
1.61779
1.61290
1.62267
1.63245
1.62267
1.62267
1.62267
1.63245
1.62267
1.62267
1.61779
1.62756
1.62267
1.62756
1.63245
1.62756
1.62267
1.61290
1.61779
1.63245
1.63245
1.63245
1.65689
1.69110
1.72043
1.74486
1.76441
1.78396
1.78885
1.77419
1.79374
1.75953
1.73998
1.71554
1.70087
1.71554
1.69110
1.67155
1.67155
1.67644
1.68132
1.66666
1.67155
1.67155
1.68132
1.65200
1.65200
1.65200
1.65689
1.64711
1.65200
1.65689
1.66666
1.66177
1.66177
1.66666
1.67644
1.66666
1.66177
1.66177
1.66177
1.65200
1.64711
1.64711
1.67644
1.64222
1.63245
1.63245
1.63734
1.63245
1.62267
1.62267
1.62756
1.64222
1.61779
1.61779
1.62267
1.62267
1.61290
1.61779
1.62267
1.61779
1.60801
1.60801
1.61779
1.61779
1.60801
1.60801
1.61779
1.61779
1.60801
1.60801
1.61779
1.61779
1.60801
1.60801
1.61779
1.62756
1.62756
1.65200
1.69110
1.73020
1.74486
1.76441
1.80351
1.78885
1.76930
1.74975
1.73998
1.72531
1.70087
1.69110
1.67644
1.70576
1.70087
1.68621
1.67155
1.67155
1.68132
1.65200
1.67155
1.65200
1.64711
1.63734
1.64222
1.65200
1.65200
1.64711
1.64711
1.66177
1.66177
1.65200
1.66177
1.66177
1.66177
1.64711
1.65200
1.65200
1.65200
1.63734
1.63734
1.64222
1.63245
1.62267
1.62756
1.63245
1.63734
1.62267
1.63245
1.63245
1.63734
1.63245
1.62756
1.65200
1.62756
1.62267
1.63734
1.62267
1.62756
1.61290
1.61290
1.61779
1.62267
1.61779
1.61290
1.61779
1.62267
1.61290
1.61290
1.61290
1.62267
1.62267
1.63734
1.66177
1.70576
1.72531
1.74486
1.76441
1.77908
1.77419
1.75464
1.74486
1.73998
1.71065
1.69110
1.68132
1.68132
1.67155
1.65689
1.65689
1.66177
1.66666
1.65689
1.64711
1.65200
1.65200
1.64222
1.63734
1.64711
1.65200
1.64222
1.64711
1.65689
1.66666
1.67644
1.65689
1.66177
1.69599
1.68621
1.68132
1.65689
1.67644
1.67155
1.63245
1.63734
1.63734
1.62756
1.62756
1.62756
1.63245
1.62267
1.62267
1.62267
1.63245
1.61779
1.61779
1.62267
1.62267
1.62267
1.61779
1.61290
1.62267
1.61779
1.60801
1.61290
1.62267
1.61779
1.61290
1.61290
1.61779
1.62267
1.61779
1.64222
1.67155
1.70576
1.74975
1.74975
1.77419
1.77908
1.76441
1.78396
1.76441
1.73509
1.71065
1.69599
1.69110
1.68621
1.66666
1.66666
1.66666
1.70087
1.65689
1.68132
1.65689
1.65689
1.65200
1.64222
1.64711
1.65200
1.63734
1.64711
1.65200
1.66177
1.65200
1.65689
1.66666
1.67155
1.65200
1.65200
1.65689
1.65200
1.64222
1.64222
1.64222
1.64711
1.63734
1.63245
1.64222
1.66666
1.64711
1.65200
1.64222
1.66177
1.64711
1.63245
1.62756
1.65689
1.65200
1.62267
1.61779
1.62756
1.62756
1.61779
1.61779
1.62267
1.62267
1.61290
1.62267
1.62267
1.62756
1.61779
1.61290
1.63245
1.63734
1.64222
1.67155
1.71065
1.74975
1.77908
1.80840
1.78885
1.78396
1.75953
1.74486
1.73509
1.72531
1.69599
1.69110
1.68621
1.68621
1.67155
1.66666
1.67155
1.67644
1.66177
1.65689
1.65689
1.66177
1.65200
1.64711
1.65200
1.65689
1.65200
1.65200
1.65689
1.67644
1.66666
1.68132
1.69110
1.69110
1.65689
1.67155
1.64711
1.65200
1.64711
1.63734
1.63734
1.63734
1.63734
1.62756
1.62756
1.62756
1.62756
1.62267
1.61779
1.62756
1.62267
1.61290
1.61779
1.62756
1.63245
1.60801
1.60801
1.61290
1.61779
1.60801
1.60801
1.61290
1.61779
1.60312
1.60312
1.61290
1.61779
1.60801
1.60801
1.61290
1.61779
1.61290
1.62267
1.64711
1.67644
1.70087
1.72531
1.75953
1.76441
1.76441
1.75464
1.74486
1.73509
1.72531
1.69110
1.68621
1.68132
1.66666
1.65689
1.65689
1.66177
1.65689
1.64711
1.64711
1.65689
1.64711
1.63734
1.63245
1.64222
1.64222
1.64222
1.63734
1.64711
1.65200
1.63734
1.64711
1.65689
1.65689
1.64222
1.64222
1.64222
1.64222
1.62756
1.62756
1.62756
1.63245
1.62267
1.61290
1.62267
1.62267
1.61290
1.61290
1.61290
1.62267
1.60801
1.61290
1.61290
1.62267
1.60801
1.60312
1.61290
1.62267
1.61290
1.63245
1.61290
1.62756
1.60801
1.60801
1.60801
1.61779
1.60801
1.60312
1.60801
1.64222
1.63734
1.64711
1.67155
1.71065
1.72043
1.72531
1.74486
1.75953
1.75953
1.74975
1.73509
1.72043
1.70087
1.67644
1.67155
1.68132
1.66177
1.64711
1.65200
1.65689
1.65689
1.64222
1.63734
1.64222
1.63734
1.62756
1.62756
1.63734
1.64222
1.63734
1.64222
1.64711
1.66177
1.66666
1.65689
1.65200
1.65689
1.64222
1.63245
1.63245
1.64222
1.62756
1.61779
1.62267
1.62756
1.61290
1.61290
1.61290
1.62267
1.60801
1.60801
1.60801
1.61290
1.61290
1.60312
1.60801
1.62267
1.63245
1.63734
1.60801
1.64222
1.63245
1.63245
1.60312
1.61290
1.61290
1.60312
1.60801
1.61290
1.61290
1.60801
1.61779
1.64711
1.67644
1.72531
1.72043
1.74486
1.75464
1.74486
1.73998
1.73998
1.72043
1.69599
1.68132
1.67155
1.67155
1.65200
1.64711
1.65200
1.65200
1.64222
1.64222
1.64222
1.64711
1.63734
1.62756
1.63245
1.63734
1.62756
1.62756
1.63734
1.64222
1.63734
1.63734
1.64222
1.65200
1.66177
1.63734
1.63734
1.64222
1.63245
1.62267
1.62756
1.62756
1.62267
1.61290
1.61290
1.61779
1.64711
1.60801
1.61290
1.61779
1.64711
1.63734
1.60801
1.61290
1.61779
1.60312
1.60801
1.61290
1.61290
1.60312
1.60801
1.61290
1.61779
1.60312
1.60801
1.61290
1.61290
1.60312
1.60312
1.60801
1.61779
1.59824
1.60801
1.62267
1.64711
1.66177
1.69110
1.72043
1.75953
1.75464
1.75464
1.75464
1.74975
1.72531
1.73509
1.70087
1.68621
1.67155
1.68621
1.65689
1.69110
1.66666
1.66666
1.68132
1.66177
1.65689
1.65200
1.64222
1.64711
1.65200
1.65200
1.66666
1.66666
1.64711
1.64222
1.64711
1.65689
1.65689
1.64711
1.64711
1.65689
1.65200
1.63734
1.63734
1.63734
1.63734
1.62267
1.62267
1.62756
1.62756
1.61290
1.61779
1.61779
1.61779
1.60801
1.60801
1.61290
1.61779
1.60801
1.60801
1.63245
1.63734
1.63245
1.59824
1.60801
1.61290
1.60801
1.60312
1.60312
1.60801
1.60312
1.60312
1.59824
1.61290
1.60312
1.60312
1.60312
1.60801
1.60801
1.59824
1.60801
1.62756
1.64222
1.66666
1.70087
1.73509
1.74975
1.74975
1.78396
1.75953
1.73998
1.72043
1.70576
1.70087
1.68132
1.68132
1.66177
1.66177
1.66177
1.64222
1.64222
1.65200
1.65689
1.64222
1.64711
1.64711
1.64711
1.63245
1.63245
1.64222
1.64711
1.64711
1.64711
1.65200
1.66177
1.64711
1.64711
1.65200
1.65689
1.64711
1.63734
1.63734
1.64222
1.63245
1.62756
1.62756
1.63245
1.62756
1.61779
1.62267
1.62756
1.61779
1.61779
1.61779
1.62267
1.61779
1.61290
1.61290
1.62267
1.61779
1.60801
1.61290
1.62267
1.61290
1.60801
1.61290
1.61290
1.61779
1.60801
1.61290
1.62267
1.61779
1.61290
1.60801
1.62756
1.64222
1.64711
1.67644
1.72531
1.74486
1.75464
1.76441
1.76930
1.77908
1.73998
1.72043
1.71065
1.70087
1.67644
1.67644
1.66177
1.66666
1.65200
1.64711
1.64711
1.67155
1.66177
1.63734
1.63734
1.64222
1.63734
1.63245
1.63734
1.64711
1.64711
1.64222
1.65200
1.66177
1.65689
1.65200
1.65200
1.65689
1.65200
1.63734
1.64222
1.64711
1.63734
1.63245
1.62756
1.63245
1.63245
1.62267
1.62267
1.63734
1.63245
1.63245
1.63734
1.65689
1.64222
1.62267
1.61779
1.62756
1.64711
1.64222
1.64711
1.65200
1.65200
1.63734
1.61290
1.61779
1.62267
1.61290
1.61290
1.61779
1.63245
1.64222
1.67155
1.70576
1.74975
1.75953
1.76930
1.77419
1.77419
1.75464
1.73509
1.72043
1.72043
1.69599
1.67644
1.68132
1.67644
1.66177
1.65200
1.65200
1.66177
1.65689
1.67644
1.67644
1.68132
1.64711
1.63734
1.63734
1.64711
1.64711
1.64222
1.65200
1.66177
1.66177
1.65689
1.66177
1.66666
1.66177
1.65200
1.65200
1.65200
1.64711
1.63245
1.63245
1.63734
1.64222
1.62756
1.62267
1.63245
1.63734
1.61779
1.62267
1.62756
1.63245
1.63245
1.64711
1.62267
1.62756
1.61779
1.61779
1.62267
1.62756
1.61779
1.61779
1.61779
1.62756
1.61779
1.61779
1.62267
1.62756
1.62267
1.62756
1.64711
1.68132
1.71065
1.73998
1.76441
1.78885
1.78885
1.77908
1.76930
1.78885
1.74486
1.72043
1.70576
1.70576
1.69599
1.67644
1.67155
1.67155
1.67155
1.65689
1.66177
1.66177
1.66177
1.64711
1.64711
1.64711
1.65200
1.64222
1.65200
1.67155
1.68621
1.65689
1.65689
1.66177
1.67155
1.65689
1.65200
1.65689
1.65689
1.64222
1.63734
1.63734
1.64222
1.63245
1.62756
1.62756
1.63245
1.62756
1.62756
1.64222
1.62756
1.63734
1.61290
1.61779
1.62267
1.61290
1.60801
1.61290
1.62267
1.61779
1.61290
1.61290
1.62267
1.63734
1.61290
1.61290
1.61779
1.61779
1.60801
1.61290
1.61779
1.62267
1.61290
1.62756
1.65689
1.69599
1.71554
1.74486
1.76930
1.78885
1.77419
1.76441
1.74975
1.74486
1.71554
1.73020
1.69110
1.68621
1.67155
1.67155
1.66666
1.67155
1.65689
1.65200
1.65689
1.65689
1.64711
1.64711
1.66177
1.67644
1.63734
1.63734
1.64711
1.65689
1.65200
1.64711
1.66177
1.67155
1.66177
1.65200
1.65200
1.65200
1.65200
1.64222
1.64222
1.64711
1.64222
1.63245
1.63245
1.63734
1.63734
1.62756
1.62756
1.63734
1.63245
1.62267
1.62267
1.63245
1.62756
1.61779
1.62756
1.62756
1.63734
1.62756
1.63734
1.61779
1.65200
1.61290
1.61290
1.61779
1.62267
1.60801
1.61779
1.62756
1.65689
1.67155
1.70576
1.74486
1.77419
1.77419
1.77419
1.77419
1.76930
1.75953
1.72531
1.70576
1.70576
1.71554
1.66666
1.66666
1.67155
1.65689
1.65200
1.65200
1.65689
1.64711
1.63734
1.63734
1.64222
1.64222
1.63734
1.65689
1.68621
1.65200
1.65200
1.65689
1.66666
1.66666
1.65689
1.65689
1.66177
1.65689
1.64222
1.63734
1.64711
1.64222
1.62756
1.62756
1.63245
1.63245
1.62267
1.62267
1.62756
1.62756
1.61779
1.61779
1.62267
1.62267
1.61290
1.61779
1.62267
1.62267
1.61290
1.61290
1.63245
1.65200
1.62267
1.61779
1.62756
1.62267
1.64711
1.63734
1.65689
1.69110
1.71065
1.73998
1.76441
1.79374
1.78396
1.76930
1.75464
1.74975
1.72531
1.72531
1.69599
1.69110
1.70087
1.67644
1.69110
1.69110
1.67155
1.66177
1.66666
1.65689
1.65689
1.65689
1.63734
1.64222
1.64711
1.64222
1.64222
1.66177
1.68621
1.66177
1.65200
1.65689
1.66177
1.65200
1.64711
1.65200
1.65200
1.63734
1.63734
1.63734
1.63734
1.62267
1.61779
1.62756
1.63245
1.61779
1.62267
1.62267
1.63245
1.64222
1.61779
1.61779
1.62267
1.61779
1.61290
1.61290
1.62267
1.61290
1.60801
1.61290
1.61779
1.61290
1.60801
1.61290
1.61779
1.61779
1.61290
1.62756
1.65689
1.67644
1.71065
1.74486
1.77908
1.79374
1.78396
1.78396
1.77908
1.75953
1.73020
1.72531
1.70576
1.69599
1.70576
1.68132
1.67644
1.67644
1.66177
1.66177
1.66666
1.66666
1.65200
1.66177
1.64711
1.65200
1.64222
1.64222
1.64711
1.66177
1.65689
1.66177
1.65689
1.66666
1.65689
1.65689
1.65689
1.66177
1.64711
1.64222
1.63734
1.64222
1.63245
1.62756
1.62756
1.63245
1.62267
1.61779
1.62267
1.63245
1.62756
1.62267
1.64222
1.65200
1.61779
1.60801
1.61290
1.61779
1.61290
1.60801
1.60801
1.61779
1.61290
1.60312
1.60312
1.61779
1.61779
1.61779
1.63245
1.61779
1.63245
1.63245
1.61290
1.63734
1.67155
1.69110
1.72531
1.75953
1.78396
1.77419
1.76441
1.75953
1.75464
1.72043
1.70087
1.71554
1.68621
1.67155
1.65689
1.65689
1.66177
1.64711
1.64711
1.64711
1.65200
1.63734
1.63245
1.62756
1.64222
1.63734
1.64222
1.63245
1.64222
1.64222
1.64222
1.64222
1.64711
1.64711
1.64222
1.64222
1.64711
1.64222
1.62756
1.62756
1.63734
1.62756
1.61779
1.62267
1.62756
1.62267
1.63734
1.62267
1.61290
1.61290
1.60312
1.60312
1.60801
1.61290
1.59824
1.60312
1.60801
1.60801
1.59824
1.59824
1.60312
1.61290
1.59824
1.59824
1.60312
1.61290
1.60312
1.60312
1.60312
1.60801
1.59824
1.59824
1.61779
1.64711
1.66666
1.69599
1.73509
1.76441
1.76930
1.76930
1.76441
1.75953
1.74975
1.71065
1.70087
1.69110
1.68132
1.66177
1.65689
1.66177
1.65689
1.64711
1.65200
1.65200
1.64711
1.63245
1.63734
1.64222
1.64222
1.65200
1.63734
1.64711
1.65200
1.64222
1.64711
1.65689
1.66177
1.64711
1.64711
1.65200
1.65200
1.63734
1.63245
1.63734
1.63734
1.62267
1.62267
1.62267
1.63245
1.61779
1.61290
1.61779
1.62756
1.61290
1.61290
1.60801
1.62267
1.61290
1.61779
1.61779
1.65200
1.63245
1.62756
1.62756
1.62267
1.61290
1.60801
1.61779
1.64711
1.63734
1.63245
1.64222
1.65689
1.63245
1.64711
1.69599
1.72043
1.74975
1.75464
1.76441
1.77419
1.76441
1.77419
1.74975
1.72531
1.70087
1.67644
1.67155
1.67155
1.67155
1.65689
1.65689
1.66177
1.66177
1.64711
1.64222
1.64711
1.64711
1.63734
1.63245
1.64222
1.65200
1.64222
1.65200
1.66177
1.66666
1.65689
1.66177
1.68621
1.69110
1.66666
1.65200
1.65200
1.64711
1.64222
1.65689
1.65689
1.63245
1.62267
1.61779
1.62756
1.62756
1.62267
1.61290
1.61779
1.62756
1.61779
1.61290
1.61290
1.62267
1.61779
1.61290
1.61290
1.61779
1.61779
1.60801
1.60801
1.61779
1.62267
1.60801
1.60801
1.61779
1.61779
1.61290
1.62267
1.65200
1.68132
1.70576
1.73998
1.76930
1.78396
1.80351
1.77908
1.76441
1.75464
1.73020
1.74486
1.71065
1.70087
1.68132
1.67644
1.67644
1.67644
1.66666
1.66177
1.66666
1.66666
1.65689
1.65200
1.65200
1.65689
1.64711
1.64711
1.64711
1.65689
1.66177
1.65689
1.66666
1.67644
1.66177
1.66177
1.65200
1.66177
1.65689
1.64711
1.64222
1.65200
1.64711
1.63245
1.63245
1.64222
1.63245
1.62267
1.62267
1.63245
1.63734
1.62267
1.62267
1.62267
1.62756
1.61290
1.61290
1.62756
1.63734
1.61779
1.64222
1.62756
1.62756
1.63734
1.64222
1.61779
1.62267
1.61290
1.61290
1.64222
1.62756
1.61290
1.61290
1.61290
1.63245
1.64222
1.66177
1.70087
1.74486
1.75953
1.76930
1.77908
1.78396
1.76441
1.74486
1.73509
1.72043
1.69599
1.68132
1.69599
1.67644
1.67155
1.66177
1.66177
1.66666
1.65689
1.64711
1.65689
1.68132
1.64222
1.63245
1.62756
1.63734
1.64222
1.63734
1.65200
1.64711
1.65200
1.64222
1.64711
1.64711
1.65200
1.64222
1.63734
1.64222
1.64222
1.62756
1.62756
1.62756
1.63245
1.61779
1.61290
1.61779
1.62267
1.60801
1.61290
1.61290
1.62267
1.61290
1.61290
1.64222
1.63245
1.62756
1.60801
1.60801
1.61779
1.60801
1.60312
1.60801
1.61290
1.61290
1.59824
1.60801
1.61779
1.61290
1.60312
1.60801
1.61779
1.61290
1.60801
1.61779
1.64711
1.67155
1.69110
1.73020
1.75953
1.77419
1.76441
1.75953
1.75953
1.77419
1.72043
1.70087
1.68621
1.68132
1.66177
1.65689
1.65200
1.65689
1.64222
1.64222
1.64711
1.64711
1.63734
1.62756
1.63245
1.64711
1.63245
1.65200
1.66177
1.66177
1.65689
1.65200
1.66666
1.68132
1.68132
1.67644
1.66177
1.66177
1.64222
1.63734
1.64711
1.64222
1.63734
1.64222
1.65200
1.63245
1.65200
1.61290
1.65200
1.65200
1.62267
1.61290
1.61290
1.65200
1.64222
1.62756
1.61290
1.61779
1.61779
1.60801
1.60801
1.61779
1.61779
1.60312
1.60801
1.61290
1.61779
1.60312
1.60801
1.61290
1.62756
1.63245
1.66177
1.70087
1.73509
1.74486
1.75953
1.79863
1.76930
1.73998
1.72531
1.71554
1.70576
1.69599
1.67155
1.66177
1.66666
1.65200
1.64711
1.64711
1.65200
1.64222
1.63734
1.63734
1.63734
1.63245
1.62267
1.62756
1.64222
1.63734
1.63245
1.64222
1.66177
1.65689
1.64711
1.65200
1.65689
1.65200
1.64222
1.64222
1.65689
1.64222
1.62267
1.61779
1.62267
1.62756
1.61290
1.61290
1.61779
1.61779
1.60801
1.60801
1.61290
1.61779
1.60312
1.60312
1.61290
1.61290
1.60801
1.61779
1.62756
1.62756
1.61290
1.61290
1.64222
1.61779
1.60801
1.60801
1.60801
1.61290
1.60312
1.60312
1.61290
1.63245
1.64711
1.67644
1.71065
1.74486
1.76441
1.76930
1.76930
1.76441
1.74486
1.72531
1.70576
1.73509
1.68621
1.66666
1.67155
1.67155
1.66177
1.65200
1.65200
1.65200
1.64711
1.64222
1.63245
1.64222
1.64222
1.63245
1.63245
1.66177
1.67155
1.63245
1.63734
1.64711
1.65200
1.64222
1.64222
1.64222
1.65200
1.62756
1.63245
1.63245
1.63734
1.62267
1.62267
1.62267
1.62756
1.62267
1.61779
1.61779
1.62756
1.61290
1.61779
1.62756
1.62756
1.61290
1.63245
1.63734
1.64222
1.60312
1.59824
1.59824
1.60801
1.59824
1.59335
1.59824
1.60801
1.59824
1.59824
1.59824
1.60312
1.59824
1.59335
1.59824
1.60801
1.60312
1.59824
1.61290
1.64711
1.68132
1.70087
1.75464
1.75953
1.76441
1.75464
1.74486
1.75953
1.73998
1.69599
1.67644
1.67644
1.69599
1.65200
1.64711
1.64711
1.65200
1.63734
1.63245
1.63734
1.64222
1.62756
1.62756
1.62756
1.63245
1.62267
1.62756
1.65689
1.67155
1.64711
1.63734
1.63734
1.64711
1.64222
1.63245
1.63734
1.64222
1.63245
1.62267
1.62267
1.63245
1.61779
1.60801
1.61290
1.62267
1.61290
1.61290
1.61290
1.62267
1.62267
1.62756
1.60801
1.61290
1.61290
1.60312
1.60312
1.60801
1.60801
1.60312
1.60801
1.60801
1.61290
1.59824
1.60312
1.60801
1.61290
1.59824
1.59824
1.60801
1.61290
1.60801
1.61779
1.64711
1.68621
1.71065
1.73509
1.77908
1.77419
1.75953
1.74975
1.73509
1.73020
1.73509
1.68621
1.67644
1.67155
1.65689
1.64711
1.64711
1.65200
1.64711
1.63734
1.63734
1.64222
1.63734
1.63245
1.63245
1.63734
1.63734
1.63245
1.64222
1.65200
1.65689
1.65200
1.65689
1.66177
1.65689
1.64711
1.64711
1.66666
1.65200
1.63245
1.63734
1.63245
1.63734
1.62267
1.64711
1.63245
1.63245
1.61779
1.62267
1.62756
1.62756
1.61290
1.60801
1.61290
1.61779
1.60801
1.60801
1.61290
1.61779
1.60801
1.60801
1.61290
1.62267
1.61290
1.60801
1.61290
1.62267
1.61779
1.62267
1.64711
1.68621
1.71065
1.73509
1.76441
1.78396
1.77908
1.76441
1.75464
1.74486
1.75464
1.70087
1.68621
1.68621
1.67644
1.66177
1.65689
1.66177
1.66177
1.64711
1.64711
1.65200
1.65200
1.63734
1.63734
1.63734
1.64711
1.63245
1.64222
1.67155
1.67155
1.66177
1.66666
1.67644
1.67155
1.67644
1.65689
1.65200
1.65200
1.63245
1.63245
1.63245
1.63734
1.62756
1.62267
1.62267
1.63245
1.62267
1.61779
1.61779
1.62756
1.61779
1.61779
1.62267
1.62267
1.62267
1.62267
1.62267
1.63245
1.64711
1.61779
1.61779
1.62756
1.62267
1.61779
1.61779
1.62756
1.62756
1.61779
1.62756
1.64222
1.66666
1.68621
1.72531
1.75953
1.77908
1.79863
1.81329
1.79374
1.76930
1.74486
1.73020
1.71554
1.72043
1.69110
1.68132
1.68132
1.68132
1.66666
1.66177
1.66666
1.67155
1.65689
1.65200
1.65200
1.65689
1.64222
1.64222
1.64711
1.65689
1.65200
1.65200
1.66177
1.67644
1.66177
1.66177
1.66666
1.67155
1.66177
1.65200
1.65689
1.65200
1.64711
1.63734
1.65689
1.66666
1.63245
1.62756
1.62267
1.63245
1.63245
1.61779
1.62267
1.62756
1.62267
1.61290
1.61290
1.61779
1.61779
1.60801
1.60801
1.61290
1.61290
1.61779
1.61779
1.62267
1.63734
1.63245
1.60801
1.61290
1.61779
1.60312
1.60801
1.61779
1.63245
1.64711
1.67644
1.71554
1.78396
1.77419
1.76930
1.76930
1.76930
1.74486
1.72531
1.71065
1.71065
1.68132
1.66666
1.65689
1.66666
1.65200
1.64711
1.64711
1.65689
1.64711
1.63734
1.63734
1.64222
1.63734
1.62756
1.63245
1.64222
1.64222
1.64222
1.66666
1.65689
1.65689
1.67155
1.64222
1.64711
1.64711
1.63245
1.63245
1.63734
1.63734
1.62267
1.62267
1.62267
1.62756
1.61290
1.61290
1.61779
1.62267
1.60801
1.60801
1.61290
1.61779
1.60801
1.60801
1.61290
1.62267
1.60801
1.60801
1.60801
1.61290
1.60801
1.60801
1.61290
1.62267
1.61290
1.61290
1.61290
1.62267
1.60801
1.60312
1.61290
1.62267
1.62756
1.65200
1.68621
1.75953
1.74975
1.75953
1.76441
1.76930
1.75464
1.74975
1.72043
1.71065
1.69599
1.70576
1.66666
1.67155
1.66177
1.65200
1.65200
1.65689
1.66177
1.67155
1.66177
1.64222
1.64222
1.65200
1.63734
1.64222
1.64711
1.64222
1.64711
1.65689
1.66177
1.65200
1.64711
1.65200
1.66177
1.64711
1.64222
1.64222
1.64711
1.63245
1.62756
1.63245
1.63734
1.62756
1.62267
1.62267
1.63245
1.62267
1.61779
1.61779
1.62267
1.61779
1.61290
1.61290
1.62267
1.63245
1.62756
1.61290
1.61779
1.61779
1.61290
1.61290
1.61779
1.61779
1.60801
1.61290
1.62267
1.62756
1.62267
1.64711
1.68621
1.71554
1.73509
1.77419
1.77419
1.77908
1.75953
1.74486
1.73020
1.73509
1.69110
1.67644
1.67644
1.67644
1.65689
1.65200
1.65689
1.65689
1.64711
1.64711
1.64711
1.65200
1.64222
1.63245
1.63245
1.64222
1.64222
1.65200
1.64711
1.65689
1.65200
1.64711
1.65200
1.66177
1.65200
1.64222
1.64222
1.65200
1.64222
