2022-12-14 18:45:11.743386
2022-12-14 18:45:11.743386
2022-12-14 18:45:11.744376
2022-12-14 18:45:11.776335
2022-12-14 18:45:11.777289
2022-12-14 18:45:11.777289
2022-12-14 18:45:11.810235
2022-12-14 18:45:11.811229
2022-12-14 18:45:11.844110
2022-12-14 18:45:11.844110
2022-12-14 18:45:11.845110
2022-12-14 18:45:11.877064
2022-12-14 18:45:11.878019
2022-12-14 18:45:11.878019
2022-12-14 18:45:11.910797
2022-12-14 18:45:11.911759
2022-12-14 18:45:11.944640
2022-12-14 18:45:11.944859
2022-12-14 18:45:11.945257
2022-12-14 18:45:11.978574
2022-12-14 18:45:11.978904
2022-12-14 18:45:11.978904
2022-12-14 18:45:12.012126
2022-12-14 18:45:12.012475
2022-12-14 18:45:12.045637
2022-12-14 18:45:12.045876
2022-12-14 18:45:12.045876
2022-12-14 18:45:12.079173
2022-12-14 18:45:12.079470
2022-12-14 18:45:12.079996
2022-12-14 18:45:12.112764
2022-12-14 18:45:12.113767
2022-12-14 18:45:12.145024
2022-12-14 18:45:12.146017
2022-12-14 18:45:12.146017
2022-12-14 18:45:12.179727
2022-12-14 18:45:12.180055
2022-12-14 18:45:12.180782
2022-12-14 18:45:12.213354
2022-12-14 18:45:12.213354
2022-12-14 18:45:12.246942
2022-12-14 18:45:12.247228
2022-12-14 18:45:12.247841
2022-12-14 18:45:12.280445
2022-12-14 18:45:12.280737
2022-12-14 18:45:12.281260
2022-12-14 18:45:12.313907
2022-12-14 18:45:12.314302
2022-12-14 18:45:12.346736
2022-12-14 18:45:12.346736
2022-12-14 18:45:12.347733
2022-12-14 18:45:12.379851
2022-12-14 18:45:12.380811
2022-12-14 18:45:12.380811
2022-12-14 18:45:12.414301
2022-12-14 18:45:12.414301
2022-12-14 18:45:12.447212
2022-12-14 18:45:12.448210
2022-12-14 18:45:12.448210
2022-12-14 18:45:12.481423
2022-12-14 18:45:12.481741
2022-12-14 18:45:12.482744
2022-12-14 18:45:12.514889
2022-12-14 18:45:12.514889
2022-12-14 18:45:12.548865
2022-12-14 18:45:12.549131
2022-12-14 18:45:12.549643
2022-12-14 18:45:12.582427
2022-12-14 18:45:12.582756
2022-12-14 18:45:12.582756
2022-12-14 18:45:12.615701
2022-12-14 18:45:12.615701
2022-12-14 18:45:12.648604
2022-12-14 18:45:12.648604
2022-12-14 18:45:12.649613
2022-12-14 18:45:12.682319
2022-12-14 18:45:12.682738
2022-12-14 18:45:12.682738
2022-12-14 18:45:12.716299
2022-12-14 18:45:12.716674
2022-12-14 18:45:12.750035
2022-12-14 18:45:12.750273
2022-12-14 18:45:12.750273
2022-12-14 18:45:12.783485
2022-12-14 18:45:12.783776
2022-12-14 18:45:12.784240
2022-12-14 18:45:12.817175
2022-12-14 18:45:12.817546
2022-12-14 18:45:12.850691
2022-12-14 18:45:12.850959
2022-12-14 18:45:12.850959
2022-12-14 18:45:12.884130
2022-12-14 18:45:12.884130
2022-12-14 18:45:12.885133
2022-12-14 18:45:12.916607
2022-12-14 18:45:12.917616
2022-12-14 18:45:12.950682
2022-12-14 18:45:12.950930
2022-12-14 18:45:12.951423
2022-12-14 18:45:12.984543
2022-12-14 18:45:12.984888
2022-12-14 18:45:12.985541
2022-12-14 18:45:13.018147
2022-12-14 18:45:13.018494
2022-12-14 18:45:13.051642
2022-12-14 18:45:13.051642
2022-12-14 18:45:13.052408
2022-12-14 18:45:13.085276
2022-12-14 18:45:13.085594
2022-12-14 18:45:13.086596
2022-12-14 18:45:13.118688
2022-12-14 18:45:13.119082
2022-12-14 18:45:13.152359
2022-12-14 18:45:13.152359
2022-12-14 18:45:13.153361
2022-12-14 18:45:13.185811
2022-12-14 18:45:13.186838
2022-12-14 18:45:13.186838
2022-12-14 18:45:13.218710
2022-12-14 18:45:13.218710
2022-12-14 18:45:13.252431
2022-12-14 18:45:13.252790
2022-12-14 18:45:13.252790
2022-12-14 18:45:13.286410
2022-12-14 18:45:13.286726
2022-12-14 18:45:13.287728
2022-12-14 18:45:13.319981
2022-12-14 18:45:13.320324
2022-12-14 18:45:13.353614
2022-12-14 18:45:13.353897
2022-12-14 18:45:13.353897
2022-12-14 18:45:13.387024
2022-12-14 18:45:13.387314
2022-12-14 18:45:13.387831
2022-12-14 18:45:13.420595
2022-12-14 18:45:13.420966
2022-12-14 18:45:13.454009
2022-12-14 18:45:13.454538
2022-12-14 18:45:13.454538
2022-12-14 18:45:13.486550
2022-12-14 18:45:13.487559
2022-12-14 18:45:13.487559
2022-12-14 18:45:13.520600
2022-12-14 18:45:13.520954
2022-12-14 18:45:13.554507
2022-12-14 18:45:13.554746
2022-12-14 18:45:13.555748
2022-12-14 18:45:13.588199
2022-12-14 18:45:13.588522
2022-12-14 18:45:13.589525
2022-12-14 18:45:13.621689
2022-12-14 18:45:13.622063
2022-12-14 18:45:13.655256
2022-12-14 18:45:13.655497
2022-12-14 18:45:13.655497
2022-12-14 18:45:13.688799
2022-12-14 18:45:13.689151
2022-12-14 18:45:13.689675
2022-12-14 18:45:13.722243
2022-12-14 18:45:13.722988
2022-12-14 18:45:13.754767
2022-12-14 18:45:13.755793
2022-12-14 18:45:13.755793
2022-12-14 18:45:13.789207
2022-12-14 18:45:13.789527
2022-12-14 18:45:13.790541
2022-12-14 18:45:13.822795
2022-12-14 18:45:13.822795
2022-12-14 18:45:13.856477
2022-12-14 18:45:13.856477
2022-12-14 18:45:13.857478
2022-12-14 18:45:13.889936
2022-12-14 18:45:13.890228
2022-12-14 18:45:13.890228
2022-12-14 18:45:13.923405
2022-12-14 18:45:13.924123
2022-12-14 18:45:13.956993
2022-12-14 18:45:13.957680
2022-12-14 18:45:13.957882
2022-12-14 18:45:13.990497
2022-12-14 18:45:13.991234
2022-12-14 18:45:13.991234
2022-12-14 18:45:14.024789
2022-12-14 18:45:14.024789
2022-12-14 18:45:14.056321
2022-12-14 18:45:14.057336
2022-12-14 18:45:14.057336
2022-12-14 18:45:14.090694
2022-12-14 18:45:14.090694
2022-12-14 18:45:14.090694
2022-12-14 18:45:14.123885
2022-12-14 18:45:14.123885
2022-12-14 18:45:14.157856
2022-12-14 18:45:14.158195
2022-12-14 18:45:14.159196
2022-12-14 18:45:14.191425
2022-12-14 18:45:14.191990
2022-12-14 18:45:14.192603
2022-12-14 18:45:14.224590
2022-12-14 18:45:14.225041
2022-12-14 18:45:14.258716
2022-12-14 18:45:14.259039
2022-12-14 18:45:14.259039
2022-12-14 18:45:14.291862
2022-12-14 18:45:14.292281
2022-12-14 18:45:14.292281
2022-12-14 18:45:14.325410
2022-12-14 18:45:14.325786
2022-12-14 18:45:14.359098
2022-12-14 18:45:14.360045
2022-12-14 18:45:14.360045
2022-12-14 18:45:14.392459
2022-12-14 18:45:14.392459
2022-12-14 18:45:14.393125
2022-12-14 18:45:14.426270
2022-12-14 18:45:14.426645
2022-12-14 18:45:14.459134
2022-12-14 18:45:14.459134
2022-12-14 18:45:14.460104
2022-12-14 18:45:14.493337
2022-12-14 18:45:14.493337
2022-12-14 18:45:14.494340
2022-12-14 18:45:14.526837
2022-12-14 18:45:14.527267
2022-12-14 18:45:14.560428
2022-12-14 18:45:14.560682
2022-12-14 18:45:14.560682
2022-12-14 18:45:14.593998
2022-12-14 18:45:14.594314
2022-12-14 18:45:14.594839
2022-12-14 18:45:14.627292
2022-12-14 18:45:14.628297
2022-12-14 18:45:14.659901
2022-12-14 18:45:14.660896
2022-12-14 18:45:14.661105
2022-12-14 18:45:14.693899
2022-12-14 18:45:14.694901
2022-12-14 18:45:14.694901
2022-12-14 18:45:14.728052
2022-12-14 18:45:14.728052
2022-12-14 18:45:14.761572
2022-12-14 18:45:14.761811
2022-12-14 18:45:14.761811
2022-12-14 18:45:14.794608
2022-12-14 18:45:14.794608
2022-12-14 18:45:14.795572
2022-12-14 18:45:14.828379
2022-12-14 18:45:14.828379
2022-12-14 18:45:14.861391
2022-12-14 18:45:14.862343
2022-12-14 18:45:14.862343
2022-12-14 18:45:14.895678
2022-12-14 18:45:14.895968
2022-12-14 18:45:14.896572
2022-12-14 18:45:14.929277
2022-12-14 18:45:14.929277
2022-12-14 18:45:14.962777
2022-12-14 18:45:14.962777
2022-12-14 18:45:14.963780
2022-12-14 18:45:14.996211
2022-12-14 18:45:14.996507
2022-12-14 18:45:14.996507
2022-12-14 18:45:15.029879
2022-12-14 18:45:15.030224
2022-12-14 18:45:15.063441
2022-12-14 18:45:15.063722
2022-12-14 18:45:15.064336
2022-12-14 18:45:15.096846
2022-12-14 18:45:15.096846
2022-12-14 18:45:15.097846
2022-12-14 18:45:15.130405
2022-12-14 18:45:15.130405
2022-12-14 18:45:15.163969
2022-12-14 18:45:15.164210
2022-12-14 18:45:15.164210
2022-12-14 18:45:15.197564
2022-12-14 18:45:15.197883
2022-12-14 18:45:15.198455
2022-12-14 18:45:15.231098
2022-12-14 18:45:15.231486
2022-12-14 18:45:15.264505
2022-12-14 18:45:15.265002
2022-12-14 18:45:15.266004
2022-12-14 18:45:15.297723
2022-12-14 18:45:15.297723
2022-12-14 18:45:15.297723
2022-12-14 18:45:15.331612
2022-12-14 18:45:15.331955
2022-12-14 18:45:15.365353
2022-12-14 18:45:15.365589
2022-12-14 18:45:15.366201
2022-12-14 18:45:15.398751
2022-12-14 18:45:15.399070
2022-12-14 18:45:15.400073
2022-12-14 18:45:15.432342
2022-12-14 18:45:15.432684
2022-12-14 18:45:15.465827
2022-12-14 18:45:15.466120
2022-12-14 18:45:15.466799
2022-12-14 18:45:15.499271
2022-12-14 18:45:15.499271
2022-12-14 18:45:15.500275
2022-12-14 18:45:15.533660
2022-12-14 18:45:15.533660
2022-12-14 18:45:15.565477
2022-12-14 18:45:15.566053
2022-12-14 18:45:15.566053
2022-12-14 18:45:15.599838
2022-12-14 18:45:15.600130
2022-12-14 18:45:15.600733
2022-12-14 18:45:15.633460
2022-12-14 18:45:15.633460
2022-12-14 18:45:15.667057
2022-12-14 18:45:15.667305
2022-12-14 18:45:15.667305
2022-12-14 18:45:15.700613
2022-12-14 18:45:15.700936
2022-12-14 18:45:15.701463
2022-12-14 18:45:15.734260
2022-12-14 18:45:15.734260
2022-12-14 18:45:15.767823
2022-12-14 18:45:15.768096
2022-12-14 18:45:15.768667
2022-12-14 18:45:15.801348
2022-12-14 18:45:15.801348
2022-12-14 18:45:15.802361
2022-12-14 18:45:15.834723
2022-12-14 18:45:15.835729
2022-12-14 18:45:15.867611
2022-12-14 18:45:15.867611
2022-12-14 18:45:15.868609
2022-12-14 18:45:15.901650
2022-12-14 18:45:15.902004
2022-12-14 18:45:15.902004
2022-12-14 18:45:15.935254
2022-12-14 18:45:15.935254
2022-12-14 18:45:15.968798
2022-12-14 18:45:15.969161
2022-12-14 18:45:15.969161
2022-12-14 18:45:16.002420
2022-12-14 18:45:16.002420
2022-12-14 18:45:16.003421
2022-12-14 18:45:16.035693
2022-12-14 18:45:16.035693
2022-12-14 18:45:16.068951
2022-12-14 18:45:16.068951
2022-12-14 18:45:16.069953
2022-12-14 18:45:16.102050
2022-12-14 18:45:16.103058
2022-12-14 18:45:16.103058
2022-12-14 18:45:16.135199
2022-12-14 18:45:16.136193
2022-12-14 18:45:16.170002
2022-12-14 18:45:16.170282
2022-12-14 18:45:16.170893
2022-12-14 18:45:16.203482
2022-12-14 18:45:16.203770
2022-12-14 18:45:16.203770
2022-12-14 18:45:16.236998
2022-12-14 18:45:16.236998
2022-12-14 18:45:16.270587
2022-12-14 18:45:16.270850
2022-12-14 18:45:16.271370
2022-12-14 18:45:16.304031
2022-12-14 18:45:16.304351
2022-12-14 18:45:16.304351
2022-12-14 18:45:16.337592
2022-12-14 18:45:16.338462
2022-12-14 18:45:16.370776
2022-12-14 18:45:16.370776
2022-12-14 18:45:16.371783
2022-12-14 18:45:16.404234
2022-12-14 18:45:16.404607
2022-12-14 18:45:16.404607
2022-12-14 18:45:16.438208
2022-12-14 18:45:16.438208
2022-12-14 18:45:16.470847
2022-12-14 18:45:16.470847
2022-12-14 18:45:16.471814
2022-12-14 18:45:16.505214
2022-12-14 18:45:16.505510
2022-12-14 18:45:16.506512
2022-12-14 18:45:16.538788
2022-12-14 18:45:16.539129
2022-12-14 18:45:16.572418
2022-12-14 18:45:16.572655
2022-12-14 18:45:16.572655
2022-12-14 18:45:16.605739
2022-12-14 18:45:16.605739
2022-12-14 18:45:16.606678
2022-12-14 18:45:16.639433
2022-12-14 18:45:16.639433
2022-12-14 18:45:16.672447
2022-12-14 18:45:16.672690
2022-12-14 18:45:16.672690
2022-12-14 18:45:16.706504
2022-12-14 18:45:16.706826
2022-12-14 18:45:16.707827
2022-12-14 18:45:16.739991
2022-12-14 18:45:16.740364
2022-12-14 18:45:16.773539
2022-12-14 18:45:16.773812
2022-12-14 18:45:16.773812
2022-12-14 18:45:16.807101
2022-12-14 18:45:16.807423
2022-12-14 18:45:16.807423
2022-12-14 18:45:16.840501
2022-12-14 18:45:16.841422
2022-12-14 18:45:16.874227
2022-12-14 18:45:16.875229
2022-12-14 18:45:16.875229
2022-12-14 18:45:16.906461
2022-12-14 18:45:16.907494
2022-12-14 18:45:16.907494
2022-12-14 18:45:16.940763
2022-12-14 18:45:16.941120
2022-12-14 18:45:16.974510
2022-12-14 18:45:16.974946
2022-12-14 18:45:16.975601
2022-12-14 18:45:17.008186
2022-12-14 18:45:17.008811
2022-12-14 18:45:17.008811
2022-12-14 18:45:17.041702
2022-12-14 18:45:17.042334
2022-12-14 18:45:17.075387
2022-12-14 18:45:17.075910
2022-12-14 18:45:17.076506
2022-12-14 18:45:17.108690
2022-12-14 18:45:17.109073
2022-12-14 18:45:17.109073
2022-12-14 18:45:17.142489
2022-12-14 18:45:17.142489
2022-12-14 18:45:17.175715
2022-12-14 18:45:17.175715
2022-12-14 18:45:17.176721
2022-12-14 18:45:17.208333
2022-12-14 18:45:17.209363
2022-12-14 18:45:17.209363
2022-12-14 18:45:17.242277
2022-12-14 18:45:17.242921
2022-12-14 18:45:17.275781
2022-12-14 18:45:17.275781
2022-12-14 18:45:17.276788
2022-12-14 18:45:17.309921
2022-12-14 18:45:17.310247
2022-12-14 18:45:17.310247
2022-12-14 18:45:17.343421
2022-12-14 18:45:17.343421
2022-12-14 18:45:17.376910
2022-12-14 18:45:17.377174
2022-12-14 18:45:17.377681
2022-12-14 18:45:17.410419
2022-12-14 18:45:17.410758
2022-12-14 18:45:17.411507
2022-12-14 18:45:17.444047
2022-12-14 18:45:17.444416
2022-12-14 18:45:17.477457
2022-12-14 18:45:17.478468
2022-12-14 18:45:17.478468
2022-12-14 18:45:17.510639
2022-12-14 18:45:17.510639
2022-12-14 18:45:17.511638
2022-12-14 18:45:17.544540
2022-12-14 18:45:17.544540
2022-12-14 18:45:17.578165
2022-12-14 18:45:17.578403
2022-12-14 18:45:17.579002
2022-12-14 18:45:17.611756
2022-12-14 18:45:17.612078
2022-12-14 18:45:17.612760
2022-12-14 18:45:17.645230
2022-12-14 18:45:17.645579
2022-12-14 18:45:17.678596
2022-12-14 18:45:17.678863
2022-12-14 18:45:17.679479
2022-12-14 18:45:17.711962
2022-12-14 18:45:17.712291
2022-12-14 18:45:17.713293
2022-12-14 18:45:17.745456
2022-12-14 18:45:17.745833
2022-12-14 18:45:17.779512
2022-12-14 18:45:17.779512
2022-12-14 18:45:17.780511
2022-12-14 18:45:17.812557
2022-12-14 18:45:17.812851
2022-12-14 18:45:17.812851
2022-12-14 18:45:17.845474
2022-12-14 18:45:17.846428
2022-12-14 18:45:17.879836
2022-12-14 18:45:17.880074
2022-12-14 18:45:17.881077
2022-12-14 18:45:17.913606
2022-12-14 18:45:17.913926
2022-12-14 18:45:17.914601
2022-12-14 18:45:17.947124
2022-12-14 18:45:17.947124
2022-12-14 18:45:17.980602
2022-12-14 18:45:17.980838
2022-12-14 18:45:17.981297
2022-12-14 18:45:18.014179
2022-12-14 18:45:18.014512
2022-12-14 18:45:18.015186
2022-12-14 18:45:18.047731
2022-12-14 18:45:18.048107
2022-12-14 18:45:18.081170
2022-12-14 18:45:18.081631
2022-12-14 18:45:18.082635
2022-12-14 18:45:18.114219
2022-12-14 18:45:18.114219
2022-12-14 18:45:18.115215
2022-12-14 18:45:18.148344
2022-12-14 18:45:18.148720
2022-12-14 18:45:18.181703
2022-12-14 18:45:18.181703
2022-12-14 18:45:18.182708
2022-12-14 18:45:18.215429
2022-12-14 18:45:18.215749
2022-12-14 18:45:18.216751
2022-12-14 18:45:18.248952
2022-12-14 18:45:18.249295
2022-12-14 18:45:18.282520
2022-12-14 18:45:18.282785
2022-12-14 18:45:18.283787
2022-12-14 18:45:18.316009
2022-12-14 18:45:18.316357
2022-12-14 18:45:18.316932
2022-12-14 18:45:18.349471
2022-12-14 18:45:18.349471
2022-12-14 18:45:18.382248
2022-12-14 18:45:18.382248
2022-12-14 18:45:18.383134
2022-12-14 18:45:18.416583
2022-12-14 18:45:18.416930
2022-12-14 18:45:18.416930
2022-12-14 18:45:18.450182
2022-12-14 18:45:18.450554
2022-12-14 18:45:18.483640
2022-12-14 18:45:18.483883
2022-12-14 18:45:18.484498
2022-12-14 18:45:18.517239
2022-12-14 18:45:18.517533
2022-12-14 18:45:18.518005
2022-12-14 18:45:18.550797
2022-12-14 18:45:18.551169
2022-12-14 18:45:18.584171
2022-12-14 18:45:18.584171
2022-12-14 18:45:18.585173
2022-12-14 18:45:18.616634
2022-12-14 18:45:18.617669
2022-12-14 18:45:18.617669
2022-12-14 18:45:18.651219
2022-12-14 18:45:18.651562
2022-12-14 18:45:18.684738
2022-12-14 18:45:18.684975
2022-12-14 18:45:18.685589
2022-12-14 18:45:18.718494
2022-12-14 18:45:18.718825
2022-12-14 18:45:18.719431
2022-12-14 18:45:18.751877
2022-12-14 18:45:18.752250
2022-12-14 18:45:18.785566
2022-12-14 18:45:18.785830
2022-12-14 18:45:18.786832
2022-12-14 18:45:18.818917
2022-12-14 18:45:18.819223
2022-12-14 18:45:18.820226
2022-12-14 18:45:18.851076
2022-12-14 18:45:18.852083
2022-12-14 18:45:18.885979
2022-12-14 18:45:18.886256
2022-12-14 18:45:18.886256
2022-12-14 18:45:18.919584
2022-12-14 18:45:18.919905
2022-12-14 18:45:18.920909
2022-12-14 18:45:18.953215
2022-12-14 18:45:18.953598
2022-12-14 18:45:18.986594
2022-12-14 18:45:18.986860
2022-12-14 18:45:18.987431
2022-12-14 18:45:19.020319
2022-12-14 18:45:19.020319
2022-12-14 18:45:19.021319
2022-12-14 18:45:19.053693
2022-12-14 18:45:19.053693
2022-12-14 18:45:19.086273
2022-12-14 18:45:19.086273
2022-12-14 18:45:19.087302
2022-12-14 18:45:19.120044
2022-12-14 18:45:19.120415
2022-12-14 18:45:19.120415
2022-12-14 18:45:19.154252
2022-12-14 18:45:19.154597
2022-12-14 18:45:19.187774
2022-12-14 18:45:19.188013
2022-12-14 18:45:19.188013
2022-12-14 18:45:19.221416
2022-12-14 18:45:19.221708
2022-12-14 18:45:19.222186
2022-12-14 18:45:19.254933
2022-12-14 18:45:19.255325
2022-12-14 18:45:19.288401
2022-12-14 18:45:19.288669
2022-12-14 18:45:19.289177
2022-12-14 18:45:19.321814
2022-12-14 18:45:19.321814
2022-12-14 18:45:19.322816
2022-12-14 18:45:19.354497
2022-12-14 18:45:19.355506
2022-12-14 18:45:19.387779
2022-12-14 18:45:19.388579
2022-12-14 18:45:19.388579
2022-12-14 18:45:19.422460
2022-12-14 18:45:19.422795
2022-12-14 18:45:19.422795
2022-12-14 18:45:19.456020
2022-12-14 18:45:19.456020
2022-12-14 18:45:19.489637
2022-12-14 18:45:19.489874
2022-12-14 18:45:19.490481
2022-12-14 18:45:19.523210
2022-12-14 18:45:19.523501
2022-12-14 18:45:19.524061
2022-12-14 18:45:19.556840
2022-12-14 18:45:19.556840
2022-12-14 18:45:19.590244
2022-12-14 18:45:19.591247
2022-12-14 18:45:19.591247
2022-12-14 18:45:19.623059
2022-12-14 18:45:19.623059
2022-12-14 18:45:19.624056
2022-12-14 18:45:19.656734
2022-12-14 18:45:19.656734
2022-12-14 18:45:19.690613
2022-12-14 18:45:19.690880
2022-12-14 18:45:19.691595
2022-12-14 18:45:19.724169
2022-12-14 18:45:19.724169
2022-12-14 18:45:19.725169
2022-12-14 18:45:19.757787
2022-12-14 18:45:19.757787
2022-12-14 18:45:19.791388
2022-12-14 18:45:19.791672
2022-12-14 18:45:19.791672
2022-12-14 18:45:19.824773
2022-12-14 18:45:19.825203
2022-12-14 18:45:19.825203
2022-12-14 18:45:19.857347
2022-12-14 18:45:19.858160
2022-12-14 18:45:19.891880
2022-12-14 18:45:19.892115
2022-12-14 18:45:19.892115
2022-12-14 18:45:19.925332
2022-12-14 18:45:19.926071
2022-12-14 18:45:19.926071
2022-12-14 18:45:19.958977
2022-12-14 18:45:19.959666
2022-12-14 18:45:19.992529
2022-12-14 18:45:19.993310
2022-12-14 18:45:19.993310
2022-12-14 18:45:20.026074
2022-12-14 18:45:20.026074
2022-12-14 18:45:20.026998
2022-12-14 18:45:20.059713
2022-12-14 18:45:20.059713
2022-12-14 18:45:20.092989
2022-12-14 18:45:20.093996
2022-12-14 18:45:20.093996
2022-12-14 18:45:20.125642
2022-12-14 18:45:20.126641
2022-12-14 18:45:20.126641
2022-12-14 18:45:20.159924
2022-12-14 18:45:20.160782
2022-12-14 18:45:20.193555
2022-12-14 18:45:20.193555
2022-12-14 18:45:20.194428
2022-12-14 18:45:20.226598
2022-12-14 18:45:20.226598
2022-12-14 18:45:20.227520
2022-12-14 18:45:20.260709
2022-12-14 18:45:20.261097
2022-12-14 18:45:20.293768
2022-12-14 18:45:20.294071
2022-12-14 18:45:20.294071
2022-12-14 18:45:20.327369
2022-12-14 18:45:20.327692
2022-12-14 18:45:20.328384
2022-12-14 18:45:20.361205
2022-12-14 18:45:20.361578
2022-12-14 18:45:20.394556
2022-12-14 18:45:20.395389
2022-12-14 18:45:20.395389
2022-12-14 18:45:20.427656
2022-12-14 18:45:20.428161
2022-12-14 18:45:20.428161
2022-12-14 18:45:20.461829
2022-12-14 18:45:20.462174
2022-12-14 18:45:20.494173
2022-12-14 18:45:20.495170
2022-12-14 18:45:20.495170
2022-12-14 18:45:20.528171
2022-12-14 18:45:20.528171
2022-12-14 18:45:20.529167
2022-12-14 18:45:20.562495
2022-12-14 18:45:20.562979
2022-12-14 18:45:20.595917
2022-12-14 18:45:20.595917
2022-12-14 18:45:20.596809
2022-12-14 18:45:20.629476
2022-12-14 18:45:20.629859
2022-12-14 18:45:20.630430
2022-12-14 18:45:20.662967
2022-12-14 18:45:20.663438
2022-12-14 18:45:20.696285
2022-12-14 18:45:20.696677
2022-12-14 18:45:20.697236
2022-12-14 18:45:20.729613
2022-12-14 18:45:20.729613
2022-12-14 18:45:20.730614
2022-12-14 18:45:20.762476
2022-12-14 18:45:20.763470
2022-12-14 18:45:20.797140
2022-12-14 18:45:20.797436
2022-12-14 18:45:20.798042
2022-12-14 18:45:20.830544
2022-12-14 18:45:20.830544
2022-12-14 18:45:20.831544
2022-12-14 18:45:20.863962
2022-12-14 18:45:20.864143
2022-12-14 18:45:20.897532
2022-12-14 18:45:20.897532
2022-12-14 18:45:20.898499
2022-12-14 18:45:20.930899
2022-12-14 18:45:20.930899
2022-12-14 18:45:20.931918
2022-12-14 18:45:20.964163
2022-12-14 18:45:20.964163
2022-12-14 18:45:20.998280
2022-12-14 18:45:20.998544
2022-12-14 18:45:20.999220
2022-12-14 18:45:21.031698
2022-12-14 18:45:21.031698
2022-12-14 18:45:21.032700
2022-12-14 18:45:21.065129
2022-12-14 18:45:21.065129
2022-12-14 18:45:21.097960
2022-12-14 18:45:21.098920
2022-12-14 18:45:21.098920
2022-12-14 18:45:21.131924
2022-12-14 18:45:21.131924
2022-12-14 18:45:21.131924
2022-12-14 18:45:21.165910
2022-12-14 18:45:21.165910
2022-12-14 18:45:21.199381
2022-12-14 18:45:21.199381
2022-12-14 18:45:21.200199
2022-12-14 18:45:21.232992
2022-12-14 18:45:21.233285
2022-12-14 18:45:21.234287
2022-12-14 18:45:21.266456
2022-12-14 18:45:21.266456
2022-12-14 18:45:21.300136
2022-12-14 18:45:21.300136
2022-12-14 18:45:21.301137
2022-12-14 18:45:21.333497
2022-12-14 18:45:21.334118
2022-12-14 18:45:21.335122
2022-12-14 18:45:21.366688
2022-12-14 18:45:21.366688
2022-12-14 18:45:21.400578
2022-12-14 18:45:21.400578
2022-12-14 18:45:21.401488
2022-12-14 18:45:21.434346
2022-12-14 18:45:21.434642
2022-12-14 18:45:21.435250
2022-12-14 18:45:21.467706
2022-12-14 18:45:21.467706
2022-12-14 18:45:21.501411
2022-12-14 18:45:21.501652
2022-12-14 18:45:21.501652
2022-12-14 18:45:21.534809
2022-12-14 18:45:21.535101
2022-12-14 18:45:21.535101
2022-12-14 18:45:21.568306
2022-12-14 18:45:21.568306
2022-12-14 18:45:21.601950
2022-12-14 18:45:21.602190
2022-12-14 18:45:21.602716
2022-12-14 18:45:21.635329
2022-12-14 18:45:21.636113
2022-12-14 18:45:21.636113
2022-12-14 18:45:21.668818
2022-12-14 18:45:21.668818
2022-12-14 18:45:21.702386
2022-12-14 18:45:21.702627
2022-12-14 18:45:21.702627
2022-12-14 18:45:21.736053
2022-12-14 18:45:21.736342
2022-12-14 18:45:21.737344
2022-12-14 18:45:21.769706
2022-12-14 18:45:21.770048
2022-12-14 18:45:21.803143
2022-12-14 18:45:21.803429
2022-12-14 18:45:21.803990
2022-12-14 18:45:21.836633
2022-12-14 18:45:21.836926
2022-12-14 18:45:21.836926
2022-12-14 18:45:21.870037
2022-12-14 18:45:21.870855
2022-12-14 18:45:21.903584
2022-12-14 18:45:21.903584
2022-12-14 18:45:21.904586
2022-12-14 18:45:21.937145
2022-12-14 18:45:21.938196
2022-12-14 18:45:21.938196
2022-12-14 18:45:21.969937
2022-12-14 18:45:21.970894
2022-12-14 18:45:22.004179
2022-12-14 18:45:22.004421
2022-12-14 18:45:22.004421
2022-12-14 18:45:22.037823
2022-12-14 18:45:22.038117
2022-12-14 18:45:22.038117
2022-12-14 18:45:22.071269
2022-12-14 18:45:22.071269
2022-12-14 18:45:22.104937
2022-12-14 18:45:22.105225
2022-12-14 18:45:22.105790
2022-12-14 18:45:22.138472
2022-12-14 18:45:22.138765
2022-12-14 18:45:22.138765
2022-12-14 18:45:22.171721
2022-12-14 18:45:22.171721
2022-12-14 18:45:22.205139
2022-12-14 18:45:22.205139
2022-12-14 18:45:22.206146
2022-12-14 18:45:22.238266
2022-12-14 18:45:22.238266
2022-12-14 18:45:22.239263
2022-12-14 18:45:22.272066
2022-12-14 18:45:22.272524
2022-12-14 18:45:22.306092
2022-12-14 18:45:22.306092
2022-12-14 18:45:22.307001
2022-12-14 18:45:22.339557
2022-12-14 18:45:22.339557
2022-12-14 18:45:22.340559
2022-12-14 18:45:22.372408
2022-12-14 18:45:22.372874
2022-12-14 18:45:22.406032
2022-12-14 18:45:22.406032
2022-12-14 18:45:22.407053
2022-12-14 18:45:22.440253
2022-12-14 18:45:22.440253
2022-12-14 18:45:22.441275
2022-12-14 18:45:22.472889
2022-12-14 18:45:22.473897
2022-12-14 18:45:22.506591
2022-12-14 18:45:22.506591
2022-12-14 18:45:22.507590
2022-12-14 18:45:22.540746
2022-12-14 18:45:22.541067
2022-12-14 18:45:22.541736
2022-12-14 18:45:22.573741
2022-12-14 18:45:22.574173
2022-12-14 18:45:22.607870
2022-12-14 18:45:22.608110
2022-12-14 18:45:22.608110
2022-12-14 18:45:22.641501
2022-12-14 18:45:22.641501
2022-12-14 18:45:22.642402
2022-12-14 18:45:22.674201
2022-12-14 18:45:22.674201
2022-12-14 18:45:22.708558
2022-12-14 18:45:22.709567
2022-12-14 18:45:22.709567
2022-12-14 18:45:22.741386
2022-12-14 18:45:22.741386
2022-12-14 18:45:22.741386
2022-12-14 18:45:22.775205
2022-12-14 18:45:22.775335
2022-12-14 18:45:22.808996
2022-12-14 18:45:22.809235
2022-12-14 18:45:22.809235
2022-12-14 18:45:22.842622
2022-12-14 18:45:22.842912
2022-12-14 18:45:22.843913
2022-12-14 18:45:22.875946
2022-12-14 18:45:22.876533
2022-12-14 18:45:22.909690
2022-12-14 18:45:22.910548
2022-12-14 18:45:22.910761
2022-12-14 18:45:22.943236
2022-12-14 18:45:22.943236
2022-12-14 18:45:22.944186
2022-12-14 18:45:22.976507
2022-12-14 18:45:22.976901
2022-12-14 18:45:23.009809
2022-12-14 18:45:23.010838
2022-12-14 18:45:23.010838
2022-12-14 18:45:23.043124
2022-12-14 18:45:23.043124
2022-12-14 18:45:23.044122
2022-12-14 18:45:23.077247
2022-12-14 18:45:23.077587
2022-12-14 18:45:23.110363
2022-12-14 18:45:23.110662
2022-12-14 18:45:23.111220
2022-12-14 18:45:23.144165
2022-12-14 18:45:23.144503
2022-12-14 18:45:23.145063
2022-12-14 18:45:23.177672
2022-12-14 18:45:23.178106
2022-12-14 18:45:23.210772
2022-12-14 18:45:23.210772
2022-12-14 18:45:23.211781
2022-12-14 18:45:23.244880
2022-12-14 18:45:23.245453
2022-12-14 18:45:23.246041
2022-12-14 18:45:23.277951
2022-12-14 18:45:23.278595
2022-12-14 18:45:23.311234
2022-12-14 18:45:23.312243
2022-12-14 18:45:23.312243
2022-12-14 18:45:23.344517
2022-12-14 18:45:23.345513
2022-12-14 18:45:23.345513
2022-12-14 18:45:23.378923
2022-12-14 18:45:23.378923
2022-12-14 18:45:23.412571
2022-12-14 18:45:23.412810
2022-12-14 18:45:23.412810
2022-12-14 18:45:23.445965
2022-12-14 18:45:23.446283
2022-12-14 18:45:23.447284
2022-12-14 18:45:23.479614
2022-12-14 18:45:23.479983
2022-12-14 18:45:23.513016
2022-12-14 18:45:23.513281
2022-12-14 18:45:23.514284
2022-12-14 18:45:23.546637
2022-12-14 18:45:23.546958
2022-12-14 18:45:23.547585
2022-12-14 18:45:23.580114
2022-12-14 18:45:23.580555
2022-12-14 18:45:23.613662
2022-12-14 18:45:23.613996
2022-12-14 18:45:23.614457
2022-12-14 18:45:23.647059
2022-12-14 18:45:23.648062
2022-12-14 18:45:23.648062
2022-12-14 18:45:23.679957
2022-12-14 18:45:23.680961
2022-12-14 18:45:23.714078
2022-12-14 18:45:23.714442
2022-12-14 18:45:23.714442
2022-12-14 18:45:23.747629
2022-12-14 18:45:23.747953
2022-12-14 18:45:23.748624
2022-12-14 18:45:23.780969
2022-12-14 18:45:23.781361
2022-12-14 18:45:23.814516
2022-12-14 18:45:23.814780
2022-12-14 18:45:23.815782
2022-12-14 18:45:23.848451
2022-12-14 18:45:23.848740
2022-12-14 18:45:23.849343
2022-12-14 18:45:23.881902
2022-12-14 18:45:23.882236
2022-12-14 18:45:23.915469
2022-12-14 18:45:23.915749
2022-12-14 18:45:23.916426
2022-12-14 18:45:23.949046
2022-12-14 18:45:23.949365
2022-12-14 18:45:23.949365
2022-12-14 18:45:23.982479
2022-12-14 18:45:23.982870
2022-12-14 18:45:24.015060
2022-12-14 18:45:24.016057
2022-12-14 18:45:24.016262
2022-12-14 18:45:24.049691
2022-12-14 18:45:24.049981
2022-12-14 18:45:24.049981
2022-12-14 18:45:24.083077
2022-12-14 18:45:24.083456
2022-12-14 18:45:24.116554
2022-12-14 18:45:24.116794
2022-12-14 18:45:24.116794
2022-12-14 18:45:24.149932
2022-12-14 18:45:24.150289
2022-12-14 18:45:24.150289
2022-12-14 18:45:24.183653
2022-12-14 18:45:24.184000
2022-12-14 18:45:24.217271
2022-12-14 18:45:24.217507
2022-12-14 18:45:24.217986
2022-12-14 18:45:24.250753
2022-12-14 18:45:24.251758
2022-12-14 18:45:24.251758
2022-12-14 18:45:24.284004
2022-12-14 18:45:24.284004
2022-12-14 18:45:24.317745
2022-12-14 18:45:24.317745
2022-12-14 18:45:24.318609
2022-12-14 18:45:24.351366
2022-12-14 18:45:24.351663
2022-12-14 18:45:24.351663
2022-12-14 18:45:24.385079
2022-12-14 18:45:24.385450
2022-12-14 18:45:24.418610
2022-12-14 18:45:24.418886
2022-12-14 18:45:24.419361
2022-12-14 18:45:24.452077
2022-12-14 18:45:24.452077
2022-12-14 18:45:24.453186
2022-12-14 18:45:24.485662
2022-12-14 18:45:24.486034
2022-12-14 18:45:24.519042
2022-12-14 18:45:24.519042
2022-12-14 18:45:24.520045
2022-12-14 18:45:24.552249
2022-12-14 18:45:24.552249
2022-12-14 18:45:24.553247
2022-12-14 18:45:24.585342
2022-12-14 18:45:24.585342
2022-12-14 18:45:24.619597
2022-12-14 18:45:24.619834
2022-12-14 18:45:24.619834
2022-12-14 18:45:24.653204
2022-12-14 18:45:24.653497
2022-12-14 18:45:24.654104
2022-12-14 18:45:24.686740
2022-12-14 18:45:24.687081
2022-12-14 18:45:24.720254
2022-12-14 18:45:24.720520
2022-12-14 18:45:24.721111
2022-12-14 18:45:24.753713
2022-12-14 18:45:24.753713
2022-12-14 18:45:24.754713
2022-12-14 18:45:24.787245
2022-12-14 18:45:24.787245
2022-12-14 18:45:24.820729
2022-12-14 18:45:24.820729
2022-12-14 18:45:24.821623
2022-12-14 18:45:24.853467
2022-12-14 18:45:24.854479
2022-12-14 18:45:24.854479
2022-12-14 18:45:24.887390
2022-12-14 18:45:24.887390
2022-12-14 18:45:24.921306
2022-12-14 18:45:24.921555
2022-12-14 18:45:24.921555
2022-12-14 18:45:24.954897
2022-12-14 18:45:24.955190
2022-12-14 18:45:24.955190
2022-12-14 18:45:24.988531
2022-12-14 18:45:24.988877
2022-12-14 18:45:25.022085
2022-12-14 18:45:25.022325
2022-12-14 18:45:25.022895
2022-12-14 18:45:25.055547
2022-12-14 18:45:25.055886
2022-12-14 18:45:25.055886
2022-12-14 18:45:25.089026
2022-12-14 18:45:25.089026
2022-12-14 18:45:25.122206
2022-12-14 18:45:25.123214
2022-12-14 18:45:25.123214
2022-12-14 18:45:25.155911
2022-12-14 18:45:25.155911
2022-12-14 18:45:25.156911
2022-12-14 18:45:25.189581
2022-12-14 18:45:25.189926
2022-12-14 18:45:25.223197
2022-12-14 18:45:25.223436
2022-12-14 18:45:25.223436
2022-12-14 18:45:25.256708
2022-12-14 18:45:25.256708
2022-12-14 18:45:25.257582
2022-12-14 18:45:25.290260
2022-12-14 18:45:25.291300
2022-12-14 18:45:25.323796
2022-12-14 18:45:25.323796
2022-12-14 18:45:25.324796
2022-12-14 18:45:25.357451
2022-12-14 18:45:25.358058
2022-12-14 18:45:25.358058
2022-12-14 18:45:25.389929
2022-12-14 18:45:25.390935
2022-12-14 18:45:25.423926
2022-12-14 18:45:25.424147
2022-12-14 18:45:25.424551
2022-12-14 18:45:25.457948
2022-12-14 18:45:25.457948
2022-12-14 18:45:25.458953
2022-12-14 18:45:25.491621
2022-12-14 18:45:25.492012
2022-12-14 18:45:25.525158
2022-12-14 18:45:25.525396
2022-12-14 18:45:25.525917
2022-12-14 18:45:25.558767
2022-12-14 18:45:25.559100
2022-12-14 18:45:25.560101
2022-12-14 18:45:25.592101
2022-12-14 18:45:25.592499
2022-12-14 18:45:25.625870
2022-12-14 18:45:25.625870
2022-12-14 18:45:25.626873
2022-12-14 18:45:25.657796
2022-12-14 18:45:25.658805
2022-12-14 18:45:25.658805
2022-12-14 18:45:25.692549
2022-12-14 18:45:25.692549
2022-12-14 18:45:25.726125
2022-12-14 18:45:25.726640
2022-12-14 18:45:25.727230
2022-12-14 18:45:25.759676
2022-12-14 18:45:25.759676
2022-12-14 18:45:25.760678
2022-12-14 18:45:25.793244
2022-12-14 18:45:25.793244
2022-12-14 18:45:25.826553
2022-12-14 18:45:25.826553
2022-12-14 18:45:25.827555
2022-12-14 18:45:25.859818
2022-12-14 18:45:25.859818
2022-12-14 18:45:25.860822
2022-12-14 18:45:25.893159
2022-12-14 18:45:25.893512
2022-12-14 18:45:25.925932
2022-12-14 18:45:25.926969
2022-12-14 18:45:25.926969
2022-12-14 18:45:25.960319
2022-12-14 18:45:25.960319
2022-12-14 18:45:25.960319
2022-12-14 18:45:25.994294
2022-12-14 18:45:25.995140
2022-12-14 18:45:26.027819
2022-12-14 18:45:26.028124
2022-12-14 18:45:26.028736
2022-12-14 18:45:26.061384
2022-12-14 18:45:26.061384
2022-12-14 18:45:26.062299
2022-12-14 18:45:26.094964
2022-12-14 18:45:26.095436
2022-12-14 18:45:26.128318
2022-12-14 18:45:26.128318
2022-12-14 18:45:26.129225
2022-12-14 18:45:26.161405
2022-12-14 18:45:26.161405
2022-12-14 18:45:26.162413
2022-12-14 18:45:26.195194
2022-12-14 18:45:26.196202
2022-12-14 18:45:26.228524
2022-12-14 18:45:26.228809
2022-12-14 18:45:26.229377
2022-12-14 18:45:26.262164
2022-12-14 18:45:26.262564
2022-12-14 18:45:26.263164
2022-12-14 18:45:26.296020
2022-12-14 18:45:26.296366
2022-12-14 18:45:26.329215
2022-12-14 18:45:26.329485
2022-12-14 18:45:26.329485
2022-12-14 18:45:26.363052
2022-12-14 18:45:26.363344
2022-12-14 18:45:26.363344
2022-12-14 18:45:26.396734
2022-12-14 18:45:26.397126
2022-12-14 18:45:26.430173
2022-12-14 18:45:26.430438
2022-12-14 18:45:26.431455
2022-12-14 18:45:26.463321
2022-12-14 18:45:26.463956
2022-12-14 18:45:26.463956
2022-12-14 18:45:26.497329
2022-12-14 18:45:26.497676
2022-12-14 18:45:26.529836
2022-12-14 18:45:26.530833
2022-12-14 18:45:26.530833
2022-12-14 18:45:26.564377
2022-12-14 18:45:26.564666
2022-12-14 18:45:26.564666
2022-12-14 18:45:26.597818
2022-12-14 18:45:26.597818
2022-12-14 18:45:26.631474
2022-12-14 18:45:26.631788
2022-12-14 18:45:26.631788
2022-12-14 18:45:26.664873
2022-12-14 18:45:26.665258
2022-12-14 18:45:26.665786
2022-12-14 18:45:26.698529
2022-12-14 18:45:26.698529
2022-12-14 18:45:26.730895
2022-12-14 18:45:26.731904
2022-12-14 18:45:26.731904
2022-12-14 18:45:26.764439
2022-12-14 18:45:26.765438
2022-12-14 18:45:26.765798
2022-12-14 18:45:26.798599
2022-12-14 18:45:26.799086
2022-12-14 18:45:26.832136
2022-12-14 18:45:26.832407
2022-12-14 18:45:26.833409
2022-12-14 18:45:26.866223
2022-12-14 18:45:26.866514
2022-12-14 18:45:26.866514
2022-12-14 18:45:26.899702
2022-12-14 18:45:26.900075
2022-12-14 18:45:26.933139
2022-12-14 18:45:26.933139
2022-12-14 18:45:26.933911
2022-12-14 18:45:26.966632
2022-12-14 18:45:26.966951
2022-12-14 18:45:26.967623
2022-12-14 18:45:27.000334
2022-12-14 18:45:27.000712
2022-12-14 18:45:27.033676
2022-12-14 18:45:27.033959
2022-12-14 18:45:27.034960
2022-12-14 18:45:27.067404
2022-12-14 18:45:27.067404
2022-12-14 18:45:27.068406
2022-12-14 18:45:27.100878
2022-12-14 18:45:27.101227
2022-12-14 18:45:27.134318
2022-12-14 18:45:27.134557
2022-12-14 18:45:27.135167
2022-12-14 18:45:27.167975
2022-12-14 18:45:27.168267
2022-12-14 18:45:27.168868
2022-12-14 18:45:27.201536
2022-12-14 18:45:27.201881
2022-12-14 18:45:27.235020
2022-12-14 18:45:27.235020
2022-12-14 18:45:27.235792
2022-12-14 18:45:27.268661
2022-12-14 18:45:27.268978
2022-12-14 18:45:27.269980
2022-12-14 18:45:27.302179
2022-12-14 18:45:27.302557
2022-12-14 18:45:27.335588
2022-12-14 18:45:27.336163
2022-12-14 18:45:27.336163
2022-12-14 18:45:27.368214
2022-12-14 18:45:27.369211
2022-12-14 18:45:27.369211
2022-12-14 18:45:27.401672
2022-12-14 18:45:27.402672
2022-12-14 18:45:27.436292
2022-12-14 18:45:27.436532
2022-12-14 18:45:27.437141
2022-12-14 18:45:27.469702
2022-12-14 18:45:27.469996
2022-12-14 18:45:27.470603
2022-12-14 18:45:27.503400
2022-12-14 18:45:27.503773
2022-12-14 18:45:27.536799
2022-12-14 18:45:27.537066
2022-12-14 18:45:27.538069
2022-12-14 18:45:27.570436
2022-12-14 18:45:27.570436
2022-12-14 18:45:27.571438
2022-12-14 18:45:27.603811
2022-12-14 18:45:27.604813
2022-12-14 18:45:27.636816
2022-12-14 18:45:27.636816
2022-12-14 18:45:27.637824
2022-12-14 18:45:27.670396
2022-12-14 18:45:27.670771
2022-12-14 18:45:27.670771
2022-12-14 18:45:27.704352
2022-12-14 18:45:27.704723
2022-12-14 18:45:27.738189
2022-12-14 18:45:27.738456
2022-12-14 18:45:27.739127
2022-12-14 18:45:27.771422
2022-12-14 18:45:27.771422
2022-12-14 18:45:27.772248
2022-12-14 18:45:27.804979
2022-12-14 18:45:27.804979
2022-12-14 18:45:27.838591
2022-12-14 18:45:27.838830
2022-12-14 18:45:27.839351
2022-12-14 18:45:27.871989
2022-12-14 18:45:27.872764
2022-12-14 18:45:27.872764
2022-12-14 18:45:27.905570
2022-12-14 18:45:27.905570
2022-12-14 18:45:27.939063
2022-12-14 18:45:27.939331
2022-12-14 18:45:27.940040
2022-12-14 18:45:27.972595
2022-12-14 18:45:27.972595
2022-12-14 18:45:27.973596
2022-12-14 18:45:28.006322
2022-12-14 18:45:28.006692
2022-12-14 18:45:28.039705
2022-12-14 18:45:28.039705
2022-12-14 18:45:28.040613
2022-12-14 18:45:28.073246
2022-12-14 18:45:28.073246
2022-12-14 18:45:28.074336
2022-12-14 18:45:28.106867
2022-12-14 18:45:28.107270
2022-12-14 18:45:28.140257
2022-12-14 18:45:28.140594
2022-12-14 18:45:28.141596
2022-12-14 18:45:28.173336
2022-12-14 18:45:28.173336
2022-12-14 18:45:28.173336
2022-12-14 18:45:28.207347
2022-12-14 18:45:28.207690
2022-12-14 18:45:28.240872
2022-12-14 18:45:28.241113
2022-12-14 18:45:28.241113
2022-12-14 18:45:28.274521
2022-12-14 18:45:28.274812
2022-12-14 18:45:28.274812
2022-12-14 18:45:28.308259
2022-12-14 18:45:28.308603
2022-12-14 18:45:28.341406
2022-12-14 18:45:28.341704
2022-12-14 18:45:28.342345
2022-12-14 18:45:28.375136
2022-12-14 18:45:28.375883
2022-12-14 18:45:28.375883
2022-12-14 18:45:28.407839
2022-12-14 18:45:28.408848
2022-12-14 18:45:28.441007
2022-12-14 18:45:28.442004
2022-12-14 18:45:28.442401
2022-12-14 18:45:28.475717
2022-12-14 18:45:28.476060
2022-12-14 18:45:28.476060
2022-12-14 18:45:28.509324
2022-12-14 18:45:28.509710
2022-12-14 18:45:28.542752
2022-12-14 18:45:28.542995
2022-12-14 18:45:28.542995
2022-12-14 18:45:28.576526
2022-12-14 18:45:28.576856
2022-12-14 18:45:28.577428
2022-12-14 18:45:28.609844
2022-12-14 18:45:28.610186
2022-12-14 18:45:28.642283
2022-12-14 18:45:28.642283
2022-12-14 18:45:28.643278
2022-12-14 18:45:28.676645
2022-12-14 18:45:28.676645
2022-12-14 18:45:28.677648
2022-12-14 18:45:28.710242
2022-12-14 18:45:28.710585
2022-12-14 18:45:28.743786
2022-12-14 18:45:28.743786
2022-12-14 18:45:28.744791
2022-12-14 18:45:28.777481
2022-12-14 18:45:28.777802
2022-12-14 18:45:28.778805
2022-12-14 18:45:28.811026
2022-12-14 18:45:28.811370
2022-12-14 18:45:28.844479
2022-12-14 18:45:28.845278
2022-12-14 18:45:28.845278
2022-12-14 18:45:28.878010
2022-12-14 18:45:28.878801
2022-12-14 18:45:28.878801
2022-12-14 18:45:28.912309
2022-12-14 18:45:28.912309
2022-12-14 18:45:28.944378
2022-12-14 18:45:28.945387
2022-12-14 18:45:28.945387
2022-12-14 18:45:28.977676
2022-12-14 18:45:28.978633
2022-12-14 18:45:28.978633
2022-12-14 18:45:29.011853
2022-12-14 18:45:29.012447
2022-12-14 18:45:29.045523
2022-12-14 18:45:29.045816
2022-12-14 18:45:29.046602
2022-12-14 18:45:29.079375
2022-12-14 18:45:29.079375
2022-12-14 18:45:29.080379
2022-12-14 18:45:29.112551
2022-12-14 18:45:29.112551
2022-12-14 18:45:29.146115
2022-12-14 18:45:29.146635
2022-12-14 18:45:29.147233
2022-12-14 18:45:29.179258
2022-12-14 18:45:29.179258
2022-12-14 18:45:29.180265
2022-12-14 18:45:29.213128
2022-12-14 18:45:29.213128
2022-12-14 18:45:29.245542
2022-12-14 18:45:29.246498
2022-12-14 18:45:29.247008
2022-12-14 18:45:29.280313
2022-12-14 18:45:29.280629
2022-12-14 18:45:29.281311
2022-12-14 18:45:29.313324
2022-12-14 18:45:29.313735
2022-12-14 18:45:29.347384
2022-12-14 18:45:29.347670
2022-12-14 18:45:29.347670
2022-12-14 18:45:29.380783
2022-12-14 18:45:29.381077
2022-12-14 18:45:29.382079
2022-12-14 18:45:29.414394
2022-12-14 18:45:29.414739
2022-12-14 18:45:29.447931
2022-12-14 18:45:29.448205
2022-12-14 18:45:29.449216
2022-12-14 18:45:29.481340
2022-12-14 18:45:29.481793
2022-12-14 18:45:29.482810
2022-12-14 18:45:29.514685
2022-12-14 18:45:29.515041
2022-12-14 18:45:29.548670
2022-12-14 18:45:29.548949
2022-12-14 18:45:29.549951
2022-12-14 18:45:29.582075
2022-12-14 18:45:29.582366
2022-12-14 18:45:29.582366
2022-12-14 18:45:29.615632
2022-12-14 18:45:29.616068
2022-12-14 18:45:29.649071
2022-12-14 18:45:29.649071
2022-12-14 18:45:29.650016
2022-12-14 18:45:29.682626
2022-12-14 18:45:29.682626
2022-12-14 18:45:29.683476
2022-12-14 18:45:29.716243
2022-12-14 18:45:29.716623
2022-12-14 18:45:29.749798
2022-12-14 18:45:29.750044
2022-12-14 18:45:29.750602
2022-12-14 18:45:29.783306
2022-12-14 18:45:29.783629
2022-12-14 18:45:29.783629
2022-12-14 18:45:29.816428
2022-12-14 18:45:29.816428
2022-12-14 18:45:29.850029
2022-12-14 18:45:29.850029
2022-12-14 18:45:29.850029
2022-12-14 18:45:29.882732
2022-12-14 18:45:29.883725
2022-12-14 18:45:29.883725
2022-12-14 18:45:29.917418
2022-12-14 18:45:29.917810
2022-12-14 18:45:29.950873
2022-12-14 18:45:29.950873
2022-12-14 18:45:29.951874
2022-12-14 18:45:29.984431
2022-12-14 18:45:29.984725
2022-12-14 18:45:29.985247
2022-12-14 18:45:30.017820
2022-12-14 18:45:30.017820
2022-12-14 18:45:30.051624
2022-12-14 18:45:30.051864
2022-12-14 18:45:30.052425
2022-12-14 18:45:30.084820
2022-12-14 18:45:30.085311
2022-12-14 18:45:30.085311
2022-12-14 18:45:30.117598
2022-12-14 18:45:30.118385
2022-12-14 18:45:30.152235
2022-12-14 18:45:30.152473
2022-12-14 18:45:30.152473
2022-12-14 18:45:30.185655
2022-12-14 18:45:30.186006
2022-12-14 18:45:30.186613
2022-12-14 18:45:30.219153
2022-12-14 18:45:30.219498
2022-12-14 18:45:30.252647
2022-12-14 18:45:30.252888
2022-12-14 18:45:30.253368
2022-12-14 18:45:30.286238
2022-12-14 18:45:30.286530
2022-12-14 18:45:30.286530
2022-12-14 18:45:30.319693
2022-12-14 18:45:30.319693
2022-12-14 18:45:30.353283
2022-12-14 18:45:30.353523
2022-12-14 18:45:30.353523
2022-12-14 18:45:30.386721
2022-12-14 18:45:30.387753
2022-12-14 18:45:30.387753
2022-12-14 18:45:30.420242
2022-12-14 18:45:30.420242
2022-12-14 18:45:30.453831
2022-12-14 18:45:30.453831
2022-12-14 18:45:30.454832
2022-12-14 18:45:30.487412
2022-12-14 18:45:30.487707
2022-12-14 18:45:30.488339
2022-12-14 18:45:30.521162
2022-12-14 18:45:30.521603
2022-12-14 18:45:30.554620
2022-12-14 18:45:30.554903
2022-12-14 18:45:30.554903
2022-12-14 18:45:30.588064
2022-12-14 18:45:30.588064
2022-12-14 18:45:30.589066
2022-12-14 18:45:30.621789
2022-12-14 18:45:30.621789
2022-12-14 18:45:30.654589
2022-12-14 18:45:30.654589
2022-12-14 18:45:30.655588
2022-12-14 18:45:30.688354
2022-12-14 18:45:30.688354
2022-12-14 18:45:30.689277
2022-12-14 18:45:30.721799
2022-12-14 18:45:30.721799
2022-12-14 18:45:30.755224
2022-12-14 18:45:30.755224
2022-12-14 18:45:30.756092
2022-12-14 18:45:30.788354
2022-12-14 18:45:30.788354
2022-12-14 18:45:30.789354
2022-12-14 18:45:30.822707
2022-12-14 18:45:30.823079
2022-12-14 18:45:30.856328
2022-12-14 18:45:30.856594
2022-12-14 18:45:30.857596
2022-12-14 18:45:30.889694
2022-12-14 18:45:30.890014
2022-12-14 18:45:30.890529
2022-12-14 18:45:30.923298
2022-12-14 18:45:30.924300
2022-12-14 18:45:30.955709
2022-12-14 18:45:30.956713
2022-12-14 18:45:30.956713
2022-12-14 18:45:30.990339
2022-12-14 18:45:30.990339
2022-12-14 18:45:30.991292
2022-12-14 18:45:31.023943
2022-12-14 18:45:31.023943
2022-12-14 18:45:31.057556
2022-12-14 18:45:31.057794
2022-12-14 18:45:31.058404
2022-12-14 18:45:31.090908
2022-12-14 18:45:31.090908
2022-12-14 18:45:31.091787
2022-12-14 18:45:31.124672
2022-12-14 18:45:31.125040
2022-12-14 18:45:31.158097
2022-12-14 18:45:31.158706
2022-12-14 18:45:31.158706
2022-12-14 18:45:31.191210
2022-12-14 18:45:31.191210
2022-12-14 18:45:31.192218
2022-12-14 18:45:31.225192
2022-12-14 18:45:31.225581
2022-12-14 18:45:31.258722
2022-12-14 18:45:31.258963
2022-12-14 18:45:31.258963
2022-12-14 18:45:31.292322
2022-12-14 18:45:31.292613
2022-12-14 18:45:31.292613
2022-12-14 18:45:31.325795
2022-12-14 18:45:31.326182
2022-12-14 18:45:31.359301
2022-12-14 18:45:31.359301
2022-12-14 18:45:31.360302
2022-12-14 18:45:31.392780
2022-12-14 18:45:31.392780
2022-12-14 18:45:31.393782
2022-12-14 18:45:31.426213
2022-12-14 18:45:31.427107
2022-12-14 18:45:31.458911
2022-12-14 18:45:31.459922
2022-12-14 18:45:31.459922
2022-12-14 18:45:31.493004
2022-12-14 18:45:31.493306
2022-12-14 18:45:31.493306
2022-12-14 18:45:31.526888
2022-12-14 18:45:31.527233
2022-12-14 18:45:31.560498
2022-12-14 18:45:31.560770
2022-12-14 18:45:31.561772
2022-12-14 18:45:31.593909
2022-12-14 18:45:31.593909
2022-12-14 18:45:31.594731
2022-12-14 18:45:31.627654
2022-12-14 18:45:31.627997
2022-12-14 18:45:31.660985
2022-12-14 18:45:31.660985
2022-12-14 18:45:31.661986
2022-12-14 18:45:31.694640
2022-12-14 18:45:31.694640
2022-12-14 18:45:31.695645
2022-12-14 18:45:31.727211
2022-12-14 18:45:31.728218
2022-12-14 18:45:31.760572
2022-12-14 18:45:31.761355
2022-12-14 18:45:31.761820
2022-12-14 18:45:31.795080
2022-12-14 18:45:31.795401
2022-12-14 18:45:31.796402
2022-12-14 18:45:31.828763
2022-12-14 18:45:31.829149
2022-12-14 18:45:31.862262
2022-12-14 18:45:31.863063
2022-12-14 18:45:31.863292
2022-12-14 18:45:31.895705
2022-12-14 18:45:31.895705
2022-12-14 18:45:31.896658
2022-12-14 18:45:31.929387
2022-12-14 18:45:31.930220
2022-12-14 18:45:31.962862
2022-12-14 18:45:31.962862
2022-12-14 18:45:31.963864
2022-12-14 18:45:31.995886
2022-12-14 18:45:31.995886
2022-12-14 18:45:31.996884
2022-12-14 18:45:32.029261
2022-12-14 18:45:32.029261
2022-12-14 18:45:32.063343
2022-12-14 18:45:32.063343
2022-12-14 18:45:32.064214
2022-12-14 18:45:32.096933
2022-12-14 18:45:32.096933
2022-12-14 18:45:32.098037
2022-12-14 18:45:32.130353
2022-12-14 18:45:32.130353
2022-12-14 18:45:32.164058
2022-12-14 18:45:32.164058
2022-12-14 18:45:32.165082
2022-12-14 18:45:32.197143
2022-12-14 18:45:32.197143
2022-12-14 18:45:32.198065
2022-12-14 18:45:32.230413
2022-12-14 18:45:32.230413
2022-12-14 18:45:32.264126
2022-12-14 18:45:32.264126
2022-12-14 18:45:32.265122
2022-12-14 18:45:32.297758
2022-12-14 18:45:32.298168
2022-12-14 18:45:32.298587
2022-12-14 18:45:32.331176
2022-12-14 18:45:32.331526
2022-12-14 18:45:32.365024
2022-12-14 18:45:32.365294
2022-12-14 18:45:32.365973
2022-12-14 18:45:32.398656
2022-12-14 18:45:32.398976
2022-12-14 18:45:32.398976
2022-12-14 18:45:32.432086
2022-12-14 18:45:32.432433
2022-12-14 18:45:32.465555
2022-12-14 18:45:32.465555
2022-12-14 18:45:32.466573
2022-12-14 18:45:32.499221
2022-12-14 18:45:32.499544
2022-12-14 18:45:32.500114
2022-12-14 18:45:32.532604
2022-12-14 18:45:32.533642
2022-12-14 18:45:32.565723
2022-12-14 18:45:32.565723
2022-12-14 18:45:32.565723
2022-12-14 18:45:32.599761
2022-12-14 18:45:32.600052
2022-12-14 18:45:32.601054
2022-12-14 18:45:32.633342
2022-12-14 18:45:32.633717
2022-12-14 18:45:32.666870
2022-12-14 18:45:32.667108
2022-12-14 18:45:32.667725
2022-12-14 18:45:32.699942
2022-12-14 18:45:32.699942
2022-12-14 18:45:32.700940
2022-12-14 18:45:32.734184
2022-12-14 18:45:32.734451
2022-12-14 18:45:32.767409
2022-12-14 18:45:32.767409
2022-12-14 18:45:32.768410
2022-12-14 18:45:32.800764
2022-12-14 18:45:32.800764
2022-12-14 18:45:32.801760
2022-12-14 18:45:32.834245
2022-12-14 18:45:32.834717
2022-12-14 18:45:32.867662
2022-12-14 18:45:32.867662
2022-12-14 18:45:32.868567
2022-12-14 18:45:32.901194
2022-12-14 18:45:32.901485
2022-12-14 18:45:32.901485
2022-12-14 18:45:32.935229
2022-12-14 18:45:32.935574
2022-12-14 18:45:32.968696
2022-12-14 18:45:32.968960
2022-12-14 18:45:32.969562
2022-12-14 18:45:33.002127
2022-12-14 18:45:33.002573
2022-12-14 18:45:33.003575
2022-12-14 18:45:33.035525
2022-12-14 18:45:33.035525
2022-12-14 18:45:33.068310
2022-12-14 18:45:33.069312
2022-12-14 18:45:33.069312
2022-12-14 18:45:33.102864
2022-12-14 18:45:33.103182
2022-12-14 18:45:33.103182
2022-12-14 18:45:33.136272
2022-12-14 18:45:33.136645
2022-12-14 18:45:33.169808
2022-12-14 18:45:33.170074
2022-12-14 18:45:33.170765
2022-12-14 18:45:33.203308
2022-12-14 18:45:33.203601
2022-12-14 18:45:33.204075
2022-12-14 18:45:33.236885
2022-12-14 18:45:33.237228
2022-12-14 18:45:33.270544
2022-12-14 18:45:33.270784
2022-12-14 18:45:33.271263
2022-12-14 18:45:33.303635
2022-12-14 18:45:33.304659
2022-12-14 18:45:33.304659
2022-12-14 18:45:33.337413
2022-12-14 18:45:33.337758
2022-12-14 18:45:33.370956
2022-12-14 18:45:33.370956
2022-12-14 18:45:33.371958
2022-12-14 18:45:33.404501
2022-12-14 18:45:33.404501
2022-12-14 18:45:33.405499
2022-12-14 18:45:33.438283
2022-12-14 18:45:33.438660
2022-12-14 18:45:33.471776
2022-12-14 18:45:33.472040
2022-12-14 18:45:33.472620
2022-12-14 18:45:33.505311
2022-12-14 18:45:33.505311
2022-12-14 18:45:33.506304
2022-12-14 18:45:33.538786
2022-12-14 18:45:33.539162
2022-12-14 18:45:33.572267
2022-12-14 18:45:33.572893
2022-12-14 18:45:33.573901
2022-12-14 18:45:33.604689
2022-12-14 18:45:33.605724
2022-12-14 18:45:33.605724
2022-12-14 18:45:33.638326
2022-12-14 18:45:33.639324
2022-12-14 18:45:33.672271
2022-12-14 18:45:33.672271
2022-12-14 18:45:33.672271
2022-12-14 18:45:33.706010
2022-12-14 18:45:33.706602
2022-12-14 18:45:33.707201
2022-12-14 18:45:33.739945
2022-12-14 18:45:33.740318
2022-12-14 18:45:33.773630
2022-12-14 18:45:33.773897
2022-12-14 18:45:33.774899
2022-12-14 18:45:33.806373
2022-12-14 18:45:33.806373
2022-12-14 18:45:33.807383
2022-12-14 18:45:33.840738
2022-12-14 18:45:33.840738
2022-12-14 18:45:33.873111
2022-12-14 18:45:33.873111
2022-12-14 18:45:33.874113
2022-12-14 18:45:33.907195
2022-12-14 18:45:33.907769
2022-12-14 18:45:33.907769
2022-12-14 18:45:33.941278
2022-12-14 18:45:33.941667
2022-12-14 18:45:33.974788
2022-12-14 18:45:33.975094
2022-12-14 18:45:33.975094
2022-12-14 18:45:34.007549
2022-12-14 18:45:34.007549
2022-12-14 18:45:34.008556
2022-12-14 18:45:34.041846
2022-12-14 18:45:34.042229
2022-12-14 18:45:34.075426
2022-12-14 18:45:34.075689
2022-12-14 18:45:34.075689
2022-12-14 18:45:34.107888
2022-12-14 18:45:34.108896
2022-12-14 18:45:34.109893
2022-12-14 18:45:34.141310
2022-12-14 18:45:34.142317
2022-12-14 18:45:34.175405
2022-12-14 18:45:34.175646
2022-12-14 18:45:34.176085
2022-12-14 18:45:34.208939
2022-12-14 18:45:34.208939
2022-12-14 18:45:34.208939
2022-12-14 18:45:34.242914
2022-12-14 18:45:34.243261
2022-12-14 18:45:34.276470
2022-12-14 18:45:34.276740
2022-12-14 18:45:34.277318
2022-12-14 18:45:34.309776
2022-12-14 18:45:34.310115
2022-12-14 18:45:34.310115
2022-12-14 18:45:34.343558
2022-12-14 18:45:34.343903
2022-12-14 18:45:34.377126
2022-12-14 18:45:34.377126
2022-12-14 18:45:34.378127
2022-12-14 18:45:34.410127
2022-12-14 18:45:34.410708
2022-12-14 18:45:34.411703
2022-12-14 18:45:34.443433
2022-12-14 18:45:34.443433
2022-12-14 18:45:34.476974
2022-12-14 18:45:34.477403
2022-12-14 18:45:34.477403
2022-12-14 18:45:34.510983
2022-12-14 18:45:34.511299
2022-12-14 18:45:34.511299
2022-12-14 18:45:34.544827
2022-12-14 18:45:34.545205
2022-12-14 18:45:34.578384
2022-12-14 18:45:34.578623
2022-12-14 18:45:34.579151
2022-12-14 18:45:34.611578
2022-12-14 18:45:34.611578
2022-12-14 18:45:34.612578
2022-12-14 18:45:34.645219
2022-12-14 18:45:34.646251
2022-12-14 18:45:34.678271
2022-12-14 18:45:34.678488
2022-12-14 18:45:34.678894
2022-12-14 18:45:34.711225
2022-12-14 18:45:34.712036
2022-12-14 18:45:34.712425
2022-12-14 18:45:34.745028
2022-12-14 18:45:34.745977
2022-12-14 18:45:34.779440
2022-12-14 18:45:34.779440
2022-12-14 18:45:34.780440
2022-12-14 18:45:34.812990
2022-12-14 18:45:34.813311
2022-12-14 18:45:34.813311
2022-12-14 18:45:34.846512
2022-12-14 18:45:34.847276
2022-12-14 18:45:34.880096
2022-12-14 18:45:34.880915
2022-12-14 18:45:34.880915
2022-12-14 18:45:34.913304
2022-12-14 18:45:34.913304
2022-12-14 18:45:34.914191
2022-12-14 18:45:34.946779
2022-12-14 18:45:34.946779
2022-12-14 18:45:34.980305
2022-12-14 18:45:34.980305
2022-12-14 18:45:34.981240
2022-12-14 18:45:35.013956
2022-12-14 18:45:35.014707
2022-12-14 18:45:35.015070
2022-12-14 18:45:35.047493
2022-12-14 18:45:35.047909
2022-12-14 18:45:35.081083
2022-12-14 18:45:35.081387
2022-12-14 18:45:35.081387
2022-12-14 18:45:35.114428
2022-12-14 18:45:35.114814
2022-12-14 18:45:35.114814
2022-12-14 18:45:35.148198
2022-12-14 18:45:35.149206
2022-12-14 18:45:35.181416
2022-12-14 18:45:35.182424
2022-12-14 18:45:35.182424
2022-12-14 18:45:35.214514
2022-12-14 18:45:35.214514
2022-12-14 18:45:35.215510
2022-12-14 18:45:35.248524
2022-12-14 18:45:35.248952
2022-12-14 18:45:35.282213
2022-12-14 18:45:35.282493
2022-12-14 18:45:35.282493
2022-12-14 18:45:35.315833
2022-12-14 18:45:35.316157
2022-12-14 18:45:35.317159
2022-12-14 18:45:35.349356
2022-12-14 18:45:35.349728
2022-12-14 18:45:35.382436
2022-12-14 18:45:35.382436
2022-12-14 18:45:35.383437
2022-12-14 18:45:35.416340
2022-12-14 18:45:35.416633
2022-12-14 18:45:35.417208
2022-12-14 18:45:35.449955
2022-12-14 18:45:35.450400
2022-12-14 18:45:35.483456
2022-12-14 18:45:35.483788
2022-12-14 18:45:35.483788
2022-12-14 18:45:35.516908
2022-12-14 18:45:35.517430
2022-12-14 18:45:35.517430
2022-12-14 18:45:35.549676
2022-12-14 18:45:35.550673
2022-12-14 18:45:35.583976
2022-12-14 18:45:35.583976
2022-12-14 18:45:35.584986
2022-12-14 18:45:35.617204
2022-12-14 18:45:35.617204
2022-12-14 18:45:35.618208
2022-12-14 18:45:35.650544
2022-12-14 18:45:35.650544
2022-12-14 18:45:35.684636
2022-12-14 18:45:35.684903
2022-12-14 18:45:35.685906
2022-12-14 18:45:35.718109
2022-12-14 18:45:35.718453
2022-12-14 18:45:35.718453
2022-12-14 18:45:35.751570
2022-12-14 18:45:35.751963
2022-12-14 18:45:35.785141
2022-12-14 18:45:35.785383
2022-12-14 18:45:35.786385
2022-12-14 18:45:35.818751
2022-12-14 18:45:35.819084
2022-12-14 18:45:35.819612
2022-12-14 18:45:35.852210
2022-12-14 18:45:35.852210
2022-12-14 18:45:35.885207
2022-12-14 18:45:35.885207
2022-12-14 18:45:35.886202
2022-12-14 18:45:35.918905
2022-12-14 18:45:35.919207
2022-12-14 18:45:35.919809
2022-12-14 18:45:35.952928
2022-12-14 18:45:35.953275
2022-12-14 18:45:35.986293
2022-12-14 18:45:35.986293
2022-12-14 18:45:35.987298
2022-12-14 18:45:36.019861
2022-12-14 18:45:36.020154
2022-12-14 18:45:36.020154
2022-12-14 18:45:36.053408
2022-12-14 18:45:36.053753
2022-12-14 18:45:36.086892
2022-12-14 18:45:36.087168
2022-12-14 18:45:36.088169
2022-12-14 18:45:36.120456
2022-12-14 18:45:36.120777
2022-12-14 18:45:36.121302
2022-12-14 18:45:36.154251
2022-12-14 18:45:36.154251
2022-12-14 18:45:36.187268
2022-12-14 18:45:36.187500
2022-12-14 18:45:36.187500
2022-12-14 18:45:36.221067
2022-12-14 18:45:36.221362
2022-12-14 18:45:36.221362
2022-12-14 18:45:36.254697
2022-12-14 18:45:36.255040
2022-12-14 18:45:36.288147
2022-12-14 18:45:36.288386
2022-12-14 18:45:36.289388
2022-12-14 18:45:36.321734
2022-12-14 18:45:36.322026
2022-12-14 18:45:36.322026
2022-12-14 18:45:36.355210
2022-12-14 18:45:36.355210
2022-12-14 18:45:36.388755
2022-12-14 18:45:36.388995
2022-12-14 18:45:36.389605
2022-12-14 18:45:36.422316
2022-12-14 18:45:36.422655
2022-12-14 18:45:36.423226
2022-12-14 18:45:36.455812
2022-12-14 18:45:36.455812
2022-12-14 18:45:36.489145
2022-12-14 18:45:36.490154
2022-12-14 18:45:36.490154
2022-12-14 18:45:36.522829
2022-12-14 18:45:36.523121
2022-12-14 18:45:36.523121
2022-12-14 18:45:36.556379
2022-12-14 18:45:36.556379
2022-12-14 18:45:36.590074
2022-12-14 18:45:36.590312
2022-12-14 18:45:36.590930
2022-12-14 18:45:36.623596
2022-12-14 18:45:36.623931
2022-12-14 18:45:36.624416
2022-12-14 18:45:36.657073
2022-12-14 18:45:36.657073
2022-12-14 18:45:36.690573
2022-12-14 18:45:36.690813
2022-12-14 18:45:36.691341
2022-12-14 18:45:36.724106
2022-12-14 18:45:36.725108
2022-12-14 18:45:36.725108
2022-12-14 18:45:36.756917
2022-12-14 18:45:36.756917
2022-12-14 18:45:36.791036
2022-12-14 18:45:36.791275
2022-12-14 18:45:36.791275
2022-12-14 18:45:36.824624
2022-12-14 18:45:36.824624
2022-12-14 18:45:36.825624
2022-12-14 18:45:36.858246
2022-12-14 18:45:36.858589
2022-12-14 18:45:36.891823
2022-12-14 18:45:36.892063
2022-12-14 18:45:36.892063
2022-12-14 18:45:36.925336
2022-12-14 18:45:36.925629
2022-12-14 18:45:36.926104
2022-12-14 18:45:36.958862
2022-12-14 18:45:36.959230
2022-12-14 18:45:36.992575
2022-12-14 18:45:36.992842
2022-12-14 18:45:36.993366
2022-12-14 18:45:37.025982
2022-12-14 18:45:37.025982
2022-12-14 18:45:37.026985
2022-12-14 18:45:37.059065
2022-12-14 18:45:37.059065
2022-12-14 18:45:37.092934
2022-12-14 18:45:37.093174
2022-12-14 18:45:37.093174
2022-12-14 18:45:37.126609
2022-12-14 18:45:37.126899
2022-12-14 18:45:37.126899
2022-12-14 18:45:37.160168
2022-12-14 18:45:37.160510
2022-12-14 18:45:37.193702
2022-12-14 18:45:37.193939
2022-12-14 18:45:37.194419
2022-12-14 18:45:37.227147
2022-12-14 18:45:37.227468
2022-12-14 18:45:37.228141
2022-12-14 18:45:37.260670
2022-12-14 18:45:37.261037
2022-12-14 18:45:37.294229
2022-12-14 18:45:37.294229
2022-12-14 18:45:37.295009
2022-12-14 18:45:37.326805
2022-12-14 18:45:37.327821
2022-12-14 18:45:37.327960
2022-12-14 18:45:37.360561
2022-12-14 18:45:37.361040
2022-12-14 18:45:37.394742
2022-12-14 18:45:37.395019
2022-12-14 18:45:37.395019
2022-12-14 18:45:37.428491
2022-12-14 18:45:37.428810
2022-12-14 18:45:37.429492
2022-12-14 18:45:37.461903
2022-12-14 18:45:37.462288
2022-12-14 18:45:37.495533
2022-12-14 18:45:37.495771
2022-12-14 18:45:37.495771
2022-12-14 18:45:37.529019
2022-12-14 18:45:37.529344
2022-12-14 18:45:37.529344
2022-12-14 18:45:37.562367
2022-12-14 18:45:37.562874
2022-12-14 18:45:37.595655
2022-12-14 18:45:37.595655
2022-12-14 18:45:37.595655
2022-12-14 18:45:37.629221
2022-12-14 18:45:37.629221
2022-12-14 18:45:37.630221
2022-12-14 18:45:37.662956
2022-12-14 18:45:37.663305
2022-12-14 18:45:37.696588
2022-12-14 18:45:37.696878
2022-12-14 18:45:37.696878
2022-12-14 18:45:37.730049
2022-12-14 18:45:37.730049
2022-12-14 18:45:37.731061
2022-12-14 18:45:37.763712
2022-12-14 18:45:37.763712
2022-12-14 18:45:37.797117
2022-12-14 18:45:37.797117
2022-12-14 18:45:37.798118
2022-12-14 18:45:37.830746
2022-12-14 18:45:37.830746
2022-12-14 18:45:37.831776
2022-12-14 18:45:37.863089
2022-12-14 18:45:37.864090
2022-12-14 18:45:37.897242
2022-12-14 18:45:37.897466
2022-12-14 18:45:37.897466
2022-12-14 18:45:37.931223
2022-12-14 18:45:37.932028
2022-12-14 18:45:37.932028
2022-12-14 18:45:37.964646
2022-12-14 18:45:37.965361
2022-12-14 18:45:37.998356
2022-12-14 18:45:37.998728
2022-12-14 18:45:37.999150
2022-12-14 18:45:38.031786
2022-12-14 18:45:38.032104
2022-12-14 18:45:38.032790
2022-12-14 18:45:38.065489
2022-12-14 18:45:38.065489
2022-12-14 18:45:38.097878
2022-12-14 18:45:38.098887
2022-12-14 18:45:38.098887
2022-12-14 18:45:38.132411
2022-12-14 18:45:38.132732
2022-12-14 18:45:38.133734
2022-12-14 18:45:38.165568
2022-12-14 18:45:38.166034
2022-12-14 18:45:38.199103
2022-12-14 18:45:38.199409
2022-12-14 18:45:38.199409
2022-12-14 18:45:38.232668
2022-12-14 18:45:38.233007
2022-12-14 18:45:38.233007
2022-12-14 18:45:38.266522
2022-12-14 18:45:38.266894
2022-12-14 18:45:38.299473
2022-12-14 18:45:38.299473
2022-12-14 18:45:38.300480
2022-12-14 18:45:38.333299
2022-12-14 18:45:38.333299
2022-12-14 18:45:38.334295
2022-12-14 18:45:38.366662
2022-12-14 18:45:38.366978
2022-12-14 18:45:38.400617
2022-12-14 18:45:38.400856
2022-12-14 18:45:38.401471
2022-12-14 18:45:38.434054
2022-12-14 18:45:38.434054
2022-12-14 18:45:38.435003
2022-12-14 18:45:38.467583
2022-12-14 18:45:38.467953
2022-12-14 18:45:38.501213
2022-12-14 18:45:38.501478
2022-12-14 18:45:38.502084
2022-12-14 18:45:38.534675
2022-12-14 18:45:38.534967
2022-12-14 18:45:38.534967
2022-12-14 18:45:38.568190
2022-12-14 18:45:38.568190
2022-12-14 18:45:38.600976
2022-12-14 18:45:38.600976
2022-12-14 18:45:38.601972
2022-12-14 18:45:38.634964
2022-12-14 18:45:38.635258
2022-12-14 18:45:38.635674
2022-12-14 18:45:38.668907
2022-12-14 18:45:38.669302
2022-12-14 18:45:38.702389
2022-12-14 18:45:38.702683
2022-12-14 18:45:38.702683
2022-12-14 18:45:38.735932
2022-12-14 18:45:38.736327
2022-12-14 18:45:38.737330
2022-12-14 18:45:38.769366
2022-12-14 18:45:38.769366
2022-12-14 18:45:38.802032
2022-12-14 18:45:38.803029
2022-12-14 18:45:38.803029
2022-12-14 18:45:38.836569
2022-12-14 18:45:38.836890
2022-12-14 18:45:38.837455
2022-12-14 18:45:38.870108
2022-12-14 18:45:38.870487
2022-12-14 18:45:38.903268
2022-12-14 18:45:38.903268
2022-12-14 18:45:38.904271
2022-12-14 18:45:38.936184
2022-12-14 18:45:38.937221
2022-12-14 18:45:38.937221
2022-12-14 18:45:38.970319
2022-12-14 18:45:38.970732
2022-12-14 18:45:39.004150
2022-12-14 18:45:39.004390
2022-12-14 18:45:39.005004
2022-12-14 18:45:39.037646
2022-12-14 18:45:39.037938
2022-12-14 18:45:39.037938
2022-12-14 18:45:39.071246
2022-12-14 18:45:39.071593
2022-12-14 18:45:39.104694
2022-12-14 18:45:39.104961
2022-12-14 18:45:39.105963
2022-12-14 18:45:39.138340
2022-12-14 18:45:39.138635
2022-12-14 18:45:39.139104
2022-12-14 18:45:39.171707
2022-12-14 18:45:39.171707
2022-12-14 18:45:39.205264
2022-12-14 18:45:39.205551
2022-12-14 18:45:39.205551
2022-12-14 18:45:39.238754
2022-12-14 18:45:39.239572
2022-12-14 18:45:39.239572
2022-12-14 18:45:39.272131
2022-12-14 18:45:39.272131
2022-12-14 18:45:39.306005
2022-12-14 18:45:39.306245
2022-12-14 18:45:39.306854
2022-12-14 18:45:39.339556
2022-12-14 18:45:39.339556
2022-12-14 18:45:39.340559
2022-12-14 18:45:39.373176
2022-12-14 18:45:39.373563
2022-12-14 18:45:39.406678
2022-12-14 18:45:39.406950
2022-12-14 18:45:39.407476
2022-12-14 18:45:39.440191
2022-12-14 18:45:39.440481
2022-12-14 18:45:39.441084
2022-12-14 18:45:39.473710
2022-12-14 18:45:39.474056
2022-12-14 18:45:39.507289
2022-12-14 18:45:39.507553
2022-12-14 18:45:39.508554
2022-12-14 18:45:39.540903
2022-12-14 18:45:39.540903
2022-12-14 18:45:39.541906
2022-12-14 18:45:39.573763
2022-12-14 18:45:39.573763
2022-12-14 18:45:39.607634
2022-12-14 18:45:39.607874
2022-12-14 18:45:39.607874
2022-12-14 18:45:39.641313
2022-12-14 18:45:39.641313
2022-12-14 18:45:39.642265
2022-12-14 18:45:39.674780
2022-12-14 18:45:39.675131
2022-12-14 18:45:39.708523
2022-12-14 18:45:39.708789
2022-12-14 18:45:39.709303
2022-12-14 18:45:39.742045
2022-12-14 18:45:39.742368
2022-12-14 18:45:39.743041
2022-12-14 18:45:39.775578
2022-12-14 18:45:39.775949
2022-12-14 18:45:39.809101
2022-12-14 18:45:39.809368
2022-12-14 18:45:39.810369
2022-12-14 18:45:39.842494
2022-12-14 18:45:39.842494
2022-12-14 18:45:39.843508
2022-12-14 18:45:39.875705
2022-12-14 18:45:39.875705
2022-12-14 18:45:39.909063
2022-12-14 18:45:39.909063
2022-12-14 18:45:39.910061
2022-12-14 18:45:39.942256
2022-12-14 18:45:39.942256
2022-12-14 18:45:39.943252
2022-12-14 18:45:39.975629
2022-12-14 18:45:39.976629
2022-12-14 18:45:40.010317
2022-12-14 18:45:40.010582
2022-12-14 18:45:40.011585
2022-12-14 18:45:40.043838
2022-12-14 18:45:40.044166
2022-12-14 18:45:40.044646
2022-12-14 18:45:40.077239
2022-12-14 18:45:40.077239
2022-12-14 18:45:40.110329
2022-12-14 18:45:40.110329
2022-12-14 18:45:40.111358
2022-12-14 18:45:40.143425
2022-12-14 18:45:40.143986
2022-12-14 18:45:40.143986
2022-12-14 18:45:40.177684
2022-12-14 18:45:40.178027
2022-12-14 18:45:40.211429
2022-12-14 18:45:40.211667
2022-12-14 18:45:40.211667
2022-12-14 18:45:40.245027
2022-12-14 18:45:40.245319
2022-12-14 18:45:40.245880
2022-12-14 18:45:40.278395
2022-12-14 18:45:40.278802
2022-12-14 18:45:40.312012
2022-12-14 18:45:40.312278
2022-12-14 18:45:40.312858
2022-12-14 18:45:40.345335
2022-12-14 18:45:40.346337
2022-12-14 18:45:40.346337
2022-12-14 18:45:40.379057
2022-12-14 18:45:40.379057
2022-12-14 18:45:40.412243
2022-12-14 18:45:40.412767
2022-12-14 18:45:40.413353
2022-12-14 18:45:40.444708
2022-12-14 18:45:40.445661
2022-12-14 18:45:40.445661
2022-12-14 18:45:40.479404
2022-12-14 18:45:40.479404
2022-12-14 18:45:40.512697
2022-12-14 18:45:40.512697
2022-12-14 18:45:40.513699
2022-12-14 18:45:40.546148
2022-12-14 18:45:40.546148
2022-12-14 18:45:40.547149
2022-12-14 18:45:40.580106
2022-12-14 18:45:40.580492
2022-12-14 18:45:40.613398
2022-12-14 18:45:40.613398
2022-12-14 18:45:40.614404
2022-12-14 18:45:40.647078
2022-12-14 18:45:40.647375
2022-12-14 18:45:40.647375
2022-12-14 18:45:40.680565
2022-12-14 18:45:40.680565
2022-12-14 18:45:40.714164
2022-12-14 18:45:40.714431
2022-12-14 18:45:40.715126
2022-12-14 18:45:40.747689
2022-12-14 18:45:40.747982
2022-12-14 18:45:40.747982
2022-12-14 18:45:40.781250
2022-12-14 18:45:40.781597
2022-12-14 18:45:40.814830
2022-12-14 18:45:40.814830
2022-12-14 18:45:40.815845
2022-12-14 18:45:40.848180
2022-12-14 18:45:40.848716
2022-12-14 18:45:40.848716
2022-12-14 18:45:40.881082
2022-12-14 18:45:40.881726
2022-12-14 18:45:40.915399
2022-12-14 18:45:40.916228
2022-12-14 18:45:40.916228
2022-12-14 18:45:40.948980
2022-12-14 18:45:40.949774
2022-12-14 18:45:40.950228
2022-12-14 18:45:40.982547
2022-12-14 18:45:40.983279
2022-12-14 18:45:41.016051
2022-12-14 18:45:41.016051
2022-12-14 18:45:41.017080
2022-12-14 18:45:41.049537
2022-12-14 18:45:41.049537
2022-12-14 18:45:41.050573
2022-12-14 18:45:41.083197
2022-12-14 18:45:41.083197
2022-12-14 18:45:41.116217
2022-12-14 18:45:41.116217
2022-12-14 18:45:41.117214
2022-12-14 18:45:41.149521
2022-12-14 18:45:41.149521
2022-12-14 18:45:41.150518
2022-12-14 18:45:41.183409
2022-12-14 18:45:41.183409
2022-12-14 18:45:41.216741
2022-12-14 18:45:41.216980
2022-12-14 18:45:41.216980
2022-12-14 18:45:41.250423
2022-12-14 18:45:41.250423
2022-12-14 18:45:41.251432
2022-12-14 18:45:41.283757
2022-12-14 18:45:41.284144
2022-12-14 18:45:41.317586
2022-12-14 18:45:41.317586
2022-12-14 18:45:41.318568
2022-12-14 18:45:41.350436
2022-12-14 18:45:41.351444
2022-12-14 18:45:41.351444
2022-12-14 18:45:41.383883
2022-12-14 18:45:41.384657
2022-12-14 18:45:41.418432
2022-12-14 18:45:41.418671
2022-12-14 18:45:41.418671
2022-12-14 18:45:41.451907
2022-12-14 18:45:41.452197
2022-12-14 18:45:41.452805
2022-12-14 18:45:41.485523
2022-12-14 18:45:41.485908
2022-12-14 18:45:41.519097
2022-12-14 18:45:41.519365
2022-12-14 18:45:41.519940
2022-12-14 18:45:41.552545
2022-12-14 18:45:41.552839
2022-12-14 18:45:41.552839
2022-12-14 18:45:41.585991
2022-12-14 18:45:41.586600
2022-12-14 18:45:41.618748
2022-12-14 18:45:41.618748
2022-12-14 18:45:41.619659
2022-12-14 18:45:41.652774
2022-12-14 18:45:41.653185
2022-12-14 18:45:41.653185
2022-12-14 18:45:41.686429
2022-12-14 18:45:41.686808
2022-12-14 18:45:41.720145
2022-12-14 18:45:41.720410
2022-12-14 18:45:41.721412
2022-12-14 18:45:41.753696
2022-12-14 18:45:41.754078
2022-12-14 18:45:41.754689
2022-12-14 18:45:41.787186
2022-12-14 18:45:41.787582
2022-12-14 18:45:41.820793
2022-12-14 18:45:41.821062
2022-12-14 18:45:41.822065
2022-12-14 18:45:41.854137
2022-12-14 18:45:41.854137
2022-12-14 18:45:41.855158
2022-12-14 18:45:41.887688
2022-12-14 18:45:41.888696
2022-12-14 18:45:41.920926
2022-12-14 18:45:41.921265
2022-12-14 18:45:41.921265
2022-12-14 18:45:41.953886
2022-12-14 18:45:41.954881
2022-12-14 18:45:41.954881
2022-12-14 18:45:41.987817
2022-12-14 18:45:41.987817
2022-12-14 18:45:42.021561
2022-12-14 18:45:42.021844
2022-12-14 18:45:42.022846
2022-12-14 18:45:42.055492
2022-12-14 18:45:42.055810
2022-12-14 18:45:42.056813
2022-12-14 18:45:42.088899
2022-12-14 18:45:42.089242
2022-12-14 18:45:42.122406
2022-12-14 18:45:42.122669
2022-12-14 18:45:42.123669
2022-12-14 18:45:42.155826
2022-12-14 18:45:42.156585
2022-12-14 18:45:42.156585
2022-12-14 18:45:42.189024
2022-12-14 18:45:42.189024
2022-12-14 18:45:42.223100
2022-12-14 18:45:42.223100
2022-12-14 18:45:42.224100
2022-12-14 18:45:42.256565
2022-12-14 18:45:42.256908
2022-12-14 18:45:42.256908
2022-12-14 18:45:42.290111
2022-12-14 18:45:42.290453
2022-12-14 18:45:42.323663
2022-12-14 18:45:42.323933
2022-12-14 18:45:42.324508
2022-12-14 18:45:42.357199
2022-12-14 18:45:42.357533
2022-12-14 18:45:42.358140
2022-12-14 18:45:42.390627
2022-12-14 18:45:42.390627
2022-12-14 18:45:42.423611
2022-12-14 18:45:42.423611
2022-12-14 18:45:42.424621
2022-12-14 18:45:42.457890
2022-12-14 18:45:42.458216
2022-12-14 18:45:42.459219
2022-12-14 18:45:42.491401
2022-12-14 18:45:42.491748
2022-12-14 18:45:42.524901
2022-12-14 18:45:42.525189
2022-12-14 18:45:42.526191
2022-12-14 18:45:42.558470
2022-12-14 18:45:42.558802
2022-12-14 18:45:42.559364
2022-12-14 18:45:42.592037
2022-12-14 18:45:42.592426
2022-12-14 18:45:42.625375
2022-12-14 18:45:42.625375
2022-12-14 18:45:42.626377
2022-12-14 18:45:42.658140
2022-12-14 18:45:42.659180
2022-12-14 18:45:42.659180
2022-12-14 18:45:42.692462
2022-12-14 18:45:42.692808
2022-12-14 18:45:42.726055
2022-12-14 18:45:42.726296
2022-12-14 18:45:42.726296
2022-12-14 18:45:42.759581
2022-12-14 18:45:42.759870
2022-12-14 18:45:42.759870
2022-12-14 18:45:42.793338
2022-12-14 18:45:42.793724
2022-12-14 18:45:42.826800
2022-12-14 18:45:42.827063
2022-12-14 18:45:42.827734
2022-12-14 18:45:42.859301
2022-12-14 18:45:42.860299
2022-12-14 18:45:42.860299
2022-12-14 18:45:42.893683
2022-12-14 18:45:42.894176
2022-12-14 18:45:42.926039
2022-12-14 18:45:42.927067
2022-12-14 18:45:42.927067
2022-12-14 18:45:42.960635
2022-12-14 18:45:42.960635
2022-12-14 18:45:42.961668
2022-12-14 18:45:42.994475
2022-12-14 18:45:42.994860
2022-12-14 18:45:43.027988
2022-12-14 18:45:43.028262
2022-12-14 18:45:43.028262
2022-12-14 18:45:43.061515
2022-12-14 18:45:43.061848
2022-12-14 18:45:43.062372
2022-12-14 18:45:43.094959
2022-12-14 18:45:43.095304
2022-12-14 18:45:43.128540
2022-12-14 18:45:43.128540
2022-12-14 18:45:43.129541
2022-12-14 18:45:43.161884
2022-12-14 18:45:43.161884
2022-12-14 18:45:43.162887
2022-12-14 18:45:43.194680
2022-12-14 18:45:43.195718
2022-12-14 18:45:43.228864
2022-12-14 18:45:43.228864
2022-12-14 18:45:43.229867
2022-12-14 18:45:43.262556
2022-12-14 18:45:43.262849
2022-12-14 18:45:43.262849
2022-12-14 18:45:43.296243
2022-12-14 18:45:43.296629
2022-12-14 18:45:43.329818
2022-12-14 18:45:43.330057
2022-12-14 18:45:43.330574
2022-12-14 18:45:43.363254
2022-12-14 18:45:43.363594
2022-12-14 18:45:43.363594
2022-12-14 18:45:43.396793
2022-12-14 18:45:43.397167
2022-12-14 18:45:43.430187
2022-12-14 18:45:43.430187
2022-12-14 18:45:43.431188
2022-12-14 18:45:43.463603
2022-12-14 18:45:43.463603
2022-12-14 18:45:43.463603
2022-12-14 18:45:43.497172
2022-12-14 18:45:43.497549
2022-12-14 18:45:43.530773
2022-12-14 18:45:43.531011
2022-12-14 18:45:43.531620
2022-12-14 18:45:43.564374
2022-12-14 18:45:43.564665
2022-12-14 18:45:43.564665
2022-12-14 18:45:43.597853
2022-12-14 18:45:43.597853
2022-12-14 18:45:43.631619
2022-12-14 18:45:43.631856
2022-12-14 18:45:43.631856
2022-12-14 18:45:43.664851
2022-12-14 18:45:43.664851
2022-12-14 18:45:43.665890
2022-12-14 18:45:43.697788
2022-12-14 18:45:43.698798
2022-12-14 18:45:43.731386
2022-12-14 18:45:43.731386
2022-12-14 18:45:43.731386
2022-12-14 18:45:43.765613
2022-12-14 18:45:43.765945
2022-12-14 18:45:43.765945
2022-12-14 18:45:43.799184
2022-12-14 18:45:43.799525
2022-12-14 18:45:43.832660
2022-12-14 18:45:43.833447
2022-12-14 18:45:43.833788
2022-12-14 18:45:43.866258
2022-12-14 18:45:43.867045
2022-12-14 18:45:43.867045
2022-12-14 18:45:43.899732
2022-12-14 18:45:43.899732
2022-12-14 18:45:43.933185
2022-12-14 18:45:43.933877
2022-12-14 18:45:43.933877
2022-12-14 18:45:43.965796
2022-12-14 18:45:43.966805
2022-12-14 18:45:43.966805
2022-12-14 18:45:43.999079
2022-12-14 18:45:44.000036
2022-12-14 18:45:44.033659
2022-12-14 18:45:44.033659
2022-12-14 18:45:44.034697
2022-12-14 18:45:44.067169
2022-12-14 18:45:44.067542
2022-12-14 18:45:44.067542
2022-12-14 18:45:44.100776
2022-12-14 18:45:44.101388
2022-12-14 18:45:44.134313
2022-12-14 18:45:44.134646
2022-12-14 18:45:44.134646
2022-12-14 18:45:44.167512
2022-12-14 18:45:44.167512
2022-12-14 18:45:44.168520
2022-12-14 18:45:44.200443
2022-12-14 18:45:44.201439
2022-12-14 18:45:44.234766
2022-12-14 18:45:44.235078
2022-12-14 18:45:44.235078
2022-12-14 18:45:44.268547
2022-12-14 18:45:44.268837
2022-12-14 18:45:44.268837
2022-12-14 18:45:44.302014
2022-12-14 18:45:44.302386
2022-12-14 18:45:44.335176
2022-12-14 18:45:44.335458
2022-12-14 18:45:44.335986
2022-12-14 18:45:44.369031
2022-12-14 18:45:44.369031
2022-12-14 18:45:44.370064
2022-12-14 18:45:44.402448
2022-12-14 18:45:44.403116
2022-12-14 18:45:44.435715
2022-12-14 18:45:44.436036
2022-12-14 18:45:44.436036
2022-12-14 18:45:44.469627
2022-12-14 18:45:44.469918
2022-12-14 18:45:44.469918
2022-12-14 18:45:44.503091
2022-12-14 18:45:44.503435
2022-12-14 18:45:44.536664
2022-12-14 18:45:44.536902
2022-12-14 18:45:44.536902
2022-12-14 18:45:44.570274
2022-12-14 18:45:44.570565
2022-12-14 18:45:44.570565
2022-12-14 18:45:44.603656
2022-12-14 18:45:44.603656
2022-12-14 18:45:44.637313
2022-12-14 18:45:44.637610
2022-12-14 18:45:44.638612
2022-12-14 18:45:44.670646
2022-12-14 18:45:44.671712
2022-12-14 18:45:44.672705
2022-12-14 18:45:44.704345
2022-12-14 18:45:44.704688
2022-12-14 18:45:44.737773
2022-12-14 18:45:44.737773
2022-12-14 18:45:44.738773
2022-12-14 18:45:44.771477
2022-12-14 18:45:44.771867
2022-12-14 18:45:44.772869
2022-12-14 18:45:44.805028
2022-12-14 18:45:44.805464
2022-12-14 18:45:44.838439
2022-12-14 18:45:44.838439
2022-12-14 18:45:44.839439
2022-12-14 18:45:44.872092
2022-12-14 18:45:44.872420
2022-12-14 18:45:44.872969
2022-12-14 18:45:44.905489
2022-12-14 18:45:44.905932
2022-12-14 18:45:44.938930
2022-12-14 18:45:44.938930
2022-12-14 18:45:44.939932
2022-12-14 18:45:44.971654
2022-12-14 18:45:44.972662
2022-12-14 18:45:44.973657
2022-12-14 18:45:45.005501
2022-12-14 18:45:45.006503
2022-12-14 18:45:45.039224
2022-12-14 18:45:45.039508
2022-12-14 18:45:45.039508
2022-12-14 18:45:45.073144
2022-12-14 18:45:45.073434
2022-12-14 18:45:45.074098
2022-12-14 18:45:45.106639
2022-12-14 18:45:45.106983
2022-12-14 18:45:45.140222
2022-12-14 18:45:45.140222
2022-12-14 18:45:45.141223
2022-12-14 18:45:45.173652
2022-12-14 18:45:45.173945
2022-12-14 18:45:45.174946
2022-12-14 18:45:45.207213
2022-12-14 18:45:45.207604
2022-12-14 18:45:45.240734
2022-12-14 18:45:45.241012
2022-12-14 18:45:45.242014
2022-12-14 18:45:45.273415
2022-12-14 18:45:45.274408
2022-12-14 18:45:45.274408
2022-12-14 18:45:45.307846
2022-12-14 18:45:45.307846
2022-12-14 18:45:45.341224
2022-12-14 18:45:45.341224
2022-12-14 18:45:45.342225
2022-12-14 18:45:45.374903
2022-12-14 18:45:45.374903
2022-12-14 18:45:45.375907
2022-12-14 18:45:45.408020
2022-12-14 18:45:45.408020
2022-12-14 18:45:45.441624
2022-12-14 18:45:45.441894
2022-12-14 18:45:45.442895
2022-12-14 18:45:45.475534
2022-12-14 18:45:45.475856
2022-12-14 18:45:45.475856
2022-12-14 18:45:45.509054
2022-12-14 18:45:45.510057
2022-12-14 18:45:45.541819
2022-12-14 18:45:45.542821
2022-12-14 18:45:45.542821
2022-12-14 18:45:45.575469
2022-12-14 18:45:45.575469
2022-12-14 18:45:45.576467
2022-12-14 18:45:45.609678
2022-12-14 18:45:45.610055
2022-12-14 18:45:45.643171
2022-12-14 18:45:45.643445
2022-12-14 18:45:45.643445
2022-12-14 18:45:45.676650
2022-12-14 18:45:45.676944
2022-12-14 18:45:45.677417
2022-12-14 18:45:45.710202
2022-12-14 18:45:45.710546
2022-12-14 18:45:45.743785
2022-12-14 18:45:45.744068
2022-12-14 18:45:45.744591
2022-12-14 18:45:45.777206
2022-12-14 18:45:45.777206
2022-12-14 18:45:45.778206
2022-12-14 18:45:45.810742
2022-12-14 18:45:45.810742
2022-12-14 18:45:45.844326
2022-12-14 18:45:45.844565
2022-12-14 18:45:45.844565
2022-12-14 18:45:45.877910
2022-12-14 18:45:45.878202
2022-12-14 18:45:45.878202
2022-12-14 18:45:45.911426
2022-12-14 18:45:45.911772
2022-12-14 18:45:45.945145
2022-12-14 18:45:45.945410
2022-12-14 18:45:45.945410
2022-12-14 18:45:45.978702
2022-12-14 18:45:45.979023
2022-12-14 18:45:45.979706
2022-12-14 18:45:46.012208
2022-12-14 18:45:46.012552
2022-12-14 18:45:46.045790
2022-12-14 18:45:46.045790
2022-12-14 18:45:46.046795
2022-12-14 18:45:46.078633
2022-12-14 18:45:46.078633
2022-12-14 18:45:46.079506
2022-12-14 18:45:46.112240
2022-12-14 18:45:46.112667
2022-12-14 18:45:46.146277
2022-12-14 18:45:46.146514
2022-12-14 18:45:46.146514
2022-12-14 18:45:46.178505
2022-12-14 18:45:46.179506
2022-12-14 18:45:46.179506
2022-12-14 18:45:46.212296
2022-12-14 18:45:46.213292
2022-12-14 18:45:46.246822
2022-12-14 18:45:46.247060
2022-12-14 18:45:46.247060
2022-12-14 18:45:46.280390
2022-12-14 18:45:46.280968
2022-12-14 18:45:46.281971
2022-12-14 18:45:46.313511
2022-12-14 18:45:46.313511
2022-12-14 18:45:46.346870
2022-12-14 18:45:46.346870
2022-12-14 18:45:46.347624
2022-12-14 18:45:46.380954
2022-12-14 18:45:46.381247
2022-12-14 18:45:46.381850
2022-12-14 18:45:46.414571
2022-12-14 18:45:46.414920
2022-12-14 18:45:46.448219
2022-12-14 18:45:46.448456
2022-12-14 18:45:46.448456
2022-12-14 18:45:46.481684
2022-12-14 18:45:46.481976
2022-12-14 18:45:46.482541
2022-12-14 18:45:46.515143
2022-12-14 18:45:46.515517
2022-12-14 18:45:46.548473
2022-12-14 18:45:46.549256
2022-12-14 18:45:46.549256
2022-12-14 18:45:46.582034
2022-12-14 18:45:46.582034
2022-12-14 18:45:46.583035
2022-12-14 18:45:46.615143
2022-12-14 18:45:46.616171
2022-12-14 18:45:46.648781
2022-12-14 18:45:46.648781
2022-12-14 18:45:46.648781
2022-12-14 18:45:46.682612
2022-12-14 18:45:46.682933
2022-12-14 18:45:46.683935
2022-12-14 18:45:46.716203
2022-12-14 18:45:46.716574
2022-12-14 18:45:46.749604
2022-12-14 18:45:46.749604
2022-12-14 18:45:46.750610
2022-12-14 18:45:46.783347
2022-12-14 18:45:46.783347
2022-12-14 18:45:46.784348
2022-12-14 18:45:46.816888
2022-12-14 18:45:46.817233
2022-12-14 18:45:46.849998
2022-12-14 18:45:46.849998
2022-12-14 18:45:46.851033
2022-12-14 18:45:46.883833
2022-12-14 18:45:46.883833
2022-12-14 18:45:46.884834
2022-12-14 18:45:46.916209
2022-12-14 18:45:46.917175
2022-12-14 18:45:46.950381
2022-12-14 18:45:46.950381
2022-12-14 18:45:46.951378
2022-12-14 18:45:46.984254
2022-12-14 18:45:46.985069
2022-12-14 18:45:46.985410
2022-12-14 18:45:47.017815
2022-12-14 18:45:47.018548
2022-12-14 18:45:47.050695
2022-12-14 18:45:47.051703
2022-12-14 18:45:47.052468
2022-12-14 18:45:47.085234
2022-12-14 18:45:47.085234
2022-12-14 18:45:47.085934
2022-12-14 18:45:47.118569
2022-12-14 18:45:47.118569
2022-12-14 18:45:47.152126
2022-12-14 18:45:47.152126
2022-12-14 18:45:47.153121
2022-12-14 18:45:47.184665
2022-12-14 18:45:47.185673
2022-12-14 18:45:47.185673
2022-12-14 18:45:47.218531
2022-12-14 18:45:47.219185
2022-12-14 18:45:47.252442
2022-12-14 18:45:47.252716
2022-12-14 18:45:47.252716
2022-12-14 18:45:47.286206
2022-12-14 18:45:47.286528
2022-12-14 18:45:47.286528
2022-12-14 18:45:47.319617
2022-12-14 18:45:47.319963
2022-12-14 18:45:47.353042
2022-12-14 18:45:47.353320
2022-12-14 18:45:47.353320
2022-12-14 18:45:47.386703
2022-12-14 18:45:47.387023
2022-12-14 18:45:47.388025
2022-12-14 18:45:47.420344
2022-12-14 18:45:47.421342
2022-12-14 18:45:47.453036
2022-12-14 18:45:47.453036
2022-12-14 18:45:47.454044
2022-12-14 18:45:47.487282
2022-12-14 18:45:47.487598
2022-12-14 18:45:47.488272
2022-12-14 18:45:47.520837
2022-12-14 18:45:47.521208
2022-12-14 18:45:47.554346
2022-12-14 18:45:47.554586
2022-12-14 18:45:47.554586
2022-12-14 18:45:47.587892
2022-12-14 18:45:47.587892
2022-12-14 18:45:47.588892
2022-12-14 18:45:47.621360
2022-12-14 18:45:47.621360
2022-12-14 18:45:47.654999
2022-12-14 18:45:47.655266
2022-12-14 18:45:47.656269
2022-12-14 18:45:47.688454
2022-12-14 18:45:47.689171
2022-12-14 18:45:47.690173
2022-12-14 18:45:47.721387
2022-12-14 18:45:47.721387
2022-12-14 18:45:47.755501
2022-12-14 18:45:47.755741
2022-12-14 18:45:47.756742
2022-12-14 18:45:47.789148
2022-12-14 18:45:47.789468
2022-12-14 18:45:47.790471
2022-12-14 18:45:47.822739
2022-12-14 18:45:47.823186
2022-12-14 18:45:47.856236
2022-12-14 18:45:47.856555
2022-12-14 18:45:47.857293
2022-12-14 18:45:47.889802
2022-12-14 18:45:47.890099
2022-12-14 18:45:47.890099
2022-12-14 18:45:47.923426
2022-12-14 18:45:47.923798
2022-12-14 18:45:47.956819
2022-12-14 18:45:47.957087
2022-12-14 18:45:47.957654
2022-12-14 18:45:47.990269
2022-12-14 18:45:47.990611
2022-12-14 18:45:47.991083
2022-12-14 18:45:48.023425
2022-12-14 18:45:48.023994
2022-12-14 18:45:48.056360
2022-12-14 18:45:48.057347
2022-12-14 18:45:48.057347
2022-12-14 18:45:48.090901
2022-12-14 18:45:48.091193
2022-12-14 18:45:48.091193
2022-12-14 18:45:48.124428
2022-12-14 18:45:48.124816
2022-12-14 18:45:48.157923
2022-12-14 18:45:48.158208
2022-12-14 18:45:48.158208
2022-12-14 18:45:48.191396
2022-12-14 18:45:48.191686
2022-12-14 18:45:48.192243
2022-12-14 18:45:48.224951
2022-12-14 18:45:48.225338
2022-12-14 18:45:48.258462
2022-12-14 18:45:48.258700
2022-12-14 18:45:48.259165
2022-12-14 18:45:48.291981
2022-12-14 18:45:48.291981
2022-12-14 18:45:48.293008
2022-12-14 18:45:48.325572
2022-12-14 18:45:48.325572
2022-12-14 18:45:48.359063
2022-12-14 18:45:48.359301
2022-12-14 18:45:48.359917
2022-12-14 18:45:48.392643
2022-12-14 18:45:48.392934
2022-12-14 18:45:48.392934
2022-12-14 18:45:48.426176
2022-12-14 18:45:48.426522
2022-12-14 18:45:48.459744
2022-12-14 18:45:48.459981
2022-12-14 18:45:48.460592
2022-12-14 18:45:48.493249
2022-12-14 18:45:48.493541
2022-12-14 18:45:48.494017
2022-12-14 18:45:48.526797
2022-12-14 18:45:48.527140
2022-12-14 18:45:48.560363
2022-12-14 18:45:48.560601
2022-12-14 18:45:48.560601
2022-12-14 18:45:48.593779
2022-12-14 18:45:48.594468
2022-12-14 18:45:48.594468
2022-12-14 18:45:48.627046
2022-12-14 18:45:48.627046
2022-12-14 18:45:48.660996
2022-12-14 18:45:48.661233
2022-12-14 18:45:48.661233
2022-12-14 18:45:48.694692
2022-12-14 18:45:48.695020
2022-12-14 18:45:48.695630
2022-12-14 18:45:48.727996
2022-12-14 18:45:48.728341
2022-12-14 18:45:48.761749
2022-12-14 18:45:48.762027
2022-12-14 18:45:48.762494
2022-12-14 18:45:48.795216
2022-12-14 18:45:48.795513
2022-12-14 18:45:48.795513
2022-12-14 18:45:48.828714
2022-12-14 18:45:48.828714
2022-12-14 18:45:48.862179
2022-12-14 18:45:48.862777
2022-12-14 18:45:48.862777
2022-12-14 18:45:48.894973
2022-12-14 18:45:48.894973
2022-12-14 18:45:48.895976
2022-12-14 18:45:48.928100
2022-12-14 18:45:48.929097
2022-12-14 18:45:48.962810
2022-12-14 18:45:48.963076
2022-12-14 18:45:48.964079
2022-12-14 18:45:48.996318
2022-12-14 18:45:48.996613
2022-12-14 18:45:48.997138
2022-12-14 18:45:49.029858
2022-12-14 18:45:49.030229
2022-12-14 18:45:49.063572
2022-12-14 18:45:49.063837
2022-12-14 18:45:49.064407
2022-12-14 18:45:49.097067
2022-12-14 18:45:49.097389
2022-12-14 18:45:49.097389
2022-12-14 18:45:49.130496
2022-12-14 18:45:49.130900
2022-12-14 18:45:49.162708
2022-12-14 18:45:49.163717
2022-12-14 18:45:49.163717
2022-12-14 18:45:49.197388
2022-12-14 18:45:49.197388
2022-12-14 18:45:49.198340
2022-12-14 18:45:49.231102
2022-12-14 18:45:49.231445
2022-12-14 18:45:49.264675
2022-12-14 18:45:49.264913
2022-12-14 18:45:49.265521
2022-12-14 18:45:49.298071
2022-12-14 18:45:49.298071
2022-12-14 18:45:49.299017
2022-12-14 18:45:49.331606
2022-12-14 18:45:49.331995
2022-12-14 18:45:49.365033
2022-12-14 18:45:49.365033
2022-12-14 18:45:49.365841
2022-12-14 18:45:49.398180
2022-12-14 18:45:49.399220
2022-12-14 18:45:49.399220
2022-12-14 18:45:49.431575
2022-12-14 18:45:49.431575
2022-12-14 18:45:49.465551
2022-12-14 18:45:49.465789
2022-12-14 18:45:49.465789
2022-12-14 18:45:49.498124
2022-12-14 18:45:49.499074
2022-12-14 18:45:49.499074
2022-12-14 18:45:49.532825
2022-12-14 18:45:49.533175
2022-12-14 18:45:49.566319
2022-12-14 18:45:49.566555
2022-12-14 18:45:49.567019
2022-12-14 18:45:49.599866
2022-12-14 18:45:49.600204
2022-12-14 18:45:49.600875
2022-12-14 18:45:49.633493
2022-12-14 18:45:49.634041
2022-12-14 18:45:49.665664
2022-12-14 18:45:49.666672
2022-12-14 18:45:49.666672
2022-12-14 18:45:49.700412
2022-12-14 18:45:49.700702
2022-12-14 18:45:49.700702
2022-12-14 18:45:49.734039
2022-12-14 18:45:49.734383
2022-12-14 18:45:49.767633
2022-12-14 18:45:49.767873
2022-12-14 18:45:49.767873
2022-12-14 18:45:49.801208
2022-12-14 18:45:49.801498
2022-12-14 18:45:49.801498
2022-12-14 18:45:49.834648
2022-12-14 18:45:49.835414
2022-12-14 18:45:49.868019
2022-12-14 18:45:49.868019
2022-12-14 18:45:49.869020
2022-12-14 18:45:49.901802
2022-12-14 18:45:49.901802
2022-12-14 18:45:49.902805
2022-12-14 18:45:49.934752
2022-12-14 18:45:49.934752
2022-12-14 18:45:49.968555
2022-12-14 18:45:49.969488
2022-12-14 18:45:49.969755
2022-12-14 18:45:50.002213
2022-12-14 18:45:50.002974
2022-12-14 18:45:50.002974
2022-12-14 18:45:50.035548
2022-12-14 18:45:50.035548
2022-12-14 18:45:50.069352
2022-12-14 18:45:50.069352
2022-12-14 18:45:50.070360
2022-12-14 18:45:50.102948
2022-12-14 18:45:50.102948
2022-12-14 18:45:50.103950
2022-12-14 18:45:50.135769
2022-12-14 18:45:50.135769
2022-12-14 18:45:50.168961
2022-12-14 18:45:50.169968
2022-12-14 18:45:50.169968
2022-12-14 18:45:50.202362
2022-12-14 18:45:50.203065
2022-12-14 18:45:50.203065
2022-12-14 18:45:50.236828
2022-12-14 18:45:50.236828
2022-12-14 18:45:50.269827
2022-12-14 18:45:50.270857
2022-12-14 18:45:50.271043
2022-12-14 18:45:50.303465
2022-12-14 18:45:50.303465
2022-12-14 18:45:50.304475
2022-12-14 18:45:50.336838
2022-12-14 18:45:50.337318
2022-12-14 18:45:50.370997
2022-12-14 18:45:50.371264
2022-12-14 18:45:50.371959
2022-12-14 18:45:50.404381
2022-12-14 18:45:50.405184
2022-12-14 18:45:50.405184
2022-12-14 18:45:50.437372
2022-12-14 18:45:50.438368
2022-12-14 18:45:50.471717
2022-12-14 18:45:50.471996
2022-12-14 18:45:50.471996
2022-12-14 18:45:50.505134
2022-12-14 18:45:50.505134
2022-12-14 18:45:50.506088
2022-12-14 18:45:50.538641
2022-12-14 18:45:50.538984
2022-12-14 18:45:50.572244
2022-12-14 18:45:50.572535
2022-12-14 18:45:50.573149
2022-12-14 18:45:50.605715
2022-12-14 18:45:50.606043
2022-12-14 18:45:50.606598
2022-12-14 18:45:50.639239
2022-12-14 18:45:50.639693
2022-12-14 18:45:50.672761
2022-12-14 18:45:50.672999
2022-12-14 18:45:50.673474
2022-12-14 18:45:50.706393
2022-12-14 18:45:50.707401
2022-12-14 18:45:50.707401
2022-12-14 18:45:50.739460
2022-12-14 18:45:50.739460
2022-12-14 18:45:50.773514
2022-12-14 18:45:50.773757
2022-12-14 18:45:50.774759
2022-12-14 18:45:50.806876
2022-12-14 18:45:50.807168
2022-12-14 18:45:50.807168
2022-12-14 18:45:50.840461
2022-12-14 18:45:50.840902
2022-12-14 18:45:50.873996
2022-12-14 18:45:50.874333
2022-12-14 18:45:50.874845
2022-12-14 18:45:50.907602
2022-12-14 18:45:50.907928
2022-12-14 18:45:50.908608
2022-12-14 18:45:50.941105
2022-12-14 18:45:50.941105
2022-12-14 18:45:50.974138
2022-12-14 18:45:50.974138
2022-12-14 18:45:50.975134
2022-12-14 18:45:51.007454
2022-12-14 18:45:51.007454
2022-12-14 18:45:51.008454
2022-12-14 18:45:51.041177
2022-12-14 18:45:51.041569
2022-12-14 18:45:51.074681
2022-12-14 18:45:51.074920
2022-12-14 18:45:51.074920
2022-12-14 18:45:51.108691
2022-12-14 18:45:51.109013
2022-12-14 18:45:51.110015
2022-12-14 18:45:51.142315
2022-12-14 18:45:51.142704
2022-12-14 18:45:51.175642
2022-12-14 18:45:51.175880
2022-12-14 18:45:51.176356
2022-12-14 18:45:51.209263
2022-12-14 18:45:51.209604
2022-12-14 18:45:51.209604
2022-12-14 18:45:51.242789
2022-12-14 18:45:51.243169
2022-12-14 18:45:51.276297
2022-12-14 18:45:51.276297
2022-12-14 18:45:51.277300
2022-12-14 18:45:51.308559
2022-12-14 18:45:51.309561
2022-12-14 18:45:51.310171
2022-12-14 18:45:51.343445
2022-12-14 18:45:51.343787
2022-12-14 18:45:51.376932
2022-12-14 18:45:51.377171
2022-12-14 18:45:51.378173
2022-12-14 18:45:51.410326
2022-12-14 18:45:51.410326
2022-12-14 18:45:51.411278
2022-12-14 18:45:51.443930
2022-12-14 18:45:51.444276
2022-12-14 18:45:51.477567
2022-12-14 18:45:51.477839
2022-12-14 18:45:51.478364
2022-12-14 18:45:51.511020
2022-12-14 18:45:51.511312
2022-12-14 18:45:51.511918
2022-12-14 18:45:51.544656
2022-12-14 18:45:51.545031
2022-12-14 18:45:51.577953
2022-12-14 18:45:51.578984
2022-12-14 18:45:51.578984
2022-12-14 18:45:51.611226
2022-12-14 18:45:51.611492
2022-12-14 18:45:51.611894
2022-12-14 18:45:51.645168
2022-12-14 18:45:51.645513
2022-12-14 18:45:51.678724
2022-12-14 18:45:51.678962
2022-12-14 18:45:51.678962
2022-12-14 18:45:51.712224
2022-12-14 18:45:51.712516
2022-12-14 18:45:51.712516
2022-12-14 18:45:51.745815
2022-12-14 18:45:51.746188
2022-12-14 18:45:51.779368
2022-12-14 18:45:51.779368
2022-12-14 18:45:51.780270
2022-12-14 18:45:51.812814
2022-12-14 18:45:51.812814
2022-12-14 18:45:51.813815
2022-12-14 18:45:51.846586
2022-12-14 18:45:51.846586
2022-12-14 18:45:51.879382
2022-12-14 18:45:51.879382
2022-12-14 18:45:51.880246
2022-12-14 18:45:51.913436
2022-12-14 18:45:51.913725
2022-12-14 18:45:51.913725
2022-12-14 18:45:51.947098
2022-12-14 18:45:51.947440
2022-12-14 18:45:51.980545
2022-12-14 18:45:51.980785
2022-12-14 18:45:51.980785
2022-12-14 18:45:52.014081
2022-12-14 18:45:52.014376
2022-12-14 18:45:52.014844
2022-12-14 18:45:52.047713
2022-12-14 18:45:52.048057
2022-12-14 18:45:52.081159
2022-12-14 18:45:52.081428
2022-12-14 18:45:52.081428
2022-12-14 18:45:52.114662
2022-12-14 18:45:52.115346
2022-12-14 18:45:52.115346
2022-12-14 18:45:52.147261
2022-12-14 18:45:52.148269
2022-12-14 18:45:52.181570
2022-12-14 18:45:52.181844
2022-12-14 18:45:52.181844
2022-12-14 18:45:52.215352
2022-12-14 18:45:52.215676
2022-12-14 18:45:52.216283
2022-12-14 18:45:52.248827
2022-12-14 18:45:52.249208
2022-12-14 18:45:52.282478
2022-12-14 18:45:52.282744
2022-12-14 18:45:52.283359
2022-12-14 18:45:52.315873
2022-12-14 18:45:52.316202
2022-12-14 18:45:52.316202
2022-12-14 18:45:52.349436
2022-12-14 18:45:52.349436
2022-12-14 18:45:52.382432
2022-12-14 18:45:52.382432
2022-12-14 18:45:52.383434
2022-12-14 18:45:52.415946
2022-12-14 18:45:52.415946
2022-12-14 18:45:52.416941
2022-12-14 18:45:52.449554
2022-12-14 18:45:52.449554
2022-12-14 18:45:52.482854
2022-12-14 18:45:52.482854
2022-12-14 18:45:52.483883
2022-12-14 18:45:52.517125
2022-12-14 18:45:52.517415
2022-12-14 18:45:52.517943
2022-12-14 18:45:52.550638
2022-12-14 18:45:52.551029
2022-12-14 18:45:52.584240
2022-12-14 18:45:52.584479
2022-12-14 18:45:52.585009
2022-12-14 18:45:52.617716
2022-12-14 18:45:52.618564
2022-12-14 18:45:52.618564
2022-12-14 18:45:52.650490
2022-12-14 18:45:52.651499
2022-12-14 18:45:52.683752
2022-12-14 18:45:52.683752
2022-12-14 18:45:52.684848
2022-12-14 18:45:52.718244
2022-12-14 18:45:52.718535
2022-12-14 18:45:52.718535
2022-12-14 18:45:52.751737
2022-12-14 18:45:52.752080
2022-12-14 18:45:52.785446
2022-12-14 18:45:52.785727
2022-12-14 18:45:52.785727
2022-12-14 18:45:52.818876
2022-12-14 18:45:52.819200
2022-12-14 18:45:52.819200
2022-12-14 18:45:52.852382
2022-12-14 18:45:52.852953
2022-12-14 18:45:52.885777
2022-12-14 18:45:52.886345
2022-12-14 18:45:52.886345
2022-12-14 18:45:52.918277
2022-12-14 18:45:52.919285
2022-12-14 18:45:52.919285
2022-12-14 18:45:52.952437
2022-12-14 18:45:52.952437
2022-12-14 18:45:52.985932
2022-12-14 18:45:52.985932
2022-12-14 18:45:52.986930
2022-12-14 18:45:53.019845
2022-12-14 18:45:53.020249
2022-12-14 18:45:53.021264
2022-12-14 18:45:53.053702
2022-12-14 18:45:53.053702
2022-12-14 18:45:53.087129
2022-12-14 18:45:53.087351
2022-12-14 18:45:53.087867
2022-12-14 18:45:53.120407
2022-12-14 18:45:53.120806
2022-12-14 18:45:53.120806
2022-12-14 18:45:53.154033
2022-12-14 18:45:53.154033
2022-12-14 18:45:53.186984
2022-12-14 18:45:53.186984
2022-12-14 18:45:53.187978
2022-12-14 18:45:53.220790
2022-12-14 18:45:53.221127
2022-12-14 18:45:53.221127
2022-12-14 18:45:53.254511
2022-12-14 18:45:53.254511
2022-12-14 18:45:53.288084
2022-12-14 18:45:53.288348
2022-12-14 18:45:53.289030
2022-12-14 18:45:53.321261
2022-12-14 18:45:53.321553
2022-12-14 18:45:53.322010
2022-12-14 18:45:53.355193
2022-12-14 18:45:53.355567
2022-12-14 18:45:53.388507
2022-12-14 18:45:53.389184
2022-12-14 18:45:53.389184
2022-12-14 18:45:53.421749
2022-12-14 18:45:53.422200
2022-12-14 18:45:53.423202
2022-12-14 18:45:53.455832
2022-12-14 18:45:53.456206
2022-12-14 18:45:53.489283
2022-12-14 18:45:53.489563
2022-12-14 18:45:53.489563
2022-12-14 18:45:53.522835
2022-12-14 18:45:53.523126
2022-12-14 18:45:53.523735
2022-12-14 18:45:53.556422
2022-12-14 18:45:53.556793
2022-12-14 18:45:53.589962
2022-12-14 18:45:53.590234
2022-12-14 18:45:53.590759
2022-12-14 18:45:53.623510
2022-12-14 18:45:53.623833
2022-12-14 18:45:53.624835
2022-12-14 18:45:53.656895
2022-12-14 18:45:53.657362
2022-12-14 18:45:53.689205
2022-12-14 18:45:53.690199
2022-12-14 18:45:53.690199
2022-12-14 18:45:53.724066
2022-12-14 18:45:53.724392
2022-12-14 18:45:53.724392
2022-12-14 18:45:53.757564
2022-12-14 18:45:53.757958
2022-12-14 18:45:53.791211
2022-12-14 18:45:53.791496
2022-12-14 18:45:53.792498
2022-12-14 18:45:53.824620
2022-12-14 18:45:53.824912
2022-12-14 18:45:53.825444
2022-12-14 18:45:53.858180
2022-12-14 18:45:53.858553
2022-12-14 18:45:53.891748
2022-12-14 18:45:53.892078
2022-12-14 18:45:53.892654
2022-12-14 18:45:53.925115
2022-12-14 18:45:53.926118
2022-12-14 18:45:53.926118
2022-12-14 18:45:53.958833
2022-12-14 18:45:53.958833
2022-12-14 18:45:53.992390
2022-12-14 18:45:53.992636
2022-12-14 18:45:53.992636
2022-12-14 18:45:54.025436
2022-12-14 18:45:54.025436
2022-12-14 18:45:54.026433
2022-12-14 18:45:54.059172
2022-12-14 18:45:54.059522
2022-12-14 18:45:54.092616
2022-12-14 18:45:54.092884
2022-12-14 18:45:54.093503
2022-12-14 18:45:54.125988
2022-12-14 18:45:54.126280
2022-12-14 18:45:54.126280
2022-12-14 18:45:54.160018
2022-12-14 18:45:54.160018
2022-12-14 18:45:54.193487
2022-12-14 18:45:54.193487
2022-12-14 18:45:54.194484
2022-12-14 18:45:54.225786
2022-12-14 18:45:54.226780
2022-12-14 18:45:54.226780
2022-12-14 18:45:54.260173
2022-12-14 18:45:54.260599
2022-12-14 18:45:54.293375
2022-12-14 18:45:54.293375
2022-12-14 18:45:54.294340
2022-12-14 18:45:54.327690
2022-12-14 18:45:54.328014
2022-12-14 18:45:54.328742
2022-12-14 18:45:54.361176
2022-12-14 18:45:54.361530
2022-12-14 18:45:54.394590
2022-12-14 18:45:54.394874
2022-12-14 18:45:54.395601
2022-12-14 18:45:54.428222
2022-12-14 18:45:54.428539
2022-12-14 18:45:54.428539
2022-12-14 18:45:54.461552
2022-12-14 18:45:54.462324
2022-12-14 18:45:54.494807
2022-12-14 18:45:54.494807
2022-12-14 18:45:54.494807
2022-12-14 18:45:54.528727
2022-12-14 18:45:54.529018
2022-12-14 18:45:54.529626
2022-12-14 18:45:54.562317
2022-12-14 18:45:54.562671
2022-12-14 18:45:54.596005
2022-12-14 18:45:54.596286
2022-12-14 18:45:54.596900
2022-12-14 18:45:54.629570
2022-12-14 18:45:54.629862
2022-12-14 18:45:54.630409
2022-12-14 18:45:54.663090
2022-12-14 18:45:54.663471
2022-12-14 18:45:54.696569
2022-12-14 18:45:54.696569
2022-12-14 18:45:54.697570
2022-12-14 18:45:54.729970
2022-12-14 18:45:54.729970
2022-12-14 18:45:54.730991
2022-12-14 18:45:54.762453
2022-12-14 18:45:54.763318
2022-12-14 18:45:54.797022
2022-12-14 18:45:54.797290
2022-12-14 18:45:54.798293
2022-12-14 18:45:54.830713
2022-12-14 18:45:54.831004
2022-12-14 18:45:54.831004
2022-12-14 18:45:54.864079
2022-12-14 18:45:54.864424
2022-12-14 18:45:54.897794
2022-12-14 18:45:54.898058
2022-12-14 18:45:54.898560
2022-12-14 18:45:54.931365
2022-12-14 18:45:54.931689
2022-12-14 18:45:54.932691
2022-12-14 18:45:54.964797
2022-12-14 18:45:54.964797
2022-12-14 18:45:54.998256
2022-12-14 18:45:54.998819
2022-12-14 18:45:54.998819
2022-12-14 18:45:55.030616
2022-12-14 18:45:55.031616
2022-12-14 18:45:55.031616
2022-12-14 18:45:55.065295
2022-12-14 18:45:55.065691
2022-12-14 18:45:55.098680
2022-12-14 18:45:55.099195
2022-12-14 18:45:55.099778
2022-12-14 18:45:55.132391
2022-12-14 18:45:55.132391
2022-12-14 18:45:55.133392
2022-12-14 18:45:55.165719
2022-12-14 18:45:55.165719
2022-12-14 18:45:55.198998
2022-12-14 18:45:55.198998
2022-12-14 18:45:55.200000
2022-12-14 18:45:55.232418
2022-12-14 18:45:55.232740
2022-12-14 18:45:55.232740
2022-12-14 18:45:55.266454
2022-12-14 18:45:55.266801
2022-12-14 18:45:55.299793
2022-12-14 18:45:55.299793
2022-12-14 18:45:55.300795
2022-12-14 18:45:55.332567
2022-12-14 18:45:55.333572
2022-12-14 18:45:55.333572
2022-12-14 18:45:55.366919
2022-12-14 18:45:55.367265
2022-12-14 18:45:55.400504
2022-12-14 18:45:55.400742
2022-12-14 18:45:55.400742
2022-12-14 18:45:55.434063
2022-12-14 18:45:55.434360
2022-12-14 18:45:55.434965
2022-12-14 18:45:55.467544
2022-12-14 18:45:55.467890
2022-12-14 18:45:55.501111
2022-12-14 18:45:55.501399
2022-12-14 18:45:55.502085
2022-12-14 18:45:55.534536
2022-12-14 18:45:55.534536
2022-12-14 18:45:55.535538
2022-12-14 18:45:55.567752
2022-12-14 18:45:55.568755
2022-12-14 18:45:55.601700
2022-12-14 18:45:55.601939
2022-12-14 18:45:55.601939
2022-12-14 18:45:55.635283
2022-12-14 18:45:55.635576
2022-12-14 18:45:55.635576
2022-12-14 18:45:55.668758
2022-12-14 18:45:55.668758
2022-12-14 18:45:55.702343
2022-12-14 18:45:55.702581
2022-12-14 18:45:55.703108
2022-12-14 18:45:55.735966
2022-12-14 18:45:55.735966
2022-12-14 18:45:55.736967
2022-12-14 18:45:55.769318
2022-12-14 18:45:55.770181
2022-12-14 18:45:55.801888
2022-12-14 18:45:55.802896
2022-12-14 18:45:55.802896
2022-12-14 18:45:55.836372
2022-12-14 18:45:55.836661
2022-12-14 18:45:55.836661
2022-12-14 18:45:55.870007
2022-12-14 18:45:55.870007
2022-12-14 18:45:55.903458
2022-12-14 18:45:55.903870
2022-12-14 18:45:55.903870
2022-12-14 18:45:55.936995
2022-12-14 18:45:55.937415
2022-12-14 18:45:55.938072
2022-12-14 18:45:55.970520
2022-12-14 18:45:55.970979
2022-12-14 18:45:56.004181
2022-12-14 18:45:56.004561
2022-12-14 18:45:56.004561
2022-12-14 18:45:56.037043
2022-12-14 18:45:56.038081
2022-12-14 18:45:56.038081
2022-12-14 18:45:56.070326
2022-12-14 18:45:56.071279
2022-12-14 18:45:56.104698
2022-12-14 18:45:56.104698
2022-12-14 18:45:56.105707
2022-12-14 18:45:56.138119
2022-12-14 18:45:56.138502
2022-12-14 18:45:56.138502
2022-12-14 18:45:56.171352
2022-12-14 18:45:56.171698
2022-12-14 18:45:56.205227
2022-12-14 18:45:56.205227
2022-12-14 18:45:56.206234
2022-12-14 18:45:56.238306
2022-12-14 18:45:56.238907
2022-12-14 18:45:56.239497
2022-12-14 18:45:56.271387
2022-12-14 18:45:56.272394
2022-12-14 18:45:56.306001
2022-12-14 18:45:56.306277
2022-12-14 18:45:56.306277
2022-12-14 18:45:56.339575
2022-12-14 18:45:56.339575
2022-12-14 18:45:56.340320
2022-12-14 18:45:56.373037
2022-12-14 18:45:56.373386
2022-12-14 18:45:56.406369
2022-12-14 18:45:56.406654
2022-12-14 18:45:56.406654
2022-12-14 18:45:56.440066
2022-12-14 18:45:56.440357
2022-12-14 18:45:56.440915
2022-12-14 18:45:56.473551
2022-12-14 18:45:56.473899
2022-12-14 18:45:56.507026
2022-12-14 18:45:56.507461
2022-12-14 18:45:56.507461
2022-12-14 18:45:56.539492
2022-12-14 18:45:56.540402
2022-12-14 18:45:56.540402
2022-12-14 18:45:56.574183
2022-12-14 18:45:56.574528
2022-12-14 18:45:56.607660
2022-12-14 18:45:56.607903
2022-12-14 18:45:56.608469
2022-12-14 18:45:56.641094
2022-12-14 18:45:56.641094
2022-12-14 18:45:56.642044
2022-12-14 18:45:56.674755
2022-12-14 18:45:56.675131
2022-12-14 18:45:56.708347
2022-12-14 18:45:56.708601
2022-12-14 18:45:56.709264
2022-12-14 18:45:56.741684
2022-12-14 18:45:56.742123
2022-12-14 18:45:56.742123
2022-12-14 18:45:56.775424
2022-12-14 18:45:56.775794
2022-12-14 18:45:56.808794
2022-12-14 18:45:56.808794
2022-12-14 18:45:56.809705
2022-12-14 18:45:56.842423
2022-12-14 18:45:56.842759
2022-12-14 18:45:56.843761
2022-12-14 18:45:56.875800
2022-12-14 18:45:56.876704
2022-12-14 18:45:56.908798
2022-12-14 18:45:56.908798
2022-12-14 18:45:56.909799
2022-12-14 18:45:56.943062
2022-12-14 18:45:56.943397
2022-12-14 18:45:56.943397
2022-12-14 18:45:56.976611
2022-12-14 18:45:56.976986
2022-12-14 18:45:57.010099
2022-12-14 18:45:57.010370
2022-12-14 18:45:57.011372
2022-12-14 18:45:57.043632
2022-12-14 18:45:57.043961
2022-12-14 18:45:57.044963
2022-12-14 18:45:57.077019
2022-12-14 18:45:57.077375
2022-12-14 18:45:57.110420
2022-12-14 18:45:57.110692
2022-12-14 18:45:57.111366
2022-12-14 18:45:57.143749
2022-12-14 18:45:57.144100
2022-12-14 18:45:57.144100
2022-12-14 18:45:57.177329
2022-12-14 18:45:57.177329
2022-12-14 18:45:57.210472
2022-12-14 18:45:57.211474
2022-12-14 18:45:57.211474
2022-12-14 18:45:57.244699
2022-12-14 18:45:57.245017
2022-12-14 18:45:57.245692
2022-12-14 18:45:57.278312
2022-12-14 18:45:57.278312
2022-12-14 18:45:57.311795
2022-12-14 18:45:57.312063
2022-12-14 18:45:57.313065
2022-12-14 18:45:57.345402
2022-12-14 18:45:57.345693
2022-12-14 18:45:57.346215
2022-12-14 18:45:57.378988
2022-12-14 18:45:57.379360
2022-12-14 18:45:57.412384
2022-12-14 18:45:57.413132
2022-12-14 18:45:57.413132
2022-12-14 18:45:57.445903
2022-12-14 18:45:57.446224
2022-12-14 18:45:57.447225
2022-12-14 18:45:57.479305
2022-12-14 18:45:57.480101
2022-12-14 18:45:57.512262
2022-12-14 18:45:57.512262
2022-12-14 18:45:57.513276
2022-12-14 18:45:57.546611
2022-12-14 18:45:57.546908
2022-12-14 18:45:57.547515
2022-12-14 18:45:57.580056
2022-12-14 18:45:57.580403
2022-12-14 18:45:57.613757
2022-12-14 18:45:57.614024
2022-12-14 18:45:57.614622
2022-12-14 18:45:57.647289
2022-12-14 18:45:57.647609
2022-12-14 18:45:57.648302
2022-12-14 18:45:57.680772
2022-12-14 18:45:57.681146
2022-12-14 18:45:57.714232
2022-12-14 18:45:57.714515
2022-12-14 18:45:57.715518
2022-12-14 18:45:57.747025
2022-12-14 18:45:57.748021
2022-12-14 18:45:57.748177
2022-12-14 18:45:57.781331
2022-12-14 18:45:57.781701
2022-12-14 18:45:57.814788
2022-12-14 18:45:57.815026
2022-12-14 18:45:57.815632
2022-12-14 18:45:57.848424
2022-12-14 18:45:57.848717
2022-12-14 18:45:57.848717
2022-12-14 18:45:57.881874
2022-12-14 18:45:57.882269
2022-12-14 18:45:57.915406
2022-12-14 18:45:57.915673
2022-12-14 18:45:57.916250
2022-12-14 18:45:57.948943
2022-12-14 18:45:57.949280
2022-12-14 18:45:57.949280
2022-12-14 18:45:57.982366
2022-12-14 18:45:57.982366
2022-12-14 18:45:58.015072
2022-12-14 18:45:58.016080
2022-12-14 18:45:58.016080
2022-12-14 18:45:58.049432
2022-12-14 18:45:58.049725
2022-12-14 18:45:58.050332
2022-12-14 18:45:58.082681
2022-12-14 18:45:58.083015
2022-12-14 18:45:58.116636
2022-12-14 18:45:58.116876
2022-12-14 18:45:58.116876
2022-12-14 18:45:58.150155
2022-12-14 18:45:58.150449
2022-12-14 18:45:58.150923
2022-12-14 18:45:58.183830
2022-12-14 18:45:58.184212
2022-12-14 18:45:58.217261
2022-12-14 18:45:58.217707
2022-12-14 18:45:58.218709
2022-12-14 18:45:58.250028
2022-12-14 18:45:58.250028
2022-12-14 18:45:58.251029
2022-12-14 18:45:58.284285
2022-12-14 18:45:58.284671
2022-12-14 18:45:58.317748
2022-12-14 18:45:58.318016
2022-12-14 18:45:58.318698
2022-12-14 18:45:58.351281
2022-12-14 18:45:58.351572
2022-12-14 18:45:58.351572
2022-12-14 18:45:58.384997
2022-12-14 18:45:58.385390
2022-12-14 18:45:58.418398
2022-12-14 18:45:58.418672
2022-12-14 18:45:58.419288
2022-12-14 18:45:58.451965
2022-12-14 18:45:58.451965
2022-12-14 18:45:58.452966
2022-12-14 18:45:58.485490
2022-12-14 18:45:58.486494
2022-12-14 18:45:58.518380
2022-12-14 18:45:58.518380
2022-12-14 18:45:58.519338
2022-12-14 18:45:58.552302
2022-12-14 18:45:58.552596
2022-12-14 18:45:58.553598
2022-12-14 18:45:58.585980
2022-12-14 18:45:58.586324
2022-12-14 18:45:58.619546
2022-12-14 18:45:58.619785
2022-12-14 18:45:58.620394
2022-12-14 18:45:58.653094
2022-12-14 18:45:58.653383
2022-12-14 18:45:58.653850
2022-12-14 18:45:58.686793
2022-12-14 18:45:58.687137
2022-12-14 18:45:58.718862
2022-12-14 18:45:58.719859
2022-12-14 18:45:58.719859
2022-12-14 18:45:58.752865
2022-12-14 18:45:58.752865
2022-12-14 18:45:58.753862
2022-12-14 18:45:58.786103
2022-12-14 18:45:58.787110
2022-12-14 18:45:58.820482
2022-12-14 18:45:58.820749
2022-12-14 18:45:58.821751
2022-12-14 18:45:58.854409
2022-12-14 18:45:58.854409
2022-12-14 18:45:58.855410
2022-12-14 18:45:58.887701
2022-12-14 18:45:58.888343
2022-12-14 18:45:58.921421
2022-12-14 18:45:58.921951
2022-12-14 18:45:58.921951
2022-12-14 18:45:58.954895
2022-12-14 18:45:58.955568
2022-12-14 18:45:58.955568
2022-12-14 18:45:58.988345
2022-12-14 18:45:58.989136
2022-12-14 18:45:59.021507
2022-12-14 18:45:59.022544
2022-12-14 18:45:59.022544
2022-12-14 18:45:59.055193
2022-12-14 18:45:59.055874
2022-12-14 18:45:59.055874
2022-12-14 18:45:59.088267
2022-12-14 18:45:59.089219
2022-12-14 18:45:59.122013
2022-12-14 18:45:59.122319
2022-12-14 18:45:59.122319
2022-12-14 18:45:59.156024
2022-12-14 18:45:59.156416
2022-12-14 18:45:59.157417
2022-12-14 18:45:59.189138
2022-12-14 18:45:59.189564
2022-12-14 18:45:59.222739
2022-12-14 18:45:59.223005
2022-12-14 18:45:59.223686
2022-12-14 18:45:59.256504
2022-12-14 18:45:59.256504
2022-12-14 18:45:59.257515
2022-12-14 18:45:59.289269
2022-12-14 18:45:59.290279
2022-12-14 18:45:59.323193
2022-12-14 18:45:59.323507
2022-12-14 18:45:59.323507
2022-12-14 18:45:59.357222
2022-12-14 18:45:59.357515
2022-12-14 18:45:59.357515
2022-12-14 18:45:59.390616
2022-12-14 18:45:59.390962
2022-12-14 18:45:59.424332
2022-12-14 18:45:59.424614
2022-12-14 18:45:59.424614
2022-12-14 18:45:59.457674
2022-12-14 18:45:59.457969
2022-12-14 18:45:59.458523
2022-12-14 18:45:59.491395
2022-12-14 18:45:59.491771
2022-12-14 18:45:59.524798
2022-12-14 18:45:59.524798
2022-12-14 18:45:59.525731
2022-12-14 18:45:59.557888
2022-12-14 18:45:59.557888
2022-12-14 18:45:59.558887
2022-12-14 18:45:59.591934
2022-12-14 18:45:59.592284
2022-12-14 18:45:59.625467
2022-12-14 18:45:59.625706
2022-12-14 18:45:59.626320
2022-12-14 18:45:59.658361
2022-12-14 18:45:59.658361
2022-12-14 18:45:59.659362
2022-12-14 18:45:59.692663
2022-12-14 18:45:59.693049
2022-12-14 18:45:59.726039
2022-12-14 18:45:59.726420
2022-12-14 18:45:59.726420
2022-12-14 18:45:59.759701
2022-12-14 18:45:59.760050
2022-12-14 18:45:59.761052
2022-12-14 18:45:59.793070
2022-12-14 18:45:59.793070
2022-12-14 18:45:59.826588
2022-12-14 18:45:59.827621
2022-12-14 18:45:59.827621
2022-12-14 18:45:59.859705
2022-12-14 18:45:59.859705
2022-12-14 18:45:59.859705
2022-12-14 18:45:59.893656
2022-12-14 18:45:59.894028
2022-12-14 18:45:59.927229
2022-12-14 18:45:59.927563
2022-12-14 18:45:59.928566
2022-12-14 18:45:59.960723
2022-12-14 18:45:59.961124
2022-12-14 18:45:59.961124
2022-12-14 18:45:59.994182
2022-12-14 18:45:59.994182
2022-12-14 18:46:00.026991
2022-12-14 18:46:00.027945
2022-12-14 18:46:00.027945
2022-12-14 18:46:00.060926
2022-12-14 18:46:00.060926
2022-12-14 18:46:00.061955
2022-12-14 18:46:00.094518
2022-12-14 18:46:00.094518
2022-12-14 18:46:00.127809
2022-12-14 18:46:00.128631
2022-12-14 18:46:00.128631
2022-12-14 18:46:00.161307
2022-12-14 18:46:00.161307
2022-12-14 18:46:00.162211
2022-12-14 18:46:00.195412
2022-12-14 18:46:00.195412
2022-12-14 18:46:00.228987
2022-12-14 18:46:00.229223
2022-12-14 18:46:00.229835
2022-12-14 18:46:00.262566
2022-12-14 18:46:00.262885
2022-12-14 18:46:00.263895
2022-12-14 18:46:00.296124
2022-12-14 18:46:00.296498
2022-12-14 18:46:00.329550
2022-12-14 18:46:00.329550
2022-12-14 18:46:00.330371
2022-12-14 18:46:00.363175
2022-12-14 18:46:00.363495
2022-12-14 18:46:00.364177
2022-12-14 18:46:00.396405
2022-12-14 18:46:00.396782
2022-12-14 18:46:00.430098
2022-12-14 18:46:00.430098
2022-12-14 18:46:00.431098
2022-12-14 18:46:00.463589
2022-12-14 18:46:00.464614
2022-12-14 18:46:00.464614
2022-12-14 18:46:00.496815
2022-12-14 18:46:00.497277
2022-12-14 18:46:00.530743
2022-12-14 18:46:00.530983
2022-12-14 18:46:00.531594
2022-12-14 18:46:00.564233
2022-12-14 18:46:00.564523
2022-12-14 18:46:00.564523
2022-12-14 18:46:00.597780
2022-12-14 18:46:00.598781
2022-12-14 18:46:00.631443
2022-12-14 18:46:00.631680
2022-12-14 18:46:00.632237
2022-12-14 18:46:00.665029
2022-12-14 18:46:00.665346
2022-12-14 18:46:00.666019
2022-12-14 18:46:00.698583
2022-12-14 18:46:00.698583
2022-12-14 18:46:00.731966
2022-12-14 18:46:00.731966
2022-12-14 18:46:00.732968
2022-12-14 18:46:00.764965
2022-12-14 18:46:00.765972
2022-12-14 18:46:00.765972
2022-12-14 18:46:00.798430
2022-12-14 18:46:00.798894
2022-12-14 18:46:00.832647
2022-12-14 18:46:00.832886
2022-12-14 18:46:00.833888
2022-12-14 18:46:00.866120
2022-12-14 18:46:00.866418
2022-12-14 18:46:00.866418
2022-12-14 18:46:00.899672
2022-12-14 18:46:00.900016
2022-12-14 18:46:00.933133
2022-12-14 18:46:00.933431
2022-12-14 18:46:00.934112
2022-12-14 18:46:00.966716
2022-12-14 18:46:00.966716
2022-12-14 18:46:00.967725
2022-12-14 18:46:00.999351
2022-12-14 18:46:01.000359
2022-12-14 18:46:01.033219
2022-12-14 18:46:01.033437
2022-12-14 18:46:01.033437
2022-12-14 18:46:01.067378
2022-12-14 18:46:01.067669
2022-12-14 18:46:01.067669
2022-12-14 18:46:01.100711
2022-12-14 18:46:01.101182
2022-12-14 18:46:01.134401
2022-12-14 18:46:01.134642
2022-12-14 18:46:01.135209
2022-12-14 18:46:01.167891
2022-12-14 18:46:01.168229
2022-12-14 18:46:01.168229
2022-12-14 18:46:01.201290
2022-12-14 18:46:01.201290
2022-12-14 18:46:01.234510
2022-12-14 18:46:01.234510
2022-12-14 18:46:01.234510
2022-12-14 18:46:01.268335
2022-12-14 18:46:01.268631
2022-12-14 18:46:01.268631
2022-12-14 18:46:01.301607
2022-12-14 18:46:01.301607
2022-12-14 18:46:01.335451
2022-12-14 18:46:01.335451
2022-12-14 18:46:01.336358
2022-12-14 18:46:01.369014
2022-12-14 18:46:01.369014
2022-12-14 18:46:01.369831
2022-12-14 18:46:01.401942
2022-12-14 18:46:01.402447
2022-12-14 18:46:01.436013
2022-12-14 18:46:01.436606
2022-12-14 18:46:01.436606
2022-12-14 18:46:01.469338
2022-12-14 18:46:01.470347
2022-12-14 18:46:01.470347
2022-12-14 18:46:01.502675
2022-12-14 18:46:01.502675
2022-12-14 18:46:01.536645
2022-12-14 18:46:01.536919
2022-12-14 18:46:01.537534
2022-12-14 18:46:01.570245
2022-12-14 18:46:01.570537
2022-12-14 18:46:01.570537
2022-12-14 18:46:01.603707
2022-12-14 18:46:01.604052
2022-12-14 18:46:01.637482
2022-12-14 18:46:01.637720
2022-12-14 18:46:01.638278
2022-12-14 18:46:01.670859
2022-12-14 18:46:01.670859
2022-12-14 18:46:01.671891
2022-12-14 18:46:01.704178
2022-12-14 18:46:01.704178
2022-12-14 18:46:01.737154
2022-12-14 18:46:01.738167
2022-12-14 18:46:01.738167
2022-12-14 18:46:01.771268
2022-12-14 18:46:01.771560
2022-12-14 18:46:01.771560
2022-12-14 18:46:01.804583
2022-12-14 18:46:01.804971
2022-12-14 18:46:01.838417
2022-12-14 18:46:01.838417
2022-12-14 18:46:01.839423
2022-12-14 18:46:01.872083
2022-12-14 18:46:01.872083
2022-12-14 18:46:01.873084
2022-12-14 18:46:01.904997
2022-12-14 18:46:01.904997
2022-12-14 18:46:01.937908
2022-12-14 18:46:01.938906
2022-12-14 18:46:01.938906
2022-12-14 18:46:01.972340
2022-12-14 18:46:01.972340
2022-12-14 18:46:01.973341
2022-12-14 18:46:02.005738
2022-12-14 18:46:02.005738
2022-12-14 18:46:02.039384
2022-12-14 18:46:02.039906
2022-12-14 18:46:02.039906
2022-12-14 18:46:02.073375
2022-12-14 18:46:02.073690
2022-12-14 18:46:02.074329
2022-12-14 18:46:02.106141
2022-12-14 18:46:02.106804
2022-12-14 18:46:02.140356
2022-12-14 18:46:02.140356
2022-12-14 18:46:02.141364
2022-12-14 18:46:02.173650
2022-12-14 18:46:02.173650
2022-12-14 18:46:02.174659
2022-12-14 18:46:02.206529
2022-12-14 18:46:02.207178
2022-12-14 18:46:02.239978
2022-12-14 18:46:02.240521
2022-12-14 18:46:02.240521
2022-12-14 18:46:02.274202
2022-12-14 18:46:02.274843
2022-12-14 18:46:02.274843
2022-12-14 18:46:02.307349
2022-12-14 18:46:02.307935
2022-12-14 18:46:02.340868
2022-12-14 18:46:02.341470
2022-12-14 18:46:02.341470
2022-12-14 18:46:02.374966
2022-12-14 18:46:02.375256
2022-12-14 18:46:02.375860
2022-12-14 18:46:02.408498
2022-12-14 18:46:02.408845
2022-12-14 18:46:02.441833
2022-12-14 18:46:02.441833
2022-12-14 18:46:02.442847
2022-12-14 18:46:02.474785
2022-12-14 18:46:02.475798
2022-12-14 18:46:02.475982
2022-12-14 18:46:02.508621
2022-12-14 18:46:02.509049
2022-12-14 18:46:02.542604
2022-12-14 18:46:02.542604
2022-12-14 18:46:02.543605
2022-12-14 18:46:02.576148
2022-12-14 18:46:02.576441
2022-12-14 18:46:02.577048
2022-12-14 18:46:02.609726
2022-12-14 18:46:02.610111
2022-12-14 18:46:02.643334
2022-12-14 18:46:02.643626
2022-12-14 18:46:02.644098
2022-12-14 18:46:02.676637
2022-12-14 18:46:02.676637
2022-12-14 18:46:02.677589
2022-12-14 18:46:02.710068
2022-12-14 18:46:02.710068
2022-12-14 18:46:02.742773
2022-12-14 18:46:02.743766
2022-12-14 18:46:02.744038
2022-12-14 18:46:02.777444
2022-12-14 18:46:02.777781
2022-12-14 18:46:02.778783
2022-12-14 18:46:02.810819
2022-12-14 18:46:02.810819
2022-12-14 18:46:02.844368
2022-12-14 18:46:02.844610
2022-12-14 18:46:02.845225
2022-12-14 18:46:02.877772
2022-12-14 18:46:02.878123
2022-12-14 18:46:02.878123
2022-12-14 18:46:02.911527
2022-12-14 18:46:02.911897
2022-12-14 18:46:02.944934
2022-12-14 18:46:02.945217
2022-12-14 18:46:02.945948
2022-12-14 18:46:02.978515
2022-12-14 18:46:02.978929
2022-12-14 18:46:02.978929
2022-12-14 18:46:03.012372
2022-12-14 18:46:03.012372
2022-12-14 18:46:03.044598
2022-12-14 18:46:03.045605
2022-12-14 18:46:03.045605
2022-12-14 18:46:03.078961
2022-12-14 18:46:03.079962
2022-12-14 18:46:03.079962
2022-12-14 18:46:03.112631
2022-12-14 18:46:03.113008
2022-12-14 18:46:03.144839
2022-12-14 18:46:03.145792
2022-12-14 18:46:03.145792
2022-12-14 18:46:03.179433
2022-12-14 18:46:03.179770
2022-12-14 18:46:03.180372
2022-12-14 18:46:03.212710
2022-12-14 18:46:03.213058
2022-12-14 18:46:03.246725
2022-12-14 18:46:03.247007
2022-12-14 18:46:03.247007
2022-12-14 18:46:03.280201
2022-12-14 18:46:03.280201
2022-12-14 18:46:03.281203
2022-12-14 18:46:03.313441
2022-12-14 18:46:03.313441
2022-12-14 18:46:03.346889
2022-12-14 18:46:03.347108
2022-12-14 18:46:03.347511
2022-12-14 18:46:03.380761
2022-12-14 18:46:03.381053
2022-12-14 18:46:03.381053
2022-12-14 18:46:03.414297
2022-12-14 18:46:03.414643
2022-12-14 18:46:03.447810
2022-12-14 18:46:03.448049
2022-12-14 18:46:03.448663
2022-12-14 18:46:03.481382
2022-12-14 18:46:03.481677
2022-12-14 18:46:03.482145
2022-12-14 18:46:03.514900
2022-12-14 18:46:03.515294
2022-12-14 18:46:03.548303
2022-12-14 18:46:03.548303
2022-12-14 18:46:03.549140
2022-12-14 18:46:03.581473
2022-12-14 18:46:03.581473
2022-12-14 18:46:03.582468
2022-12-14 18:46:03.615543
2022-12-14 18:46:03.615887
2022-12-14 18:46:03.649001
2022-12-14 18:46:03.649001
2022-12-14 18:46:03.650002
2022-12-14 18:46:03.682750
2022-12-14 18:46:03.683070
2022-12-14 18:46:03.684072
2022-12-14 18:46:03.716329
2022-12-14 18:46:03.716714
2022-12-14 18:46:03.749774
2022-12-14 18:46:03.750056
2022-12-14 18:46:03.750056
2022-12-14 18:46:03.783389
2022-12-14 18:46:03.783389
2022-12-14 18:46:03.784390
2022-12-14 18:46:03.816609
2022-12-14 18:46:03.817614
2022-12-14 18:46:03.849620
2022-12-14 18:46:03.849620
2022-12-14 18:46:03.850656
2022-12-14 18:46:03.883354
2022-12-14 18:46:03.883770
2022-12-14 18:46:03.883770
2022-12-14 18:46:03.917479
2022-12-14 18:46:03.917874
2022-12-14 18:46:03.951015
2022-12-14 18:46:03.951254
2022-12-14 18:46:03.951254
2022-12-14 18:46:03.984580
2022-12-14 18:46:03.984900
2022-12-14 18:46:03.985521
2022-12-14 18:46:04.018098
2022-12-14 18:46:04.018441
2022-12-14 18:46:04.051644
2022-12-14 18:46:04.051910
2022-12-14 18:46:04.052487
2022-12-14 18:46:04.085181
2022-12-14 18:46:04.085511
2022-12-14 18:46:04.085511
2022-12-14 18:46:04.118577
2022-12-14 18:46:04.118577
2022-12-14 18:46:04.151676
2022-12-14 18:46:04.151676
2022-12-14 18:46:04.152678
2022-12-14 18:46:04.185658
2022-12-14 18:46:04.185991
2022-12-14 18:46:04.186598
2022-12-14 18:46:04.219230
2022-12-14 18:46:04.219572
2022-12-14 18:46:04.252777
2022-12-14 18:46:04.253014
2022-12-14 18:46:04.253014
2022-12-14 18:46:04.286178
2022-12-14 18:46:04.286178
2022-12-14 18:46:04.287014
2022-12-14 18:46:04.319827
2022-12-14 18:46:04.320204
2022-12-14 18:46:04.353473
2022-12-14 18:46:04.353473
2022-12-14 18:46:04.354474
2022-12-14 18:46:04.386810
2022-12-14 18:46:04.387814
2022-12-14 18:46:04.387814
2022-12-14 18:46:04.419792
2022-12-14 18:46:04.420133
2022-12-14 18:46:04.453828
2022-12-14 18:46:04.454096
2022-12-14 18:46:04.455099
2022-12-14 18:46:04.487433
2022-12-14 18:46:04.487757
2022-12-14 18:46:04.488433
2022-12-14 18:46:04.521058
2022-12-14 18:46:04.521411
2022-12-14 18:46:04.554554
2022-12-14 18:46:04.554821
2022-12-14 18:46:04.555502
2022-12-14 18:46:04.588207
2022-12-14 18:46:04.588207
2022-12-14 18:46:04.589208
2022-12-14 18:46:04.621576
2022-12-14 18:46:04.622358
2022-12-14 18:46:04.654686
2022-12-14 18:46:04.654686
2022-12-14 18:46:04.655716
2022-12-14 18:46:04.687407
2022-12-14 18:46:04.688308
2022-12-14 18:46:04.688734
2022-12-14 18:46:04.722141
2022-12-14 18:46:04.722487
2022-12-14 18:46:04.755770
2022-12-14 18:46:04.756035
2022-12-14 18:46:04.757036
2022-12-14 18:46:04.789294
2022-12-14 18:46:04.789586
2022-12-14 18:46:04.790588
2022-12-14 18:46:04.822716
2022-12-14 18:46:04.823499
2022-12-14 18:46:04.856174
2022-12-14 18:46:04.857090
2022-12-14 18:46:04.857090
2022-12-14 18:46:04.889915
2022-12-14 18:46:04.889915
2022-12-14 18:46:04.890921
2022-12-14 18:46:04.922562
2022-12-14 18:46:04.923570
2022-12-14 18:46:04.956200
2022-12-14 18:46:04.956200
2022-12-14 18:46:04.957198
2022-12-14 18:46:04.989086
2022-12-14 18:46:04.990084
2022-12-14 18:46:04.990084
2022-12-14 18:46:05.023032
2022-12-14 18:46:05.024034
2022-12-14 18:46:05.056557
2022-12-14 18:46:05.057570
2022-12-14 18:46:05.057570
2022-12-14 18:46:05.090555
2022-12-14 18:46:05.091149
2022-12-14 18:46:05.091749
2022-12-14 18:46:05.124186
2022-12-14 18:46:05.124574
2022-12-14 18:46:05.157841
2022-12-14 18:46:05.158544
2022-12-14 18:46:05.158544
2022-12-14 18:46:05.190854
2022-12-14 18:46:05.190854
2022-12-14 18:46:05.191852
2022-12-14 18:46:05.224718
2022-12-14 18:46:05.225047
2022-12-14 18:46:05.258620
2022-12-14 18:46:05.258858
2022-12-14 18:46:05.259860
2022-12-14 18:46:05.291544
2022-12-14 18:46:05.291544
2022-12-14 18:46:05.292558
2022-12-14 18:46:05.325608
2022-12-14 18:46:05.325954
2022-12-14 18:46:05.359238
2022-12-14 18:46:05.359510
2022-12-14 18:46:05.360034
2022-12-14 18:46:05.392700
2022-12-14 18:46:05.393033
2022-12-14 18:46:05.394036
2022-12-14 18:46:05.426124
2022-12-14 18:46:05.426124
2022-12-14 18:46:05.459553
2022-12-14 18:46:05.459553
2022-12-14 18:46:05.460561
2022-12-14 18:46:05.493161
2022-12-14 18:46:05.493161
2022-12-14 18:46:05.494161
2022-12-14 18:46:05.526740
2022-12-14 18:46:05.527114
2022-12-14 18:46:05.560374
2022-12-14 18:46:05.560648
2022-12-14 18:46:05.560648
2022-12-14 18:46:05.593900
2022-12-14 18:46:05.594222
2022-12-14 18:46:05.595225
2022-12-14 18:46:05.627390
2022-12-14 18:46:05.627766
2022-12-14 18:46:05.660803
2022-12-14 18:46:05.661043
2022-12-14 18:46:05.661507
2022-12-14 18:46:05.694480
2022-12-14 18:46:05.694802
2022-12-14 18:46:05.695805
2022-12-14 18:46:05.727853
2022-12-14 18:46:05.727853
2022-12-14 18:46:05.760856
2022-12-14 18:46:05.761862
2022-12-14 18:46:05.761862
2022-12-14 18:46:05.794945
2022-12-14 18:46:05.795239
2022-12-14 18:46:05.795239
2022-12-14 18:46:05.828584
2022-12-14 18:46:05.828960
2022-12-14 18:46:05.862217
2022-12-14 18:46:05.862488
2022-12-14 18:46:05.863490
2022-12-14 18:46:05.895638
2022-12-14 18:46:05.895932
2022-12-14 18:46:05.895932
2022-12-14 18:46:05.929174
2022-12-14 18:46:05.929519
2022-12-14 18:46:05.962705
2022-12-14 18:46:05.962992
2022-12-14 18:46:05.963993
2022-12-14 18:46:05.996101
2022-12-14 18:46:05.996828
2022-12-14 18:46:05.997831
2022-12-14 18:46:06.029289
2022-12-14 18:46:06.029289
2022-12-14 18:46:06.063386
2022-12-14 18:46:06.063629
2022-12-14 18:46:06.064631
2022-12-14 18:46:06.096837
2022-12-14 18:46:06.097131
2022-12-14 18:46:06.097732
2022-12-14 18:46:06.130147
2022-12-14 18:46:06.130610
2022-12-14 18:46:06.163868
2022-12-14 18:46:06.164097
2022-12-14 18:46:06.164097
2022-12-14 18:46:06.197095
2022-12-14 18:46:06.197482
2022-12-14 18:46:06.197482
2022-12-14 18:46:06.230435
2022-12-14 18:46:06.230872
2022-12-14 18:46:06.263807
2022-12-14 18:46:06.264810
2022-12-14 18:46:06.264810
2022-12-14 18:46:06.297574
2022-12-14 18:46:06.297574
2022-12-14 18:46:06.297574
2022-12-14 18:46:06.331240
2022-12-14 18:46:06.331561
2022-12-14 18:46:06.365001
2022-12-14 18:46:06.365240
2022-12-14 18:46:06.366247
2022-12-14 18:46:06.398676
2022-12-14 18:46:06.399010
2022-12-14 18:46:06.399614
2022-12-14 18:46:06.432106
2022-12-14 18:46:06.432106
2022-12-14 18:46:06.465689
2022-12-14 18:46:06.465954
2022-12-14 18:46:06.466472
2022-12-14 18:46:06.499297
2022-12-14 18:46:06.499619
2022-12-14 18:46:06.499619
2022-12-14 18:46:06.532551
2022-12-14 18:46:06.532551
2022-12-14 18:46:06.565885
2022-12-14 18:46:06.565885
2022-12-14 18:46:06.565885
2022-12-14 18:46:06.599659
2022-12-14 18:46:06.599952
2022-12-14 18:46:06.600597
2022-12-14 18:46:06.633400
2022-12-14 18:46:06.633748
2022-12-14 18:46:06.666730
2022-12-14 18:46:06.666730
2022-12-14 18:46:06.667732
2022-12-14 18:46:06.700318
2022-12-14 18:46:06.700611
2022-12-14 18:46:06.701167
2022-12-14 18:46:06.733882
2022-12-14 18:46:06.734270
2022-12-14 18:46:06.767383
2022-12-14 18:46:06.767623
2022-12-14 18:46:06.768237
2022-12-14 18:46:06.800908
2022-12-14 18:46:06.800908
2022-12-14 18:46:06.801908
2022-12-14 18:46:06.834777
2022-12-14 18:46:06.835782
2022-12-14 18:46:06.867834
2022-12-14 18:46:06.867834
2022-12-14 18:46:06.868740
2022-12-14 18:46:06.901557
2022-12-14 18:46:06.901851
2022-12-14 18:46:06.902456
2022-12-14 18:46:06.935225
2022-12-14 18:46:06.935569
2022-12-14 18:46:06.968625
2022-12-14 18:46:06.968867
2022-12-14 18:46:06.968867
2022-12-14 18:46:07.002333
2022-12-14 18:46:07.002663
2022-12-14 18:46:07.003137
2022-12-14 18:46:07.035805
2022-12-14 18:46:07.036183
2022-12-14 18:46:07.069291
2022-12-14 18:46:07.069291
2022-12-14 18:46:07.070157
2022-12-14 18:46:07.101895
2022-12-14 18:46:07.102901
2022-12-14 18:46:07.102901
2022-12-14 18:46:07.136268
2022-12-14 18:46:07.136614
2022-12-14 18:46:07.169778
2022-12-14 18:46:07.170015
2022-12-14 18:46:07.170623
2022-12-14 18:46:07.203027
2022-12-14 18:46:07.203027
2022-12-14 18:46:07.203027
2022-12-14 18:46:07.237074
2022-12-14 18:46:07.237477
2022-12-14 18:46:07.270425
2022-12-14 18:46:07.270668
2022-12-14 18:46:07.271279
2022-12-14 18:46:07.303917
2022-12-14 18:46:07.303917
2022-12-14 18:46:07.305088
2022-12-14 18:46:07.337515
2022-12-14 18:46:07.337515
2022-12-14 18:46:07.370935
2022-12-14 18:46:07.371297
2022-12-14 18:46:07.372298
2022-12-14 18:46:07.404075
2022-12-14 18:46:07.404075
2022-12-14 18:46:07.404075
2022-12-14 18:46:07.437622
2022-12-14 18:46:07.438230
2022-12-14 18:46:07.471582
2022-12-14 18:46:07.471848
2022-12-14 18:46:07.472582
2022-12-14 18:46:07.505181
2022-12-14 18:46:07.505500
2022-12-14 18:46:07.506177
2022-12-14 18:46:07.538712
2022-12-14 18:46:07.539093
2022-12-14 18:46:07.572416
2022-12-14 18:46:07.572683
2022-12-14 18:46:07.573685
2022-12-14 18:46:07.605687
