HR_time,RR-interval,heart_rate
1.264040005836039,716.0,84.31578947368419
1.9756477128252166,716.0,84.69052631578947
2.677892160511905,707.0,86.25192982456139
3.3520468302911257,679.0,88.66095238095237
4.007474981465369,660.0,91.1374741200828
4.653539873337122,650.0,91.1374741200828
5.327694543116342,679.0,88.72845156369183
6.03930225010552,716.0,85.87719298245614
6.750909957094698,716.0,83.24850099933377
7.490607441991343,745.0,82.18121252498335
8.230304926887987,745.0,81.460564751704
8.960639152482143,735.0,82.16284980841942
9.68161011877381,726.0,83.23013828276986
10.393217825762989,716.0,83.5857826384142
11.114188792054655,726.0,83.5857826384142
11.835159758346322,726.0,83.2207792207792
12.556130724637988,726.0,83.2207792207792
13.277101690929655,726.0,83.96051948051948
13.979346138616343,707.0,86.30476678251325
14.644137549093076,669.0,89.52102878138395
15.290202440964828,650.0,91.55531449566966
15.945630592139072,660.0,91.55531449566966
16.610422002615802,669.0,89.46365762140408
17.303303191,698.0,87.05463506501312
18.01491089798918,716.0,85.07539118065432
18.726518604978356,716.0,85.07539118065432
19.419399793362555,698.0,86.23040199536233
20.102917722444264,688.0,87.79180550413426
20.777072392223488,679.0,88.59360730593608
21.451227062002708,679.0,88.59360730593606
22.134744991084418,688.0,87.40694063926941
22.836989438771106,707.0,86.22027397260274
23.539233886457794,707.0,85.44
24.24147833414448,707.0,85.44
24.94372278183117,707.0,87.04450704225351
25.608514192307904,669.0,88.64901408450703
26.273305602784635,669.0,90.25352112676056
26.938097013261366,669.0,88.64901408450703
27.640341460948054,707.0,85.60248172579782
28.3800389458447,745.0,82.2179746835443
29.129099690043834,754.0,81.1225900681597
29.85943391563799,735.0,81.1225900681597
30.599131400534635,745.0,82.52785322605442
31.310739107523812,716.0,83.24850099933377
32.02234681451299,716.0,85.07539118065432
32.71522800289719,698.0,85.83499288762445
33.40810919128139,698.0,87.3963963963964
34.08226386106061,679.0,87.79180550413426
34.76578179014232,688.0,89.01144768152292
35.43057320061905,669.0,89.01144768152292
36.10472787039827,679.0,87.49143344917992
36.82569883668994,726.0,84.10692640692639
37.57475958088907,754.0,81.82487512487512
38.30509380648323,735.0,81.46923076923076
39.035428032077384,735.0,83.63409563409564
39.72830922046158,698.0,85.50975422208299
40.41182714954329,688.0,87.38541281007033
41.095345078625,688.0,88.18721461187214
41.76949974840422,679.0,88.59360730593608
42.44365441818344,679.0,88.19819819819818
43.13653560656765,698.0,87.79180550413426
43.82005353564936,688.0,87.79180550413426
44.49420820542858,679.0,88.18721461187214
45.17772613451029,688.0,86.31155602388479
45.90806036010444,735.0,85.12488935721811
46.61030480779113,707.0,84.72948024948025
47.30318599617533,698.0,86.20972972972973
47.99606718455953,698.0,86.59459459459458
48.68894837294373,698.0,86.99000370233246
49.37246630202544,688.0,86.60513883746759
50.074710749712125,707.0,84.44027397260274
50.82377149391126,754.0,80.60857142857142
51.61028527532035,792.0,78.1773519163763
52.378072538124464,773.0,77.84772228674667
53.13649654162609,764.0,80.15941059843499
53.857467507917754,726.0,82.97549497549497
54.55034869630195,698.0,85.0851246051246
55.25259314398864,707.0,85.4501280227596
55.96420085097782,716.0,85.4501280227596
56.65708203936202,698.0,85.07539118065432
57.368689746351194,716.0,83.6701280227596
58.11775049055033,754.0,81.50526315789472
58.86681123474946,754.0,79.44878048780487
59.634598497553576,773.0,77.87819225251076
60.430475538265156,801.0,77.22697274031563
61.19826280106927,773.0,77.87819225251076
61.947323545268404,754.0,80.8540436456996
62.65893125225758,716.0,83.28526315789472
63.36117569994427,707.0,85.06526315789472
64.06342014763096,707.0,84.70025974025972
64.78439111392262,726.0,82.92025974025972
65.53345185812177,754.0,80.8106301106301
66.29187586162338,764.0,80.8106301106301
67.01284682791506,726.0,82.21589326852484
67.72445453490423,716.0,84.71038776301933
68.41733572328843,698.0,86.63679468942627
69.09149039306764,679.0,88.61603857378505
69.75628180354438,669.0,89.01144768152292
70.43979973262608,688.0,87.45004417275098
71.15140743961527,716.0,85.10579687075722
71.87237840590693,726.0,83.23013828276986
72.60271263150109,735.0,82.86513486513486
73.32368359779275,726.0,83.98973998973999
74.01656478617696,698.0,85.86539857772733
74.70008271525866,688.0,86.60513883746759
75.40232716294535,707.0,86.60513883746759
76.09520835132955,698.0,86.60513883746759
76.77872628041126,688.0,88.20964587972112
77.44351769088799,669.0,89.85906672914196
78.09894584206224,660.0,90.2654594232059
78.77310051184146,679.0,89.04581724581723
79.46598170022565,698.0,86.27179127179127
80.18695266651733,726.0,84.71038776301933
80.8985603735065,716.0,84.32552289815447
81.6008048211932,707.0,84.69052631578947
82.31241252818236,716.0,85.4501280227596
83.00529371656657,698.0,86.23040199536233
83.68881164564827,688.0,87.79180550413426
84.3629663154275,679.0,89.01144768152292
85.02775772590422,669.0,90.2654594232059
85.68318587707847,660.0,91.11307847082493
86.3386140282527,660.0,90.69523809523808
87.01276869803193,679.0,88.2862155388471
87.72437640502112,716.0,85.15654520917678
88.45471063061527,735.0,82.87449392712551
89.18504485620943,735.0,81.46923076923076
89.93410560040856,754.0,81.46923076923076
90.66443982600272,735.0,82.56461538461538
91.3666842736894,707.0,85.53128205128205
92.04083894346863,679.0,87.01153153153152
92.73372013185282,698.0,88.19819819819818
93.40787480163205,679.0,88.61603857378505
94.07266621210877,669.0,89.41784037558685
94.746820881888,679.0,89.01144768152292
95.4303388109697,688.0,88.18721461187214
96.11385674005142,688.0,88.605054987459
96.77864815052814,669.0,89.42928805710977
97.44343956100488,669.0,91.12553582363748
98.08950445287664,650.0,91.99755052051438
98.73556934474838,650.0,92.86956521739128
99.38163423662014,650.0,91.57971014492753
100.05578890639936,679.0,88.00780379041248
100.78612313199352,735.0,82.18069381598794
101.5820001727051,801.0,78.88439751969163
102.34042417620672,764.0,78.88439751969163
103.07075840180087,735.0,81.86024891288048
103.78236610879006,716.0,84.35474340737498
104.47524729717425,698.0,87.05463506501312
105.14003870765099,669.0,89.90589364624881
105.78610359952273,650.0,91.55531449566966
106.44153175069698,660.0,91.55531449566966
107.1063231611737,669.0,89.85906672914196
107.78984109025542,688.0,89.01144768152292
108.46399576003463,679.0,89.01144768152292
109.12878717051137,669.0,90.70769544805061
109.77485206238313,650.0,92.4527934872663
110.41155369495239,641.0,92.88257215929849
111.06698184612664,660.0,90.79091528503292
111.75986303451083,698.0,86.07915057915056
112.50892377870997,754.0,81.93523523523523
113.26734778221159,764.0,81.1756335282651
113.97895548920077,716.0,82.21589326852484
114.69992645549243,726.0,83.9507860560492
115.41153416248162,716.0,84.32552289815447
116.1137786101683,707.0,83.96987854251012
116.84411283576246,735.0,83.60487512487512
117.56508380205412,726.0,81.49524549524548
118.32350780555575,764.0,81.49524549524548
119.0538420311499,735.0,81.86024891288048
119.76544973813908,716.0,82.52785322605442
120.50514722303572,745.0,81.51360821180941
121.26357122653735,764.0,79.77871542428504
122.02199523003897,764.0,80.84600389863547
122.73360293702815,716.0,82.9556335282651
123.43584738471483,707.0,84.69052631578947
124.14745509170402,716.0,85.4501280227596
124.84033628008821,698.0,85.4501280227596
125.5425807277749,707.0,85.82486486486485
126.24482517546159,707.0,85.06526315789472
126.95643288245077,716.0,83.62323784143904
127.69613036734741,745.0,82.52785322605442
128.42646459294156,735.0,82.9025900681597
129.12870904062825,707.0,84.72948024948025
129.82159022901246,698.0,85.82486486486485
130.52383467669915,707.0,85.0851246051246
131.24480564299083,726.0,83.96051948051948
131.96577660928247,726.0,83.96051948051948
132.66802105696917,707.0,85.0851246051246
133.36090224535337,698.0,87.01153153153152
134.0350569151326,679.0,89.04581724581723
134.69048506630682,660.0,90.69523809523808
135.34591321748107,660.0,91.11307847082495
136.0107046279578,669.0,89.07879275653923
136.7129490756445,707.0,85.60248172579782
137.45264656054113,745.0,81.88834505391466
138.21107056404276,764.0,79.77871542428504
138.9694945675444,764.0,79.77871542428504
139.70919205244104,745.0,81.51360821180941
140.4207997594302,716.0,84.0081027063039
141.1136809478144,698.0,83.6701280227596
141.86274169201354,754.0,82.94948024948025
142.5930759176077,735.0,82.56461538461538
143.29532036529437,707.0,85.12488935721812
143.9788382943761,688.0,86.22027397260274
144.68108274206278,707.0,85.12488935721812
145.41141696765695,735.0,83.24923076923076
146.14175119325108,735.0,82.87449392712551
146.85335890024027,716.0,84.75015251511286
147.53687682932198,688.0,85.84553713049746
148.23912127700868,707.0,85.48053371286247
148.96009224330035,726.0,83.25823442380404
149.69978972819698,745.0,81.81620910734836
150.43948721309363,745.0,82.18121252498335
151.1510949200828,716.0,81.51360821180941
151.90951892358444,764.0,81.51360821180941
152.64921640848107,745.0,79.77871542428504
153.4076404119827,764.0,81.51360821180941
154.11924811897188,716.0,83.34049839312996
154.8121293073561,698.0,85.4501280227596
155.51437375504275,707.0,85.4501280227596
156.22598146203194,716.0,83.96987854251012
156.9563156876261,735.0,83.23013828276986
157.67728665391778,726.0,83.98973998973999
158.37016784230195,698.0,85.46998946998946
159.06304903068616,698.0,86.20972972972973
159.76529347837285,707.0,85.0851246051246
160.48626444466453,726.0,83.25823442380404
161.22596192956115,745.0,82.51849416406378
161.94693289585283,726.0,83.25823442380404
162.64917734353952,707.0,85.88692640692639
163.32333201331875,679.0,87.4069406392694
164.00684994240044,688.0,87.79180550413426
164.69973113078464,698.0,86.23040199536234
165.41133883777383,716.0,84.71038776301933
166.1323098040655,726.0,84.32552289815447
166.83455425175217,707.0,86.30476678251325
167.4993456622289,669.0,88.64901408450703
168.16413707270564,669.0,89.03387894937191
168.85701826108985,698.0,87.05463506501312
169.56862596807903,716.0,85.83499288762445
170.2615071564632,698.0,86.63679468942627
170.93566182624244,679.0,88.19819819819818
171.60981649602166,679.0,88.59360730593606
172.29333442510338,688.0,86.66720037952913
173.01430539139503,726.0,84.74079345312222
173.7352763576867,726.0,82.51849416406378
174.47497384258335,745.0,82.51849416406378
175.19594480887503,726.0,82.88349758169878
175.90755251586418,716.0,84.32552289815447
176.60979696355088,707.0,85.06526315789472
177.31204141123757,707.0,85.06526315789472
178.02364911822676,716.0,82.9556335282651
178.78207312172836,764.0,80.52441401606998
179.54986038453248,773.0,79.11915085817523
180.29892112873162,754.0,79.11915085817523
181.05734513223325,764.0,79.77037037037036
181.80640587643236,754.0,79.77037037037036
182.5554666206315,754.0,80.4379746835443
183.29516410552816,745.0,81.1225900681597
184.02549833112232,735.0,80.79296043853006
184.78392233462392,764.0,79.18355718355718
185.57043611603302,792.0,77.53388155797794
186.34758663813963,783.0,77.21229167541244
187.11537390094375,773.0,78.82169493038532
187.85507138584038,745.0,81.19201832924392
188.56667909282956,716.0,82.88349758169878
189.28765005912123,726.0,82.54552289815447
190.03671080332037,754.0,80.48904022806461
190.80449806612447,773.0,78.1773519163763
191.59101184753357,792.0,77.84772228674667
192.3494358510352,764.0,79.18355718355718
193.07977007662936,735.0,80.79296043853006
193.81946756152598,745.0,80.79296043853006
194.5778915650276,764.0,80.44631973745898
195.31758904992427,745.0,79.45712554171955
196.08537631272839,773.0,79.45712554171955
196.84380031623,764.0,79.45712554171955
197.58349780112664,745.0,80.44631973745898
198.3231952860233,745.0,80.44631973745898
199.08161928952492,764.0,80.10834505391466
199.83068003372404,754.0,80.8106301106301
200.5516510000157,726.0,82.92025974025972
201.2538954477024,707.0,84.32552289815447
201.9655031546916,716.0,84.69052631578947
202.67711086168075,716.0,83.59514170040485
203.4074450872749,735.0,84.35474340737498
204.1003262756591,698.0,85.91614691614691
204.77448094543834,679.0,88.61603857378505
205.43927235591505,669.0,88.61603857378505
206.13215354429926,698.0,86.33398729173376
206.86248776989342,735.0,82.61985061985061
207.62091177339505,764.0,81.49524549524548
208.3418827396867,726.0,82.97549497549497
209.0347639280709,698.0,86.27179127179127
209.70891859785013,679.0,87.01153153153152
210.41116304553682,707.0,87.01153153153152
211.104044233921,698.0,85.0851246051246
211.82501520021268,726.0,85.46998946998946
212.51789638859688,698.0,85.86539857772733
213.2014143176786,688.0,88.20964587972112
213.86620572815534,669.0,89.42928805710977
214.53099713863205,669.0,90.25352112676056
215.19578854910878,669.0,88.27427724240178
215.90739625609797,716.0,84.88977020014825
216.6564570002971,754.0,82.54552289815447
217.37742796658875,726.0,83.70053371286247
218.06094589567047,688.0,87.085040755116
218.7257373061472,669.0,89.85906672914196
219.38116545732146,660.0,89.85906672914196
220.06468338640315,688.0,87.51481942714818
220.78565435269482,726.0,82.73547347189862
221.56280487480143,783.0,78.90377092786731
222.34931865621053,792.0,76.592082616179
223.1358324376196,792.0,76.592082616179
223.9129829597262,783.0,77.86351118760757
224.66204370392535,754.0,80.17519949929587
225.38301467021702,726.0,82.18051948051948
226.10398563650867,726.0,83.2207792207792
226.82495660280034,726.0,83.2207792207792
227.54592756909202,726.0,83.5857826384142
228.2575352760812,716.0,84.32552289815447
228.95977972376787,707.0,85.06526315789472
229.66202417145456,707.0,84.34461538461538
230.39235839704872,735.0,83.60487512487512
231.1133293633404,726.0,83.23013828276986
231.82493707032955,716.0,83.5857826384142
232.54590803662123,726.0,84.32552289815447
233.24815248430792,707.0,85.0851246051246
233.94103367269213,698.0,84.38283954840917
234.68073115758875,745.0,82.94081423195348
235.4204286424854,745.0,80.44631973745898
236.17885264598704,764.0,79.77871542428504
236.93727664948867,764.0,79.1111111111111
237.69570065299027,764.0,79.1111111111111
238.4541246564919,764.0,79.1111111111111
239.21254865999353,764.0,78.78952122854561
239.98033592279765,773.0,78.46793134598012
240.74812318560174,773.0,78.79756097560974
241.49718392980088,754.0,77.87819225251076
242.29306097051247,801.0,76.95882352941176
243.08893801122406,801.0,75.6873949579832
243.87545179263313,792.0,77.25798319327731
244.62451253683227,754.0,78.49894179894179
245.3829365403339,764.0,80.10834505391466
246.12263402523055,745.0,79.14328481295081
246.89978454733713,783.0,78.20148587115187
247.68629832874623,792.0,75.7152353255386
248.5009018880628,820.0,75.10970733120834
249.29677892877436,801.0,76.05150627300728
250.055202932276,764.0,77.23472189411238
250.8323534543826,783.0,77.53388155797794
251.6188672357917,792.0,76.8984509466437
252.39601775789828,783.0,77.21229167541244
253.1638050207024,773.0,77.83250073464589
253.93159228350652,773.0,77.83250073464589
254.70874280561313,783.0,77.51866000587715
255.4858933277197,783.0,78.16987951807228
256.2349540719189,754.0,79.81955514365153
256.965288297513,735.0,81.1225900681597
257.70498578240966,745.0,78.97431420609072
258.5195893417262,820.0,75.8624260942026
259.34355616034526,830.0,75.19482178102868
260.10198016384686,764.0,78.38335738335738
260.82295113013856,726.0,83.37090408323284
261.50646905922025,688.0,84.03850839640678
262.24616654411693,745.0,82.03318841518318
263.0233170662235,783.0,77.90232620728632
263.8191941069351,801.0,77.2347218941124
264.57761811043673,764.0,78.53775681862055
265.31731559533335,745.0,81.14860479417442
266.038286561625,726.0,81.81620910734836
266.7779840465217,745.0,82.16284980841942
267.50831827211584,735.0,82.16284980841942
268.2292892384075,726.0,83.98973998973999
268.9221704267917,698.0,85.0851246051246
269.62441487447836,707.0,85.82486486486485
270.3266593221651,707.0,85.06526315789472
271.03826702915427,716.0,85.06526315789472
271.74051147684094,707.0,84.69052631578947
272.4521191838301,716.0,84.69052631578947
273.1637268908193,716.0,85.4708002883922
273.847244819901,688.0,85.47080028839221
274.5588525268902,716.0,83.10047688953361
275.33600304899676,783.0,78.67741221925645
276.14124334901084,811.0,76.94251943173208
276.8996673525125,764.0,78.94783941295569
277.62063831880414,726.0,82.5906301106301
278.3228827664908,707.0,85.48053371286247
279.00640069557255,688.0,86.22027397260274
279.7086451432592,707.0,86.22027397260274
280.4108895909459,707.0,85.06526315789472
281.12249729793507,716.0,84.69052631578947
281.83410500492425,716.0,82.25930680359434
282.6018922677284,773.0,78.70576778363065
283.4164958270449,820.0,74.87323189846317
284.24046264566397,830.0,75.19482178102868
284.9988866491656,764.0,78.74836080099237
285.7104943561548,716.0,83.34049839312996
286.40337554453896,698.0,83.6701280227596
287.1524362887381,754.0,81.93523523523523
287.91086029223976,764.0,78.80531012940651
288.68801081434634,783.0,78.80531012940651
289.4370715585455,754.0,79.81955514365153
290.16740578413965,735.0,81.46923076923076
290.8977400097338,735.0,81.80720545277508
291.63743749463043,745.0,79.85116149673112
292.42395127603953,792.0,77.89511754068717
293.21046505744863,792.0,76.90592334494774
293.97825232025275,773.0,78.51532659992061
294.7179498051494,745.0,79.13553565915406
295.4857370679535,773.0,78.82169493038532
296.2628875900601,783.0,76.62092954916659
297.06812789007415,811.0,75.7015608260676
297.86400493078577,801.0,75.39519249560288
298.6505187121948,792.0,76.60676368108219
299.41830597499893,773.0,77.21229167541244
300.19545649710557,783.0,75.78372024684101
301.0287865750271,839.0,74.0076670317634
301.85275339364614,830.0,74.32150776053214
302.62054065645026,773.0,76.05644751956828
303.39769117855684,783.0,76.33544438477205
304.2122947378734,820.0,76.65703426733754
304.97071874137504,764.0,77.29246487867177
305.72914274487664,764.0,80.48100048100048
306.45011371116834,726.0,80.48100048100048
307.20853771466994,764.0,79.53920153920154
307.99505149607904,792.0,74.52234605426094
308.87519787051303,886.0,69.94789405123751
309.7927972821569,924.0,68.79204989539335
310.616764100776,830.0,72.43901601044458
311.37518810427764,764.0,77.68107232664194
312.11488558917426,745.0,81.14860479417442
312.8358565554659,726.0,82.16284980841942
313.5661907810601,735.0,83.23013828276986
314.27779848804926,716.0,83.96987854251012
314.980042935736,707.0,85.06526315789472
315.68228738342265,707.0,83.66
316.4313481276218,754.0,81.55037037037036
317.1897721311234,764.0,79.77037037037036
317.93883287532253,754.0,80.8106301106301
318.6598038416142,726.0,82.54552289815447
319.37141154860336,716.0,85.51218956482114
320.0455662183826,679.0,85.87719298245614
320.7571739253718,716.0,85.15654520917678
321.48750815096594,735.0,82.52785322605442
322.22720563586256,745.0,82.16284980841942
322.94817660215426,726.0,82.88349758169878
323.65978430914345,716.0,83.5857826384142
324.3807552754351,726.0,82.54552289815447
325.12981601963423,754.0,80.17519949929587
325.9069665417408,783.0,78.80531012940651
326.6653905452425,764.0,79.84556986966624
327.3863615115341,726.0,82.5906301106301
328.0886059592208,707.0,82.92025974025972
328.8376667034199,754.0,82.2179746835443
329.5773641883166,745.0,80.10834505391466
330.3357881918182,764.0,80.44631973745898
331.07548567671483,745.0,81.88834505391466
331.77773012440156,707.0,82.5559493670886
332.5174276092982,745.0,82.2179746835443
333.2664883534973,754.0,80.7759493670886
334.00618583839395,745.0,80.7759493670886
334.7458833232906,745.0,82.5559493670886
335.4481277709773,707.0,84.38283954840917
336.1410089593615,698.0,85.82486486486485
336.84325340704817,707.0,84.72948024948025
337.57358763264233,735.0,84.34461538461538
338.27583208032905,707.0,84.34461538461538
338.9780765280157,707.0,83.66
339.72713727221486,754.0,80.91493975903613
340.50428779432144,783.0,78.16987951807228
341.2814383164281,783.0,79.57514267596702
341.99304602341726,716.0,81.94546607482562
342.7046537304064,716.0,84.69052631578947
343.4068981780931,707.0,85.06526315789472
344.1091426257798,707.0,84.34461538461538
344.83947685137395,735.0,83.96987854251012
345.55108455836313,716.0,84.35474340737498
346.24396574674734,698.0,85.07539118065432
346.9555734537365,716.0,84.0081027063039
347.69527093863314,745.0,80.57180927001048
348.48178472004224,792.0,79.50452079566004
349.22148220493887,745.0,80.20680585237548
349.94245317123057,726.0,82.51849416406378
350.6634241375222,726.0,82.86513486513486
351.3937583631164,735.0,81.49524549524548
352.152182366618,764.0,80.45498575498576
352.9012431108171,754.0,81.55037037037036
353.60348755850384,707.0,84.44027397260272
354.28700548758553,688.0,86.22027397260274
354.9892499352722,707.0,84.77824865614704
355.7289474201689,745.0,81.88834505391466
356.4873714236705,764.0,80.44631973745898
357.2270689085671,745.0,80.79296043853006
357.95740313416127,735.0,82.16284980841942
358.67837410045297,726.0,82.16284980841942
359.4180715853496,745.0,83.25823442380404
360.12031603303626,707.0,84.38283954840917
360.81319722142047,698.0,87.01153153153152
361.4873518911997,679.0,87.79180550413426
362.17086982028144,688.0,89.01144768152292
362.83566123075815,669.0,89.01144768152292
363.5098159005374,679.0,89.8356807511737
364.1746073110141,669.0,90.2654594232059
364.83003546218833,660.0,91.11307847082493
365.4854636133626,660.0,90.69523809523808
366.1596182831418,679.0,88.66095238095238
366.8618627308285,707.0,86.62666666666667
367.5641071785152,707.0,85.06526315789472
368.2757148855044,716.0,84.69052631578947
368.9873225924935,716.0,85.87719298245614
369.66147726227274,679.0,87.03220379716413
370.3449951913545,688.0,89.01144768152292
371.0097866018312,669.0,89.01144768152292
371.6839412716104,679.0,87.85643686681492
372.3955489785996,716.0,83.20050125313283
373.1820627600087,792.0,77.80656185919344
374.00602957862776,830.0,77.08591408591408
374.73636380422187,735.0,78.02771302771302
375.4947878077235,764.0,80.12535612535612
376.2532118112251,764.0,79.1111111111111
377.0116358147268,764.0,79.1111111111111
377.7700598182284,764.0,79.77871542428504
378.509757303125,745.0,79.45712554171955
379.27754456592913,773.0,79.13553565915406
380.04533182873325,773.0,80.20282413350449
380.75693953572244,716.0,83.82071031236627
381.43109420550167,679.0,102.2719298245614
381.88053065202115,452.0,112.3095238095238
382.40487317296055,528.0,134.7404181184669
382.7887668043626,386.0,120.32492516072041
383.45355821483935,669.0,109.56668340247866
384.18389244043345,735.0,84.8537378114843
384.9142266660276,735.0,83.24923076923076
385.61647111371434,707.0,83.24923076923076
386.3468053393085,735.0,81.91339587242027
387.11459260211257,773.0,78.8619673009917
387.90110638352166,792.0,77.52613240418118
388.6688936463258,773.0,78.51532659992061
389.40859113122247,745.0,80.12472985489349
390.1482886161191,745.0,80.44631973745898
390.9067126196207,764.0,80.44631973745898
391.6464101045174,745.0,81.14860479417442
392.367381070809,726.0,82.51849416406378
393.08835203710066,726.0,82.86513486513486
393.8186862626948,735.0,82.86513486513486
394.5396572289865,726.0,82.86513486513486
395.2606281952782,726.0,83.96051948051948
395.96287264296484,707.0,83.25823442380404
396.7025701278615,745.0,80.94654611211573
397.4890839092706,792.0,77.30375541444131
398.29432420928464,811.0,76.00072048993314
399.0714747313913,783.0,78.31240880162146
399.7924456976829,726.0,79.52397998710076
400.56023296048704,773.0,80.48904022806461
401.3092937046862,754.0,79.11915085817523
402.0677177081878,764.0,80.8106301106301
402.7886886744795,726.0,83.37090408323284
403.4722066035612,688.0,86.26080768546521
404.1557245326429,688.0,85.90516332982085
404.886058758237,735.0,83.34488935721811
405.63511950243617,754.0,79.81955514365153
406.4122700245428,783.0,79.13493975903614
407.1613307687419,754.0,79.13493975903614
407.91039151294103,754.0,80.1
408.6594522571402,754.0,78.52941176470587
409.4553292978518,801.0,78.19978213507625
410.2137533013534,764.0,78.53775681862055
410.95345078625,745.0,79.14328481295081
411.73060130835665,783.0,76.50624777591378
412.5732946455807,849.0,74.30548239469505
413.3785349455947,811.0,75.2705426356589
414.12759568979385,754.0,77.58598979013045
414.89538295259797,773.0,78.48372024684102
415.6725334747046,783.0,77.83250073464589
416.44032073750867,773.0,79.52397998710074
417.1612917038004,726.0,82.26904022806461
417.86353615148704,707.0,83.60487512487512
418.5938703770812,735.0,82.9025900681597
419.3335678619778,745.0,82.52785322605442
420.045175568967,716.0,84.40351181404178
420.72869349804876,688.0,86.23040199536234
421.42157468643296,698.0,86.23040199536234
422.1331823934221,716.0,84.71038776301933
422.8541533597138,726.0,83.5857826384142
423.57512432600544,726.0,83.5857826384142
424.2867320329946,716.0,84.32552289815447
424.9889764806813,707.0,84.32552289815447
425.709947446973,726.0,82.92025974025972
426.45900819117213,754.0,82.54552289815447
427.1706158981613,716.0,83.6701280227596
427.86349708654546,698.0,84.35474340737498
428.5938313121396,735.0,83.63409563409564
429.3241655377338,735.0,82.87449392712551
430.035773244723,716.0,83.96987854251012
430.73801769240964,707.0,85.84553713049746
431.4215356214914,688.0,86.60513883746759
432.1144168098756,698.0,85.86539857772735
432.83538777616724,726.0,84.71038776301933
433.5469954831564,716.0,84.71038776301933
434.2398766715406,698.0,86.23040199536233
434.9233946006223,688.0,86.99000370233247
435.6162757890065,698.0,86.60513883746759
436.31852023669325,707.0,85.82486486486485
437.0207646843799,707.0,85.06526315789472
437.7323723913691,716.0,83.96987854251012
438.46270661696326,735.0,82.52785322605442
439.2024041018599,745.0,81.80720545277508
439.93273832745405,735.0,81.1225900681597
440.6817990716532,754.0,81.46923076923076
441.41213329724735,735.0,80.45498575498576
442.17055730074895,764.0,80.12535612535612
442.92898130425056,764.0,78.78952122854561
443.6967685670547,773.0,79.80376624279063
444.42710279264884,735.0,81.53865903031499
445.138710499638,716.0,82.18987854251012
445.88777124383716,754.0,81.1756335282651
446.64619524733877,764.0,79.77037037037036
447.3952559915379,754.0,79.77037037037036
448.14431673573705,754.0,81.50526315789472
448.85592444272623,716.0,81.50526315789472
449.6049851869254,754.0,80.54020291693087
450.38213570903196,783.0,76.7076670317634
451.206102527651,830.0,76.05644751956828
451.97388979045513,773.0,78.06176750079189
452.6948607567468,726.0,103.46345883271577
453.09748090675384,405.0,128.27182120205376
453.4907377974584,396.0,123.0157719881098
454.38024743119485,896.0,96.55874468780648
455.24166728702386,867.0,73.80686498855835
455.95327499401304,716.0,79.80265446224256
456.6555194416997,1150.0,102.03207166853302
457.09559262891673,905.0,96.1768085106383
457.99446552195565,698.0,96.56167337550315
458.68734671033985,801.0,76.24427662957075
459.48322375105147,754.0,80.69427662957074
460.23228449525055,688.0,81.08968573730861
460.9158024243323,801.0,81.08968573730861
461.71167946504386,764.0,80.76005610767899
462.4701034685455,745.0,78.53775681862055
463.20980095344214,754.0,80.10834505391466
463.9588616976413,801.0,78.86738644825019
464.75473873835284,830.0,76.10213903743315
465.5787055569719,801.0,74.53155080213904
466.37458259768346,773.0,75.45091952523802
467.1423698604876,735.0,78.56280763712614
467.87270408608174,735.0,80.81801125703565
468.6030383116759,773.0,80.81801125703565
469.37082557448,764.0,79.80376624279063
470.1292495779816,754.0,79.11915085817523
470.87831032218077,745.0,80.10834505391466
471.61800780707745,726.0,81.47823442380404
472.3389787733691,754.0,81.47823442380404
473.08803951756823,745.0,81.47823442380404
473.82773700246486,764.0,80.10834505391466
474.5861610059665,745.0,80.44631973745898
475.32585849086314,726.0,81.14860479417442
476.0468294571548,707.0,83.25823442380404
476.7490739048415,716.0,84.32552289815447
477.4606816118307,726.0,84.32552289815447
478.18165257812234,726.0,83.5857826384142
478.902623544414,745.0,82.51849416406378
479.64232102931066,754.0,81.47823442380404
480.3913817735098,726.0,81.47823442380404
481.11235273980145,707.0,82.92025974025972
481.8145971874881,726.0,83.96051948051948
482.5355681537798,735.0,83.60487512487512
483.265902379374,726.0,82.86513486513486
483.98687334566563,726.0,82.86513486513486
484.7078443119573,726.0,83.2207792207792
485.428815278249,726.0,83.2207792207792
486.1497862445406,754.0,82.18051948051948
486.89884698873976,764.0,80.8106301106301
487.65727099224137,783.0,78.80531012940651
488.434421514348,783.0,77.84024988844264
489.2115720364546,764.0,77.84024988844266
489.9699960399562,726.0,79.84556986966624
490.6909670062479,735.0,81.49524549524548
491.42130123184205,754.0,81.82487512487512
492.1703619760412,783.0,79.81955514365153
492.9475124981478,820.0,76.98666389696717
493.7621160574643,773.0,76.33544438477205
494.52990332026843,773.0,76.64928511354078
495.29769058307255,792.0,77.52613240418118
496.08420436448165,801.0,76.60676368108219
496.8800814051932,981.0,71.09644473173884
497.8538603726521,556.0,81.87126313367588
498.406292671499,452.0,101.24185136897
498.8557291180184,660.0,111.21767554479418
499.51115726919267,528.0,113.15714285714284
500.03549979013206,773.0,94.70592334494772
500.8032870529362,792.0,89.62020905923345
501.5898008343453,764.0,77.84772228674667
502.3482248378469,764.0,78.16931216931216
503.10664884134854,811.0,77.57795004306631
503.9118891413626,820.0,75.75930381062697
504.72649270067916,783.0,75.12387319929276
505.50364322278574,773.0,76.33544438477205
506.27143048558986,792.0,77.21229167541244
507.05794426699896,792.0,76.90592334494774
507.84445804840806,783.0,76.592082616179
508.62160857051464,764.0,77.53388155797794
509.3800325740163,783.0,77.84024988844264
510.1571830961229,811.0,76.94251943173208
510.96242339613696,820.0,75.12387319929276
511.7770269554535,801.0,74.5183452049625
512.5729039961651,792.0,75.10970733120834
513.3594177775742,801.0,75.68739495798319
514.1552948182857,839.0,74.55798319327731
514.9886248962073,830.0,73.40213903743314
515.8125917148263,820.0,72.8244514106583
516.6271952741429,820.0,73.37617554858934
517.4417988334594,839.0,73.10344827586206
518.275128911381,839.0,72.55172413793103
519.1084589893026,811.0,72.83720930232558
519.9136992893166,773.0,74.88598979013045
520.6814865521208,792.0,76.31456121870188
521.4680003335299,811.0,76.31456121870188
522.2732406335439,839.0,74.265780730897
523.1065707114655,811.0,73.67441860465115
523.9118110114795,773.0,74.88598979013045
524.6795982742836,783.0,76.62092954916659
525.4567487963902,792.0,77.21229167541244
526.2432625777993,820.0,75.7152353255386
527.0578661371159,801.0,75.10970733120834
527.8537431778275,801.0,74.8105476673428
528.649620218539,839.0,74.25882352941176
529.4829502964606,858.0,72.60193923723335
530.335006892987,801.0,72.60193923723335
531.1308839336987,783.0,74.33687899626949
531.9080344558053,801.0,75.99376328844791
532.7039114965169,830.0,75.1370787964693
533.5278783151359,820.0,73.95386317536419
534.3424818744525,839.0,72.8244514106583
535.1758119523739,905.0,70.80172413793103
536.0746848454129,896.0,68.73421052631579
536.9641944791493,877.0,67.70195246179966
537.8349775942809,849.0,69.18528579513298
538.677670931505,792.0,72.12964669738864
539.4641847129141,792.0,74.59047619047618
540.250698494323,801.0,75.98655462184874
541.0465755350347,811.0,75.39519249560288
541.8518158350488,820.0,74.5183452049625
542.6664193943653,839.0,73.38893344025661
543.4997494722868,858.0,72.02425161045849
544.3518060688134,867.0,70.68991877687529
545.2132259246424,811.0,71.52712807920088
546.0184662246564,830.0,72.32732787940067
546.8424330432755,801.0,74.23934833975873
547.6383100839871,773.0,75.45091952523802
548.4060973467912,735.0,78.56280763712614
549.1364315723853,716.0,81.53865903031499
549.8480392793745,716.0,83.59514170040485
550.5596469863636,735.0,83.59514170040485
551.2899812119579,764.0,81.86024891288048
552.0484052154594,801.0,78.88439751969163
552.844282256171,801.0,76.62919389978212
553.6401592968826,792.0,75.6873949579832
554.4266730782917,792.0,75.98655462184874
555.2131868597008,773.0,76.90592334494774
555.9809741225049,792.0,76.90592334494774
556.767487903914,820.0,76.02907605430734
557.5820914632305,830.0,74.25302283922973
558.4060582818496,830.0,73.09717868338558
559.2300251004687,792.0,73.97402597402598
560.0165388818778,820.0,74.25302283922973
560.8311424411943,820.0,74.5320197044335
561.6457460005108,811.0,73.94065757818765
562.450986300525,792.0,74.81750486882805
563.2375000819341,773.0,76.31456121870188
564.0052873447381,792.0,76.90592334494774
564.7918011261472,801.0,76.60676368108219
565.5876781668588,792.0,75.98655462184874
566.3741919482679,773.0,76.60676368108219
567.141979211072,745.0,78.51532659992061
567.8816766959686,726.0,80.82701491160893
568.6026476622603,754.0,81.47823442380404
569.3517084064595,783.0,80.17519949929587
570.128858928566,811.0,77.27214906136172
570.9340992285802,792.0,76.00072048993314
571.7206130099893,792.0,75.69435215946844
572.5071267913983,783.0,76.592082616179
573.284277313505,811.0,76.00072048993314
574.089517613519,820.0,75.12387319929276
574.9041211728355,811.0,74.2261427425822
575.7093614728497,792.0,74.81750486882805
576.4958752542587,849.0,73.99911406423033
577.3385685914827,858.0,72.63443223443223
578.1906251880092,858.0,70.67838827838827
579.0426817845357,783.0,72.67999470409107
579.8198323066424,754.0,75.9074672315636
580.5688930508416,764.0,78.80531012940651
581.3273170543431,792.0,78.49894179894179
582.1138308357522,801.0,76.92835356364768
582.9097078764638,783.0,76.29292295231345
583.6868583985704,773.0,76.9131320115469
584.4546456613745,801.0,76.91313201154689
585.2505227020861,839.0,75.17819225251075
586.0838527800076,839.0,73.12941176470588
586.9171828579292,783.0,73.73493975903614
587.6943333800358,764.0,76.1053101294065
588.4527573835373,783.0,77.84024988844264
589.229907905644,783.0,77.84024988844264
590.0070584277506,773.0,77.51866000587717
590.7748456905547,773.0,77.83250073464589
591.5426329533589,783.0,77.83250073464589
592.3197834754654,783.0,77.51866000587715
593.096933997572,745.0,78.5078542016166
593.8366314824686,764.0,79.14328481295081
594.5950554859703,773.0,79.45712554171955
595.3628427487744,783.0,78.15409061721138
596.139993270881,773.0,77.83250073464589
596.9077805336851,773.0,77.83250073464589
597.6755677964892,783.0,77.83250073464589
598.4527183185959,820.0,76.33544438477205
599.2673218779124,415.0,98.83211844242172
599.679305287222,613.0,105.95871714492404
600.2879171418837,547.0,118.23457921388955
600.8309861814281,820.0,94.24084880636605
601.6455897407446,811.0,86.21651964715316
602.4508300407587,773.0,75.4377139280615
603.2186173035628,754.0,77.58598979013044
603.967678047762,764.0,79.11915085817523
604.7261020512636,764.0,79.44074074074072
605.4845260547652,726.0,80.48100048100048
606.2054970210569,679.0,83.77729677729677
606.8796516908361,830.0,81.67965367965367
607.7036185094552,783.0,79.67433369843008
608.4807690315617,783.0,75.74260679079956
609.2579195536683,754.0,78.16987951807228
610.0069802978675,783.0,78.16987951807228
610.784130819974,792.0,77.86351118760757
611.5706446013832,801.0,76.29292295231345
612.3665216420948,792.0,75.98655462184874
613.1530354235039,820.0,75.10970733120834
613.9676389828204,820.0,74.5320197044335
614.7822425421369,773.0,75.15222876366695
615.5500298049411,735.0,77.9851200103513
616.2803640305352,716.0,81.53865903031499
616.9919717375244,735.0,82.87449392712551
617.7223059631185,783.0,81.22481830154626
618.4994564852252,801.0,78.2489669083574
619.2953335259367,830.0,75.1370787964693
620.1193003445558,773.0,75.45091952523802
620.88708760736,764.0,76.69187813090251
621.6455116108615,801.0,77.54856262288112
622.4413886515731,801.0,76.62919389978212
623.2372656922847,820.0,74.8105476673428
624.0518692516013,764.0,76.05150627300728
624.8102932551029,764.0,77.29246487867177
625.5687172586045,783.0,78.47568049977687
626.345867780711,745.0,79.14328481295081
627.0855652656078,839.0,76.77291444258044
627.9188953435292,726.0,78.77823442380404
628.639866309821,735.0,79.12487512487513
629.370200535415,792.0,80.55344655344655
630.1567143168242,801.0,77.9425985778927
630.9525913575358,830.0,74.83071046600458
631.7765581761548,783.0,75.1370787964693
632.5537086982614,764.0,76.37803740213377
633.3121327017631,783.0,77.84024988844264
634.0892832238696,792.0,77.53388155797794
634.8757970052787,783.0,76.8984509466437
635.6529475273853,811.0,76.00072048993314
636.4581878273995,811.0,75.4093583636873
637.2634281274135,773.0,75.72319909245604
638.0312153902175,764.0,77.25636016050082
638.7896393937192,792.0,77.84772228674667
639.5761531751283,811.0,76.63615110126737
640.3813934751423,773.0,76.31456121870188
641.1491807379465,735.0,78.27060517474584
641.8795149635406,716.0,81.53865903031499
642.5911226705298,754.0,82.18987854251012
643.3401834147289,792.0,80.23383458646616
644.126697196138,830.0,76.4012987012987
644.9506640147571,801.0,74.83071046600458
645.7465410554687,801.0,74.53155080213904
646.5424180961802,839.0,74.25882352941176
647.3757481741018,867.0,72.3468030690537
648.2371680299308,849.0,70.95072463768116
649.0798613671548,839.0,70.95072463768116
649.9131914450763,811.0,72.57054263565891
650.7184317450905,792.0,74.265780730897
651.5049455264996,754.0,76.965780730897
652.2540062706986,754.0,78.82857142857142
653.0030670148977,773.0,79.44878048780487
653.7708542777019,792.0,78.1773519163763
654.557368059111,820.0,76.02907605430734
655.3719716184276,801.0,75.10970733120834
656.1678486591392,811.0,74.5183452049625
656.9730889591532,811.0,74.80383036935704
657.7783292591673,830.0,73.94714587737843
658.6022960777863,849.0,72.84326990838618
659.4449894150104,839.0,72.0060606060606
660.2783194929319,839.0,71.73333333333332
661.1116495708534,811.0,72.83720930232558
661.9168898708675,801.0,73.96662106703145
662.712766911579,783.0,75.7015608260676
663.4899174336857,764.0,77.2347218941124
664.2483414371873,783.0,77.84024988844264
665.0254919592938,801.0,77.23472189411238
665.8213690000055,839.0,74.86435152374202
666.654699077927,811.0,73.96662106703145
667.459939377941,792.0,74.265780730897
668.2464531593502,811.0,75.10299003322258
669.0516934593643,792.0,75.69435215946844
669.8382072407733,773.0,76.31456121870188
670.6059945035774,764.0,77.84772228674667
671.3644185070791,792.0,77.84772228674667
672.1509322884882,764.0,78.16931216931216
672.9093562919898,745.0,78.8369164824861
673.6490537768864,773.0,79.45712554171955
674.4168410396906,764.0,79.45712554171955
675.1752650431922,745.0,79.45712554171955
675.9149625280888,716.0,81.51360821180941
676.626570235078,735.0,82.52785322605442
677.3569044606721,716.0,83.59514170040485
678.0685121676613,745.0,82.52785322605442
678.8082096525579,839.0,79.14323784143903
679.6415397304795,877.0,74.00571661902818
680.512322845611,886.0,69.69114619080301
681.392469220045,830.0,69.96387346353029
682.216436038664,839.0,70.99613152804642
683.0497661165856,849.0,72.0060606060606
683.8924594538096,839.0,71.73333333333332
684.7257895317312,820.0,72.28505747126437
685.5403930910477,820.0,73.10344827586206
686.3549966503642,830.0,73.37617554858934
687.1789634689833,811.0,73.66166071298389
687.9842037689973,783.0,74.844876334089
688.761354291104,783.0,76.30708882039787
689.5385048132106,783.0,77.20481927710843
690.3156553353172,801.0,76.59929128277817
691.1115323760288,811.0,75.7015608260676
691.9167726760428,783.0,75.7015608260676
692.6939231981494,773.0,76.62092954916659
693.4617104609536,783.0,77.51866000587715
694.2388609830601,783.0,77.51866000587715
695.0160115051667,783.0,77.20481927710843
695.7931620272733,764.0,77.84024988844266
696.551586030775,754.0,78.80531012940651
697.3006467749741,745.0,80.10834505391466
698.0403442598707,735.0,81.1225900681597
698.7706784854649,716.0,82.52785322605442
699.482286192454,726.0,83.23013828276986
700.2032571587457,726.0,83.5857826384142
700.9242281250374,754.0,82.18051948051948
701.6732888692366,792.0,79.86883116883116
702.4598026506457,801.0,77.25798319327731
703.2556796913572,792.0,75.98655462184874
704.0421934727663,773.0,76.60676368108219
704.8099807355704,764.0,77.84772228674667
705.568404739072,811.0,77.25636016050082
706.3736450390861,1169.0,75.48030694542321
707.1976118577052,499.0,108.44326990838618
707.5346891925948,867.0,123.90794739851341
708.0309419356267,849.0,122.85261143013399
708.8923617914556,962.0,87.25261143013398
709.7350551286797,726.0,67.8919011082694
710.6901075775336,839.0,72.4147695441813
711.4110785438253,811.0,72.68143621084798
712.2444086217469,754.0,76.57746904258532
713.0496489217609,764.0,75.53720930232558
713.79870966596,773.0,77.90757967269595
714.5571336694617,783.0,79.11915085817523
715.3249209322657,801.0,78.15409061721138
716.1020714543723,801.0,76.91313201154689
716.8979484950839,764.0,75.99376328844791
717.6938255357956,754.0,76.62919389978214
718.4522495392971,754.0,78.19978213507625
719.2013102834962,783.0,79.77037037037036
719.9503710276954,792.0,79.13493975903613
720.727521549802,783.0,77.86351118760757
721.5140353312111,792.0,76.8984509466437
722.2911858533178,773.0,76.592082616179
723.0776996347267,792.0,77.21229167541244
723.8454868975309,830.0,76.90592334494774
724.63200067894,849.0,75.75007918910357
725.4559674975591,839.0,73.43463203463202
726.298660834783,801.0,72.0060606060606
727.1319909127046,830.0,72.86274509803921
727.9278679534162,792.0,73.40213903743314
728.7518347720352,820.0,74.83071046600458
729.5383485534443,792.0,74.25302283922973
730.3529521127609,754.0,75.4088669950739
731.13946589417,745.0,76.68029556650245
731.8885266383691,764.0,79.16654611211573
732.6282241232658,801.0,80.10834505391466
733.3866481267673,811.0,78.53775681862055
734.182525167479,792.0,76.33699143740182
734.987765467493,764.0,75.39519249560288
735.7742792489021,773.0,76.63615110126737
736.5327032524037,811.0,77.84772228674667
737.3004905152079,858.0,77.25636016050082
738.1057308152219,877.0,74.35851726265793
738.9577874117484,839.0,71.27747871033692
739.82857052688,811.0,70.44026940801135
740.6619006048014,820.0,71.80495123780945
741.4671409048156,849.0,73.38893344025661
742.2817444641321,830.0,73.12226677358994
743.1244378013562,830.0,72.55778474399163
743.9484046199751,820.0,72.27878787878787
744.7723714385942,783.0,73.09717868338558
745.5869749979108,754.0,74.55939116969445
746.3641255200174,783.0,76.98666389696717
747.1131862642166,801.0,78.16987951807228
747.8903367863231,801.0,77.56435152374202
748.6862138270347,792.0,75.99376328844791
749.4820908677463,820.0,75.6873949579832
750.2686046491553,849.0,75.10970733120834
751.0832082084719,830.0,73.71362889983578
751.925901545696,801.0,72.55778474399163
752.749868364315,783.0,73.13547237076648
753.5457454050265,801.0,75.1370787964693
754.3228959271332,801.0,75.99376328844791
755.1187729678447,764.0,75.99376328844791
755.9146500085564,745.0,76.62919389978214
756.673074012058,773.0,78.53775681862055
757.4127714969546,792.0,79.45712554171955
758.1805587597587,764.0,78.51532659992061
758.9670725411678,716.0,77.84772228674667
759.7254965446695,688.0,79.90420495683654
760.4371042516586,650.0,83.73590750086784
761.1206221807404,650.0,88.32205886962791
761.7666870726121,745.0,91.1733174508636
762.4127519644838,754.0,88.95101816180517
763.1524494493805,773.0,84.69449642267473
763.9015101935796,764.0,79.78675517134917
764.6692974563837,716.0,79.11915085817523
765.4277214598853,754.0,80.52441401606998
766.1393291668745,801.0,81.1756335282651
766.8883899110737,801.0,79.9346749226006
767.6842669517853,830.0,76.95882352941176
768.4801439924968,849.0,74.53155080213904
769.3041108111158,773.0,73.13547237076648
770.1468041483399,820.0,74.05484109386548
770.914591411144,839.0,74.33383795906924
771.7291949704605,830.0,74.60050462573591
772.5625250483821,801.0,72.8244514106583
773.3864918670012,773.0,73.40213903743314
774.1823689077128,801.0,75.45091952523802
774.9501561705168,801.0,76.30760401721663
775.7460332112285,801.0,76.30760401721663
776.54191025194,792.0,75.38823529411765
777.3377872926516,754.0,75.6873949579832
778.1243010740607,735.0,77.25798319327731
778.8733618182598,726.0,79.51318681318682
779.6036960438539,773.0,81.82487512487512
780.3246670101456,792.0,81.17365561268
781.0924542729498,801.0,79.21761165663605
781.8789680543588,811.0,76.60676368108219
782.6748450950704,801.0,75.39519249560288
783.4800853950845,858.0,75.09603283173735
784.275962435796,877.0,73.43914853955893
785.1280190323225,905.0,71.56968117271722
785.9988021474541,849.0,68.69026940801135
786.897675040493,1028.0,68.95107526881719
787.740368377717,603.0,65.57966360856268
788.7609636416884,858.0,76.70466360856268
789.3602122370477,820.0,76.44385774775682
790.2122688335742,811.0,81.3992516104585
791.0268723928907,801.0,72.86146091278408
791.8321126929048,811.0,74.5183452049625
792.6279897336165,792.0,74.80383036935704
793.4332300336305,764.0,75.39519249560288
794.2197438150396,745.0,76.63615110126737
794.9781678185412,745.0,78.8369164824861
795.7178653034379,745.0,80.44631973745898
796.4575627883345,801.0,81.11392405063292
797.1972602732311,849.0,79.20536113179449
797.9931373139427,839.0,75.90071978158352
798.8358306511667,830.0,72.86274509803921
799.6691607290883,801.0,72.0060606060606
800.4931275477073,773.0,73.40213903743314
801.289004588419,735.0,75.45091952523802
802.056791851223,754.0,78.56280763712614
802.7871260768171,783.0,80.13339587242027
803.5361868210163,801.0,79.81955514365153
804.313337343123,792.0,77.56435152374202
805.1092143838345,792.0,76.29292295231346
805.8957281652436,745.0,75.98655462184874
806.6822419466527,773.0,77.89511754068717
807.4219394315493,839.0,78.51532659992061
808.1897266943535,886.0,77.08675517134918
809.0230567722749,867.0,72.77218474312403
809.903203146709,858.0,69.94079555966698
810.764623002538,801.0,69.41332303219444
811.6166795990645,801.0,71.81933054158118
812.4125566397761,754.0,73.73135100193923
813.2084336804876,735.0,76.95882352941176
813.9574944246867,735.0,79.21402714932127
814.687828650281,735.0,81.46923076923076
815.418162875875,773.0,82.15384615384616
816.1484971014693,839.0,80.81801125703565
816.9162843642733,830.0,77.43339587242026
817.7496144421949,811.0,74.32150776053214
818.573581260814,801.0,73.10993657505284
819.378821560828,745.0,74.23934833975873
820.1746986015396,801.0,77.00459575057576
820.9143960864362,877.0,77.29679821295606
821.7102731271478,801.0,75.13512838373406
822.5810562422793,726.0,73.22656546489563
823.3769332829909,735.0,75.8374134404495
824.0979042492826,716.0,80.25428688958101
824.8282384748767,716.0,83.23013828276986
825.5398461818659,735.0,83.59514170040485
826.251453888855,716.0,83.59514170040485
826.9817881144492,745.0,83.59514170040485
827.6933958214383,783.0,82.52785322605442
828.4330933063351,877.0,80.87817760047518
829.2102438284417,924.0,75.74065637806432
830.0810269435731,905.0,70.49860006186694
830.9986263552171,849.0,67.0136603028308
831.897499248256,849.0,67.77925170068026
832.74019258548,867.0,69.71666666666665
833.5828859227041,867.0,70.68405797101448
834.4443057785331,849.0,70.16811594202898
835.305725634362,811.0,70.16811594202898
836.1484189715861,792.0,71.78793394000674
836.9536592716001,849.0,73.99911406423034
837.7401730530092,839.0,73.99911406423033
838.5828663902333,811.0,73.16190476190476
839.4161964681548,745.0,72.57054263565891
840.2214367681689,707.0,75.87518398586988
840.9611342530656,698.0,80.35518398586987
841.6633787007522,726.0,84.38283954840917
842.3562598891365,792.0,85.0851246051246
843.0772308554281,839.0,82.03369603369603
843.8637446368372,811.0,77.16883116883116
844.6970747147587,773.0,74.265780730897
845.5023150147728,764.0,74.88598979013045
846.2701022775769,877.0,77.25636016050082
847.0285262810785,726.0,75.38689279365911
847.89930939621,792.0,77.07837204611397
848.6202803625017,792.0,76.13657310431503
849.4067941439108,754.0,78.5974025974026
850.1933079253199,735.0,77.55714285714285
850.942368669519,707.0,79.51318681318682
851.6727028951132,688.0,82.56461538461538
852.3749473427998,688.0,85.12488935721812
853.0584652718816,716.0,87.00054794520547
853.7419832009633,792.0,86.6258111031002
854.4535909079525,801.0,82.7941085590689
855.2401046893616,783.0,78.66324635117205
856.0359817300731,764.0,76.29292295231345
856.8131322521797,735.0,77.2347218941124
857.5715562556813,735.0,79.48992551402189
858.3018904812756,811.0,81.13960113960114
859.0322247068697,924.0,79.60644007155635
859.8374650068837,933.0,74.0177430542879
860.7550644185277,849.0,68.2088852454301
861.6820270894741,792.0,67.10500927643784
862.5247204266981,754.0,70.73766233766233
863.3112342081072,773.0,75.86190476190475
864.0602949523063,754.0,78.1773519163763
864.8280822151105,716.0,79.44878048780487
865.5771429593096,707.0,80.8540436456996
866.2887506662988,716.0,83.28526315789472
866.9909951139855,716.0,84.69052631578947
867.7026028209747,764.0,84.69052631578947
868.4142105279639,820.0,82.58089668615983
869.1726345314654,811.0,79.02735766619614
869.9872380907821,820.0,75.75930381062697
870.7924783907961,867.0,73.94065757818765
871.6070819501126,660.0,72.60632474460445
872.4685018059416,471.0,78.28340115656457
873.1239299571159,490.0,96.45167701863353
873.5920929222403,792.0,114.31120879120877
874.0789824059698,707.0,109.2254945054945
874.8654961873789,660.0,94.9854945054945
875.5677406350655,650.0,84.42285714285714
876.2231687862397,688.0,89.95080745341613
876.8692336781115,792.0,90.73108142601887
877.5527516071933,877.0,85.6453671403046
878.3392653886024,896.0,77.65658733665803
879.2100485037338,886.0,70.88052389037108
880.0995581374704,801.0,68.1753567171188
880.9797045119043,735.0,70.33702654634081
881.7755815526159,735.0,75.23743140464042
882.50591577821,820.0,79.89864253393665
883.2362500038042,877.0,79.3209549071618
884.0508535631208,933.0,74.90408145803029
884.9216366782523,933.0,69.09522364917248
885.8485993491987,867.0,66.11925708699903
886.7755620201451,811.0,66.36890645586298
887.6369818759741,839.0,69.63035818243098
888.4422221759881,886.0,72.0546006066734
889.2755522539097,886.0,71.56061355764473
890.1556986283437,849.0,69.44680851063829
891.0358450027777,905.0,69.18014184397163
891.8785383400017,905.0,68.70673758865247
892.7774112330407,886.0,68.23333333333332
893.6762841260796,867.0,67.22340425531914
894.5564305005136,811.0,68.19079555966698
895.4178503563426,811.0,70.77800486199256
896.2230906563567,830.0,72.89180990899898
897.0283309563707,849.0,73.94714587737843
897.8522977749898,867.0,72.84326990838618
898.6949911122139,830.0,71.22345191040843
899.5564109680429,839.0,71.22345191040843
900.3803777866618,820.0,71.4901185770751
901.2137078645834,801.0,72.8244514106583
902.0283114238999,773.0,73.68113590263691
902.8241884646116,716.0,75.72991639044179
903.5919757274156,858.0,79.28345541040548
904.3035834344048,820.0,77.62657111822708
905.1556400309314,830.0,76.12951476835323
905.970243590248,820.0,72.29697888318577
906.794210408867,839.0,73.37617554858934
907.6088139681835,849.0,72.8244514106583
908.4421440461051,849.0,72.28505747126437
909.2848373833291,820.0,71.46666666666665
910.1275307205531,820.0,72.01839080459769
910.9421342798697,839.0,72.8367816091954
911.7567378391863,820.0,73.10344827586206
912.5900679171077,811.0,73.10344827586206
913.4046714764244,764.0,73.38893344025661
914.2099117764384,764.0,75.75930381062699
914.96833577994,792.0,77.57795004306631
915.7267597834416,820.0,78.16931216931216
916.5132735648507,820.0,76.35066593687283
917.3278771241673,792.0,74.5320197044335
918.1424806834839,792.0,74.53201970443351
918.928994464893,764.0,75.4088669950739
919.7155082463021,745.0,77.22751322751323
920.4739322498036,716.0,78.8369164824861
921.2136297347002,716.0,81.51360821180941
921.9252374416894,707.0,83.24850099933377
922.6368451486786,698.0,84.69052631578947
923.3390895963654,726.0,85.4501280227596
924.0319707847495,754.0,85.0851246051246
924.7529417510412,792.0,83.3051246051246
925.5020024952404,783.0,79.86883116883116
926.2885162766495,754.0,77.86351118760757
927.0656667987561,707.0,77.86351118760757
927.8147275429552,792.0,80.91493975903614
928.5169719906419,839.0,80.60857142857142
929.303485772051,839.0,77.90857142857143
930.1368158499724,801.0,73.42857142857143
930.970145927894,754.0,73.12941176470588
931.7660229686056,726.0,75.82941176470587
932.5150837128048,801.0,79.56967150496561
933.2360546790964,849.0,79.56967150496561
934.031931719808,896.0,76.60300483829894
934.8746250570321,886.0,71.34695562435499
935.7641346907685,811.0,68.94094811496825
936.6442810652024,745.0,70.0448240839605
937.4495213652166,754.0,74.59858824118903
938.1892188501132,783.0,78.57518398586987
938.9382795943123,773.0,79.47291444258045
939.7154301164189,801.0,78.48372024684102
940.483217379223,433.0,76.91313201154689
941.2790944199346,613.0,97.61297486120641
941.7098043478491,547.0,104.42573283493999
942.3184162025109,877.0,116.12390727713067
942.8614852420553,858.0,92.65686660391889
943.7322683571867,849.0,83.26785561490789
944.5843249537132,792.0,70.17360274134467
945.4270182909373,783.0,72.63443223443223
946.2135320723464,764.0,74.8968445209409
946.990682594453,745.0,77.53388155797794
947.7491065979547,754.0,79.14328481295081
948.4888040828513,735.0,80.10834505391466
949.2378648270504,745.0,81.1225900681597
949.9681990526445,801.0,81.1225900681597
950.7078965375412,867.0,79.55200183286557
951.5037735782528,839.0,75.38477775259801
952.3651934340818,1122.0,72.3468030690537
953.1985235120034,594.0,65.1669711362806
954.3127513689996,811.0,75.85434173669466
954.9026367050564,886.0,76.69155103902024
955.7078770050705,896.0,81.46537546240663
956.5880233795044,896.0,70.04482408396052
957.4775330132409,839.0,67.69182530795072
958.3670426469773,792.0,68.96842105263157
959.2003727248989,811.0,71.91278195488721
959.986886506308,830.0,74.265780730897
960.792126806322,839.0,74.53850800362427
961.6160936249411,820.0,73.10993657505284
962.4494237028626,811.0,72.8244514106583
963.2640272621792,801.0,73.38893344025661
964.0692675621933,830.0,74.5183452049625
964.8651446029048,858.0,74.23934833975873
965.6891114215239,820.0,72.87466650996062
966.5411680180504,801.0,72.29697888318577
967.355771577367,811.0,73.15366337516438
968.1516486180785,481.0,74.5183452049625
968.9568889180927,386.0,91.84897400820793
969.4344151425196,811.0,118.81712321911179
969.8183087739217,783.0,118.81712321911179
970.6235490739357,783.0,102.66971003697147
971.4006995960423,820.0,76.30708882039787
972.1778501181489,839.0,76.02160365600332
972.9924536774655,839.0,74.28666389696718
973.825783755387,811.0,72.55172413793103
974.6591138333085,801.0,72.83720930232558
975.4643541333226,811.0,73.96662106703145
976.2602311740342,792.0,74.80383036935704
977.0654714740482,773.0,75.39519249560288
977.8519852554573,792.0,76.31456121870188
978.6197725182615,839.0,76.90592334494774
979.4062862996706,858.0,75.4773519163763
980.239616377592,839.0,72.90109890109889
981.0916729741186,811.0,71.47252747252747
981.9250030520401,830.0,72.30973677485305
982.7302433520542,820.0,73.10993657505284
983.5542101706733,811.0,73.66166071298389
984.3688137299898,792.0,73.66166071298389
985.1740540300038,735.0,74.81750486882805
985.960567811413,745.0,77.6503961155124
986.6909020370072,754.0,79.85116149673112
987.4305995219038,783.0,81.1225900681597
988.1796602661029,764.0,79.47291444258045
988.9568107882095,773.0,78.80531012940651
989.7152347917112,783.0,78.15409061721138
990.4830220545152,783.0,78.15409061721138
991.2601725766218,773.0,77.51866000587715
992.0373230987284,773.0,77.51866000587717
992.8051103615326,745.0,77.83250073464589
993.5728976243366,773.0,79.13553565915406
994.3125951092333,820.0,79.13553565915406
995.0803823720374,830.0,77.63847930928021
995.894985931354,849.0,74.87323189846317
996.718952749973,801.0,72.55778474399163
997.561646087197,792.0,73.13547237076648
998.3575231279086,764.0,74.29131652661064
999.1440369093177,764.0,76.92835356364768
999.9024609128194,745.0,78.16931216931216
1000.6608849163209,735.0,79.77871542428504
1001.4005824012177,754.0,80.79296043853006
1002.1309166268118,764.0,81.1225900681597
1002.8799773710109,783.0,80.45498575498576
1003.6384013745126,773.0,78.80531012940651
1004.4155518966191,716.0,78.15409061721138
1005.1833391594232,679.0,79.88898340473574
1005.8949468664124,660.0,83.82071031236627
1006.5691015361916,698.0,88.2862155388471
1007.2245296873659,707.0,89.04581724581723
1007.9174108757501,716.0,87.85915057915057
1008.6196553234367,773.0,85.4501280227596
1009.3312630304259,811.0,82.6340436456996
1010.0990502932301,764.0,78.99125294802519
1010.9042905932441,726.0,77.25636016050082
1011.6627145967458,688.0,78.94783941295569
1012.3836855630374,698.0,83.37090408323284
1013.0672034921191,783.0,85.86539857772735
1013.7600846805034,792.0,83.86007859650374
1014.53723520261,783.0,80.02837605247244
1015.3237489840191,773.0,76.8984509466437
1016.1008995061256,735.0,77.21229167541244
1016.8686867689297,698.0,79.1683356314564
1017.5990209945239,726.0,82.29826073728512
1018.2919021829081,773.0,83.98973998973999
1019.0128731491998,801.0,82.65390509292948
1019.7806604120038,820.0,78.9184519927705
1020.5765374527155,811.0,75.72991639044179
1021.391141012032,801.0,74.5183452049625
1022.1963813120461,773.0,74.5183452049625
1022.9922583527576,783.0,76.01540155483633
1023.7600456155618,839.0,76.91313201154689
1024.5371961376684,858.0,75.78372024684101
1025.37052621559,915.0,73.20746723156361
1026.2225828121163,877.0,69.4931460292285
1027.1308189644578,867.0,68.46088796471237
1028.0016020795895,867.0,68.20575179653272
1028.8630219354184,849.0,69.40252454417953
1029.7244417912473,849.0,70.16811594202898
1030.5671351284714,811.0,70.68405797101448
1031.4098284656955,792.0,72.30387596899223
1032.2150687657095,801.0,73.99911406423034
1033.0015825471187,811.0,75.39519249560288
1033.7974595878302,801.0,75.39519249560288
1034.6026998878442,783.0,75.09603283173735
1035.398576928556,764.0,75.7015608260676
1036.1757274506624,783.0,77.2347218941124
1036.934151454164,811.0,77.84024988844264
1037.7113019762708,811.0,76.94251943173208
1038.5165422762848,801.0,75.4093583636873
1039.3217825762988,764.0,74.80383036935704
1040.1176596170103,783.0,76.33699143740182
1040.876083620512,811.0,77.23472189411238
1041.6532341426187,839.0,76.94251943173208
1042.4584744426327,820.0,74.57214906136173
1043.2918045205543,801.0,73.38893344025661
1044.1064080798708,783.0,73.68113590263691
1044.9022851205823,820.0,75.41607566167306
1045.679435642689,830.0,75.41607566167306
1046.4940392020055,792.0,74.55939116969445
1047.3180060206246,773.0,74.25302283922974
1048.1045198020336,764.0,75.75007918910357
1048.8723070648377,783.0,77.84772228674667
1049.6307310683394,783.0,78.15409061721138
1050.4078815904459,792.0,77.84024988844264
1051.1850321125526,773.0,76.89845094664372
1051.9715458939618,764.0,77.21229167541244
1052.7393331567657,773.0,77.84772228674667
1053.4977571602674,811.0,78.46793134598012
1054.2655444230716,783.0,77.25636016050082
1055.0707847230856,773.0,76.62092954916659
1055.8479352451923,735.0,76.62092954916659
1056.6157225079962,745.0,79.1683356314564
1057.3460567335906,801.0,80.47137055596457
1058.0857542184872,811.0,79.55200183286557
1058.8816312591987,792.0,77.00459575057576
1059.6868715592127,783.0,75.39519249560288
1060.473385340622,726.0,76.00072048993314
1061.2505358627284,726.0,78.9037709278673
1061.9715068290202,764.0,81.21545923955563
1062.6924777953118,792.0,81.85088985088984
1063.4509017988134,830.0,79.53920153920154
1064.2374155802224,811.0,76.07166907166906
1065.0613823988415,773.0,74.53850800362427
1065.8666226988555,801.0,75.15871706285773
1066.6344099616597,830.0,76.01540155483633
1067.4302870023714,896.0,75.45091952523802
1068.2542538209902,924.0,71.88634956374894
1069.143763454727,858.0,68.55285616639
1070.0613628663707,811.0,67.7526563661902
1070.9134194628973,820.0,70.10565514219998
1071.7186597629113,867.0,72.86146091278408
1072.5332633222279,867.0,72.60632474460445
1073.394683178057,830.0,70.98650674662669
1074.256103033886,801.0,70.70750988142292
1075.080069852505,896.0,72.61953034178097
1075.8759468932165,915.0,71.88634956374894
1076.7654565269531,830.0,69.63424084772271
1077.6736926792944,792.0,68.77755635574408
1078.4976594979134,783.0,71.72191725799973
1079.2841732793227,839.0,75.43623846033483
1080.0613238014291,849.0,75.16351118760757
1080.8946538793507,858.0,73.46827309236946
1081.7373472165748,811.0,71.2058608058608
1082.5894038131014,811.0,72.04307010818637
1083.3946441131154,801.0,73.14694607717863
1084.1998844131294,792.0,74.80383036935704
1084.995761453841,801.0,75.39519249560288
1085.7822752352502,764.0,75.68739495798319
1086.5781522759617,745.0,76.92835356364768
1087.3365762794633,783.0,78.53775681862055
1088.07627376436,792.0,79.14328481295081
1088.8534242864666,792.0,78.20148587115187
1089.6399380678756,764.0,76.592082616179
1090.4264518492848,735.0,77.22751322751323
1091.1848758527863,745.0,79.18355718355718
1091.9152100783806,801.0,80.79296043853006
1092.6549075632772,830.0,79.55200183286557
1093.4507846039887,792.0,76.44011372097745
1094.2747514226078,773.0,74.83071046600458
1095.0612652040168,820.0,75.75007918910357
1095.829052466821,839.0,76.02907605430734
1096.6436560261375,820.0,74.60050462573591
1097.476986104059,792.0,73.10344827586206
1098.2915896633756,773.0,73.98029556650246
1099.0781034447848,745.0,76.02907605430734
1099.8458907075888,773.0,78.51532659992061
1100.5855881924854,792.0,79.13553565915406
1101.3533754552896,801.0,78.51532659992061
1102.1398892366988,792.0,76.60676368108219
1102.9357662774103,773.0,75.98655462184874
1103.7222800588193,745.0,76.60676368108219
1104.4900673216234,754.0,78.51532659992061
1105.22976480652,773.0,79.78675517134917
1105.9788255507192,783.0,79.78675517134917
1106.7466128135234,773.0,78.48372024684102
1107.52376333563,745.0,77.83250073464589
1108.291550598434,735.0,78.82169493038532
1109.0312480833306,726.0,80.47137055596457
1109.761582308925,783.0,82.16284980841942
1110.4825532752166,839.0,80.85981488391127
1111.2597037973233,877.0,77.47519949929588
1112.0930338752446,915.0,72.70268169452001
1112.9638169903762,839.0,68.98836049218491
1113.8720531427177,820.0,68.98836049218491
1114.705383220639,811.0,70.57234269463207
1115.5199867799556,783.0,73.38893344025661
1116.3252270799699,745.0,75.12387319929276
1117.1023776020763,801.0,77.61012374490602
1117.842075086973,801.0,77.90232620728632
1118.6379521276847,783.0,77.29679821295606
1119.4338291683962,745.0,75.99376328844791
1120.2109796905029,754.0,77.90232620728634
1120.9506771753995,764.0,79.47291444258045
1121.6997379195986,783.0,80.10834505391466
1122.4581619231003,792.0,78.80531012940651
1123.2353124452068,764.0,77.53388155797794
1124.021826226616,754.0,77.53388155797794
1124.7802502301174,801.0,78.49894179894179
1125.5293109743166,839.0,78.19978213507625
1126.3251880150283,858.0,75.82941176470588
1127.1585180929499,858.0,72.60193923723335
1128.0105746894762,830.0,70.94505494505493
1128.8626312860029,811.0,71.2177822177822
1129.686598104622,754.0,72.58246404758032
1130.491838404636,764.0,75.80993657505284
1131.240899148835,811.0,77.90757967269595
1131.9993231523367,877.0,77.90757967269595
1132.8045634523507,858.0,74.17532160817981
1133.6753465674822,886.0,71.27747871033691
1134.5274031640088,839.0,69.16367366333048
1135.4075495384427,783.0,70.19593172784661
1136.2408796163643,811.0,72.45834401435529
1137.018030138471,783.0,74.57214906136171
1137.823270438485,811.0,76.30708882039787
1138.6004209605915,801.0,75.4093583636873
1139.4056612606057,764.0,75.7015608260676
1140.2015383013172,726.0,76.33699143740182
1140.9599623048189,745.0,79.24004187533598
1141.6809332711105,811.0,81.14860479417442
1142.420630756007,839.0,79.61544372612963
1143.225871056021,839.0,75.87518398586988
1144.0592011339427,801.0,72.83720930232558
1144.8925312118643,830.0,73.12941176470588
1145.6884082525758,877.0,73.40213903743314
1146.5123750711948,877.0,72.36988097291703
1147.3831581863265,820.0,70.20821114369501
1148.2539413014579,792.0,70.48720800889878
1149.0685448607744,773.0,72.94803750198633
1149.8550586421836,745.0,76.02907605430734
1150.6228459049876,735.0,78.51532659992061
1151.3625433898842,726.0,80.47137055596457
1152.0928776154785,754.0,82.16284980841942
1152.8138485817701,820.0,81.82487512487512
1153.5629093259693,867.0,78.99198387819077
1154.3775128852858,867.0,74.46911544227886
1155.238932741115,858.0,70.98650674662669
1156.1003525969438,905.0,69.90731008122313
1156.9524091934704,858.0,68.93991877687529
1157.8512820865094,849.0,69.19505494505493
1158.7033386830358,830.0,69.4558608058608
1159.5460320202599,783.0,71.47858807858806
1160.369998838879,773.0,73.74100036509674
1161.1471493609854,830.0,76.05644751956828
1161.9149366237896,858.0,76.05644751956828
1162.7389034424086,839.0,73.79403523305962
1163.5909600389352,783.0,71.74525474525474
1164.4242901168568,754.0,73.20746723156361
1165.2014406389633,820.0,76.43493975903613
1165.9505013831624,896.0,76.98666389696717
1166.765104942479,905.0,73.73593466424683
1167.6546145762154,867.0,69.28593466424682
1168.5534874692544,764.0,67.9516018306636
1169.4149073250835,783.0,71.8377616747182
1170.1733313285852,801.0,75.32270143375433
1170.9504818506916,849.0,77.23472189411238
1171.7463588914031,877.0,74.59768485707535
1172.5890522286272,839.0,71.83048703352308
1173.4598353437589,830.0,70.70107526881719
1174.2931654216802,830.0,71.24046920821114
1175.1171322402993,830.0,72.54545454545453
1175.9410990589183,783.0,72.81818181818181
1176.7650658775374,811.0,74.28039430449068
1177.542216399644,773.0,74.844876334089
1178.347456699658,754.0,76.62092954916659
1179.1152439624623,735.0,77.58598979013044
1179.8643047066614,764.0,80.13339587242027
1180.5946389322555,839.0,80.45498575498576
1181.3530629357572,849.0,77.75498575498575
1182.1863930136788,839.0,74.1037037037037
1183.0290863509026,754.0,71.73333333333332
1183.8624164288242,707.0,74.43333333333332
1184.6114771730233,698.0,79.17999999999999
1185.31372162071,745.0,84.04486486486485
1186.0066028090941,792.0,84.38283954840917
1186.746300293991,839.0,81.3314109769806
1187.5328140754,839.0,76.46654611211574
1188.3661441533216,820.0,73.42857142857143
1189.1994742312431,830.0,72.55172413793103
1190.0140777905597,839.0,72.8244514106583
1190.8380446091787,830.0,72.8244514106583
1191.6713746871003,801.0,72.54545454545453
1192.4953415057194,801.0,73.40213903743314
1193.2912185464309,801.0,74.53155080213904
1194.0870955871424,820.0,75.38823529411765
1194.882972627854,754.0,74.8105476673428
1195.6975761871706,726.0,76.38113590263691
1196.4466369313698,726.0,78.99198387819078
1197.1676078976614,773.0,82.18051948051948
1197.888578863953,783.0,81.52929996832435
1198.6563661267571,773.0,79.52397998710076
1199.4335166488638,745.0,77.83250073464589
1200.2013039116678,764.0,78.82169493038532
1200.9410013965644,792.0,79.45712554171955
1201.699425400066,735.0,78.8369164824861
1202.4859391814753,971.0,79.18355718355718
1203.2162734070694,566.0,78.54812657222296
1203.993423929176,632.0,79.81955514365151
1204.7424846733752,679.0,84.31553677396151
1205.3698230466418,622.0,88.24726368159205
1206.043977716421,603.0,93.9109000452284
1206.6619528303854,603.0,95.40530303030303
1207.2612014257447,688.0,99.11363636363636
1207.860450021104,792.0,96.01027397260273
1208.5439679501858,783.0,88.06384540117416
1209.3304817315948,735.0,80.4237851602103
1210.1076322537015,773.0,78.54812657222296
1210.8379664792956,735.0,79.1683356314564
1211.6057537420998,811.0,80.81801125703565
1212.3360879676939,820.0,78.27060517474584
1213.1413282677079,839.0,76.773548824872
1213.9559318270244,830.0,73.38893344025661
1214.789261904946,801.0,72.8244514106583
1215.613228723565,792.0,73.40213903743314
1216.4091057642765,792.0,74.83071046600458
1217.1956195456858,849.0,75.98655462184874
1217.9821333270947,867.0,74.59047619047618
1218.8248266643188,896.0,72.37929606625258
1219.6862465201477,886.0,69.43493516399694
1220.5757561538844,839.0,68.42500608598276
1221.4559025283183,773.0,69.20761478163493
1222.28923260624,754.0,72.77218474312403
1223.0570198690439,764.0,76.74878048780488
1223.806080613243,773.0,79.11915085817523
1224.5645046167447,783.0,79.11915085817523
1225.3322918795488,801.0,78.15409061721138
1226.1094424016553,773.0,76.91313201154689
1226.905319442367,735.0,76.9131320115469
1227.673106705171,716.0,78.56280763712614
1228.4034409307653,679.0,81.53865903031499
1229.1150486377544,669.0,85.15654520917678
1229.7892033075336,698.0,87.85643686681492
1230.4539947180103,735.0,88.61603857378505
1231.1468759063946,764.0,86.33398729173376
1231.8772101319887,745.0,82.61985061985061
1232.6356341354904,707.0,80.79296043853006
1233.375331620387,688.0,81.88834505391466
1234.0775760680738,688.0,84.77824865614704
1234.7610939971555,716.0,87.00054794520547
1235.444611926237,745.0,86.6258111031002
1236.1562196332263,754.0,84.40351181404178
1236.895917118123,754.0,81.84323784143903
1237.644977862322,726.0,80.4379746835443
1238.3940386065212,764.0,81.14025974025972
1239.1150095728128,764.0,80.8106301106301
1239.8734335763145,801.0,80.48100048100048
1240.6318575798161,877.0,77.87015250544661
1241.4277346205276,726.0,74.46752407056012
1242.2985177356593,745.0,75.8374134404495
1243.0194887019509,924.0,77.74597635928791
1243.7591861868475,698.0,76.57415279115098
1244.6767855984915,735.0,77.6987579157561
1245.3696667868755,726.0,78.04539861682719
1246.1000010124699,707.0,83.98973998973999
1246.8209719787615,754.0,83.60487512487512
1247.5232164264482,867.0,82.92025974025972
1248.2722771706474,962.0,78.39739130434782
1249.1336970264763,924.0,70.85856777493606
1250.0887494753301,877.0,65.954486142283
1251.0063488869741,849.0,65.70483677341903
1251.8771320021056,830.0,68.49699363616413
1252.7198253393296,801.0,70.97380254154447
1253.5437921579487,764.0,73.13547237076648
1254.3396691986602,754.0,75.77250940780351
1255.0980932021619,783.0,78.19978213507625
1255.847153946361,792.0,78.80531012940651
1256.6243044684677,801.0,77.86351118760757
1257.4108182498767,754.0,76.29292295231345
1258.2066952905884,716.0,77.25798319327731
1258.9557560347876,679.0,79.9346749226006
1259.6673637417766,660.0,84.47192982456139
1260.3415184115559,773.0,88.2862155388471
1260.99694656273,773.0,86.22973286875725
1261.7647338255342,716.0,82.61184668989546
1262.5325210883384,792.0,80.20282413350449
1263.2441287953275,933.0,79.58261507427105
1264.0306425767367,971.0,75.10959216222375
1264.957605247683,877.0,67.7421930819989
1265.9220209558393,783.0,65.28136358891135
1266.792804070971,764.0,69.4405457721899
1267.5699545930775,745.0,75.07305206489038
1268.3283785965791,764.0,79.14328481295081
1269.0680760814757,773.0,79.77871542428504
1269.8265000849774,849.0,79.45712554171955
1270.5942873477816,952.0,76.15248419150856
1271.4369806850054,547.0,83.68687572590011
1272.0268660210622,594.0,113.8486215538847
1272.382669874557,773.0,126.94287442744792
1272.9257389141012,735.0,126.94287442744792
1273.5156242501582,764.0,96.78112859946333
1274.2834115129622,754.0,87.33815777718216
1275.0137457385563,811.0,79.80376624279063
1275.772169742058,820.0,80.45498575498576
1276.521230486257,811.0,77.90757967269595
1277.3264707862713,754.0,76.08893344025661
1278.1410743455879,792.0,74.2261427425822
1278.946314645602,792.0,76.08893344025661
1279.695375389801,820.0,76.96578073089701
1280.48188917121,839.0,77.55714285714285
1281.2684029526192,801.0,75.4088669950739
1282.0830065119358,764.0,73.98029556650246
1282.9163365898573,783.0,73.68113590263691
1283.7122136305688,811.0,75.49978213507625
1284.4706376340705,839.0,77.23472189411238
1285.247788156177,820.0,76.94251943173208
1286.0530284561912,792.0,74.57214906136173
1286.8863585341126,745.0,73.38893344025661
1287.7009620934293,773.0,73.98029556650246
1288.4874758748383,801.0,77.01827025004677
1289.227173359735,792.0,78.51532659992061
1289.994960622539,764.0,78.21616693605506
1290.7908376632506,754.0,76.60676368108219
1291.5773514446598,792.0,76.92835356364768
1292.3357754481613,801.0,78.49894179894179
1293.0848361923604,783.0,78.49894179894179
1293.8713499737696,773.0,77.25798319327731
1294.667227014481,792.0,76.29292295231345
1295.4443775365878,792.0,76.9131320115469
1296.212164799392,773.0,77.21229167541244
1296.998678580801,745.0,76.90592334494774
1297.7851923622102,783.0,76.90592334494774
1298.5529796250141,811.0,78.51532659992061
1299.2926771099108,820.0,78.82169493038532
1300.0698276320175,792.0,77.61012374490602
1300.8750679320315,754.0,75.12387319929276
1301.689671491348,773.0,74.81750486882805
1302.4761852727572,783.0,76.68029556650245
1303.2252460169564,792.0,78.1773519163763
1303.9930332797603,764.0,78.48372024684102
1304.770183801867,773.0,77.21229167541244
1305.556697583276,801.0,77.53388155797794
1306.3151215867777,801.0,77.84772228674667
1307.0829088495818,773.0,77.54856262288112
1307.8787858902933,726.0,76.30760401721663
1308.674662931005,688.0,76.30760401721665
1309.442450193809,679.0,78.91845199277049
1310.1634211601008,735.0,83.04931420066735
1310.8469390891826,754.0,86.66720037952913
1311.5210937589618,783.0,86.31155602388479
1312.251427984556,773.0,83.75128205128205
1313.000488728755,735.0,79.81955514365153
1313.7776392508615,754.0,78.48372024684102
1314.5454265136657,801.0,79.1683356314564
1315.2757607392598,801.0,80.13339587242027
1316.024821483459,783.0,79.21402714932127
1316.8206985241707,754.0,76.95882352941176
1317.6165755648822,735.0,75.99376328844791
1318.3937260869889,764.0,77.56435152374202
1319.1427868311878,764.0,79.81955514365153
1319.873121056782,764.0,80.45498575498576
1320.6315450602838,754.0,80.12535612535612
1321.3899690637852,726.0,79.1111111111111
1322.1483930672869,745.0,79.44074074074072
1322.897453811486,754.0,80.8106301106301
1323.6184247777778,735.0,81.47823442380404
1324.3581222626744,735.0,81.47823442380404
1325.1071830068736,735.0,81.1225900681597
1325.8375172324677,716.0,81.46923076923076
1326.5678514580618,716.0,82.15384615384616
1327.298185683656,707.0,82.87449392712551
1328.0097933906452,726.0,83.59514170040485
1328.7214010976343,735.0,84.69052631578947
1329.423645545321,764.0,84.32552289815447
1330.1446165116126,745.0,83.60487512487512
1330.8749507372067,735.0,81.49524549524548
1331.6333747407084,726.0,80.79296043853006
1332.373072225605,783.0,80.79296043853006
1333.1034064511994,830.0,82.16284980841942
1333.824377417491,830.0,80.85981488391127
1334.6015279395974,801.0,77.74792677202315
1335.4254947582165,764.0,74.28039430449068
1336.2494615768355,754.0,73.67486631016043
1337.0453386175473,745.0,75.77250940780351
1337.803762621049,764.0,78.19978213507625
1338.552823365248,820.0,80.10834505391466
1339.2925208501447,830.0,80.10834505391466
1340.0509448536461,820.0,77.9600691918457
1340.8655484129629,801.0,75.19482178102866
1341.689515231582,745.0,73.37617554858934
1342.5041187908985,735.0,73.95386317536419
1343.29999583161,773.0,76.71911058618122
1344.0396933165066,792.0,79.55200183286557
1344.7700275421007,754.0,80.47137055596457
1345.5378148049049,707.0,78.8619673009917
1346.3243285863139,660.0,78.1773519163763
1347.073389330513,641.0,80.60857142857142
1347.7756337781998,688.0,85.6942857142857
1348.431061929374,735.0,90.40605042016806
1349.0677635619434,716.0,91.1863243927708
1349.751281491025,754.0,88.05665406310047
1350.4816157166192,801.0,84.75015251511286
1351.1932234236083,801.0,82.18987854251012
1351.9422841678074,820.0,79.9346749226006
1352.7381612085192,801.0,76.95882352941176
1353.5340382492307,764.0,74.8105476673428
1354.3486418085472,801.0,74.8105476673428
1355.1445188492587,801.0,76.05150627300728
1355.9029428527604,849.0,76.62919389978212
1356.698819893472,820.0,76.62919389978212
1357.4946969341836,773.0,73.99215686274509
1358.3373902714077,830.0,73.41446923597024
1359.1519938307242,839.0,74.33383795906924
1359.9197810935282,839.0,74.87323189846317
1360.7437479121472,811.0,74.32150776053214
1361.5770779900688,783.0,72.27272727272727
1362.4104080679904,811.0,72.83720930232558
1363.2156483680044,820.0,74.57214906136171
1363.992798890111,830.0,75.4093583636873
1364.798039190125,858.0,75.12387319929276
1365.6126427494416,830.0,73.66166071298389
1366.4366095680607,792.0,72.29697888318577
1367.2886661645873,792.0,72.017982017982
1368.1126329832064,820.0,73.17382617382617
1368.8991467646154,867.0,75.12987012987013
1369.6856605460246,877.0,75.4088669950739
1370.500264105341,858.0,73.19768687085029
1371.36168396117,839.0,70.73685737776273
1372.2324670763014,839.0,69.65766071235916
1373.084523672828,839.0,70.44026940801135
1373.9178537507496,849.0,71.47252747252747
1374.7511838286712,820.0,72.0
1375.5845139065927,801.0,71.73333333333332
1376.4272072438166,820.0,72.28505747126437
1377.2418108031331,820.0,73.41446923597024
1378.0376878438449,839.0,74.23286004056796
1378.8522914031614,839.0,74.23286004056796
1379.666894962478,792.0,73.10344827586206
1380.5002250403995,792.0,72.55172413793103
1381.333555118321,811.0,73.42857142857143
1382.12006889973,811.0,74.85714285714286
1382.9065826811393,773.0,75.69435215946844
1383.7118229811533,745.0,75.10299003322258
1384.5170632811673,726.0,75.72319909245604
1385.2848505439715,745.0,77.92396447367476
1386.0245480288681,773.0,80.82701491160893
1386.7455189951597,801.0,81.81620910734836
1387.4852164800564,801.0,80.82701491160893
1388.2530037428605,764.0,78.21616693605506
1389.048880783572,726.0,76.30760401721663
1389.8447578242838,707.0,76.62919389978214
1390.6031818277852,707.0,79.24004187533598
1391.324152794077,726.0,82.5906301106301
1392.0263972417636,726.0,84.70025974025972
1392.7286416894503,716.0,84.70025974025972
1393.449612655742,698.0,83.96051948051948
1394.1705836220337,707.0,83.5857826384142
1394.8821913290228,716.0,84.71038776301933
1395.575072517407,745.0,85.4501280227596
1396.2773169650936,745.0,85.4501280227596
1396.988924672083,754.0,83.62323784143904
1397.7286221569796,735.0,82.18121252498335
1398.4683196418762,754.0,80.7759493670886
1399.2173803860753,773.0,81.1225900681597
1399.9477146116694,764.0,80.78461538461538
1400.6967753558686,764.0,80.13339587242027
1401.4645626186727,735.0,79.11915085817523
1402.2229866221744,735.0,78.78952122854561
1402.981410625676,764.0,80.12535612535612
1403.7117448512702,754.0,81.13960113960114
1404.4420790768643,754.0,81.13960113960114
1405.200503080366,773.0,80.45498575498576
1405.949563824565,726.0,79.77037037037036
1406.6986245687642,688.0,79.44878048780487
1407.4664118315684,716.0,80.48904022806461
1408.18738279786,764.0,83.04931420066735
1408.8709007269417,820.0,85.10579687075722
1409.5825084339308,858.0,83.73590750086784
1410.3409324374325,849.0,79.02735766619614
1411.155535996749,839.0,74.39462198082887
1412.0075925932756,811.0,71.75758494379184
1412.8502859304997,811.0,71.2058608058608
1413.683616008421,830.0,72.57054263565891
1414.4888563084353,839.0,73.67441860465115
1415.2940966084493,783.0,73.94714587737843
1416.1180634270684,754.0,73.10993657505284
1416.95139350499,792.0,74.0076670317634
1417.7285440270964,820.0,76.43493975903613
1418.4776047712955,820.0,77.86351118760757
1419.2641185527048,792.0,76.68029556650247
1420.0787221120213,773.0,74.5320197044335
1420.8933256713378,783.0,74.53201970443351
1421.6798394527468,783.0,76.02907605430734
1422.447626715551,792.0,77.21229167541244
1423.2247772376577,764.0,77.51866000587715
1424.0019277597642,754.0,76.89845094664372
1424.7884415411734,754.0,77.53388155797794
1425.5468655446748,801.0,78.49894179894179
1426.295926288874,811.0,79.77037037037036
1427.044987033073,830.0,78.52941176470587
1427.8408640737848,811.0,76.66662106703146
1428.6461043737988,773.0,74.23934833975873
1429.470071192418,783.0,73.94714587737843
1430.275311492432,773.0,75.15871706285773
1431.043098755236,792.0,76.62092954916659
1431.8202492773426,764.0,77.83250073464589
1432.5880365401467,735.0,77.21229167541244
1433.374550321556,754.0,77.84772228674667
1434.1329743250574,801.0,79.18355718355718
1434.8633085506517,830.0,80.45498575498576
1435.6123692948509,858.0,79.21402714932127
1436.4082463355624,811.0,76.10213903743315
1437.2322131541814,792.0,72.87466650996062
1438.084269750708,820.0,72.58246404758032
1438.889510050722,792.0,73.73830820342448
1439.676023832131,783.0,74.81750486882804
1440.4906273914476,745.0,75.4088669950739
1441.2771411728568,726.0,75.7152353255386
1442.0542916949632,764.0,78.20148587115187
1442.7939891798599,773.0,80.51317418284017
1443.5149601461517,792.0,81.14860479417442
1444.2733841496533,792.0,80.15941059843499
1445.0411714124573,773.0,77.84772228674667
1445.8276851938665,773.0,76.90592334494774
1446.6141989752755,811.0,76.90592334494774
1447.3819862380797,811.0,77.52613240418118
1448.1497735008838,783.0,76.93477027793533
1448.9550138008979,764.0,75.72319909245603
1449.7602541009119,735.0,75.4093583636873
1450.5374046230186,735.0,76.94251943173208
1451.2958286265202,726.0,79.48992551402189
1452.0261628521143,754.0,81.13960113960114
1452.7564970777084,773.0,82.50949050949052
1453.477468044,764.0,81.82487512487512
1454.2265287881992,764.0,80.48904022806461
1454.9943160510034,735.0,79.11915085817523
1455.752740054505,716.0,78.78952122854561
1456.5111640580067,735.0,80.12535612535612
1457.2414982836008,764.0,81.86024891288048
1457.9531059905898,754.0,82.87449392712551
1458.6834402161842,783.0,81.86024891288048
1459.4418642196858,754.0,80.45498575498576
1460.190924963885,745.0,78.80531012940651
1460.9680754859914,735.0,79.13493975903614
1461.7171362301906,764.0,79.47291444258045
1462.4568337150872,754.0,81.1225900681597
1463.1871679406813,754.0,80.79296043853006
1463.945591944183,754.0,80.45498575498576
1464.6946526883821,735.0,79.77037037037036
1465.4437134325813,735.0,80.1
1466.1927741767804,745.0,80.78461538461538
1466.9231084023745,773.0,81.46923076923076
1467.6534426279688,707.0,81.80720545277508
1468.3931401128655,669.0,80.47137055596457
1469.1609273756694,650.0,81.56675517134917
1469.8631718233562,669.0,84.61328753005839
1470.527963233833,726.0,89.52102878138395
1471.1740281257046,716.0,91.12553582363748
1471.8388195361815,707.0,88.78128852164369
1472.559790502473,726.0,85.93002994040799
1473.2713982094622,754.0,84.32552289815447
1473.973642657149,830.0,84.32552289815447
1474.6946136234405,867.0,82.92025974025972
1475.4436743676397,849.0,78.712987012987
1476.2676411862587,811.0,74.1901185770751
1477.1290610420879,764.0,71.22345191040841
1477.9717543793117,726.0,71.78793394000674
1478.776994679326,764.0,74.94091300602928
1479.5354186828274,773.0,78.94783941295569
1480.2563896491192,754.0,80.48100048100048
1481.014813652621,707.0,80.15941059843499
1481.7826009154248,745.0,79.11915085817523
1482.531661659624,773.0,81.22878048780487
1483.2339061073108,773.0,82.2179746835443
1483.9736035922074,754.0,81.56675517134917
1484.7413908550116,735.0,79.13553565915406
1485.5091781178155,745.0,78.79756097560974
1486.2582388620147,764.0,80.13339587242027
1486.988573087609,801.0,81.1225900681597
1487.7282705725056,820.0,80.79296043853006
1488.4866945760073,820.0,78.53775681862055
1489.2825716167188,773.0,76.05150627300728
1490.0971751760353,745.0,74.23286004056796
1490.9117787353518,764.0,75.15222876366695
1491.679565998156,783.0,77.63847930928021
1492.4192634830526,783.0,79.45712554171955
1493.1776874865543,811.0,79.14328481295081
1493.9548380086608,773.0,77.84024988844264
1494.7319885307675,754.0,76.30708882039787
1495.5372288307815,754.0,76.62092954916659
1496.3050160935857,792.0,77.58598979013044
1497.0540768377848,849.0,79.44878048780487
1497.803137581984,839.0,78.82857142857142
1498.589651363393,839.0,75.86190476190475
1499.432344700617,839.0,73.16190476190476
1500.2656747785386,820.0,71.73333333333332
1501.0990048564602,830.0,72.0
1501.9323349343815,839.0,72.55172413793103
1502.7469384936983,792.0,72.8244514106583
1503.5709053123173,754.0,72.8244514106583
1504.4042353902387,745.0,73.7012987012987
1505.190749171648,745.0,76.12857142857143
1505.939809915847,783.0,79.16654611211573
1506.6795074007437,820.0,80.7759493670886
1507.4192048856403,858.0,79.81088912612475
1508.196355407747,877.0,77.32463858051148
1509.0109589670635,839.0,73.75919136949464
1509.86301556359,754.0,70.99199354594238
1510.7337986787215,735.0,70.44026940801135
1511.567128756643,773.0,73.66774193548386
1512.316189500842,792.0,78.08461538461538
1513.0465237264364,801.0,80.13339587242027
1513.8143109892403,773.0,78.8619673009917
1514.6008247706495,745.0,76.60676368108219
1515.396701811361,773.0,76.60676368108219
1516.1644890741652,820.0,78.21616693605506
1516.9041865590618,830.0,79.13553565915406
1517.671973821866,820.0,77.63847930928021
1518.4865773811825,783.0,74.87323189846317
1519.3105441998016,745.0,73.37617554858934
1520.1251477591181,764.0,74.55939116969445
1520.9022982812246,801.0,77.32463858051148
1521.6419957661215,839.0,79.14328481295081
1522.4004197696229,839.0,78.53775681862055
1523.1962968103346,792.0,75.49978213507625
1524.0296268882562,764.0,73.12941176470588
1524.8629569661775,688.0,73.42857142857143
1525.6494707475867,358.0,75.7989417989418
1526.4078947510884,547.0,81.05921577154453
1527.0914126801702,981.0,111.84117065876256
1527.4472165336647,632.0,122.29838649528875
1527.9902855732091,764.0,113.57657406114755
1528.9640645406678,792.0,89.24664476028346
1529.5914029139346,820.0,78.78942892375727
1530.3498269174363,830.0,83.67953881386717
1531.1363406988453,764.0,76.35066593687283
1531.9509442581618,726.0,74.25302283922973
1532.7749110767809,707.0,75.19482178102868
1533.5333350802825,726.0,78.38335738335738
1534.2543060465744,764.0,82.5906301106301
1534.956550494261,792.0,83.96051948051948
1535.6775214605527,792.0,82.5906301106301
1536.4359454640542,764.0,79.53920153920154
1537.2224592454634,726.0,77.22751322751323
1538.0089730268724,735.0,77.22751322751323
1538.767397030374,783.0,79.53920153920154
1539.4883679966658,783.0,81.49524549524548
1540.21870222226,764.0,80.85981488391127
1540.9958527443664,716.0,78.85449490268766
1541.773003266473,745.0,77.84024988844266
1542.5314272699748,726.0,80.21057328730123
1543.2430349769638,716.0,81.51360821180941
1543.9827324618605,726.0,82.88349758169878
1544.7037034281523,726.0,82.88349758169878
1545.4153111351413,688.0,83.5857826384142
1546.136282101433,679.0,83.5857826384142
1546.8572530677247,698.0,84.74079345312221
1547.5407709968065,707.0,86.66720037952913
1548.2149256665857,716.0,87.79180550413426
1548.9078068549697,726.0,87.01153153153152
1549.6100513026565,773.0,85.4501280227596
1550.3216590096456,783.0,84.32552289815447
1551.0426299759374,811.0,81.89430338595935
1551.8104172387414,801.0,79.52397998710076
1552.587567760848,764.0,76.62092954916659
1553.392808060862,688.0,75.7015608260676
1554.1886851015738,716.0,76.33699143740182
1554.9471091050752,726.0,80.76005610767898
1555.630627034157,764.0,83.73590750086782
1556.3422347411463,735.0,85.10579687075722
1557.0632057074379,698.0,82.21589326852484
1557.8216297109395,669.0,81.49524549524548
1558.5519639365336,679.0,82.61985061985061
1559.244845124918,773.0,86.33398729173376
1559.9096365353946,867.0,88.61603857378505
1560.5837912051738,877.0,85.79995419672505
1561.351578467978,849.0,78.93283845881936
1562.212998323807,783.0,72.23391372763658
1563.0837814389386,726.0,69.91846657316503
1563.9264747761624,688.0,72.43601502785334
1564.7036252982691,650.0,77.2085328326292
1565.4245962645607,660.0,82.73547347189862
1566.1081141936425,679.0,87.95705545199291
1566.7541790855141,698.0,90.73108142601887
1567.4096072366885,679.0,91.1374741200828
1568.0837619064678,716.0,89.04581724581723
1568.7766430948518,830.0,88.19819819819818
1569.450797764631,886.0,86.63679468942627
1570.1624054716203,905.0,82.04465709728866
1570.9863722902394,849.0,75.10139468594116
1571.8665186646733,783.0,69.24613152804642
1572.7653915577123,726.0,68.70673758865247
1573.6080848949364,726.0,71.71827309236947
1574.3852354170428,716.0,77.2085328326292
1575.1062063833347,754.0,81.21545923955563
1575.8271773496263,783.0,83.5857826384142
1576.5387850566153,792.0,82.54552289815447
1577.2878458008145,764.0,80.54020291693087
1578.0649963229212,754.0,77.86351118760757
1578.8515101043301,783.0,77.53388155797794
1579.6099341078318,801.0,78.49894179894179
1580.358994852031,839.0,78.80531012940651
1581.1361453741376,801.0,77.56435152374202
1581.9320224148491,764.0,74.86435152374202
1582.7653524927707,792.0,74.25882352941176
1583.5612295334822,764.0,75.49978213507625
1584.3196535369839,792.0,76.92835356364768
1585.106167318393,764.0,78.16931216931216
1585.8645913218945,745.0,77.22751322751323
1586.6511051033037,764.0,78.16931216931216
1587.4095291068054,773.0,78.8369164824861
1588.149226591702,783.0,79.77871542428504
1588.9076505952037,783.0,79.45712554171955
1589.6754378580076,754.0,78.15409061721138
1590.4525883801143,754.0,77.51866000587715
1591.229738902221,764.0,78.16987951807228
1591.9787996464202,801.0,79.13493975903614
1592.7278603906193,783.0,79.77037037037036
1593.4862843941207,773.0,78.19978213507625
1594.2821614348325,792.0,77.23472189411238
1595.059311956939,830.0,76.9131320115469
1595.827099219743,849.0,77.21229167541244
1596.613613001152,820.0,75.75007918910357
1597.4375798197711,783.0,73.43463203463202
1598.2802731569952,792.0,72.55778474399163
1599.0948767163118,811.0,74.0199972303005
1599.8720272384185,839.0,75.7152353255386
1600.6585410198275,820.0,76.00072048993314
1601.4637813198417,839.0,74.265780730897
1602.297111397763,849.0,73.38893344025661
1603.1117149570796,849.0,72.55172413793103
1603.9450450350012,839.0,72.28505747126437
1604.7877383722252,792.0,71.46666666666665
1605.6304317094493,773.0,71.46666666666665
1606.463761787371,783.0,73.16190476190476
1607.25027556878,811.0,75.4773519163763
1608.018062831584,839.0,77.21229167541244
1608.7952133536905,811.0,76.62092954916659
1609.6004536537048,783.0,74.57214906136173
1610.4337837316261,792.0,73.67441860465115
1611.2390240316404,801.0,74.57214906136171
1612.0161745537469,811.0,76.00072048993314
1612.802688335156,830.0,76.29292295231345
1613.5985653758676,792.0,75.39519249560288
1614.4038056758816,764.0,74.23934833975873
1615.2277724945006,735.0,74.53850800362429
1616.0142862759099,754.0,76.07166907166906
1616.7727102794113,792.0,79.18355718355718
1617.5030445050056,811.0,80.45498575498576
1618.2521052492048,849.0,79.51318681318682
1619.0386190306137,811.0,76.96578073089701
1619.8438593306278,801.0,73.99911406423033
1620.6865526678519,820.0,73.40775193798449
1621.4917929678659,820.0,73.69995440036479
1622.2876700085776,830.0,74.5183452049625
1623.1022735678941,820.0,74.23286004056796
1623.9168771272107,792.0,73.37617554858934
1624.7408439458297,792.0,73.37617554858934
1625.5554475051463,801.0,74.25302283922974
1626.3419612865553,849.0,75.4088669950739
1627.1284750679645,839.0,75.98655462184874
1627.924352108676,839.0,74.29131652661064
1628.7670454459,830.0,72.86274509803921
1629.6003755238216,792.0,71.73333333333332
1630.4337056017432,773.0,72.27272727272727
1631.2576724203623,801.0,73.7012987012987
1632.0441862017713,811.0,75.75007918910357
1632.8119734645754,811.0,76.60676368108219
1633.607850505287,783.0,76.01540155483633
1634.413090805301,783.0,74.80383036935704
1635.218331105315,783.0,75.4093583636873
1635.9954816274217,735.0,76.30708882039787
1636.7726321495284,698.0,77.20481927710843
1637.5497826716348,669.0,78.85449490268766
1638.280116897229,688.0,81.9844200085164
1638.9729980856132,698.0,86.33398729173376
1639.63778949609,698.0,88.20964587972112
1640.3213074251717,707.0,88.20964587972111
1641.014188613556,707.0,86.99000370233247
1641.7070698019402,745.0,86.20972972972973
1642.4093142496267,792.0,85.82486486486485
1643.1115586973135,830.0,83.9979746835443
1643.8512561822101,811.0,80.94654611211573
1644.6377699636191,792.0,76.739273384843
1645.4617367822382,754.0,74.53850800362427
1646.2669770822522,726.0,74.53850800362429
1647.0534908636614,735.0,76.965780730897
1647.8025516078606,745.0,79.86883116883116
1648.5235225741521,754.0,81.82487512487512
1649.2538567997462,764.0,82.16284980841942
1649.993554284643,754.0,81.1225900681597
1650.7426150288422,745.0,80.10834505391466
1651.5010390323437,745.0,79.77037037037036
1652.2500997765428,773.0,80.10834505391466
1652.9897972614394,783.0,80.7759493670886
1653.7294947463363,801.0,80.12472985489349
1654.4972820091402,773.0,78.82169493038532
1655.274432531247,745.0,76.91313201154689
1656.0703095719584,745.0,76.9131320115469
1656.8380968347626,754.0,78.21616693605506
1657.5777943196592,792.0,80.12472985489349
1658.3174918045559,820.0,80.7759493670886
1659.066552548755,830.0,79.16654611211573
1659.8530663301642,820.0,76.68029556650247
1660.6676698894807,801.0,74.25302283922973
1661.4916367080998,783.0,73.37617554858934
1662.3062402674163,792.0,73.95386317536419
1663.1021173081278,811.0,75.41607566167306
1663.8792678302345,820.0,76.29292295231346
1664.6657816116435,830.0,76.00072048993314
1665.4710219116575,858.0,74.81750486882804
1666.285625470974,839.0,73.66166071298389
1667.1095922895931,811.0,72.29697888318577
1667.9616488861197,773.0,71.74525474525474
1668.7949789640413,754.0,72.30973677485305
1669.6002192640553,764.0,74.88598979013045
1670.3680065268595,783.0,77.58598979013044
1671.1170672710587,801.0,79.11915085817523
1671.8754912745603,811.0,78.80531012940651
1672.6526417966668,792.0,77.23472189411238
1673.4485188373783,773.0,75.7015608260676
1674.2537591373925,773.0,75.39519249560288
1675.0402729188015,801.0,76.31456121870188
1675.8080601816057,811.0,77.52613240418118
1676.5758474444099,820.0,77.22697274031563
1677.3717244851214,792.0,76.01540155483633
1678.1769647851354,764.0,74.5183452049625
1678.991568344452,764.0,74.81750486882805
1679.7780821258611,783.0,76.35066593687283
1680.5365061293628,801.0,78.16931216931216
1681.2949301328642,792.0,78.47568049977687
1682.072080654971,773.0,77.23472189411238
1682.8679576956824,745.0,76.29292295231346
1683.6544714770916,735.0,76.60676368108219
1684.4222587398958,764.0,78.51532659992061
1685.1619562247924,792.0,80.47137055596457
1685.8922904503866,839.0,80.79296043853006
1686.6507144538882,839.0,79.18355718355718
1687.4372282352972,858.0,75.7989417989418
1688.2705583132188,849.0,73.42857142857143
1689.1038883911403,792.0,71.47252747252747
1689.9559449876667,754.0,71.2058608058608
1690.7986383248908,726.0,72.63443223443223
1691.5851521063,735.0,75.86190476190475
1692.3342128504992,754.0,79.86883116883116
1693.0551838167908,783.0,81.82487512487512
1693.7855180423849,811.0,81.82487512487512
1694.534578786584,820.0,79.81955514365153
1695.3117293086907,839.0,77.27214906136172
1696.1169696087047,849.0,75.12387319929276
1696.9315731680213,820.0,73.38893344025661
1697.7649032459428,820.0,72.28505747126437
1698.607596583167,820.0,72.28505747126437
1699.4222001424835,820.0,72.8367816091954
1700.2368037018,820.0,73.65517241379311
1701.0514072611165,792.0,73.65517241379311
1701.866010820433,764.0,73.65517241379311
1702.6806143797496,764.0,74.53201970443351
1703.4671281611586,773.0,76.35066593687283
1704.2255521646603,783.0,78.16931216931216
1704.983976168162,792.0,78.78952122854561
1705.751763430966,792.0,78.15409061721138
1706.5289139530726,773.0,77.21229167541244
1707.3154277344818,773.0,76.592082616179
1708.1019415158908,792.0,76.90592334494774
1708.869728778695,801.0,77.52613240418118
1709.637516041499,801.0,77.52613240418118
1710.424029822908,783.0,76.60676368108219
1711.2199068636198,754.0,75.68739495798319
1712.0157839043313,773.0,75.99376328844791
1712.792934426438,792.0,77.56435152374202
1713.5419951706372,792.0,78.48372024684102
1714.3097824334411,801.0,78.1773519163763
1715.0962962148503,801.0,76.90592334494774
1715.8828099962593,783.0,75.98655462184874
1716.678687036971,801.0,75.68739495798319
1717.4745640776825,820.0,75.99376328844791
1718.251714599789,820.0,75.99376328844791
1719.0475916405007,801.0,75.41607566167306
1719.8621951998173,783.0,74.23286004056796
1720.6767987591338,783.0,74.23286004056796
1721.4726757998453,801.0,75.41607566167306
1722.249826321952,811.0,76.59929128277817
1723.0269768440585,783.0,76.59929128277817
1723.8228538847702,773.0,75.7015608260676
1724.6280941847842,792.0,75.7015608260676
1725.405244706891,811.0,76.62092954916659
1726.1730319696949,830.0,77.21229167541244
1726.959545751104,849.0,76.31456121870188
1727.764786051118,792.0,74.53850800362427
1728.5887528697372,764.0,72.84326990838618
1729.4314462069613,764.0,73.43463203463203
1730.2179599883702,773.0,75.53227513227512
1730.976383991872,773.0,78.16931216931216
1731.7348079953736,773.0,78.78952122854561
1732.5025952581777,735.0,78.46793134598012
1733.2703825209817,754.0,78.14634146341463
1734.0381697837859,783.0,79.48217636022514
1734.76850400938,801.0,80.13339587242027
1735.517564753579,792.0,79.81955514365153
1736.2947152756858,773.0,77.56435152374202
1737.0905923163973,764.0,76.29292295231346
1737.8771060978065,764.0,76.60676368108219
1738.6448933606105,783.0,77.84772228674667
1739.4033173641121,801.0,78.78952122854561
1740.1617413676138,773.0,78.47568049977687
1740.9388918897205,745.0,77.23472189411238
1741.734768930432,745.0,76.9131320115469
1742.5025561932362,764.0,78.21616693605506
1743.2422536781328,764.0,80.12472985489349
1743.9819511630294,754.0,80.44631973745898
1744.740375166531,745.0,79.77871542428504
1745.4987991700327,735.0,79.44074074074072
1746.2478599142319,783.0,80.10834505391466
1746.9875573991285,811.0,81.1225900681597
1747.7178916247226,830.0,80.15752982719583
1748.495042146829,858.0,77.9567644459771
1749.3002824468433,830.0,74.844876334089
1750.1242492654624,820.0,72.58246404758032
1750.9763058619887,792.0,72.017982017982
1751.8002726806078,792.0,72.29697888318577
1752.6148762399243,783.0,74.25302283922974
1753.4013900213336,801.0,75.4088669950739
1754.1879038027425,811.0,76.592082616179
1754.9650543248492,811.0,76.29292295231345
1755.7609313655607,830.0,75.7015608260676
1756.5661716655748,839.0,74.80383036935704
1757.371411965589,811.0,73.94714587737843
1758.195378784208,801.0,73.10993657505284
1759.0287088621294,839.0,73.10993657505284
1759.8339491621437,858.0,73.96662106703145
1760.6298262028552,867.0,73.96662106703147
1761.4631562807767,830.0,72.60193923723335
1762.315212877303,792.0,70.68991877687529
1763.1766327331322,820.0,70.96264604960257
1764.0005995517513,849.0,72.91869000564652
1764.7871133331603,839.0,74.25302283922973
1765.6017168924768,820.0,73.71362889983578
1766.444410229701,783.0,72.28505747126437
1767.2777403076225,773.0,72.28505747126437
1768.092343866939,792.0,74.28666389696717
1768.8694943890457,783.0,76.33544438477205
1769.6372816518497,773.0,77.21229167541244
1770.4237954332589,745.0,77.21229167541244
1771.2009459553653,773.0,77.21229167541244
1771.9687332181695,792.0,78.82169493038532
1772.7084307030661,811.0,79.13553565915406
1773.4762179658703,811.0,78.51532659992061
1774.2627317472793,792.0,76.31456121870188
1775.0679720472936,735.0,75.10299003322258
1775.8732123473076,764.0,75.1029900332226
1776.6597261287166,773.0,77.6503961155124
1777.3900603543107,792.0,79.18355718355718
1778.1484843578123,773.0,79.80376624279063
1778.9162716206165,745.0,77.84772228674667
1779.7027854020255,735.0,77.52613240418118
1780.4705726648297,773.0,78.51532659992061
1781.2102701497263,811.0,80.47137055596457
1781.9406043753204,811.0,80.47137055596457
1782.7083916381246,801.0,78.27060517474584
1783.5136319381386,792.0,75.72319909245603
1784.3188722381528,792.0,74.80383036935704
1785.1147492788643,839.0,75.39519249560288
1785.9012630602733,839.0,75.98655462184874
1786.6877768416825,858.0,74.85714285714286
1787.521106919604,801.0,73.42857142857143
1788.3544369975257,811.0,71.47252747252747
1789.206493594052,830.0,72.60193923723335
1790.0023706347638,839.0,73.43914853955893
1790.8076109347778,830.0,74.23934833975873
1791.6315777533969,783.0,73.10993657505284
1792.4649078313184,754.0,72.54545454545453
1793.2888746499375,783.0,74.0076670317634
1794.066025172044,801.0,76.7076670317634
1794.815085916243,820.0,78.16987951807228
1795.5922364383498,811.0,77.56435152374202
1796.3881134790613,783.0,75.41607566167306
1797.2027170383778,820.0,74.5183452049625
1798.0079573383919,820.0,75.12387319929276
1798.7851078604986,830.0,75.12387319929276
1799.599711419815,783.0,74.83838803489822
1800.4143149791316,773.0,73.37617554858934
1801.2382817977507,801.0,74.55939116969445
1802.0154323198574,830.0,76.05644751956828
1802.7832195826613,820.0,76.91313201154689
1803.579096623373,820.0,75.45091952523802
1804.4030634419921,811.0,73.95386317536419
1805.2176670013087,849.0,73.37617554858934
1806.0322705606252,886.0,73.94065757818765
1806.8375108606392,905.0,73.12226677358994
1807.6802041978633,858.0,71.29394689097805
1808.5603505722972,792.0,68.70673758865247
1809.4592234653362,783.0,68.44593172784661
1810.3112800618628,811.0,71.15109890109889
1811.0977938432718,830.0,74.63603866013504
1811.8749443653785,867.0,76.00072048993314
1812.6801846653925,858.0,74.844876334089
1813.5041514840116,820.0,72.32732787940068
1814.3655713398405,792.0,70.96264604960257
1815.217627936367,764.0,71.24164291480633
1816.0322314956836,783.0,73.45282303902994
1816.8187452770926,830.0,76.35066593687283
1817.5771692805943,830.0,77.53388155797794
1818.354319802701,801.0,76.37803740213377
1819.17828662132,773.0,74.28039430449068
1820.002253439939,773.0,73.67486631016043
1820.7981304806506,811.0,75.45091952523802
1821.5659177434547,820.0,77.22697274031563
1822.333705006259,811.0,76.93477027793533
1823.138945306273,801.0,75.43771392806148
1823.9535488655895,792.0,74.2261427425822
1824.7587891656035,811.0,74.5183452049625
1825.554666206315,801.0,75.39519249560288
1826.3411799877242,839.0,75.39519249560288
1827.1464202877382,773.0,75.39519249560288
1827.9422973284497,773.0,73.96662106703147
1828.7756274063713,773.0,75.17819225251075
1829.5434146691755,754.0,76.09756097560975
1830.3112019319797,764.0,78.14634146341463
1831.0789891947836,745.0,78.79756097560974
1831.8280499389828,735.0,79.11915085817523
1832.5864739424844,716.0,80.10834505391466
1833.326171427381,745.0,80.79296043853006
1834.0565056529754,773.0,82.52785322605442
1834.7681133599644,792.0,82.52785322605442
1835.507810844861,820.0,81.19201832924392
1836.2755981076652,792.0,78.51532659992061
1837.0621118890742,764.0,76.02907605430734
1837.8767154483908,783.0,75.4088669950739
1838.6632292298,811.0,76.35066593687283
1839.4216532333016,801.0,77.53388155797794
1840.198803755408,783.0,76.94251943173208
1841.0040440554221,754.0,75.7015608260676
1841.7999210961339,726.0,75.7015608260676
1842.5770716182403,726.0,77.56435152374202
1843.3261323624395,716.0,80.17519949929587
1844.0471033287313,735.0,82.18051948051948
1844.7680742950229,726.0,83.5857826384142
1845.4796820020122,688.0,83.23013828276986
1846.2100162276063,679.0,83.23013828276986
1846.9309871938979,726.0,84.38514909747786
1847.6145051229796,773.0,86.66720037952913
1848.2886597927588,811.0,86.66720037952913
1849.0096307590504,801.0,83.45570689473128
1849.7774180218546,830.0,78.6262495303902
1850.5826583218686,820.0,76.01540155483633
1851.3785353625804,764.0,74.23934833975873
1852.2025021811994,764.0,73.95386317536419
1853.017105740516,801.0,75.19482178102868
1853.7755297440174,830.0,77.29246487867177
1854.533953747519,858.0,77.87015250544661
1855.3298307882308,839.0,75.77250940780351
1856.1537976068498,783.0,72.87466650996062
1857.0058542033762,801.0,71.74525474525474
1857.8391842812978,820.0,73.20746723156361
1858.6163348034045,820.0,74.86435152374202
1859.412211844116,820.0,75.41607566167306
1860.2268154034325,820.0,74.23286004056796
1861.041418962749,801.0,73.65517241379311
1861.8560225220656,783.0,73.65517241379311
1862.6706260813821,773.0,74.23286004056796
1863.4665031220939,745.0,75.41607566167306
1864.2436536442003,735.0,76.9131320115469
1865.0114409070045,735.0,78.82169493038532
1865.7511383919011,801.0,80.47137055596457
1866.4814726174952,867.0,81.80720545277508
1867.2118068430896,886.0,79.89864253393665
1868.007683883801,886.0,75.7314184536691
1868.86910373963,820.0,71.07020732437286
1869.7492501140641,792.0,68.66419981498612
1870.629396488498,792.0,69.99853264856932
1871.4440000478146,792.0,72.70369982182162
1872.2305138292236,820.0,75.4088669950739
1873.0170276106328,820.0,76.28571428571429
1873.8035413920418,811.0,75.4088669950739
1874.6181449513583,745.0,74.5320197044335
1875.4327485106749,754.0,73.94065757818765
1876.237988810689,773.0,76.42690812380093
1876.9776862955857,792.0,78.57518398586987
1877.7267470397849,773.0,79.78675517134917
1878.4945343025888,745.0,78.1773519163763
1879.281048083998,773.0,77.52613240418118
1880.0488353468022,811.0,78.51532659992061
1880.7885328316988,839.0,79.13553565915406
1881.5563200945028,820.0,77.92396447367476
1882.361560394517,773.0,74.88598979013045
1883.1948904724384,783.0,73.38893344025661
1884.0094940317551,792.0,74.60050462573591
1884.777281294559,811.0,76.33544438477205
1885.5544318166658,773.0,77.21229167541244
1886.3409455980748,726.0,76.00072048993314
1887.146185898089,735.0,76.31456121870188
1887.913973160893,754.0,78.6262495303902
1888.6349441271848,792.0,81.17365561268
1889.365278352779,820.0,81.82487512487512
1890.114339096978,801.0,79.51318681318682
1890.900852878387,801.0,76.68029556650247
1891.7154564377036,783.0,75.10970733120834
1892.5113334784153,754.0,74.8105476673428
1893.3072105191268,726.0,75.99376328844791
1894.0843610412335,773.0,77.56435152374202
1894.8334217854326,801.0,80.17519949929587
1895.5543927517242,858.0,80.48904022806461
1896.3221800145284,830.0,78.9184519927705
1897.11805705524,773.0,74.65071972503821
1897.9701136517665,801.0,72.87466650996062
1898.7940804703856,830.0,73.79403523305962
1899.5618677331895,811.0,75.45091952523802
1900.3577447739012,792.0,75.45091952523802
1901.1817115925203,754.0,74.23934833975873
1901.9869518925343,801.0,74.53850800362429
1902.7734656739433,839.0,76.965780730897
1903.5225264181424,830.0,77.25798319327731
1904.3184034588542,773.0,75.82941176470588
1905.1517335367755,726.0,73.40213903743314
1905.9757003553946,726.0,74.32150776053214
1906.7434876181987,773.0,78.06176750079189
1907.4644585844903,858.0,81.52929996832435
1908.1854295507821,915.0,81.52929996832435
1908.953216813586,867.0,77.26156770059208
1909.8052734101127,820.0,71.54192651703337
1910.7135095624542,858.0,68.71053733357633
1911.574929418283,858.0,69.7897339989799
1912.3895329775996,849.0,71.24164291480633
1913.2415895741262,849.0,71.49677908298597
1914.0936461706528,820.0,70.67838827838827
1914.9363395078767,783.0,70.93919413919411
1915.7790328451008,783.0,72.01839080459769
1916.5936364044173,792.0,74.0199972303005
1917.370786926524,830.0,76.02160365600332
1918.1479374486305,811.0,76.89845094664372
1918.9344512300397,783.0,75.43623846033483
1919.7584180486588,754.0,74.53850800362427
1920.5636583486728,773.0,74.844876334089
1921.3408088707795,801.0,77.27214906136172
1922.0898696149786,858.0,78.48372024684102
1922.8576568777826,830.0,77.87819225251076
1923.6535339184943,764.0,74.65071972503821
1924.5055905150207,773.0,72.87466650996062
1925.3295573336397,792.0,74.11562511562511
1926.0879813371414,839.0,76.69187813090251
1926.8557685999456,839.0,77.84772228674667
1927.6422823813546,867.0,75.4773519163763
1928.4756124592761,830.0,73.42857142857143
1929.3089425371977,811.0,71.21739130434783
1930.1703623930266,858.0,71.4901185770751
1930.9943292116457,877.0,72.32732787940067
1931.79956951166,877.0,72.58246404758032
1932.6516261081863,811.0,71.27747871033692
1933.5224092233177,773.0,69.40801134349522
1934.3931923384494,745.0,70.77269317329332
1935.1984326384634,754.0,73.85373172561432
1935.9662199012676,773.0,77.92396447367476
1936.7059173861642,783.0,79.78675517134917
1937.4549781303633,792.0,79.78675517134917
1938.2227653931675,783.0,78.48372024684102
1938.999915915274,773.0,77.21229167541244
1939.7864296966832,792.0,76.8984509466437
1940.5635802187896,877.0,77.21229167541244
1941.3313674815938,943.0,77.21229167541244
1942.1178812630028,962.0,74.44509385186018
1942.9886643781344,915.0,69.7563133640553
1943.9249903083833,830.0,65.2689184060721
1944.880042757237,858.0,64.32179502728926
1945.7882789095786,877.0,67.23452230001654
1946.6122457281976,867.0,69.76587330195576
1947.4643023247243,830.0,70.71299668073861
1948.3350854398557,792.0,69.65766071235916
1949.1965052956848,792.0,70.45786051255897
1950.0204721143039,792.0,72.91869000564652
1950.8069858957128,792.0,75.12987012987013
1951.5934996771218,764.0,76.28571428571429
1952.380013458531,754.0,76.28571428571429
1953.16652723994,754.0,77.22751322751323
1953.9249512434417,754.0,78.49894179894179
1954.6740119876408,811.0,79.77037037037036
1955.42307273184,830.0,80.1
1956.172133476039,830.0,78.23720930232557
1956.9773737760531,820.0,75.80993657505284
1957.8013405946722,773.0,73.38266384778012
1958.6253074132912,773.0,73.09717868338558
1959.4399109726078,811.0,74.87323189846319
1960.207698235412,830.0,76.64928511354078
1960.9754854982161,839.0,76.93477027793533
1961.7807257982302,849.0,75.15871706285772
1962.6046926168492,820.0,73.10993657505284
1963.4380226947708,783.0,72.0060606060606
1964.2807160319949,811.0,72.28505747126437
1965.0953195913114,811.0,74.0199972303005
1965.8724701134179,830.0,75.12387319929276
1966.677710413432,801.0,75.4093583636873
1967.4829507134461,764.0,73.94714587737843
1968.3069175320652,764.0,74.23934833975873
1969.1027945727767,773.0,75.77250940780351
1969.8612185762784,783.0,77.87015250544661
1970.61964257978,773.0,78.78952122854561
1971.387429842584,764.0,78.15409061721138
1972.1645803646907,698.0,77.83250073464589
1972.9323676274948,698.0,78.15409061721138
1973.6907916309963,735.0,81.28401572304011
1974.3836728193805,783.0,84.1001001001001
1975.0765540077648,999.0,85.11434511434511
1975.806888233359,669.0,81.9844200085164
1976.5840387554656,735.0,73.27049853987793
1977.5765442415293,783.0,75.97039019751608
1978.2413356520062,877.0,77.62006582309532
1978.9716698776003,877.0,83.20406218590504
1979.7488203997068,839.0,76.0872970791354
1980.6196035148384,754.0,71.67042363000388
1981.4903866299699,707.0,69.93548387096774
1982.3237167078914,726.0,73.66774193548386
1983.0727774520906,735.0,79.17999999999999
1983.7750218997771,764.0,82.92025974025972
1984.495992866069,754.0,83.60487512487512
1985.226327091663,735.0,81.49524549524548
1985.9847510951647,726.0,80.45498575498576
1986.7338118393639,811.0,80.45498575498576
1987.464146064958,933.0,81.82487512487512
1988.1851170312495,952.0,79.96208442720071
1988.9903573312638,952.0,74.1532266183429
1989.91732000221,849.0,67.5614817295683
1990.8630091917616,783.0,63.87278727872787
1991.808698381313,971.0,66.03036303630361
1992.651391718537,471.0,70.61678794385462
1993.4285422406435,745.0,70.20613717003937
1994.3929579488,754.0,89.19280383670605
1994.8611209139244,735.0,90.4958387612142
1995.600818398821,688.0,96.45797468354431
1996.3498791430202,669.0,81.1225900681597
1997.0802133686143,943.0,83.34488935721812
1997.763731297696,584.0,86.72939639947164
1998.4285227081727,849.0,80.70478101485625
1999.3648486384218,754.0,85.89611994547933
1999.945370715176,660.0,79.54494623655913
2000.7880640524002,716.0,84.88494623655913
2001.5371247965993,783.0,80.94761904761903
2002.1925529477735,735.0,85.31954887218043
2002.9041606547626,716.0,84.35448863121658
2003.6813111768693,669.0,81.22481830154626
2004.4116454024634,556.0,67.65016738854948
2005.7880445199294,905.0,78.11861746002182
2006.340476818776,716.0,72.98400207540644
2007.239349711815,698.0,86.5586529884032
2007.9509574188044,669.0,79.2201280227596
2008.6438386071884,650.0,87.05463506501312
2009.308630017665,650.0,89.90589364624881
2009.954694909537,622.0,91.99755052051438
2010.6007598014087,688.0,94.27667984189722
2011.218734915373,707.0,92.58043207536953
2011.9022528444548,735.0,90.1039103362391
2012.6044972921413,754.0,85.12488935721812
2013.3348315177357,745.0,82.56461538461538
2014.0838922619348,745.0,81.1225900681597
2014.8235897468314,707.0,80.7759493670886
2015.563287231728,688.0,82.5559493670886
2016.2655316794146,726.0,84.77824865614704
2016.9490496084964,726.0,85.48053371286247
2017.6700205747882,745.0,84.74079345312222
2018.3909915410798,716.0,82.51849416406378
2019.1306890259764,745.0,82.88349758169878
2019.8422967329655,698.0,82.18121252498335
2020.5819942178623,726.0,84.0081027063039
2021.2748754062463,754.0,83.6430992886689
2021.9958463725382,792.0,83.3051246051246
2022.7449071167373,801.0,79.86883116883116
2023.5314208981463,801.0,77.25798319327731
2024.3272979388578,792.0,75.68739495798319
2025.1231749795695,839.0,75.6873949579832
2025.9096887609785,830.0,74.55798319327731
2026.7430188389,820.0,73.7012987012987
2027.5669856575191,792.0,72.8244514106583
2028.3815892168357,783.0,74.25302283922974
2029.1681029982449,792.0,75.7152353255386
2029.9452535203513,792.0,76.592082616179
2030.7317673017606,792.0,76.592082616179
2031.5182810831695,792.0,76.28571428571429
2032.3047948645788,792.0,76.28571428571429
2033.0913086459877,773.0,76.28571428571429
2033.8778224273967,773.0,76.90592334494774
2034.645609690201,745.0,77.52613240418118
2035.413396953005,716.0,79.13553565915406
2036.1530944379017,688.0,81.19201832924392
2036.8647021448908,735.0,84.40351181404178
2037.5482200739725,773.0,84.75015251511286
2038.2785542995668,801.0,82.693669845023
2039.0463415623708,830.0,78.56280763712614
2039.8422186030825,801.0,75.45091952523802
2040.6661854217016,773.0,74.53155080213904
2041.462062462413,801.0,75.45091952523802
2042.2298497252173,801.0,76.30760401721663
2043.0257267659288,754.0,76.30760401721663
2043.8216038066403,745.0,76.95882352941176
2044.5706645508394,773.0,78.86738644825019
2045.310362035736,783.0,79.78675517134917
2046.0781492985402,820.0,78.82169493038532
2046.855299820647,801.0,76.33544438477205
2047.6699033799634,773.0,75.41607566167306
2048.465780420675,792.0,75.72991639044179
2049.233567683479,792.0,76.60676368108219
2050.0200814648883,773.0,76.90592334494774
2050.806595246297,764.0,76.90592334494774
2051.5743825091013,735.0,77.84772228674667
2052.332806512603,764.0,79.80376624279063
2053.063140738197,783.0,80.12535612535612
2053.8215647416987,811.0,79.48992551402189
2054.5987152638054,783.0,76.94251943173208
2055.4039555638196,754.0,76.30708882039787
2056.181106085926,792.0,77.27214906136172
2056.930166830125,773.0,77.86351118760757
2057.7166806115342,773.0,78.1773519163763
2058.4844678743384,754.0,77.52613240418118
2059.2522551371426,745.0,78.79756097560974
2060.0013158813417,811.0,79.78675517134917
2060.7410133662383,820.0,78.57518398586988
2061.546253666252,801.0,76.42690812380091
2062.360857225569,773.0,74.5183452049625
2063.1567342662806,716.0,75.72991639044179
2063.924521529085,707.0,79.28345541040548
2064.636129236074,745.0,82.6340436456996
2065.3383736837604,820.0,83.62323784143904
2066.078071168657,849.0,80.06969882147534
2066.892674727974,830.0,75.32303215480866
2067.7353680651977,773.0,72.55778474399163
2068.5593348838165,764.0,74.05484109386548
2069.3271221466207,820.0,76.69187813090251
2070.0855461501224,877.0,76.97087499610628
2070.900149709439,858.0,73.88983644378527
2071.7709328245705,839.0,70.99199354594236
2072.622989421097,811.0,70.44026940801135
2073.4563194990187,792.0,72.30973677485305
2074.2615597990325,783.0,74.265780730897
2075.0480735804417,754.0,76.00072048993314
2075.8252241025484,716.0,77.86351118760757
2076.5742848467476,726.0,80.54020291693087
2077.2858925537366,716.0,82.54552289815447
2078.006863520028,698.0,83.9507860560492
2078.7184712270173,669.0,84.71038776301933
2079.411352415402,698.0,87.05463506501312
2080.0761438258783,783.0,87.81423677198325
2080.7690250142628,830.0,84.68431166615453
2081.5461755363694,830.0,78.87253189662827
2082.3701423549883,773.0,74.28039430449068
2083.194109173607,735.0,74.59423503325942
2083.9618964364113,801.0,77.70612314514753
2084.6922306620054,811.0,78.56280763712614
2085.488107702717,811.0,77.35123645164684
2086.2933480027314,783.0,74.80383036935704
2087.098588302745,745.0,75.4093583636873
2087.875738824852,745.0,77.61012374490602
2088.6154363097485,792.0,79.81088912612475
2089.355133794645,783.0,79.50452079566004
2090.1416475760543,773.0,78.20148587115187
2090.918798098161,745.0,77.21229167541244
2091.686585360965,707.0,78.82169493038532
2092.426282845862,716.0,81.56675517134917
2093.1285272935484,754.0,83.62323784143904
2093.8401350005374,801.0,83.28526315789472
2094.5891957447366,849.0,79.9346749226006
2095.3850727854483,839.0,75.56274509803922
2096.227766122672,792.0,72.86274509803921
2097.061096200594,792.0,73.16190476190476
2097.8476099820027,811.0,74.85714285714286
2098.634123763412,830.0,75.69435215946844
2099.439364063426,801.0,74.53850800362427
2100.263330882045,783.0,74.23934833975873
2101.0592079227567,811.0,75.1370787964693
2101.8363584448634,811.0,75.7015608260676
2102.6415987448772,801.0,75.4093583636873
2103.4468390448915,801.0,74.80383036935704
2104.242716085603,839.0,75.09603283173735
2105.0385931263145,849.0,74.25882352941176
2105.8719232042363,849.0,72.8627450980392
2106.71461654146,820.0,71.46666666666665
2107.557309878684,735.0,72.01839080459769
2108.371913438001,707.0,75.66967285587975
2109.102247663595,726.0,80.41633952254642
2109.8044921112814,754.0,83.60487512487512
2110.525463077573,792.0,82.92025974025972
2111.274523821772,783.0,79.86883116883116
2112.0610376031814,754.0,77.86351118760757
2112.838188125288,764.0,77.86351118760757
2113.587248869487,820.0,78.80531012940651
2114.345672872989,830.0,77.6220945083014
2115.160276432305,839.0,75.19482178102866
2115.9842432509245,811.0,72.8244514106583
2116.817573328846,764.0,73.10993657505284
2117.62281362886,764.0,75.20757967269594
2118.3812376323617,783.0,77.57795004306631
2119.1396616358634,773.0,78.47568049977687
2119.91681215797,745.0,78.15409061721138
2120.684599420774,764.0,78.82169493038532
2121.4242969056704,820.0,79.45712554171955
2122.182720909172,830.0,77.9600691918457
2122.997324468489,783.0,75.19482178102866
2123.8212912871077,745.0,74.55939116969445
2124.5984418092144,792.0,77.04564171530771
2125.338139294111,792.0,78.20148587115187
2126.12465307552,811.0,77.89511754068717
2126.9111668569294,811.0,75.69435215946844
2127.716407156943,792.0,75.10299003322258
2128.5216474569575,811.0,75.1029900332226
2129.3081612383667,801.0,75.10299003322258
2130.1134015383805,792.0,75.39519249560288
2130.909278579092,754.0,75.39519249560288
2131.6957923605014,754.0,77.25798319327731
2132.4448531047005,773.0,78.82857142857142
2133.1939138488997,792.0,79.44878048780487
2133.961701111704,811.0,78.1773519163763
2134.7482148931126,792.0,76.31456121870188
2135.553455193127,735.0,75.69435215946844
2136.339968974536,773.0,77.6503961155124
2137.07030320013,783.0,78.8619673009917
2137.8380904629344,773.0,79.1683356314564
2138.6152409850406,754.0,77.83250073464589
2139.383028247845,698.0,78.48372024684102
2140.132088992044,679.0,81.61364535266974
2140.8249701804284,707.0,85.23153153153152
2141.4991248502074,716.0,87.01153153153152
2142.201369297894,547.0,86.25192982456139
2142.9129770048835,471.0,93.41284936479128
2143.4560460444277,424.0,107.65284936479128
2143.924209009552,669.0,127.01425287356321
2144.345555678164,716.0,120.27117370892017
2145.010347088641,830.0,105.65643686681491
2145.72195479563,669.0,82.46249747287553
2146.545921614249,726.0,82.46249747287553
2147.210713024726,716.0,82.09749405524053
2147.9316839910175,745.0,85.93002994040799
2148.6432916980066,830.0,82.88349758169878
2149.382989182903,849.0,79.41596511416631
2150.2069560015225,849.0,75.04403528960489
2151.0496493387463,867.0,71.73939393939392
2151.89234267597,811.0,70.68405797101448
2152.7537625317996,764.0,71.78793394000674
2153.5590028318134,754.0,74.42497097704377
2154.317426835315,792.0,77.90757967269593
2155.066487579514,801.0,78.49894179894179
2155.8530013609234,811.0,77.25798319327731
2156.648878401635,801.0,75.39519249560288
2157.454118701649,792.0,75.09603283173735
2158.2499957423606,773.0,75.39519249560288
2159.03650952377,773.0,76.60676368108219
2159.8042967865736,792.0,77.52613240418118
2160.5720840493777,792.0,77.52613240418118
2161.358597830787,773.0,76.90592334494774
2162.145111612196,754.0,76.90592334494774
2162.9128988750003,726.0,78.1773519163763
2163.6619596191995,764.0,80.48904022806461
2164.382930585491,820.0,80.8106301106301
2165.1413545889927,858.0,78.66235424856114
2165.955958148309,839.0,74.39462198082887
2166.808014744836,792.0,72.0242516104585
2167.641344822757,839.0,72.90109890109889
2168.4278586041664,858.0,73.42857142857143
2169.261188682088,886.0,72.90109890109889
2170.113245278614,877.0,70.19593172784661
2170.9933916530485,839.0,69.16367366333048
2171.86417476818,773.0,69.69114619080301
2172.6975048461013,754.0,73.01652242328875
2173.4652921089055,783.0,76.74878048780488
