84.31578947368419
84.69052631578947
86.25192982456139
88.66095238095237
91.1374741200828
91.1374741200828
88.72845156369183
85.87719298245614
83.24850099933377
82.18121252498335
81.460564751704
82.16284980841942
83.23013828276986
83.5857826384142
83.5857826384142
83.2207792207792
83.2207792207792
83.96051948051948
86.30476678251325
89.52102878138395
91.55531449566966
91.55531449566966
89.46365762140408
87.05463506501312
85.07539118065432
85.07539118065432
86.23040199536233
87.79180550413426
88.59360730593608
88.59360730593606
87.40694063926941
86.22027397260274
85.44
85.44
87.04450704225351
88.64901408450703
90.25352112676056
88.64901408450703
85.60248172579782
82.2179746835443
81.1225900681597
81.1225900681597
82.52785322605442
83.24850099933377
85.07539118065432
85.83499288762445
87.3963963963964
87.79180550413426
89.01144768152292
89.01144768152292
87.49143344917992
84.10692640692639
81.82487512487512
81.46923076923076
83.63409563409564
85.50975422208299
87.38541281007033
88.18721461187214
88.59360730593608
88.19819819819818
87.79180550413426
87.79180550413426
88.18721461187214
86.31155602388479
85.12488935721811
84.72948024948025
86.20972972972973
86.59459459459458
86.99000370233246
86.60513883746759
84.44027397260274
80.60857142857142
78.1773519163763
77.84772228674667
80.15941059843499
82.97549497549497
85.0851246051246
85.4501280227596
85.4501280227596
85.07539118065432
83.6701280227596
81.50526315789472
79.44878048780487
77.87819225251076
77.22697274031563
77.87819225251076
80.8540436456996
83.28526315789472
85.06526315789472
84.70025974025972
82.92025974025972
80.8106301106301
80.8106301106301
82.21589326852484
84.71038776301933
86.63679468942627
88.61603857378505
89.01144768152292
87.45004417275098
85.10579687075722
83.23013828276986
82.86513486513486
83.98973998973999
85.86539857772733
86.60513883746759
86.60513883746759
86.60513883746759
88.20964587972112
89.85906672914196
90.2654594232059
89.04581724581723
86.27179127179127
84.71038776301933
84.32552289815447
84.69052631578947
85.4501280227596
86.23040199536233
87.79180550413426
89.01144768152292
90.2654594232059
91.11307847082493
90.69523809523808
88.2862155388471
85.15654520917678
82.87449392712551
81.46923076923076
81.46923076923076
82.56461538461538
85.53128205128205
87.01153153153152
88.19819819819818
88.61603857378505
89.41784037558685
89.01144768152292
88.18721461187214
88.605054987459
89.42928805710977
91.12553582363748
91.99755052051438
92.86956521739128
91.57971014492753
88.00780379041248
82.18069381598794
78.88439751969163
78.88439751969163
81.86024891288048
84.35474340737498
87.05463506501312
89.90589364624881
91.55531449566966
91.55531449566966
89.85906672914196
89.01144768152292
89.01144768152292
90.70769544805061
92.4527934872663
92.88257215929849
90.79091528503292
86.07915057915056
81.93523523523523
81.1756335282651
82.21589326852484
83.9507860560492
84.32552289815447
83.96987854251012
83.60487512487512
81.49524549524548
81.49524549524548
81.86024891288048
82.52785322605442
81.51360821180941
79.77871542428504
80.84600389863547
82.9556335282651
84.69052631578947
85.4501280227596
85.4501280227596
85.82486486486485
85.06526315789472
83.62323784143904
82.52785322605442
82.9025900681597
84.72948024948025
85.82486486486485
85.0851246051246
83.96051948051948
83.96051948051948
85.0851246051246
87.01153153153152
89.04581724581723
90.69523809523808
91.11307847082495
89.07879275653923
85.60248172579782
81.88834505391466
79.77871542428504
79.77871542428504
81.51360821180941
84.0081027063039
83.6701280227596
82.94948024948025
82.56461538461538
85.12488935721812
86.22027397260274
85.12488935721812
83.24923076923076
82.87449392712551
84.75015251511286
85.84553713049746
85.48053371286247
83.25823442380404
81.81620910734836
82.18121252498335
81.51360821180941
81.51360821180941
79.77871542428504
81.51360821180941
83.34049839312996
85.4501280227596
85.4501280227596
83.96987854251012
83.23013828276986
83.98973998973999
85.46998946998946
86.20972972972973
85.0851246051246
83.25823442380404
82.51849416406378
83.25823442380404
85.88692640692639
87.4069406392694
87.79180550413426
86.23040199536234
84.71038776301933
84.32552289815447
86.30476678251325
88.64901408450703
89.03387894937191
87.05463506501312
85.83499288762445
86.63679468942627
88.19819819819818
88.59360730593606
86.66720037952913
84.74079345312222
82.51849416406378
82.51849416406378
82.88349758169878
84.32552289815447
85.06526315789472
85.06526315789472
82.9556335282651
80.52441401606998
79.11915085817523
79.11915085817523
79.77037037037036
79.77037037037036
80.4379746835443
81.1225900681597
80.79296043853006
79.18355718355718
77.53388155797794
77.21229167541244
78.82169493038532
81.19201832924392
82.88349758169878
82.54552289815447
80.48904022806461
78.1773519163763
77.84772228674667
79.18355718355718
80.79296043853006
80.79296043853006
80.44631973745898
79.45712554171955
79.45712554171955
79.45712554171955
80.44631973745898
80.44631973745898
80.10834505391466
80.8106301106301
82.92025974025972
84.32552289815447
84.69052631578947
83.59514170040485
84.35474340737498
85.91614691614691
88.61603857378505
88.61603857378505
86.33398729173376
82.61985061985061
81.49524549524548
82.97549497549497
86.27179127179127
87.01153153153152
87.01153153153152
85.0851246051246
85.46998946998946
85.86539857772733
88.20964587972112
89.42928805710977
90.25352112676056
88.27427724240178
84.88977020014825
82.54552289815447
83.70053371286247
87.085040755116
89.85906672914196
89.85906672914196
87.51481942714818
82.73547347189862
78.90377092786731
76.592082616179
76.592082616179
77.86351118760757
80.17519949929587
82.18051948051948
83.2207792207792
83.2207792207792
83.5857826384142
84.32552289815447
85.06526315789472
84.34461538461538
83.60487512487512
83.23013828276986
83.5857826384142
84.32552289815447
85.0851246051246
84.38283954840917
82.94081423195348
80.44631973745898
79.77871542428504
79.1111111111111
79.1111111111111
79.1111111111111
78.78952122854561
78.46793134598012
78.79756097560974
77.87819225251076
76.95882352941176
75.6873949579832
77.25798319327731
78.49894179894179
80.10834505391466
79.14328481295081
78.20148587115187
75.7152353255386
75.10970733120834
76.05150627300728
77.23472189411238
77.53388155797794
76.8984509466437
77.21229167541244
77.83250073464589
77.83250073464589
77.51866000587715
78.16987951807228
79.81955514365153
81.1225900681597
78.97431420609072
75.8624260942026
75.19482178102868
78.38335738335738
83.37090408323284
84.03850839640678
82.03318841518318
77.90232620728632
77.2347218941124
78.53775681862055
81.14860479417442
81.81620910734836
82.16284980841942
82.16284980841942
83.98973998973999
85.0851246051246
85.82486486486485
85.06526315789472
85.06526315789472
84.69052631578947
84.69052631578947
85.4708002883922
85.47080028839221
83.10047688953361
78.67741221925645
76.94251943173208
78.94783941295569
82.5906301106301
85.48053371286247
86.22027397260274
86.22027397260274
85.06526315789472
84.69052631578947
82.25930680359434
78.70576778363065
74.87323189846317
75.19482178102868
78.74836080099237
83.34049839312996
83.6701280227596
81.93523523523523
78.80531012940651
78.80531012940651
79.81955514365153
81.46923076923076
81.80720545277508
79.85116149673112
77.89511754068717
76.90592334494774
78.51532659992061
79.13553565915406
78.82169493038532
76.62092954916659
75.7015608260676
75.39519249560288
76.60676368108219
77.21229167541244
75.78372024684101
74.0076670317634
74.32150776053214
76.05644751956828
76.33544438477205
76.65703426733754
77.29246487867177
80.48100048100048
80.48100048100048
79.53920153920154
74.52234605426094
69.94789405123751
68.79204989539335
72.43901601044458
77.68107232664194
81.14860479417442
82.16284980841942
83.23013828276986
83.96987854251012
85.06526315789472
83.66
81.55037037037036
79.77037037037036
80.8106301106301
82.54552289815447
85.51218956482114
85.87719298245614
85.15654520917678
82.52785322605442
82.16284980841942
82.88349758169878
83.5857826384142
82.54552289815447
80.17519949929587
78.80531012940651
79.84556986966624
82.5906301106301
82.92025974025972
82.2179746835443
80.10834505391466
80.44631973745898
81.88834505391466
82.5559493670886
82.2179746835443
80.7759493670886
80.7759493670886
82.5559493670886
84.38283954840917
85.82486486486485
84.72948024948025
84.34461538461538
84.34461538461538
83.66
80.91493975903613
78.16987951807228
79.57514267596702
81.94546607482562
84.69052631578947
85.06526315789472
84.34461538461538
83.96987854251012
84.35474340737498
85.07539118065432
84.0081027063039
80.57180927001048
79.50452079566004
80.20680585237548
82.51849416406378
82.86513486513486
81.49524549524548
80.45498575498576
81.55037037037036
84.44027397260272
86.22027397260274
84.77824865614704
81.88834505391466
80.44631973745898
80.79296043853006
82.16284980841942
82.16284980841942
83.25823442380404
84.38283954840917
87.01153153153152
87.79180550413426
89.01144768152292
89.01144768152292
89.8356807511737
90.2654594232059
91.11307847082493
90.69523809523808
88.66095238095238
86.62666666666667
85.06526315789472
84.69052631578947
85.87719298245614
87.03220379716413
89.01144768152292
89.01144768152292
87.85643686681492
83.20050125313283
77.80656185919344
77.08591408591408
78.02771302771302
80.12535612535612
79.1111111111111
79.1111111111111
79.77871542428504
79.45712554171955
79.13553565915406
80.20282413350449
83.82071031236627
102.2719298245614
112.3095238095238
134.7404181184669
120.32492516072041
109.56668340247866
84.8537378114843
83.24923076923076
83.24923076923076
81.91339587242027
78.8619673009917
77.52613240418118
78.51532659992061
80.12472985489349
80.44631973745898
80.44631973745898
81.14860479417442
82.51849416406378
82.86513486513486
82.86513486513486
82.86513486513486
83.96051948051948
83.25823442380404
80.94654611211573
77.30375541444131
76.00072048993314
78.31240880162146
79.52397998710076
80.48904022806461
79.11915085817523
80.8106301106301
83.37090408323284
86.26080768546521
85.90516332982085
83.34488935721811
79.81955514365153
79.13493975903614
79.13493975903614
80.1
78.52941176470587
78.19978213507625
78.53775681862055
79.14328481295081
76.50624777591378
74.30548239469505
75.2705426356589
77.58598979013045
78.48372024684102
77.83250073464589
79.52397998710074
82.26904022806461
83.60487512487512
82.9025900681597
82.52785322605442
84.40351181404178
86.23040199536234
86.23040199536234
84.71038776301933
83.5857826384142
83.5857826384142
84.32552289815447
84.32552289815447
82.92025974025972
82.54552289815447
83.6701280227596
84.35474340737498
83.63409563409564
82.87449392712551
83.96987854251012
85.84553713049746
86.60513883746759
85.86539857772735
84.71038776301933
84.71038776301933
86.23040199536233
86.99000370233247
86.60513883746759
85.82486486486485
85.06526315789472
83.96987854251012
82.52785322605442
81.80720545277508
81.1225900681597
81.46923076923076
80.45498575498576
80.12535612535612
78.78952122854561
79.80376624279063
81.53865903031499
82.18987854251012
81.1756335282651
79.77037037037036
79.77037037037036
81.50526315789472
81.50526315789472
80.54020291693087
76.7076670317634
76.05644751956828
78.06176750079189
103.46345883271577
128.27182120205376
123.0157719881098
96.55874468780648
73.80686498855835
79.80265446224256
102.03207166853302
96.1768085106383
96.56167337550315
76.24427662957075
80.69427662957074
81.08968573730861
81.08968573730861
80.76005610767899
78.53775681862055
80.10834505391466
78.86738644825019
76.10213903743315
74.53155080213904
75.45091952523802
78.56280763712614
80.81801125703565
80.81801125703565
79.80376624279063
79.11915085817523
80.10834505391466
81.47823442380404
81.47823442380404
81.47823442380404
80.10834505391466
80.44631973745898
81.14860479417442
83.25823442380404
84.32552289815447
84.32552289815447
83.5857826384142
82.51849416406378
81.47823442380404
81.47823442380404
82.92025974025972
83.96051948051948
83.60487512487512
82.86513486513486
82.86513486513486
83.2207792207792
83.2207792207792
82.18051948051948
80.8106301106301
78.80531012940651
77.84024988844264
77.84024988844266
79.84556986966624
81.49524549524548
81.82487512487512
79.81955514365153
76.98666389696717
76.33544438477205
76.64928511354078
77.52613240418118
76.60676368108219
71.09644473173884
81.87126313367588
101.24185136897
111.21767554479418
113.15714285714284
94.70592334494772
89.62020905923345
77.84772228674667
78.16931216931216
77.57795004306631
75.75930381062697
75.12387319929276
76.33544438477205
77.21229167541244
76.90592334494774
76.592082616179
77.53388155797794
77.84024988844264
76.94251943173208
75.12387319929276
74.5183452049625
75.10970733120834
75.68739495798319
74.55798319327731
73.40213903743314
72.8244514106583
73.37617554858934
73.10344827586206
72.55172413793103
72.83720930232558
74.88598979013045
76.31456121870188
76.31456121870188
74.265780730897
73.67441860465115
74.88598979013045
76.62092954916659
77.21229167541244
75.7152353255386
75.10970733120834
74.8105476673428
74.25882352941176
72.60193923723335
72.60193923723335
74.33687899626949
75.99376328844791
75.1370787964693
73.95386317536419
72.8244514106583
70.80172413793103
68.73421052631579
67.70195246179966
69.18528579513298
72.12964669738864
74.59047619047618
75.98655462184874
75.39519249560288
74.5183452049625
73.38893344025661
72.02425161045849
70.68991877687529
71.52712807920088
72.32732787940067
74.23934833975873
75.45091952523802
78.56280763712614
81.53865903031499
83.59514170040485
83.59514170040485
81.86024891288048
78.88439751969163
76.62919389978212
75.6873949579832
75.98655462184874
76.90592334494774
76.90592334494774
76.02907605430734
74.25302283922973
73.09717868338558
73.97402597402598
74.25302283922973
74.5320197044335
73.94065757818765
74.81750486882805
76.31456121870188
76.90592334494774
76.60676368108219
75.98655462184874
76.60676368108219
78.51532659992061
80.82701491160893
81.47823442380404
80.17519949929587
77.27214906136172
76.00072048993314
75.69435215946844
76.592082616179
76.00072048993314
75.12387319929276
74.2261427425822
74.81750486882805
73.99911406423033
72.63443223443223
70.67838827838827
72.67999470409107
75.9074672315636
78.80531012940651
78.49894179894179
76.92835356364768
76.29292295231345
76.9131320115469
76.91313201154689
75.17819225251075
73.12941176470588
73.73493975903614
76.1053101294065
77.84024988844264
77.84024988844264
77.51866000587717
77.83250073464589
77.83250073464589
77.51866000587715
78.5078542016166
79.14328481295081
79.45712554171955
78.15409061721138
77.83250073464589
77.83250073464589
77.83250073464589
76.33544438477205
98.83211844242172
105.95871714492404
118.23457921388955
94.24084880636605
86.21651964715316
75.4377139280615
77.58598979013044
79.11915085817523
79.44074074074072
80.48100048100048
83.77729677729677
81.67965367965367
79.67433369843008
75.74260679079956
78.16987951807228
78.16987951807228
77.86351118760757
76.29292295231345
75.98655462184874
75.10970733120834
74.5320197044335
75.15222876366695
77.9851200103513
81.53865903031499
82.87449392712551
81.22481830154626
78.2489669083574
75.1370787964693
75.45091952523802
76.69187813090251
77.54856262288112
76.62919389978212
74.8105476673428
76.05150627300728
77.29246487867177
78.47568049977687
79.14328481295081
76.77291444258044
78.77823442380404
79.12487512487513
80.55344655344655
77.9425985778927
74.83071046600458
75.1370787964693
76.37803740213377
77.84024988844264
77.53388155797794
76.8984509466437
76.00072048993314
75.4093583636873
75.72319909245604
77.25636016050082
77.84772228674667
76.63615110126737
76.31456121870188
78.27060517474584
81.53865903031499
82.18987854251012
80.23383458646616
76.4012987012987
74.83071046600458
74.53155080213904
74.25882352941176
72.3468030690537
70.95072463768116
70.95072463768116
72.57054263565891
74.265780730897
76.965780730897
78.82857142857142
79.44878048780487
78.1773519163763
76.02907605430734
75.10970733120834
74.5183452049625
74.80383036935704
73.94714587737843
72.84326990838618
72.0060606060606
71.73333333333332
72.83720930232558
73.96662106703145
75.7015608260676
77.2347218941124
77.84024988844264
77.23472189411238
74.86435152374202
73.96662106703145
74.265780730897
75.10299003322258
75.69435215946844
76.31456121870188
77.84772228674667
77.84772228674667
78.16931216931216
78.8369164824861
79.45712554171955
79.45712554171955
79.45712554171955
81.51360821180941
82.52785322605442
83.59514170040485
82.52785322605442
79.14323784143903
74.00571661902818
69.69114619080301
69.96387346353029
70.99613152804642
72.0060606060606
71.73333333333332
72.28505747126437
73.10344827586206
73.37617554858934
73.66166071298389
74.844876334089
76.30708882039787
77.20481927710843
76.59929128277817
75.7015608260676
75.7015608260676
76.62092954916659
77.51866000587715
77.51866000587715
77.20481927710843
77.84024988844266
78.80531012940651
80.10834505391466
81.1225900681597
82.52785322605442
83.23013828276986
83.5857826384142
82.18051948051948
79.86883116883116
77.25798319327731
75.98655462184874
76.60676368108219
77.84772228674667
77.25636016050082
75.48030694542321
108.44326990838618
123.90794739851341
122.85261143013399
87.25261143013398
67.8919011082694
72.4147695441813
72.68143621084798
76.57746904258532
75.53720930232558
77.90757967269595
79.11915085817523
78.15409061721138
76.91313201154689
75.99376328844791
76.62919389978214
78.19978213507625
79.77037037037036
79.13493975903613
77.86351118760757
76.8984509466437
76.592082616179
77.21229167541244
76.90592334494774
75.75007918910357
73.43463203463202
72.0060606060606
72.86274509803921
73.40213903743314
74.83071046600458
74.25302283922973
75.4088669950739
76.68029556650245
79.16654611211573
80.10834505391466
78.53775681862055
76.33699143740182
75.39519249560288
76.63615110126737
77.84772228674667
77.25636016050082
74.35851726265793
71.27747871033692
70.44026940801135
71.80495123780945
73.38893344025661
73.12226677358994
72.55778474399163
72.27878787878787
73.09717868338558
74.55939116969445
76.98666389696717
78.16987951807228
77.56435152374202
75.99376328844791
75.6873949579832
75.10970733120834
73.71362889983578
72.55778474399163
73.13547237076648
75.1370787964693
75.99376328844791
75.99376328844791
76.62919389978214
78.53775681862055
79.45712554171955
78.51532659992061
77.84772228674667
79.90420495683654
83.73590750086784
88.32205886962791
91.1733174508636
88.95101816180517
84.69449642267473
79.78675517134917
79.11915085817523
80.52441401606998
81.1756335282651
79.9346749226006
76.95882352941176
74.53155080213904
73.13547237076648
74.05484109386548
74.33383795906924
74.60050462573591
72.8244514106583
73.40213903743314
75.45091952523802
76.30760401721663
76.30760401721663
75.38823529411765
75.6873949579832
77.25798319327731
79.51318681318682
81.82487512487512
81.17365561268
79.21761165663605
76.60676368108219
75.39519249560288
75.09603283173735
73.43914853955893
71.56968117271722
68.69026940801135
68.95107526881719
65.57966360856268
76.70466360856268
76.44385774775682
81.3992516104585
72.86146091278408
74.5183452049625
74.80383036935704
75.39519249560288
76.63615110126737
78.8369164824861
80.44631973745898
81.11392405063292
79.20536113179449
75.90071978158352
72.86274509803921
72.0060606060606
73.40213903743314
75.45091952523802
78.56280763712614
80.13339587242027
79.81955514365153
77.56435152374202
76.29292295231346
75.98655462184874
77.89511754068717
78.51532659992061
77.08675517134918
72.77218474312403
69.94079555966698
69.41332303219444
71.81933054158118
73.73135100193923
76.95882352941176
79.21402714932127
81.46923076923076
82.15384615384616
80.81801125703565
77.43339587242026
74.32150776053214
73.10993657505284
74.23934833975873
77.00459575057576
77.29679821295606
75.13512838373406
73.22656546489563
75.8374134404495
80.25428688958101
83.23013828276986
83.59514170040485
83.59514170040485
83.59514170040485
82.52785322605442
80.87817760047518
75.74065637806432
70.49860006186694
67.0136603028308
67.77925170068026
69.71666666666665
70.68405797101448
70.16811594202898
70.16811594202898
71.78793394000674
73.99911406423034
73.99911406423033
73.16190476190476
72.57054263565891
75.87518398586988
80.35518398586987
84.38283954840917
85.0851246051246
82.03369603369603
77.16883116883116
74.265780730897
74.88598979013045
77.25636016050082
75.38689279365911
77.07837204611397
76.13657310431503
78.5974025974026
77.55714285714285
79.51318681318682
82.56461538461538
85.12488935721812
87.00054794520547
86.6258111031002
82.7941085590689
78.66324635117205
76.29292295231345
77.2347218941124
79.48992551402189
81.13960113960114
79.60644007155635
74.0177430542879
68.2088852454301
67.10500927643784
70.73766233766233
75.86190476190475
78.1773519163763
79.44878048780487
80.8540436456996
83.28526315789472
84.69052631578947
84.69052631578947
82.58089668615983
79.02735766619614
75.75930381062697
73.94065757818765
72.60632474460445
78.28340115656457
96.45167701863353
114.31120879120877
109.2254945054945
94.9854945054945
84.42285714285714
89.95080745341613
90.73108142601887
85.6453671403046
77.65658733665803
70.88052389037108
68.1753567171188
70.33702654634081
75.23743140464042
79.89864253393665
79.3209549071618
74.90408145803029
69.09522364917248
66.11925708699903
66.36890645586298
69.63035818243098
72.0546006066734
71.56061355764473
69.44680851063829
69.18014184397163
68.70673758865247
68.23333333333332
67.22340425531914
68.19079555966698
70.77800486199256
72.89180990899898
73.94714587737843
72.84326990838618
71.22345191040843
71.22345191040843
71.4901185770751
72.8244514106583
73.68113590263691
75.72991639044179
79.28345541040548
77.62657111822708
76.12951476835323
72.29697888318577
73.37617554858934
72.8244514106583
72.28505747126437
71.46666666666665
72.01839080459769
72.8367816091954
73.10344827586206
73.10344827586206
73.38893344025661
75.75930381062699
77.57795004306631
78.16931216931216
76.35066593687283
74.5320197044335
74.53201970443351
75.4088669950739
77.22751322751323
78.8369164824861
81.51360821180941
83.24850099933377
84.69052631578947
85.4501280227596
85.0851246051246
83.3051246051246
79.86883116883116
77.86351118760757
77.86351118760757
80.91493975903614
80.60857142857142
77.90857142857143
73.42857142857143
73.12941176470588
75.82941176470587
79.56967150496561
79.56967150496561
76.60300483829894
71.34695562435499
68.94094811496825
70.0448240839605
74.59858824118903
78.57518398586987
79.47291444258045
78.48372024684102
76.91313201154689
97.61297486120641
104.42573283493999
116.12390727713067
92.65686660391889
83.26785561490789
70.17360274134467
72.63443223443223
74.8968445209409
77.53388155797794
79.14328481295081
80.10834505391466
81.1225900681597
81.1225900681597
79.55200183286557
75.38477775259801
72.3468030690537
65.1669711362806
75.85434173669466
76.69155103902024
81.46537546240663
70.04482408396052
67.69182530795072
68.96842105263157
71.91278195488721
74.265780730897
74.53850800362427
73.10993657505284
72.8244514106583
73.38893344025661
74.5183452049625
74.23934833975873
72.87466650996062
72.29697888318577
73.15366337516438
74.5183452049625
91.84897400820793
118.81712321911179
118.81712321911179
102.66971003697147
76.30708882039787
76.02160365600332
74.28666389696718
72.55172413793103
72.83720930232558
73.96662106703145
74.80383036935704
75.39519249560288
76.31456121870188
76.90592334494774
75.4773519163763
72.90109890109889
71.47252747252747
72.30973677485305
73.10993657505284
73.66166071298389
73.66166071298389
74.81750486882805
77.6503961155124
79.85116149673112
81.1225900681597
79.47291444258045
78.80531012940651
78.15409061721138
78.15409061721138
77.51866000587715
77.51866000587717
77.83250073464589
79.13553565915406
79.13553565915406
77.63847930928021
74.87323189846317
72.55778474399163
73.13547237076648
74.29131652661064
76.92835356364768
78.16931216931216
79.77871542428504
80.79296043853006
81.1225900681597
80.45498575498576
78.80531012940651
78.15409061721138
79.88898340473574
83.82071031236627
88.2862155388471
89.04581724581723
87.85915057915057
85.4501280227596
82.6340436456996
78.99125294802519
77.25636016050082
78.94783941295569
83.37090408323284
85.86539857772735
83.86007859650374
80.02837605247244
76.8984509466437
77.21229167541244
79.1683356314564
82.29826073728512
83.98973998973999
82.65390509292948
78.9184519927705
75.72991639044179
74.5183452049625
74.5183452049625
76.01540155483633
76.91313201154689
75.78372024684101
73.20746723156361
69.4931460292285
68.46088796471237
68.20575179653272
69.40252454417953
70.16811594202898
70.68405797101448
72.30387596899223
73.99911406423034
75.39519249560288
75.39519249560288
75.09603283173735
75.7015608260676
77.2347218941124
77.84024988844264
76.94251943173208
75.4093583636873
74.80383036935704
76.33699143740182
77.23472189411238
76.94251943173208
74.57214906136173
73.38893344025661
73.68113590263691
75.41607566167306
75.41607566167306
74.55939116969445
74.25302283922974
75.75007918910357
77.84772228674667
78.15409061721138
77.84024988844264
76.89845094664372
77.21229167541244
77.84772228674667
78.46793134598012
77.25636016050082
76.62092954916659
76.62092954916659
79.1683356314564
80.47137055596457
79.55200183286557
77.00459575057576
75.39519249560288
76.00072048993314
78.9037709278673
81.21545923955563
81.85088985088984
79.53920153920154
76.07166907166906
74.53850800362427
75.15871706285773
76.01540155483633
75.45091952523802
71.88634956374894
68.55285616639
67.7526563661902
70.10565514219998
72.86146091278408
72.60632474460445
70.98650674662669
70.70750988142292
72.61953034178097
71.88634956374894
69.63424084772271
68.77755635574408
71.72191725799973
75.43623846033483
75.16351118760757
73.46827309236946
71.2058608058608
72.04307010818637
73.14694607717863
74.80383036935704
75.39519249560288
75.68739495798319
76.92835356364768
78.53775681862055
79.14328481295081
78.20148587115187
76.592082616179
77.22751322751323
79.18355718355718
80.79296043853006
79.55200183286557
76.44011372097745
74.83071046600458
75.75007918910357
76.02907605430734
74.60050462573591
73.10344827586206
73.98029556650246
76.02907605430734
78.51532659992061
79.13553565915406
78.51532659992061
76.60676368108219
75.98655462184874
76.60676368108219
78.51532659992061
79.78675517134917
79.78675517134917
78.48372024684102
77.83250073464589
78.82169493038532
80.47137055596457
82.16284980841942
80.85981488391127
77.47519949929588
72.70268169452001
68.98836049218491
68.98836049218491
70.57234269463207
73.38893344025661
75.12387319929276
77.61012374490602
77.90232620728632
77.29679821295606
75.99376328844791
77.90232620728634
79.47291444258045
80.10834505391466
78.80531012940651
77.53388155797794
77.53388155797794
78.49894179894179
78.19978213507625
75.82941176470588
72.60193923723335
70.94505494505493
71.2177822177822
72.58246404758032
75.80993657505284
77.90757967269595
77.90757967269595
74.17532160817981
71.27747871033691
69.16367366333048
70.19593172784661
72.45834401435529
74.57214906136171
76.30708882039787
75.4093583636873
75.7015608260676
76.33699143740182
79.24004187533598
81.14860479417442
79.61544372612963
75.87518398586988
72.83720930232558
73.12941176470588
73.40213903743314
72.36988097291703
70.20821114369501
70.48720800889878
72.94803750198633
76.02907605430734
78.51532659992061
80.47137055596457
82.16284980841942
81.82487512487512
78.99198387819077
74.46911544227886
70.98650674662669
69.90731008122313
68.93991877687529
69.19505494505493
69.4558608058608
71.47858807858806
73.74100036509674
76.05644751956828
76.05644751956828
73.79403523305962
71.74525474525474
73.20746723156361
76.43493975903613
76.98666389696717
73.73593466424683
69.28593466424682
67.9516018306636
71.8377616747182
75.32270143375433
77.23472189411238
74.59768485707535
71.83048703352308
70.70107526881719
71.24046920821114
72.54545454545453
72.81818181818181
74.28039430449068
74.844876334089
76.62092954916659
77.58598979013044
80.13339587242027
80.45498575498576
77.75498575498575
74.1037037037037
71.73333333333332
74.43333333333332
79.17999999999999
84.04486486486485
84.38283954840917
81.3314109769806
76.46654611211574
73.42857142857143
72.55172413793103
72.8244514106583
72.8244514106583
72.54545454545453
73.40213903743314
74.53155080213904
75.38823529411765
74.8105476673428
76.38113590263691
78.99198387819078
82.18051948051948
81.52929996832435
79.52397998710076
77.83250073464589
78.82169493038532
79.45712554171955
78.8369164824861
79.18355718355718
78.54812657222296
79.81955514365151
84.31553677396151
88.24726368159205
93.9109000452284
95.40530303030303
99.11363636363636
96.01027397260273
88.06384540117416
80.4237851602103
78.54812657222296
79.1683356314564
80.81801125703565
78.27060517474584
76.773548824872
73.38893344025661
72.8244514106583
73.40213903743314
74.83071046600458
75.98655462184874
74.59047619047618
72.37929606625258
69.43493516399694
68.42500608598276
69.20761478163493
72.77218474312403
76.74878048780488
79.11915085817523
79.11915085817523
78.15409061721138
76.91313201154689
76.9131320115469
78.56280763712614
81.53865903031499
85.15654520917678
87.85643686681492
88.61603857378505
86.33398729173376
82.61985061985061
80.79296043853006
81.88834505391466
84.77824865614704
87.00054794520547
86.6258111031002
84.40351181404178
81.84323784143903
80.4379746835443
81.14025974025972
80.8106301106301
80.48100048100048
77.87015250544661
74.46752407056012
75.8374134404495
77.74597635928791
76.57415279115098
77.6987579157561
78.04539861682719
83.98973998973999
83.60487512487512
82.92025974025972
78.39739130434782
70.85856777493606
65.954486142283
65.70483677341903
68.49699363616413
70.97380254154447
73.13547237076648
75.77250940780351
78.19978213507625
78.80531012940651
77.86351118760757
76.29292295231345
77.25798319327731
79.9346749226006
84.47192982456139
88.2862155388471
86.22973286875725
82.61184668989546
80.20282413350449
79.58261507427105
75.10959216222375
67.7421930819989
65.28136358891135
69.4405457721899
75.07305206489038
79.14328481295081
79.77871542428504
79.45712554171955
76.15248419150856
83.68687572590011
113.8486215538847
126.94287442744792
126.94287442744792
96.78112859946333
87.33815777718216
79.80376624279063
80.45498575498576
77.90757967269595
76.08893344025661
74.2261427425822
76.08893344025661
76.96578073089701
77.55714285714285
75.4088669950739
73.98029556650246
73.68113590263691
75.49978213507625
77.23472189411238
76.94251943173208
74.57214906136173
73.38893344025661
73.98029556650246
77.01827025004677
78.51532659992061
78.21616693605506
76.60676368108219
76.92835356364768
78.49894179894179
78.49894179894179
77.25798319327731
76.29292295231345
76.9131320115469
77.21229167541244
76.90592334494774
76.90592334494774
78.51532659992061
78.82169493038532
77.61012374490602
75.12387319929276
74.81750486882805
76.68029556650245
78.1773519163763
78.48372024684102
77.21229167541244
77.53388155797794
77.84772228674667
77.54856262288112
76.30760401721663
76.30760401721665
78.91845199277049
83.04931420066735
86.66720037952913
86.31155602388479
83.75128205128205
79.81955514365153
78.48372024684102
79.1683356314564
80.13339587242027
79.21402714932127
76.95882352941176
75.99376328844791
77.56435152374202
79.81955514365153
80.45498575498576
80.12535612535612
79.1111111111111
79.44074074074072
80.8106301106301
81.47823442380404
81.47823442380404
81.1225900681597
81.46923076923076
82.15384615384616
82.87449392712551
83.59514170040485
84.69052631578947
84.32552289815447
83.60487512487512
81.49524549524548
80.79296043853006
80.79296043853006
82.16284980841942
80.85981488391127
77.74792677202315
74.28039430449068
73.67486631016043
75.77250940780351
78.19978213507625
80.10834505391466
80.10834505391466
77.9600691918457
75.19482178102866
73.37617554858934
73.95386317536419
76.71911058618122
79.55200183286557
80.47137055596457
78.8619673009917
78.1773519163763
80.60857142857142
85.6942857142857
90.40605042016806
91.1863243927708
88.05665406310047
84.75015251511286
82.18987854251012
79.9346749226006
76.95882352941176
74.8105476673428
74.8105476673428
76.05150627300728
76.62919389978212
76.62919389978212
73.99215686274509
73.41446923597024
74.33383795906924
74.87323189846317
74.32150776053214
72.27272727272727
72.83720930232558
74.57214906136171
75.4093583636873
75.12387319929276
73.66166071298389
72.29697888318577
72.017982017982
73.17382617382617
75.12987012987013
75.4088669950739
73.19768687085029
70.73685737776273
69.65766071235916
70.44026940801135
71.47252747252747
72.0
71.73333333333332
72.28505747126437
73.41446923597024
74.23286004056796
74.23286004056796
73.10344827586206
72.55172413793103
73.42857142857143
74.85714285714286
75.69435215946844
75.10299003322258
75.72319909245604
77.92396447367476
80.82701491160893
81.81620910734836
80.82701491160893
78.21616693605506
76.30760401721663
76.62919389978214
79.24004187533598
82.5906301106301
84.70025974025972
84.70025974025972
83.96051948051948
83.5857826384142
84.71038776301933
85.4501280227596
85.4501280227596
83.62323784143904
82.18121252498335
80.7759493670886
81.1225900681597
80.78461538461538
80.13339587242027
79.11915085817523
78.78952122854561
80.12535612535612
81.13960113960114
81.13960113960114
80.45498575498576
79.77037037037036
79.44878048780487
80.48904022806461
83.04931420066735
85.10579687075722
83.73590750086784
79.02735766619614
74.39462198082887
71.75758494379184
71.2058608058608
72.57054263565891
73.67441860465115
73.94714587737843
73.10993657505284
74.0076670317634
76.43493975903613
77.86351118760757
76.68029556650247
74.5320197044335
74.53201970443351
76.02907605430734
77.21229167541244
77.51866000587715
76.89845094664372
77.53388155797794
78.49894179894179
79.77037037037036
78.52941176470587
76.66662106703146
74.23934833975873
73.94714587737843
75.15871706285773
76.62092954916659
77.83250073464589
77.21229167541244
77.84772228674667
79.18355718355718
80.45498575498576
79.21402714932127
76.10213903743315
72.87466650996062
72.58246404758032
73.73830820342448
74.81750486882804
75.4088669950739
75.7152353255386
78.20148587115187
80.51317418284017
81.14860479417442
80.15941059843499
77.84772228674667
76.90592334494774
76.90592334494774
77.52613240418118
76.93477027793533
75.72319909245603
75.4093583636873
76.94251943173208
79.48992551402189
81.13960113960114
82.50949050949052
81.82487512487512
80.48904022806461
79.11915085817523
78.78952122854561
80.12535612535612
81.86024891288048
82.87449392712551
81.86024891288048
80.45498575498576
78.80531012940651
79.13493975903614
79.47291444258045
81.1225900681597
80.79296043853006
80.45498575498576
79.77037037037036
80.1
80.78461538461538
81.46923076923076
81.80720545277508
80.47137055596457
81.56675517134917
84.61328753005839
89.52102878138395
91.12553582363748
88.78128852164369
85.93002994040799
84.32552289815447
84.32552289815447
82.92025974025972
78.712987012987
74.1901185770751
71.22345191040841
71.78793394000674
74.94091300602928
78.94783941295569
80.48100048100048
80.15941059843499
79.11915085817523
81.22878048780487
82.2179746835443
81.56675517134917
79.13553565915406
78.79756097560974
80.13339587242027
81.1225900681597
80.79296043853006
78.53775681862055
76.05150627300728
74.23286004056796
75.15222876366695
77.63847930928021
79.45712554171955
79.14328481295081
77.84024988844264
76.30708882039787
76.62092954916659
77.58598979013044
79.44878048780487
78.82857142857142
75.86190476190475
73.16190476190476
71.73333333333332
72.0
72.55172413793103
72.8244514106583
72.8244514106583
73.7012987012987
76.12857142857143
79.16654611211573
80.7759493670886
79.81088912612475
77.32463858051148
73.75919136949464
70.99199354594238
70.44026940801135
73.66774193548386
78.08461538461538
80.13339587242027
78.8619673009917
76.60676368108219
76.60676368108219
78.21616693605506
79.13553565915406
77.63847930928021
74.87323189846317
73.37617554858934
74.55939116969445
77.32463858051148
79.14328481295081
78.53775681862055
75.49978213507625
73.12941176470588
73.42857142857143
75.7989417989418
81.05921577154453
111.84117065876256
122.29838649528875
113.57657406114755
89.24664476028346
78.78942892375727
83.67953881386717
76.35066593687283
74.25302283922973
75.19482178102868
78.38335738335738
82.5906301106301
83.96051948051948
82.5906301106301
79.53920153920154
77.22751322751323
77.22751322751323
79.53920153920154
81.49524549524548
80.85981488391127
78.85449490268766
77.84024988844266
80.21057328730123
81.51360821180941
82.88349758169878
82.88349758169878
83.5857826384142
83.5857826384142
84.74079345312221
86.66720037952913
87.79180550413426
87.01153153153152
85.4501280227596
84.32552289815447
81.89430338595935
79.52397998710076
76.62092954916659
75.7015608260676
76.33699143740182
80.76005610767898
83.73590750086782
85.10579687075722
82.21589326852484
81.49524549524548
82.61985061985061
86.33398729173376
88.61603857378505
85.79995419672505
78.93283845881936
72.23391372763658
69.91846657316503
72.43601502785334
77.2085328326292
82.73547347189862
87.95705545199291
90.73108142601887
91.1374741200828
89.04581724581723
88.19819819819818
86.63679468942627
82.04465709728866
75.10139468594116
69.24613152804642
68.70673758865247
71.71827309236947
77.2085328326292
81.21545923955563
83.5857826384142
82.54552289815447
80.54020291693087
77.86351118760757
77.53388155797794
78.49894179894179
78.80531012940651
77.56435152374202
74.86435152374202
74.25882352941176
75.49978213507625
76.92835356364768
78.16931216931216
77.22751322751323
78.16931216931216
78.8369164824861
79.77871542428504
79.45712554171955
78.15409061721138
77.51866000587715
78.16987951807228
79.13493975903614
79.77037037037036
78.19978213507625
77.23472189411238
76.9131320115469
77.21229167541244
75.75007918910357
73.43463203463202
72.55778474399163
74.0199972303005
75.7152353255386
76.00072048993314
74.265780730897
73.38893344025661
72.55172413793103
72.28505747126437
71.46666666666665
71.46666666666665
73.16190476190476
75.4773519163763
77.21229167541244
76.62092954916659
74.57214906136173
73.67441860465115
74.57214906136171
76.00072048993314
76.29292295231345
75.39519249560288
74.23934833975873
74.53850800362429
76.07166907166906
79.18355718355718
80.45498575498576
79.51318681318682
76.96578073089701
73.99911406423033
73.40775193798449
73.69995440036479
74.5183452049625
74.23286004056796
73.37617554858934
73.37617554858934
74.25302283922974
75.4088669950739
75.98655462184874
74.29131652661064
72.86274509803921
71.73333333333332
72.27272727272727
73.7012987012987
75.75007918910357
76.60676368108219
76.01540155483633
74.80383036935704
75.4093583636873
76.30708882039787
77.20481927710843
78.85449490268766
81.9844200085164
86.33398729173376
88.20964587972112
88.20964587972111
86.99000370233247
86.20972972972973
85.82486486486485
83.9979746835443
80.94654611211573
76.739273384843
74.53850800362427
74.53850800362429
76.965780730897
79.86883116883116
81.82487512487512
82.16284980841942
81.1225900681597
80.10834505391466
79.77037037037036
80.10834505391466
80.7759493670886
80.12472985489349
78.82169493038532
76.91313201154689
76.9131320115469
78.21616693605506
80.12472985489349
80.7759493670886
79.16654611211573
76.68029556650247
74.25302283922973
73.37617554858934
73.95386317536419
75.41607566167306
76.29292295231346
76.00072048993314
74.81750486882804
73.66166071298389
72.29697888318577
71.74525474525474
72.30973677485305
74.88598979013045
77.58598979013044
79.11915085817523
78.80531012940651
77.23472189411238
75.7015608260676
75.39519249560288
76.31456121870188
77.52613240418118
77.22697274031563
76.01540155483633
74.5183452049625
74.81750486882805
76.35066593687283
78.16931216931216
78.47568049977687
77.23472189411238
76.29292295231346
76.60676368108219
78.51532659992061
80.47137055596457
80.79296043853006
79.18355718355718
75.7989417989418
73.42857142857143
71.47252747252747
71.2058608058608
72.63443223443223
75.86190476190475
79.86883116883116
81.82487512487512
81.82487512487512
79.81955514365153
77.27214906136172
75.12387319929276
73.38893344025661
72.28505747126437
72.28505747126437
72.8367816091954
73.65517241379311
73.65517241379311
73.65517241379311
74.53201970443351
76.35066593687283
78.16931216931216
78.78952122854561
78.15409061721138
77.21229167541244
76.592082616179
76.90592334494774
77.52613240418118
77.52613240418118
76.60676368108219
75.68739495798319
75.99376328844791
77.56435152374202
78.48372024684102
78.1773519163763
76.90592334494774
75.98655462184874
75.68739495798319
75.99376328844791
75.99376328844791
75.41607566167306
74.23286004056796
74.23286004056796
75.41607566167306
76.59929128277817
76.59929128277817
75.7015608260676
75.7015608260676
76.62092954916659
77.21229167541244
76.31456121870188
74.53850800362427
72.84326990838618
73.43463203463203
75.53227513227512
78.16931216931216
78.78952122854561
78.46793134598012
78.14634146341463
79.48217636022514
80.13339587242027
79.81955514365153
77.56435152374202
76.29292295231346
76.60676368108219
77.84772228674667
78.78952122854561
78.47568049977687
77.23472189411238
76.9131320115469
78.21616693605506
80.12472985489349
80.44631973745898
79.77871542428504
79.44074074074072
80.10834505391466
81.1225900681597
80.15752982719583
77.9567644459771
74.844876334089
72.58246404758032
72.017982017982
72.29697888318577
74.25302283922974
75.4088669950739
76.592082616179
76.29292295231345
75.7015608260676
74.80383036935704
73.94714587737843
73.10993657505284
73.10993657505284
73.96662106703145
73.96662106703147
72.60193923723335
70.68991877687529
70.96264604960257
72.91869000564652
74.25302283922973
73.71362889983578
72.28505747126437
72.28505747126437
74.28666389696717
76.33544438477205
77.21229167541244
77.21229167541244
77.21229167541244
78.82169493038532
79.13553565915406
78.51532659992061
76.31456121870188
75.10299003322258
75.1029900332226
77.6503961155124
79.18355718355718
79.80376624279063
77.84772228674667
77.52613240418118
78.51532659992061
80.47137055596457
80.47137055596457
78.27060517474584
75.72319909245603
74.80383036935704
75.39519249560288
75.98655462184874
74.85714285714286
73.42857142857143
71.47252747252747
72.60193923723335
73.43914853955893
74.23934833975873
73.10993657505284
72.54545454545453
74.0076670317634
76.7076670317634
78.16987951807228
77.56435152374202
75.41607566167306
74.5183452049625
75.12387319929276
75.12387319929276
74.83838803489822
73.37617554858934
74.55939116969445
76.05644751956828
76.91313201154689
75.45091952523802
73.95386317536419
73.37617554858934
73.94065757818765
73.12226677358994
71.29394689097805
68.70673758865247
68.44593172784661
71.15109890109889
74.63603866013504
76.00072048993314
74.844876334089
72.32732787940068
70.96264604960257
71.24164291480633
73.45282303902994
76.35066593687283
77.53388155797794
76.37803740213377
74.28039430449068
73.67486631016043
75.45091952523802
77.22697274031563
76.93477027793533
75.43771392806148
74.2261427425822
74.5183452049625
75.39519249560288
75.39519249560288
75.39519249560288
73.96662106703147
75.17819225251075
76.09756097560975
78.14634146341463
78.79756097560974
79.11915085817523
80.10834505391466
80.79296043853006
82.52785322605442
82.52785322605442
81.19201832924392
78.51532659992061
76.02907605430734
75.4088669950739
76.35066593687283
77.53388155797794
76.94251943173208
75.7015608260676
75.7015608260676
77.56435152374202
80.17519949929587
82.18051948051948
83.5857826384142
83.23013828276986
83.23013828276986
84.38514909747786
86.66720037952913
86.66720037952913
83.45570689473128
78.6262495303902
76.01540155483633
74.23934833975873
73.95386317536419
75.19482178102868
77.29246487867177
77.87015250544661
75.77250940780351
72.87466650996062
71.74525474525474
73.20746723156361
74.86435152374202
75.41607566167306
74.23286004056796
73.65517241379311
73.65517241379311
74.23286004056796
75.41607566167306
76.9131320115469
78.82169493038532
80.47137055596457
81.80720545277508
79.89864253393665
75.7314184536691
71.07020732437286
68.66419981498612
69.99853264856932
72.70369982182162
75.4088669950739
76.28571428571429
75.4088669950739
74.5320197044335
73.94065757818765
76.42690812380093
78.57518398586987
79.78675517134917
78.1773519163763
77.52613240418118
78.51532659992061
79.13553565915406
77.92396447367476
74.88598979013045
73.38893344025661
74.60050462573591
76.33544438477205
77.21229167541244
76.00072048993314
76.31456121870188
78.6262495303902
81.17365561268
81.82487512487512
79.51318681318682
76.68029556650247
75.10970733120834
74.8105476673428
75.99376328844791
77.56435152374202
80.17519949929587
80.48904022806461
78.9184519927705
74.65071972503821
72.87466650996062
73.79403523305962
75.45091952523802
75.45091952523802
74.23934833975873
74.53850800362429
76.965780730897
77.25798319327731
75.82941176470588
73.40213903743314
74.32150776053214
78.06176750079189
81.52929996832435
81.52929996832435
77.26156770059208
71.54192651703337
68.71053733357633
69.7897339989799
71.24164291480633
71.49677908298597
70.67838827838827
70.93919413919411
72.01839080459769
74.0199972303005
76.02160365600332
76.89845094664372
75.43623846033483
74.53850800362427
74.844876334089
77.27214906136172
78.48372024684102
77.87819225251076
74.65071972503821
72.87466650996062
74.11562511562511
76.69187813090251
77.84772228674667
75.4773519163763
73.42857142857143
71.21739130434783
71.4901185770751
72.32732787940067
72.58246404758032
71.27747871033692
69.40801134349522
70.77269317329332
73.85373172561432
77.92396447367476
79.78675517134917
79.78675517134917
78.48372024684102
77.21229167541244
76.8984509466437
77.21229167541244
77.21229167541244
74.44509385186018
69.7563133640553
65.2689184060721
64.32179502728926
67.23452230001654
69.76587330195576
70.71299668073861
69.65766071235916
70.45786051255897
72.91869000564652
75.12987012987013
76.28571428571429
76.28571428571429
77.22751322751323
78.49894179894179
79.77037037037036
80.1
78.23720930232557
75.80993657505284
73.38266384778012
73.09717868338558
74.87323189846319
76.64928511354078
76.93477027793533
75.15871706285772
73.10993657505284
72.0060606060606
72.28505747126437
74.0199972303005
75.12387319929276
75.4093583636873
73.94714587737843
74.23934833975873
75.77250940780351
77.87015250544661
78.78952122854561
78.15409061721138
77.83250073464589
78.15409061721138
81.28401572304011
84.1001001001001
85.11434511434511
81.9844200085164
73.27049853987793
75.97039019751608
77.62006582309532
83.20406218590504
76.0872970791354
71.67042363000388
69.93548387096774
73.66774193548386
79.17999999999999
82.92025974025972
83.60487512487512
81.49524549524548
80.45498575498576
80.45498575498576
81.82487512487512
79.96208442720071
74.1532266183429
67.5614817295683
63.87278727872787
66.03036303630361
70.61678794385462
70.20613717003937
89.19280383670605
90.4958387612142
96.45797468354431
81.1225900681597
83.34488935721812
86.72939639947164
80.70478101485625
85.89611994547933
79.54494623655913
84.88494623655913
80.94761904761903
85.31954887218043
84.35448863121658
81.22481830154626
67.65016738854948
78.11861746002182
72.98400207540644
86.5586529884032
79.2201280227596
87.05463506501312
89.90589364624881
91.99755052051438
94.27667984189722
92.58043207536953
90.1039103362391
85.12488935721812
82.56461538461538
81.1225900681597
80.7759493670886
82.5559493670886
84.77824865614704
85.48053371286247
84.74079345312222
82.51849416406378
82.88349758169878
82.18121252498335
84.0081027063039
83.6430992886689
83.3051246051246
79.86883116883116
77.25798319327731
75.68739495798319
75.6873949579832
74.55798319327731
73.7012987012987
72.8244514106583
74.25302283922974
75.7152353255386
76.592082616179
76.592082616179
76.28571428571429
76.28571428571429
76.28571428571429
76.90592334494774
77.52613240418118
79.13553565915406
81.19201832924392
84.40351181404178
84.75015251511286
82.693669845023
78.56280763712614
75.45091952523802
74.53155080213904
75.45091952523802
76.30760401721663
76.30760401721663
76.95882352941176
78.86738644825019
79.78675517134917
78.82169493038532
76.33544438477205
75.41607566167306
75.72991639044179
76.60676368108219
76.90592334494774
76.90592334494774
77.84772228674667
79.80376624279063
80.12535612535612
79.48992551402189
76.94251943173208
76.30708882039787
77.27214906136172
77.86351118760757
78.1773519163763
77.52613240418118
78.79756097560974
79.78675517134917
78.57518398586988
76.42690812380091
74.5183452049625
75.72991639044179
79.28345541040548
82.6340436456996
83.62323784143904
80.06969882147534
75.32303215480866
72.55778474399163
74.05484109386548
76.69187813090251
76.97087499610628
73.88983644378527
70.99199354594236
70.44026940801135
72.30973677485305
74.265780730897
76.00072048993314
77.86351118760757
80.54020291693087
82.54552289815447
83.9507860560492
84.71038776301933
87.05463506501312
87.81423677198325
84.68431166615453
78.87253189662827
74.28039430449068
74.59423503325942
77.70612314514753
78.56280763712614
77.35123645164684
74.80383036935704
75.4093583636873
77.61012374490602
79.81088912612475
79.50452079566004
78.20148587115187
77.21229167541244
78.82169493038532
81.56675517134917
83.62323784143904
83.28526315789472
79.9346749226006
75.56274509803922
72.86274509803921
73.16190476190476
74.85714285714286
75.69435215946844
74.53850800362427
74.23934833975873
75.1370787964693
75.7015608260676
75.4093583636873
74.80383036935704
75.09603283173735
74.25882352941176
72.8627450980392
71.46666666666665
72.01839080459769
75.66967285587975
80.41633952254642
83.60487512487512
82.92025974025972
79.86883116883116
77.86351118760757
77.86351118760757
78.80531012940651
77.6220945083014
75.19482178102866
72.8244514106583
73.10993657505284
75.20757967269594
77.57795004306631
78.47568049977687
78.15409061721138
78.82169493038532
79.45712554171955
77.9600691918457
75.19482178102866
74.55939116969445
77.04564171530771
78.20148587115187
77.89511754068717
75.69435215946844
75.10299003322258
75.1029900332226
75.10299003322258
75.39519249560288
75.39519249560288
77.25798319327731
78.82857142857142
79.44878048780487
78.1773519163763
76.31456121870188
75.69435215946844
77.6503961155124
78.8619673009917
79.1683356314564
77.83250073464589
78.48372024684102
81.61364535266974
85.23153153153152
87.01153153153152
86.25192982456139
93.41284936479128
107.65284936479128
127.01425287356321
120.27117370892017
105.65643686681491
82.46249747287553
82.46249747287553
82.09749405524053
85.93002994040799
82.88349758169878
79.41596511416631
75.04403528960489
71.73939393939392
70.68405797101448
71.78793394000674
74.42497097704377
77.90757967269593
78.49894179894179
77.25798319327731
75.39519249560288
75.09603283173735
75.39519249560288
76.60676368108219
77.52613240418118
77.52613240418118
76.90592334494774
76.90592334494774
78.1773519163763
80.48904022806461
80.8106301106301
78.66235424856114
74.39462198082887
72.0242516104585
72.90109890109889
73.42857142857143
72.90109890109889
70.19593172784661
69.16367366333048
69.69114619080301
73.01652242328875
76.74878048780488
78.48372024684102
76.7076670317634
73.74100036509674
71.73939393939392
72.01839080459769
74.65542784163473
78.30670989291679
79.18355718355718
76.54652014652015
71.64611528822054
68.7017543859649
68.44094852515903
70.50846213677428
72.86146091278408
73.94065757818765
74.5183452049625
75.72991639044179
75.72991639044179
74.60050462573591
73.10344827586206
73.98029556650246
76.68029556650245
78.82857142857142
78.52941176470587
75.30193923723334
72.33527257056667
72.63443223443223
74.29131652661064
74.55798319327731
73.12941176470588
73.12941176470588
75.49978213507625
76.92835356364768
77.22751322751323
75.69435215946844
75.69435215946844
76.00072048993314
75.43623846033483
73.74100036509674
72.27878787878787
74.70606060606059
76.7076670317634
75.9074672315636
74.33687899626949
74.65071972503823
77.87819225251076
79.78675517134917
79.78675517134917
77.92396447367476
76.62092954916659
77.61012374490602
77.90232620728632
75.63991392077764
72.33527257056667
70.42325211020862
71.5024487756122
74.80709012582317
77.9600691918457
77.14167838724799
73.83703703703702
71.46666666666665
72.86274509803921
75.17819225251075
76.30760401721663
75.72991639044179
74.5183452049625
74.81750486882805
76.965780730897
78.1773519163763
78.48372024684102
76.91313201154689
74.86435152374202
72.09715370018975
71.80495123780945
72.93436300251533
73.43914853955893
71.32534349255249
68.21655028454765
67.22823333833597
67.97735655554428
69.17412930319108
70.96264604960257
72.04184271500613
73.09717868338558
71.54785566597745
69.48034205436221
68.6801422541624
71.08614976354913
74.03051066580478
75.39519249560288
75.10299003322258
74.80383036935704
73.96662106703147
73.68113590263691
73.38893344025661
74.5183452049625
76.66662106703146
79.56967150496561
80.48904022806461
78.6262495303902
75.15871706285772
74.23934833975873
75.1370787964693
77.2347218941124
76.65703426733754
74.9220945083014
73.98029556650246
75.4773519163763
77.21229167541244
76.33544438477205
74.55939116969445
74.87323189846319
78.06176750079189
81.89430338595935
82.54552289815447
79.9346749226006
76.95882352941176
75.99376328844791
74.86435152374202
71.53085812638307
67.15591836734694
66.88925170068026
69.93054263565891
74.61932312346379
76.93477027793533
79.13553565915406
81.56675517134917
83.9979746835443
86.62666666666667
86.25192982456139
83.50686958359753
78.39192705486191
74.0199972303005
73.12226677358994
73.40775193798449
74.2261427425822
73.38893344025661
73.68113590263691
76.16738644825018
76.44011372097745
76.44011372097745
74.83071046600458
76.29292295231345
77.86351118760757
80.17519949929587
82.18051948051948
82.51849416406378
80.82701491160893
79.78675517134917
79.44878048780487
80.78461538461538
80.45498575498576
78.30670989291679
75.19482178102866
73.95386317536419
75.45091952523802
77.54856262288112
78.46793134598012
77.84772228674667
77.21229167541244
78.20148587115187
79.47291444258045
78.57518398586988
76.37441860465115
74.80383036935704
76.01540155483633
77.22697274031563
76.93477027793533
73.85373172561432
71.53828457114278
71.83048703352308
75.56274509803922
79.9346749226006
83.28526315789472
82.32020291693087
77.6874672315636
71.93087148688275
69.92926506117993
71.0084617265835
71.5024487756122
69.12911544227886
67.30079555966697
68.08340425531915
70.19593172784661
70.94505494505493
71.49677908298597
73.45282303902994
77.01827025004677
78.8369164824861
79.45712554171955
77.54856262288112
77.22697274031563
100.85261085716192
125.3976176971072
123.62156448202958
95.74306424472536
67.42864564007421
66.12366030283081
67.80026940801133
70.44026940801135
65.88632057597574
77.43018654607123
77.98191068400226
85.30305733959013
76.02160365600332
78.16987951807228
80.54020291693087
83.28526315789472
85.84553713049746
86.60513883746759
86.99000370233247
86.59459459459458
85.46998946998946
82.03369603369603
77.44155844155844
74.25302283922973
75.19482178102868
68.01009450830139
68.88694179894179
78.7199612590799
85.90468853180717
85.90468853180717
76.739273384843
78.51532659992061
78.21616693605506
75.17819225251075
73.12941176470588
73.12941176470588
76.16738644825018
73.74314402400776
77.87400623190462
76.57097130739645
82.03318841518319
80.87817760047517
83.62323784143904
85.06526315789472
87.91652173913042
88.69679571173316
89.4770696843359
87.38541281007033
87.38541281007033
88.20964587972112
89.01144768152292
86.12154407929054
80.87424633936261
74.68010714522342
71.78226424738051
72.07446670976081
74.03051066580478
76.60676368108219
76.60676368108219
74.91152558584409
72.33527257056667
70.67838827838827
70.4175824175824
70.4175824175824
70.94505494505493
71.74525474525474
72.8244514106583
73.95386317536419
75.72991639044179
76.91313201154689
75.78372024684101
73.73493975903614
71.73333333333332
73.46827309236947
74.30548239469505
74.30548239469505
73.12226677358994
73.7136288998358
75.7152353255386
76.00072048993314
74.57214906136173
73.67441860465115
74.88598979013045
78.27060517474584
80.81801125703565
80.81801125703565
78.8619673009917
76.31456121870188
75.10299003322258
